Data from hue_80_FLMS001491_8.txt Node
Date: Mon Feb 06 15:22:22 GMT 2017
User: dcchb
Spectrometer: FLMS00149
Trigger mode: 0
Integration Time (sec): 2.000000E-2
Scans to average: 10
Electric dark correction enabled: true
Nonlinearity correction enabled: false
Boxcar width: 0
XAxis mode: Wavelengths
Number of Pixels in Spectrum: 2048
>>>>>Begin Spectral Data<<<<<
341.393	-21.02
341.776	-21.02
342.16	-21.02
342.543	-59.89
342.927	-70.28
343.31	-62.15
343.693	-59.66
344.077	-54.91
344.46	-76.16
344.843	-70.73
345.226	-63.95
345.61	-32.09
345.993	-7.68
346.376	3.39
346.759	2.71
347.142	25.76
347.525	44.74
347.908	64.18
348.291	86.33
348.674	82.94
349.057	117.29
349.44	131.3
349.823	133.78
350.206	178.75
350.588	221.01
350.971	211.97
351.354	214.68
351.737	239.77
352.119	247.9
352.502	261.69
352.884	285.19
353.267	277.28
353.65	275.7
354.032	295.36
354.414	307.11
354.797	329.48
355.179	319.09
355.562	317.28
355.944	318.86
356.326	337.17
356.709	330.39
357.091	351.4
357.473	351.4
357.855	342.36
358.238	352.76
358.62	324.51
359.002	335.13
359.384	352.08
359.766	368.13
360.148	346.43
360.53	347.34
360.912	340.78
361.294	344.62
361.676	343.95
362.057	325.87
362.439	331.52
362.821	338.07
363.203	338.97
363.584	335.58
363.966	335.13
364.348	323.38
364.729	318.18
365.111	325.87
365.493	326.32
365.874	326.09
366.256	321.12
366.637	332.19
367.019	303.49
367.4	333.1
367.781	310.73
368.163	323.83
368.544	319.09
368.925	323.38
369.306	327.45
369.688	326.77
370.069	322.03
370.45	330.84
370.831	315.92
371.212	331.74
371.593	304.17
371.974	302.36
372.355	314.79
372.736	341.46
373.117	317.51
373.498	301.24
373.879	301.69
374.26	339.65
374.641	316.15
375.021	332.65
375.402	319.99
375.783	316.15
376.163	303.95
376.544	304.17
376.925	329.93
377.305	327.22
377.686	350.27
378.066	328.13
378.447	340.78
378.827	357.73
379.208	341.69
379.588	318.86
379.968	317.28
380.349	345.75
380.729	343.27
381.109	337.39
381.489	350.5
381.87	351.63
382.25	329.48
382.63	344.4
383.01	328.58
383.39	334.68
383.77	351.4
384.15	350.27
384.53	345.98
384.91	335.36
385.29	362.7
385.67	350.95
386.049	357.96
386.429	360.67
386.809	339.43
387.189	339.2
387.568	349.82
387.948	364.06
388.328	353.21
388.707	385.07
389.087	356.15
389.466	375.36
389.846	357.28
390.225	376.71
390.605	372.19
390.984	348.24
391.363	356.6
391.743	344.17
392.122	362.25
392.501	370.16
392.881	392.76
393.26	375.36
393.639	375.36
394.018	398.18
394.397	382.36
394.776	369.48
395.155	378.07
395.534	391.63
395.913	394.11
396.292	376.71
396.671	389.14
397.05	374.68
397.429	406.99
397.808	378.75
398.186	378.97
398.565	397.05
398.944	388.24
399.323	408.58
399.701	392.98
400.08	398.63
400.458	410.84
400.837	380.1
401.215	398.86
401.594	418.97
401.972	421.91
402.351	429.82
402.729	394.34
403.107	402.7
403.486	409.71
403.864	430.95
404.242	420.55
404.62	417.62
404.999	415.58
405.377	408.58
405.755	415.81
406.133	408.58
406.511	437.28
406.889	432.08
407.267	448.35
407.645	417.39
408.023	429.82
408.401	417.16
408.779	435.24
409.156	454.9
409.534	450.84
409.912	420.78
410.29	436.37
410.667	488.8
411.045	438.18
411.422	431.85
411.8	450.38
412.178	433.89
412.555	456.26
412.933	458.07
413.31	465.98
413.687	463.49
414.065	452.42
414.442	496.94
414.819	486.99
415.197	468.69
415.574	467.33
415.951	468.69
416.328	490.38
416.705	501.23
417.082	508.69
417.46	484.73
417.837	521.79
418.214	490.38
418.591	512.53
418.967	479.08
419.344	509.59
419.721	517.05
420.098	517.95
420.475	529.93
420.852	517.5
421.228	550.95
421.605	536.94
421.982	518.86
422.358	550.27
422.735	513.66
423.111	547.78
423.488	545.52
423.864	557.95
424.241	566.54
424.617	567.22
424.994	568.12
425.37	560.21
425.746	575.58
426.123	580.55
426.499	577.84
426.875	565.63
427.251	585.97
427.627	566.09
428.003	573.54
428.379	582.13
428.756	610.61
429.132	593.43
429.507	593.43
429.883	600.44
430.259	621.45
430.635	617.61
431.011	612.64
431.387	647.21
431.763	630.27
432.138	621.45
432.514	665.07
432.89	666.65
433.265	664.62
433.641	654.45
434.016	658.74
434.392	684.5
434.767	686.08
435.143	673.43
435.518	686.54
435.894	674.33
436.269	703.48
436.644	700.32
437.02	702.58
437.395	684.73
437.77	699.64
438.145	716.14
438.52	724.95
438.895	734.67
439.271	748.45
439.646	743.94
440.021	744.39
440.395	733.31
440.77	761.34
441.145	744.61
441.52	758.17
441.895	766.76
442.27	755.46
442.645	793.2
443.019	792.75
443.394	787.1
443.769	799.75
444.143	804.05
444.518	807.44
444.892	797.95
445.267	800.2
445.641	803.82
446.016	824.16
446.39	829.36
446.764	831.62
447.139	813.31
447.513	845.85
447.887	856.02
448.262	847.21
448.636	847.21
449.01	865.29
449.384	865.74
449.758	866.87
450.132	864.61
450.506	888.11
450.88	863.03
451.254	901.45
451.628	873.2
452.002	927.21
452.376	913.87
452.75	940.99
453.123	932.4
453.497	957.04
453.871	943.7
454.244	977.6
454.618	975.57
454.992	937.6
455.365	984.38
455.739	998.17
456.112	1015.11
456.486	1014.21
456.859	1017.83
457.232	1043.36
457.606	1027.77
457.979	1081.33
458.352	1077.26
458.725	1086.3
459.099	1125.62
459.472	1107.09
459.845	1103.7
460.218	1128.11
460.591	1131.95
460.964	1138.5
461.337	1180.31
461.71	1174.43
462.083	1201.32
462.456	1200.87
462.829	1224.83
463.201	1237.26
463.574	1246.52
463.947	1263.7
464.32	1272.06
464.692	1315.22
465.065	1305.05
465.438	1339.85
465.81	1348.21
466.183	1370.13
466.555	1409.68
466.928	1415.33
467.3	1417.82
467.672	1436.35
468.045	1507.08
468.417	1483.12
468.789	1516.8
469.161	1511.82
469.534	1551.37
469.906	1615.78
470.278	1623.46
470.65	1634.53
471.022	1672.5
471.394	1706.85
471.766	1740.97
472.138	1779.39
472.51	1822.78
472.882	1829.56
473.253	1854.64
473.625	1900.52
473.997	1993.17
474.369	1956.56
474.74	2025.48
475.112	2099.61
475.484	2145.71
475.855	2183.9
476.227	2230
476.598	2286.27
476.97	2293.27
477.341	2406.04
477.713	2437
478.084	2506.6
478.455	2604.68
478.827	2639.93
479.198	2712.02
479.569	2767.16
479.94	2861.17
480.311	2909.98
480.682	3020.26
481.053	3105
481.424	3192.46
481.795	3273.59
482.166	3336.86
482.537	3437.42
482.908	3544.99
483.279	3615.5
483.65	3751.54
484.021	3831.99
484.391	3933.23
484.762	3995.83
485.133	4115.15
485.503	4216.16
485.874	4345.87
486.244	4450.96
486.615	4606.21
486.985	4709.03
487.356	4836.26
487.726	4927.55
488.097	5130.03
488.467	5215.23
488.837	5337.26
489.207	5495.22
489.578	5603.47
489.948	5725.73
490.318	5901.77
490.688	5937.47
491.058	6162.32
491.428	6307.4
491.798	6469.43
492.168	6562.54
492.538	6697.23
492.908	6803.66
493.278	7054.5
493.648	7114.39
494.017	7259.7
494.387	7408.62
494.757	7546.02
495.126	7678.22
495.496	7755.05
495.866	7930.19
496.235	8062.84
496.605	8240.91
496.974	8317.75
497.344	8460.79
497.713	8595.48
498.082	8657.17
498.452	8890.39
498.821	9032.98
499.19	9132.42
499.559	9220.32
499.928	9358.4
500.298	9458.51
500.667	9624.83
501.036	9664.6
501.405	9879.29
501.774	9928.78
502.143	10096.91
502.512	10121.54
502.88	10316.11
503.249	10321.99
503.618	10451.93
503.987	10599.95
504.356	10757.68
504.724	10873.39
505.093	10903.44
505.462	11037.68
505.83	11096.88
506.199	11206.03
506.567	11372.58
506.936	11408.51
507.304	11658.22
507.672	11681.95
508.041	11768.73
508.409	11863.87
508.777	11912
509.145	12086.69
509.514	12124.43
509.882	12265.21
510.25	12313.12
510.618	12372.56
510.986	12446.68
511.354	12624.75
511.722	12687.12
512.09	12852.54
512.458	12858.87
512.826	12965.31
513.193	12973.44
513.561	13103.16
513.929	13243.72
514.297	13346.77
514.664	13421.12
515.032	13478.74
515.4	13649.13
515.767	13639.19
516.135	13659.75
516.502	13659.3
516.869	13892.06
517.237	13977.26
517.604	13857.04
517.972	14099.29
518.339	14145.62
518.706	14170.47
519.073	14247.99
519.44	14237.14
519.808	14378.83
520.175	14376.12
520.542	14582.67
520.909	14643.46
521.276	14654.76
521.643	14686.85
522.009	14789.67
522.376	14884.13
522.743	15014.07
523.11	15101.07
523.477	15179.71
523.843	15223.33
524.21	15330.9
524.577	15377
524.943	15394.62
525.31	15491.8
525.676	15626.48
526.043	15696.54
526.409	15757.1
526.776	15826.25
527.142	15854.95
527.508	15894.95
527.874	16026.7
528.241	16048.62
528.607	16040.03
528.973	16151.21
529.339	16131.78
529.705	16156.19
530.071	16327.48
530.437	16267.82
530.803	16305.11
531.169	16422.17
531.535	16475.95
531.901	16432.11
532.267	16426.01
532.632	16527.7
532.998	16576.29
533.364	16564.99
533.73	16626
534.095	16696.06
534.461	16575.38
534.826	16717.75
535.192	16666.45
535.557	16851.53
535.923	16671.43
536.288	16695.38
536.653	16784.64
537.019	16688.6
537.384	16748.49
537.749	16763.85
538.114	16757.98
538.479	16751.2
538.845	16815.6
539.21	16743.74
539.575	16773.12
539.94	16776.96
540.305	16928.14
540.67	16806.11
541.034	16878.65
541.399	16925.88
541.764	16806.56
542.129	16936.05
542.494	16823.96
542.858	16832.55
543.223	16746.45
543.587	16821.25
543.952	16793.46
544.316	16748.03
544.681	16871.87
545.045	16846.56
545.41	16832.78
545.774	16806.34
546.138	16737.86
546.503	16691.09
546.867	16786.23
547.231	16789.39
547.595	16810.18
547.959	16844.53
548.324	16844.75
548.688	16781.48
549.052	16790.52
549.416	16781.03
549.779	16781.48
550.143	16699.67
550.507	16841.82
550.871	16790.74
551.235	16742.38
551.599	16889.95
551.962	16817.41
552.326	16840.01
552.689	16794.59
553.053	16690.86
553.417	16735.61
553.78	16867.35
554.143	16731.99
554.507	16896.5
554.87	16693.57
555.234	16880.01
555.597	16870.29
555.96	16855.6
556.323	16824.19
556.686	16874.81
557.05	16943.06
557.413	16788.71
557.776	16812.21
558.139	16874.58
558.502	16849.05
558.865	16856.28
559.228	16962.49
559.59	16985.54
559.953	17040.46
560.316	17076.16
560.679	17024.64
561.041	17116.39
561.404	17149.83
561.767	17215.37
562.129	17148.93
562.492	17284.07
562.854	17214.24
563.217	17195.25
563.579	17299.88
563.941	17322.26
564.304	17373.33
564.666	17471.63
565.028	17395.93
565.39	17488.58
565.753	17476.38
566.115	17486.32
566.477	17607.9
566.839	17530.16
567.201	17556.37
567.563	17630.27
567.925	17766.09
568.287	17699.65
568.648	17757.05
569.01	17770.38
569.372	17830.04
569.734	17774
570.095	17794.79
570.457	17947.1
570.819	17943.71
571.18	17943.71
571.542	18007.21
571.903	17963.82
572.265	18013.54
572.626	18099.41
572.987	18106.19
573.349	18046.08
573.71	18163.36
574.071	18094.44
574.432	18260.31
574.794	18238.16
575.155	18191.16
575.516	18244.72
575.877	18283.36
576.238	18275.23
576.599	18345.51
576.96	18368.56
577.32	18311.61
577.681	18295.79
578.042	18345.28
578.403	18352.96
578.763	18272.29
579.124	18427.76
579.485	18314.55
579.845	18495.56
580.206	18430.48
580.566	18361.55
580.927	18316.81
581.287	18454.2
581.648	18359.97
582.008	18410.82
582.368	18437.93
582.728	18464.37
583.089	18442.9
583.449	18397.03
583.809	18437.93
584.169	18451.49
584.529	18459.63
584.889	18489.68
585.249	18450.36
585.609	18312.29
585.969	18529.46
586.329	18411.95
586.688	18366.52
587.048	18383.47
587.408	18392.74
587.768	18379.18
588.127	18368.78
588.487	18284.27
588.846	18428.67
589.206	18325.17
589.565	18273.64
589.925	18279.29
590.284	18346.18
590.643	18359.74
591.003	18338.05
591.362	18366.75
591.721	18290.82
592.08	18289.24
592.44	18360.87
592.799	18379.86
593.158	18275.9
593.517	18218.28
593.876	18397.71
594.235	18223.25
594.593	18233.64
594.952	18303.25
595.311	18204.49
595.67	18270.25
596.029	18368.1
596.387	18286.98
596.746	18322.91
597.104	18223.93
597.463	18317.03
597.822	18359.52
598.18	18326.52
598.538	18293.53
598.897	18356.58
599.255	18260.08
599.613	18465.73
599.972	18329.01
600.33	18338.05
600.688	18265.73
601.046	18373.08
601.404	18477.93
601.762	18262.34
602.12	18477.93
602.478	18436.13
602.836	18481.77
603.194	18359.97
603.552	18347.99
603.91	18311.61
604.268	18379.86
604.625	18372.62
604.983	18414.43
605.341	18271.38
605.698	18406.3
606.056	18415.79
606.413	18291.04
606.771	18378.5
607.128	18449.23
607.485	18384.15
607.843	18442.9
608.2	18470.25
608.557	18582.34
608.914	18399.74
609.272	18506.41
609.629	18565.61
609.986	18630.02
610.343	18529.91
610.7	18667.76
611.057	18597.48
611.414	18615.1
611.771	18625.72
612.127	18566.29
612.484	18619.4
612.841	18733.29
613.198	18585.73
613.554	18667.31
613.911	18849.22
614.267	18729.23
614.624	18769
614.98	18786.85
615.337	18856
615.693	18774.42
616.05	18834.53
616.406	18967.86
616.762	18876.57
617.118	18809.45
617.475	18846.96
617.831	18872.5
618.187	19000.18
618.543	19040.86
618.899	19114.07
619.255	19097.12
619.611	19053.06
619.967	19081.53
620.323	19149.55
620.678	18969.44
621.034	19070.23
621.39	19022.78
621.746	18979.16
622.101	19186.16
622.457	19025.49
622.812	19093.74
623.168	19191.59
623.523	19129.89
623.879	19181.19
624.234	19116.56
624.589	19103.68
624.945	19086.73
625.3	19145.03
625.655	19126.73
626.01	19119.5
626.365	19132.6
626.72	19072.72
627.075	19005.38
627.43	19093.74
627.785	19110.01
628.14	19077.92
628.495	19178.25
628.85	19009.67
629.205	18975.09
629.559	19056.9
629.914	19042.44
630.269	19048.54
630.623	19061.87
630.978	19019.61
631.332	18980.29
631.687	19050.57
632.041	19014.19
632.396	19018.71
632.75	19032.72
633.104	18930.58
633.459	18872.72
633.813	18872.05
634.167	18830.47
634.521	18845.38
634.875	18928.09
635.229	18804.03
635.583	18697.14
635.937	18718.38
636.291	18766.96
636.645	18751.6
636.999	18770.81
637.352	18731.48
637.706	18603.58
638.06	18750.02
638.413	18707.76
638.767	18638.83
639.121	18657.14
639.474	18594.77
639.828	18602.45
640.181	18556.8
640.534	18639.28
640.888	18585.27
641.241	18485.84
641.594	18605.84
641.947	18534.43
642.301	18537.59
642.654	18414.43
643.007	18577.82
643.36	18498.95
643.713	18494.43
644.066	18519.74
644.419	18307.99
644.771	18319.07
645.124	18137.6
645.477	18042.24
645.83	17945.29
646.182	17950.49
646.535	17789.36
646.888	17967.66
647.24	17866.65
647.593	17884.05
647.945	17902.35
648.298	17739.87
648.65	17731.96
649.002	17754.56
649.355	17818.29
649.707	17715.47
650.059	17940.09
650.411	18049.92
650.763	18040.2
651.115	18258.73
651.467	18249.46
651.819	18162.01
652.171	18176.47
652.523	18172.18
652.875	18082.91
653.227	18103.48
653.578	18311.38
653.93	18135.57
654.282	18057.15
654.633	18020.09
654.985	18107.77
655.337	18152.52
655.688	18111.39
656.039	18218.05
656.391	18073.42
656.742	18151.39
657.094	18126.76
657.445	18072.52
657.796	18109.13
658.147	18050.82
658.498	18116.36
658.849	18155.91
659.2	18100.09
659.551	18063.03
659.902	18185.28
660.253	18183.02
660.604	18192.06
660.955	18203.14
661.306	18178.05
661.656	18132.18
662.007	18213.08
662.358	18234.32
662.708	18156.58
663.059	18189.8
663.409	18033.88
663.76	18155.91
664.11	18264.38
664.461	18232.51
664.811	18151.39
665.161	18120.2
665.511	18121.78
665.862	18279.29
666.212	18214.66
666.562	18241.55
666.912	18109.81
667.262	18134.21
667.612	18157.26
667.962	18169.24
668.312	18086.53
668.662	18272.29
669.011	18093.54
669.361	18224.83
669.711	18217.37
670.06	18043.59
670.41	18093.54
670.76	18053.99
671.109	18149.81
671.459	18105.96
671.808	18016.7
672.157	18145.29
672.507	18046.53
672.856	17959.3
673.205	17973.76
673.554	18072.29
673.904	17982.35
674.253	18131.95
674.602	17986.87
674.951	17733.32
675.3	17600.67
675.649	18098.28
675.998	17955.01
676.346	17959.08
676.695	17977.61
677.044	17891.96
677.393	17850.6
677.741	17946.87
678.09	17862.81
678.438	17836.59
678.787	17769.93
679.135	17811.28
679.484	17699.2
679.832	17797.5
680.181	17716.82
680.529	17747.33
680.877	17662.59
681.225	17694
681.573	17753.66
681.922	17630.72
682.27	17510.05
682.618	17548.01
682.966	17528.8
683.314	17527.9
683.661	17476.38
684.009	17393.44
684.357	17348.7
684.705	17254.91
685.053	17330.62
685.4	17313.44
685.748	17210.17
686.095	17145.31
686.443	17129.72
686.79	17051.76
687.138	17063.05
687.485	17106.44
687.832	17065.31
688.18	17031.64
688.527	16878.88
688.874	16955.71
689.221	16846.56
689.568	16819.22
689.915	16731.76
690.262	16734.02
690.609	16687.7
690.956	16659.22
691.303	16529.06
691.65	16414.26
691.997	16502.39
692.344	16353.92
692.69	16447.48
693.037	16411.32
693.383	16235.05
693.73	16203.87
694.077	16254.71
694.423	16186.02
694.769	16136.98
695.116	15973.14
695.462	15985.57
695.808	15914.38
696.155	16045.91
696.501	15746.7
696.847	15739.47
697.193	15688.63
697.539	15673.03
697.885	15633.04
698.231	15560.72
698.577	15507.61
698.923	15498.12
699.269	15375.87
699.614	15318.02
699.96	15220.62
700.306	15286.6
700.651	15278.47
700.997	15222.2
701.342	15113.73
701.688	15079.6
702.033	15037.57
702.379	15054.97
702.724	14900.4
703.069	14942.21
703.415	14757.35
703.76	14789.67
704.105	14807.07
704.45	14727.75
704.795	14672.38
705.14	14604.81
705.485	14565.27
705.83	14503.12
706.175	14442.11
706.52	14448.21
706.865	14335.44
707.209	14384.93
707.554	14290.25
707.899	14357.81
708.243	14220.42
708.588	14263.81
708.932	14149.01
709.277	14053.87
709.621	14120.53
709.966	14009.58
710.31	14051.38
710.654	13872.63
710.998	13948.33
711.342	13994.66
711.687	13944.04
712.031	13820.43
712.375	13681.22
712.719	13768.45
713.063	13651.84
713.407	13840.31
713.75	13701.33
714.094	13776.36
714.438	13596.48
714.782	13615.24
715.125	13569.13
715.469	13553.77
715.812	13481.68
716.156	13380.21
716.499	13447.33
716.843	13372.53
717.186	13323.49
717.53	13436.26
717.873	13400.55
718.216	13405.98
718.559	13231.06
718.902	13143.38
719.246	13276.04
719.589	13282.36
719.932	13273.55
720.275	13207.56
720.617	13152.65
720.96	13202.82
721.303	13164.63
721.646	13196.72
721.989	13127.11
722.331	13214.34
722.674	13158.3
723.016	13113.1
723.359	13057.06
723.701	13138.64
724.044	12974.35
724.386	12959.43
724.729	12952.65
725.071	12945.42
725.413	12994.46
725.755	12893.45
726.097	12845.31
726.439	12868.81
726.782	12869.04
727.124	12932.77
727.465	12860.23
727.807	12857.29
728.149	12848.48
728.491	12815.26
728.833	12914.46
729.175	12789.04
729.516	12821.13
729.858	12842.15
730.199	12776.61
730.541	12738.2
730.882	12788.36
731.224	12777.74
731.565	12806.44
731.906	12746.33
732.248	12740.23
732.589	12716.5
732.93	12673.79
733.271	12754.01
733.612	12741.13
733.953	12730.06
734.294	12672.66
734.635	12690.06
734.976	12702.94
735.317	12666.79
735.658	12697.75
735.999	12645.77
736.339	12675.15
736.68	12707.69
737.021	12698.42
737.361	12687.12
737.702	12640.8
738.042	12655.26
738.383	12649.61
738.723	12680.57
739.063	12708.37
739.404	12760.79
739.744	12693
740.084	12697.97
740.424	12736.61
740.764	12671.08
741.104	12782.71
741.444	12701.36
741.784	12714.69
742.124	12711.98
742.464	12759.89
742.804	12773.45
743.143	12724.19
743.483	12865.88
743.823	12815.26
744.162	12847.12
744.502	12862.26
744.841	12893.45
745.181	12946.55
745.52	12958.98
745.86	13084.85
746.199	13011.18
746.538	13043.05
746.877	13056.83
747.216	13183.16
747.556	13110.16
747.895	13185.87
748.234	13302.48
748.573	13216.6
748.911	13363.26
749.25	13444.84
749.589	13395.58
749.928	13498.18
750.267	13586.08
750.605	13654.78
750.944	13690.26
751.283	13812.74
751.621	13862.69
751.96	13885.28
752.298	14054.77
752.636	14076.47
752.975	14043.02
753.313	14141.78
753.651	14399.62
753.989	14347.19
754.327	14460.18
754.666	14576.11
755.004	14652.5
755.342	14768.2
755.679	14931.13
756.017	15001.41
756.355	15057.01
756.693	15111.47
757.031	15282.31
757.368	15484.56
757.706	15511.23
758.044	15610.66
758.381	15731.11
758.719	15856.98
759.056	16047.94
759.394	16068.05
759.731	16139.01
760.068	16253.58
760.405	16325.45
760.743	16543.07
761.08	16625.55
761.417	16735.83
761.754	16782.16
762.091	16934.02
762.428	16986.9
762.765	17011.76
763.102	17381.01
763.438	17275.03
763.775	17336.49
764.112	17441.8
764.449	17611.06
764.785	17687.22
765.122	17636.37
765.458	17800.44
765.795	17889.93
766.131	17986.42
766.467	18060.77
766.804	18124.95
767.14	18061.45
767.476	18241.33
767.812	18269.58
768.148	18366.97
768.485	18404.04
768.821	18429.35
769.157	18471.38
769.492	18685.84
769.828	18599.96
770.164	18659.85
770.5	18598.83
770.836	18645.16
771.171	18773.97
771.507	18785.72
771.842	18778.94
772.178	18670.24
772.513	18822.33
772.849	18884.48
773.184	18824.14
773.519	18871.59
773.855	18924.7
774.19	18924.7
774.525	18894.42
774.86	18976
775.195	18996.11
775.53	18960.86
775.865	18941.42
776.2	18863.46
776.535	18726.29
776.87	18877.47
777.205	18770.81
777.539	18798.15
777.874	18809.67
778.209	18680.64
778.543	18721.54
778.878	18543.02
779.212	18714.08
779.547	18637.93
779.881	18727.19
780.215	18707.08
780.55	18739.62
780.884	18503.92
781.218	18629.11
781.552	18590.02
781.886	18533.52
782.22	18427.31
782.554	18406.75
782.888	18360.2
783.222	18239.75
783.556	18241.1
783.889	18271.16
784.223	18133.53
784.557	18099.41
784.89	18176.7
785.224	18115.68
785.557	18035.46
785.891	17966.76
786.224	17960.66
786.558	18020.77
786.891	17825.97
787.224	17706.43
787.557	17729.03
787.891	17738.29
788.224	17722.47
788.557	17662.59
788.89	17666.43
789.223	17641.34
789.556	17544.62
789.888	17574
790.221	17465.08
790.554	17364.97
790.887	17422.14
791.219	17236.61
791.552	17329.26
791.884	17294.69
792.217	17211.3
792.549	17134.24
792.882	17037.07
793.214	16952.55
793.546	17093.34
793.879	17010.4
794.211	16818.31
794.543	16908.71
794.875	16787.58
795.207	16883.17
795.539	16716.62
795.871	16692.44
796.203	16607.92
796.535	16463.07
796.867	16491.77
797.198	16480.7
797.53	16488.15
797.862	16331.1
798.193	16434.37
798.525	16264.21
798.856	16333.13
799.188	16098.11
799.519	16151.44
799.85	16058.56
800.182	16165.45
800.513	16060.37
800.844	15944.21
801.175	15964.33
801.506	15938.56
801.837	15898.11
802.168	15821.96
802.499	15800.94
802.83	15766.82
803.161	15673.49
803.491	15685.92
803.822	15697.67
804.153	15548.07
804.483	15427.62
804.814	15364.34
805.145	15375.19
805.475	15346.72
805.805	15404.57
806.136	15263.55
806.466	15211.8
806.796	15220.16
807.126	15134.74
807.457	15105.59
807.787	15125.25
808.117	15050
808.447	14975.43
808.777	15065.14
809.107	14962.77
809.436	14968.19
809.766	14974.75
810.096	14842.32
810.426	14732.95
810.755	14763.23
811.085	14767.07
811.414	14788.54
811.744	14652.04
812.073	14548.54
812.403	14637.13
812.732	14440.75
813.061	14502.22
813.39	14400.53
813.719	14418.38
814.049	14518.04
814.378	14376.12
814.707	14464.7
815.036	14357.59
815.365	14309.91
815.693	14178.16
816.022	14264.03
816.351	14171.38
816.68	14163.7
817.008	14161.44
817.337	14028.33
817.665	14049.57
817.994	14090.93
818.322	14041.89
818.651	13953.53
818.979	13911.05
819.307	13980.88
819.636	13901.56
819.964	13857.94
820.292	13881.44
820.62	13824.04
820.948	13822.69
821.276	13828.79
821.604	13700.43
821.932	13824.5
822.259	13802.12
822.587	13793.76
822.915	13781.33
823.243	13855.91
823.57	13724.16
823.898	13799.41
824.225	13655.69
824.553	13714.22
824.88	13770.71
825.207	13831.05
825.535	13743.37
825.862	13829.47
826.189	13751.95
826.516	13785.85
826.843	13866.75
827.17	13723.71
827.497	13855.91
827.824	13823.14
828.151	13753.31
828.478	13736.81
828.805	13833.08
829.131	13679.19
829.458	13755.12
829.785	13666.76
830.111	13722.35
830.438	13828.79
830.764	13722.13
831.09	13807.55
831.417	13728.45
831.743	13789.47
832.069	13721
832.395	13669.7
832.722	13746.76
833.048	13666.99
833.374	13699.98
833.7	13594.22
834.026	13616.14
834.351	13668.12
834.677	13575.69
835.003	13636.48
835.329	13633.31
835.654	13606.2
835.98	13563.49
836.306	13528.68
836.631	13505.41
836.956	13479.42
837.282	13479.65
837.607	13433.32
837.932	13404.17
838.258	13455.24
838.583	13353.77
838.908	13360.1
839.233	13366.65
839.558	13282.36
839.883	13282.59
840.208	13198.07
840.533	13256.6
840.858	13244.17
841.182	13204.4
841.507	13274.45
841.832	13105.64
842.156	13097.06
842.481	13102.93
842.805	13129.37
843.13	12993.33
843.454	13006.44
843.778	12956.04
844.103	12906.78
844.427	12937.74
844.751	12933.67
845.075	12827.46
845.399	12810.51
845.723	12797.86
846.047	12801.25
846.371	12629.72
846.695	12657.29
847.019	12564.42
847.343	12500.46
847.666	12451.65
847.99	12429.05
848.313	12434.02
848.637	12249.85
848.96	12351.99
849.284	12293.24
849.607	12212.79
849.931	12143.64
850.254	12068.16
850.577	11981.38
850.9	11941.15
851.223	11924.43
851.546	11843.3
851.869	11795.17
852.192	11829.97
852.515	11701.16
852.838	11691.22
853.161	11643.54
853.483	11587.04
853.806	11582.07
854.129	11579.81
854.451	11492.58
854.774	11440.6
855.096	11411.9
855.419	11414.84
855.741	11339.59
856.063	11268.63
856.385	11314.28
856.708	11253.49
857.03	11262.53
857.352	11252.59
857.674	11262.98
857.996	11187.05
858.318	11057.34
858.64	11001.52
858.961	11042.42
859.283	10963.33
859.605	10940.5
859.926	10951.12
860.248	10880.84
860.57	10870
860.891	10872.71
861.212	10845.36
861.534	10809.66
861.855	10827.29
862.176	10726.72
862.498	10735.99
862.819	10805.37
863.14	10665.48
863.461	10658.93
863.782	10681.98
864.103	10598.82
864.424	10628.65
864.745	10581.87
865.065	10594.52
865.386	10551.14
865.707	10481.76
866.027	10561.53
866.348	10460.29
866.668	10523.57
866.989	10406.05
867.309	10335.77
867.63	10347.75
867.95	10375.55
868.27	10288.32
868.59	10369.22
868.91	10357.02
869.23	10365.6
869.55	10253.29
869.87	10296.9
870.19	10264.81
870.51	10310.92
870.83	10206.74
871.15	10149.11
871.469	10152.05
871.789	10218.71
872.109	10178.49
872.428	10146.4
872.748	10091.71
873.067	10053.52
873.386	10175.1
873.706	10148.21
874.025	10077.93
874.344	10048.78
874.663	10099.17
874.982	10050.13
875.301	10018.27
875.62	10014.43
875.939	9937.82
876.258	9989.79
876.577	9932.62
876.896	9918.84
877.214	9924.26
877.533	9925.39
877.852	9899.17
878.17	9888.1
878.489	9844.94
878.807	9807.43
879.125	9818.05
879.444	9792.06
879.762	9837.03
880.08	9813.3
880.398	9752.74
880.716	9686.98
881.034	9648.11
881.352	9642.46
881.67	9649.69
881.988	9694.89
882.306	9614.44
882.624	9580.54
882.941	9635.23
883.259	9519.3
883.577	9543.7
883.894	9496.25
884.212	9461.9
884.529	9478.62
884.846	9438.17
885.164	9368.79
885.481	9411.28
885.798	9402.24
886.115	9371.05
886.432	9375.57
886.75	9329.7
887.067	9303.48
887.383	9268.46
887.7	9276.14
888.017	9178.29
888.334	9234.56
888.651	9186.88
888.967	9157.95
889.284	9179.42
889.6	9081.34
889.917	9028.92
890.233	8989.82
890.55	9028.69
890.866	8988.46
891.182	8966.54
891.498	8931.74
891.815	8887.22
892.131	8907.34
892.447	8886.09
892.763	8842.93
893.079	8827.34
893.395	8756.83
893.71	8785.98
894.026	8728.13
894.342	8717.51
894.657	8689.72
894.973	8666.89
895.289	8599.55
895.604	8607.01
895.92	8554.8
896.235	8582.37
896.55	8536.05
896.865	8481.81
897.181	8457.86
897.496	8417.63
897.811	8448.82
898.126	8347.13
898.441	8366.11
898.756	8346
899.071	8222.61
899.386	8270.52
899.7	8194.59
900.015	8219.9
900.33	8194.13
900.644	8062.61
900.959	8122.5
901.273	8134.02
901.588	8004.31
901.902	8004.08
902.216	7985.78
902.531	7955.5
902.845	7983.07
903.159	7913.01
903.473	7883.63
903.787	7819.23
904.101	7797.54
904.415	7797.31
904.729	7757.08
905.042	7698.78
905.356	7679.35
905.67	7694.49
905.984	7717.99
906.297	7635.28
906.611	7616.97
906.924	7580.82
907.237	7510.76
907.551	7494.04
907.864	7471.67
908.177	7448.39
908.491	7371.11
908.804	7368.85
909.117	7345.34
909.43	7308.73
909.743	7293.14
910.056	7225.57
910.368	7269.87
910.681	7185.57
910.994	7148.06
911.307	7137.44
911.619	7107.84
911.932	7101.06
912.244	7051.57
912.557	7061.74
912.869	6961.85
913.181	6973.15
913.494	6957.78
913.806	6890.89
914.118	6828.97
914.43	6902.87
914.742	6892.7
915.054	6795.75
915.366	6770.44
915.678	6772.93
915.99	6710.33
916.302	6686.83
916.613	6664.46
916.925	6626.27
917.236	6613.61
917.548	6633.05
917.859	6571.8
918.171	6517.79
918.482	6458.14
918.794	6468.98
919.105	6458.59
919.416	6465.37
919.727	6426.05
920.038	6414.97
920.349	6363.67
920.66	6348.31
920.971	6356.9
921.282	6329.1
921.593	6208.2
921.903	6193.96
922.214	6169.33
922.525	6120.52
922.835	6118.71
923.146	6097.47
923.456	6057.24
923.767	6044.13
924.077	6060.86
924.387	6049.33
924.697	5947.64
925.008	5925.72
925.318	5931.14
925.628	5964.36
925.938	5900.86
926.248	5891.37
926.558	5824.03
926.867	5844.59
927.177	5771.15
927.487	5775.67
927.796	5711.26
928.106	5722.56
928.416	5672.62
928.725	5684.6
929.034	5645.73
929.344	5650.47
929.653	5554.43
929.962	5554.66
930.271	5523.92
930.581	5506.75
930.89	5483.25
931.199	5477.14
931.508	5432.85
931.817	5415.9
932.125	5455.45
932.434	5438.95
932.743	5360.31
933.051	5336.81
933.36	5352.85
933.669	5296.36
933.977	5250.03
934.286	5272.63
934.594	5278.05
934.902	5164.38
935.21	5143.82
935.519	5161.45
935.827	5166.87
936.135	5073.76
936.443	5084.16
936.751	5107.89
937.059	5097.27
937.367	5059.98
937.674	5070.15
937.982	5012.52
938.29	4968.68
938.597	4968.91
938.905	4977.95
939.213	4937.95
939.52	4869.93
939.827	4855.24
940.135	4876.93
940.442	4856.14
940.749	4803.49
941.056	4783.83
941.363	4763.49
941.67	4743.6
941.977	4737.05
942.284	4730.72
942.591	4683.94
942.898	4673.32
943.205	4666.54
943.511	4649.6
943.818	4619.09
944.125	4557.85
944.431	4635.13
944.738	4542.48
945.044	4513.78
945.35	4535.47
945.657	4471.52
945.963	4472.2
946.269	4417.96
946.575	4431.75
946.881	4420.67
947.187	4401.47
947.493	4381.58
947.799	4397.17
948.105	4323.95
948.41	4322.82
948.716	4308.36
949.022	4279.44
949.327	4311.75
949.633	4246.22
949.938	4277.85
950.244	4235.37
950.549	4205.54
950.854	4146.11
951.16	4173.45
951.465	4175.03
951.77	4122.6
952.075	4127.58
952.38	4130.51
952.685	4067.24
952.99	4017.07
953.294	4058.65
953.599	4025.2
953.904	4024.98
954.209	4002.15
954.513	3994.92
954.818	3958.99
955.122	3956.05
955.426	3922.38
955.731	3930.97
956.035	3874.93
956.339	3875.83
956.643	3837.87
956.948	3832.22
957.252	3839.45
957.556	3815.72
957.86	3791.54
958.163	3782.27
958.467	3760.35
958.771	3718.09
959.075	3724.42
959.378	3717.19
959.682	3690.98
959.985	3666.8
960.289	3678.1
960.592	3657.98
960.896	3639.23
961.199	3606.68
961.502	3591.32
961.805	3555.16
962.108	3575.73
962.411	3577.31
962.714	3542.73
963.017	3521.26
963.32	3524.88
963.623	3502.51
963.926	3516.07
964.228	3474.26
964.531	3425.45
964.833	3455.05
965.136	3430.64
965.438	3396.75
965.741	3379.8
966.043	3368.27
966.345	3433.13
966.648	3326.24
966.95	3345.22
967.252	3336.41
967.554	3294.38
967.856	3330.53
968.158	3255.73
968.46	3274.04
968.761	3232.68
969.063	3238.33
969.365	3239.46
969.666	3216.41
969.968	3131.67
970.269	3147.04
970.571	3178.9
970.872	3162.4
971.174	3158.56
971.475	3149.3
971.776	3148.17
972.077	3074.95
972.378	3063.65
972.679	3087.83
972.98	3066.36
973.281	3033.37
973.582	3027.27
973.883	3027.72
974.183	3055.51
974.484	2971.9
974.785	2996.76
975.085	2946.36
975.386	2992.69
975.686	2942.52
975.986	2924.44
976.287	2921.51
976.587	2906.59
976.887	2870.66
977.187	2879.92
977.487	2858.23
977.787	2831.34
978.087	2859.81
978.387	2854.84
978.687	2819.81
978.987	2764.45
979.286	2783.88
979.586	2755.18
979.885	2768.74
980.185	2788.18
980.484	2717.44
980.784	2731.23
981.083	2688.52
981.382	2658.24
981.682	2689.87
981.981	2686.48
982.28	2651.23
982.579	2702.53
982.878	2676.31
983.177	2629.31
983.475	2611.91
983.774	2624.11
984.073	2590.21
984.372	2618.69
984.67	2561.51
984.969	2592.7
985.267	2561.06
985.566	2514.74
985.864	2535.53
986.162	2538.24
986.461	2476.55
986.759	2499.6
987.057	2486.04
987.355	2464.12
987.653	2474.74
987.951	2451.01
988.249	2444.91
988.547	2451.23
988.844	2419.15
989.142	2404.91
989.44	2390.22
989.737	2374.85
990.035	2367.17
990.332	2354.97
990.63	2354.06
990.927	2326.27
991.224	2312.93
991.521	2346.38
991.819	2332.37
992.116	2303.89
992.413	2289.43
992.71	2284.46
993.006	2267.74
993.303	2267.29
993.6	2231.58
993.897	2233.84
994.193	2246.72
994.49	2214.86
994.787	2189.55
995.083	2221.41
995.379	2185.48
995.676	2175.54
995.972	2169.89
996.268	2168.98
996.565	2134.86
996.861	2099.83
997.157	2140.06
997.453	2124.92
997.749	2129.21
998.044	2088.53
998.34	2054.86
998.636	2092.15
998.932	2047.86
999.227	2056.44
999.523	2001.76
999.818	2029.33
1000.114	1992.26
1000.409	2004.47
1000.704	2009.21
1001	2003.56
1001.295	1983.22
1001.59	2009.44
1001.885	1971.02
1002.18	1921.31
1002.475	1940.74
1002.77	1896.22
1003.065	1931.25
1003.359	1930.34
1003.654	1905.03
1003.949	1877.01
1004.243	1872.49
1004.538	1883.34
1004.832	1894.64
1005.127	1875.66
1005.421	1832.72
1005.715	1864.13
1006.009	1803.34
1006.304	1821.42
1006.598	1819.16
1006.892	1794.76
1007.186	1755.21
1007.48	1772.16
1007.773	1765.83
1008.067	1771.03
1008.361	1712.05
1008.655	1715.21
1008.948	1720.18
1009.242	1714.98
1009.535	1682.22
1009.829	1690.35
1010.122	1694.19
1010.415	1679.05
1010.708	1684.02
1011.001	1650.58
1011.295	1638.83
1011.588	1645.15
1011.881	1642.89
1012.173	1637.7
1012.466	1594.53
1012.759	1602.67
1013.052	1587.53
1013.344	1580.52
1013.637	1578.94
1013.93	1567.87
1014.222	1540.3
1014.514	1541.65
1014.807	1534.42
1015.099	1535.33
1015.391	1522.45
1015.683	1515.67
1015.976	1494.2
1016.268	1494.65
1016.56	1473.41
1016.851	1451.71
1017.143	1481.99
1017.435	1460.53
1017.727	1433.63
1018.018	1436.35
1018.31	1430.47
1018.602	1399.51
1018.893	1403.35
1019.185	1397.48
1019.476	1390.7
1019.767	1382.56
1020.058	1380.08
1020.35	1367.42
1020.641	1374.43
1020.932	1342.56
1021.223	1339.63
1021.514	1354.54
1021.804	1337.59
1022.095	1324.48
1022.386	1308.89
1022.677	1307.76
1022.967	1293.3
1023.258	1272.73
1023.548	1270.02
1023.839	1287.88
1024.129	1293.98
1024.419	1279.06
1024.709	1255.79
1025	1233.64
1025.29	1243.36
1025.58	1239.29
1025.87	1215.11
1026.16	1214.88
1026.449	1199.74
1026.739	1167.65
1027.029	1182.79
1027.319	1198.61
1027.608	1161.78
1027.898	1164.26
1028.187	1155.68
1028.477	1146.86
1028.766	1156.58
1029.055	1117.71
1029.344	1111.84
1029.634	1102.34
1029.923	1118.39
1030.212	1111.38
1030.501	1116.35
1030.79	1086.98
1031.078	1088.78
1031.367	1074.55
1031.656	1041.78
1031.945	1042.46
1032.233	1071.16
1032.522	1030.93
1032.81	1034.32
1033.099	1034.1
1033.387	1046.75
1033.675	1021.67
1033.963	995.68
1034.251	1015.57
1034.54	999.3
1034.828	1002.91
1035.116	963.59
1035.403	960.43
1035.691	960.65
1035.979	967.21
1036.267	981.44
1036.554	946.87
1036.842	965.4
1037.129	955.68
1037.417	961.78
1037.704	947.55
1037.992	920.2
1038.279	919.07
1038.566	924.04
1038.853	924.04
1039.14	924.04
