Data from hue_70_FLMS001491_80.txt Node
Date: Mon Feb 06 15:21:26 GMT 2017
User: dcchb
Spectrometer: FLMS00149
Trigger mode: 0
Integration Time (sec): 2.000000E-2
Scans to average: 10
Electric dark correction enabled: true
Nonlinearity correction enabled: false
Boxcar width: 0
XAxis mode: Wavelengths
Number of Pixels in Spectrum: 2048
>>>>>Begin Spectral Data<<<<<
341.393	-11.19
341.776	-11.19
342.16	-11.19
342.543	-66.55
342.927	-51.64
343.31	-69.94
343.693	-71.52
344.077	-67.46
344.46	-58.19
344.843	-46.89
345.226	-45.76
345.61	-47.8
345.993	-17.74
346.376	-11.86
346.759	11.86
347.142	18.87
347.525	53.22
347.908	76.72
348.291	78.53
348.674	83.5
349.057	114.46
349.44	144.29
349.823	146.78
350.206	167.57
350.588	191.07
350.971	212.99
351.354	214.8
351.737	245.53
352.119	256.6
352.502	258.41
352.884	267.9
353.267	287.11
353.65	286.89
354.032	280.11
354.414	302.03
354.797	316.26
355.179	306.77
355.562	306.32
355.944	344.74
356.326	349.03
356.709	340.67
357.091	325.75
357.473	330.95
357.855	319.2
358.238	347.45
358.62	329.14
359.002	334.57
359.384	339.99
359.766	336.38
360.148	310.61
360.53	320.1
360.912	332.31
361.294	334.57
361.676	330.5
362.057	341.12
362.439	310.39
362.821	344.74
363.203	318.97
363.584	320.78
363.966	332.76
364.348	315.81
364.729	300.22
365.111	320.33
365.493	344.74
365.874	323.04
366.256	325.53
366.637	299.09
367.019	310.84
367.4	295.02
367.781	318.75
368.163	313.1
368.544	312.2
368.925	308.58
369.306	310.84
369.688	296.38
370.069	318.52
370.45	318.75
370.831	318.75
371.212	313.78
371.593	323.95
371.974	304.06
372.355	316.04
372.736	302.25
373.117	324.62
373.498	324.17
373.879	304.51
374.26	304.29
374.641	321.01
375.021	293.21
375.402	297.73
375.783	327.79
376.163	319.65
376.544	323.49
376.925	315.81
377.305	313.78
377.686	324.85
378.066	309.94
378.447	314
378.827	316.94
379.208	309.71
379.588	317.84
379.968	339.09
380.349	311.07
380.729	340.22
381.109	342.93
381.489	342.25
381.87	340.67
382.25	321.69
382.63	323.95
383.01	335.25
383.39	343.38
383.77	341.35
384.15	337.51
384.53	343.15
384.91	331.18
385.29	361.23
385.67	344.28
386.049	343.38
386.429	365.53
386.809	353.1
387.189	337.73
387.568	342.25
387.948	337.28
388.328	346.54
388.707	351.52
389.087	348.13
389.466	376.15
389.846	352.87
390.225	332.99
390.605	365.98
390.984	358.97
391.363	360.1
391.743	368.69
392.122	353.55
392.501	364.62
392.881	372.08
393.26	356.26
393.639	365.75
394.018	371.18
394.397	373.66
394.776	378.41
395.155	368.92
395.534	373.89
395.913	377.96
396.292	382.25
396.671	366.66
397.05	394.68
397.429	351.52
397.808	359.43
398.186	384.06
398.565	385.64
398.944	378.41
399.323	360.78
399.701	397.62
400.08	381.8
400.458	380.44
400.837	392.65
401.215	377.5
401.594	394.9
401.972	389.71
402.351	383.61
402.729	404.17
403.107	383.15
403.486	412.08
403.864	402.36
404.242	390.39
404.62	378.41
404.999	421.12
405.377	419.31
405.755	418.41
406.133	386.77
406.511	389.26
406.889	400.1
407.267	403.04
407.645	423.15
408.023	407.33
408.401	390.16
408.779	417.73
409.156	440.1
409.534	419.09
409.912	430.61
410.29	442.59
410.667	439.42
411.045	435.81
411.422	439.42
411.8	433.77
412.178	451.4
412.555	441.46
412.933	460.67
413.31	453.43
413.687	435.58
414.065	446.2
414.442	443.27
414.819	468.8
415.197	465.19
415.574	457.28
415.951	472.19
416.328	462.7
416.705	472.87
417.082	461.8
417.46	466.99
417.837	481.68
418.214	459.76
418.591	482.36
418.967	474
419.344	486.43
419.721	498.4
420.098	509.93
420.475	478.74
420.852	492.3
421.228	489.14
421.605	489.59
421.982	480.33
422.358	507.44
422.735	508.12
423.111	481
423.488	509.25
423.864	506.99
424.241	526.2
424.617	522.13
424.994	538.4
425.37	530.04
425.746	537.95
426.123	509.03
426.499	543.83
426.875	538.63
427.251	538.18
427.627	546.31
428.003	573.21
428.379	561.91
428.756	553.54
429.132	567.78
429.507	561.68
429.883	565.75
430.259	594
430.635	584.05
431.011	589.7
431.387	584.05
431.763	584.28
432.138	600.78
432.514	572.08
432.89	580.44
433.265	611.17
433.641	607.1
434.016	625.41
434.392	651.17
434.767	624.73
435.143	632.41
435.518	624.73
435.894	645.07
436.269	649.59
436.644	654.11
437.02	662.02
437.395	640.77
437.77	667.67
438.145	663.82
438.52	689.59
438.895	674.45
439.271	685.97
439.646	691.85
440.021	693.88
440.395	706.08
440.77	698.85
441.145	707.44
441.52	712.18
441.895	710.6
442.27	736.82
442.645	724.16
443.019	712.64
443.394	754.9
443.769	734.56
444.143	698.63
444.518	758.29
444.892	734.78
445.267	735.91
445.641	749.02
446.016	756.03
446.39	771.39
446.764	752.86
447.139	769.58
447.513	780.43
447.887	761.9
448.262	784.95
448.636	789.7
449.01	790.6
449.384	824.72
449.758	795.12
450.132	778.62
450.506	802.13
450.88	815.01
451.254	807.32
451.628	812.52
452.002	817.04
452.376	817.49
452.75	852.52
453.123	850.71
453.497	879.64
453.871	867.43
454.244	880.77
454.618	883.25
454.992	894.55
455.365	875.34
455.739	902.01
456.112	910.6
456.486	911.5
456.859	946.98
457.232	963.25
457.606	902.01
457.979	971.61
458.352	988.56
458.725	983.36
459.099	994.21
459.472	995.79
459.845	1006.41
460.218	1033.31
460.591	1004.83
460.964	1048.67
461.337	1074.89
461.71	1087.09
462.083	1107.2
462.456	1116.47
462.829	1095.45
463.201	1140.65
463.574	1137.94
463.947	1116.92
464.32	1140.87
464.692	1178.61
465.065	1181.55
465.438	1175.22
465.81	1197.14
466.183	1201.89
466.555	1253.19
466.928	1260.42
467.3	1275.79
467.672	1269.91
468.045	1316.91
468.417	1313.52
468.789	1340.87
469.161	1390.81
469.534	1389.68
469.906	1429.91
470.278	1433.3
470.65	1469.68
471.022	1483.01
471.394	1537.02
471.766	1549.9
472.138	1604.14
472.51	1626.74
472.882	1652.72
473.253	1654.08
473.625	1678.94
473.997	1722.33
474.369	1765.72
474.74	1813.4
475.112	1843
475.484	1861.76
475.855	1941.98
476.227	1954.64
476.598	2073.28
476.97	2064.47
477.341	2124.8
477.713	2176.33
478.084	2247.06
478.455	2298.58
478.827	2355.08
479.198	2423.55
479.569	2455.19
479.94	2562.31
480.311	2636.65
480.682	2683.88
481.053	2756.65
481.424	2850.21
481.795	2909.42
482.166	2994.61
482.537	3097.66
482.908	3199.58
483.279	3289.74
483.65	3350.99
484.021	3457.2
484.391	3524.77
484.762	3622.39
485.133	3733.57
485.503	3804.31
485.874	3962.72
486.244	4040.46
486.615	4211.08
486.985	4304.18
487.356	4456.49
487.726	4490.84
488.097	4645.41
488.467	4712.76
488.837	4927.67
489.207	4990.94
489.578	5127.66
489.948	5275.23
490.318	5422.8
490.688	5567.88
491.058	5631.38
491.428	5794.99
491.798	5954.31
492.168	6111.36
492.538	6181.87
492.908	6369.21
493.278	6505.7
493.648	6572.14
494.017	6719.26
494.387	6853.94
494.757	7013.04
495.126	7156.53
495.496	7286.7
495.866	7409.86
496.235	7616.86
496.605	7686.92
496.974	7869.28
497.344	7998.55
497.713	8141.14
498.082	8243.29
498.452	8335.26
498.821	8450.29
499.19	8647.8
499.559	8772.31
499.928	8872.42
500.298	8975.02
500.667	9156.71
501.036	9239.87
501.405	9393.76
501.774	9426.31
502.143	9610.26
502.512	9716.02
502.88	9865.62
503.249	9956.46
503.618	10025.16
503.987	10179.05
504.356	10239.39
504.724	10407.97
505.093	10497.46
505.462	10560.74
505.83	10813.16
506.199	10867.17
506.567	11068.07
506.936	11136.32
507.304	11271.91
507.672	11278.23
508.041	11413.82
508.409	11565.23
508.777	11762.06
509.145	11817.88
509.514	11870.08
509.882	12000.25
510.25	12035.95
510.618	12258.55
510.986	12298.32
511.354	12442.5
511.722	12605.66
512.09	12640.68
512.458	12760.68
512.826	12865.99
513.193	12962.48
513.561	12945.99
513.929	13081.8
514.297	13138.52
514.664	13288.35
515.032	13377.61
515.4	13487.67
515.767	13590.94
516.135	13657.83
516.502	13634.33
516.869	14081.1
517.237	13967.43
517.604	13987.09
517.972	14127.43
518.339	14177.82
518.706	14305.73
519.073	14338.72
519.44	14397.47
519.808	14613.29
520.175	14608.54
520.542	14705.49
520.909	14904.81
521.276	14893.51
521.643	15022.32
522.009	15137.34
522.376	15285.59
522.743	15351.57
523.11	15446.49
523.477	15478.58
523.843	15619.14
524.21	15846.25
524.577	15770.55
524.943	16031.78
525.31	15903.65
525.676	16139.35
526.043	16248.73
526.409	16168.28
526.776	16436.97
527.142	16440.81
527.508	16503.41
527.874	16639.22
528.241	16731.2
528.607	16749.5
528.973	16864.98
529.339	16889.61
529.705	17068.82
530.071	17235.82
530.437	17171.64
530.803	17212.77
531.169	17398.3
531.535	17270.85
531.901	17383.38
532.267	17499.77
532.632	17493.66
532.998	17604.4
533.364	17669.48
533.73	17634.23
534.095	17708.35
534.461	17825.18
534.826	17878.96
535.192	17824.5
535.557	18076.93
535.923	17907.89
536.288	18054.33
536.653	17999.64
537.019	17957.15
537.384	18066.08
537.749	18159.18
538.114	18149.24
538.479	18118.28
538.845	18160.09
539.21	18184.95
539.575	18274.43
539.94	18174.1
540.305	18365.73
540.67	18300.87
541.034	18335.68
541.399	18467.88
541.764	18401.66
542.129	18390.82
542.494	18452.96
542.858	18443.92
543.223	18525.95
543.587	18551.72
543.952	18533.19
544.316	18565.05
544.681	18552.17
545.045	18637.14
545.41	18666.51
545.774	18640.75
546.138	18690.92
546.503	18754.87
546.867	18625.84
547.231	18789.45
547.595	18819.96
547.959	18722.11
548.324	18736.12
548.688	18765.27
549.052	18875.1
549.416	18784.03
549.779	18879.39
550.143	18901.99
550.507	18946.73
550.871	19015.21
551.235	18963.46
551.599	19030.57
551.962	19069.89
552.326	19037.35
552.689	19212.94
553.053	19098.14
553.417	19103.79
553.78	19282.54
554.143	19240.06
554.507	19249.32
554.87	19304.24
555.234	19428.08
555.597	19339.04
555.96	19294.29
556.323	19382.43
556.686	19396.89
557.05	19479.37
557.413	19607.06
557.776	19529.54
558.139	19677.34
558.502	19676.21
558.865	19731.57
559.228	19855.64
559.59	19789.42
559.953	19926.59
560.316	20019.02
560.679	20007.27
561.041	20073.26
561.404	20067.61
561.767	20244.33
562.129	19976.31
562.492	20388.96
562.854	20341.05
563.217	20380.82
563.579	20378.79
563.941	20442.29
564.304	20544.88
564.666	20655.62
565.028	20602.51
565.39	20600.02
565.753	20707.37
566.115	20763.63
566.477	20845.44
566.839	20794.82
567.201	21017.87
567.563	20993.46
567.925	21188.26
568.287	21154.36
568.648	21135.15
569.01	21270.97
569.372	21384.86
569.734	21239.33
570.095	21413.79
570.457	21559.55
570.819	21494.46
571.18	21543.73
571.542	21618.98
571.903	21641.35
572.265	21642.71
572.626	21694.91
572.987	21750.05
573.349	21812.19
573.71	21982.36
574.071	21922.25
574.432	21894.45
574.794	22055.13
575.155	22048.8
575.516	22028.46
575.877	22140.1
576.238	22133.09
576.599	22093.54
576.96	22235.23
577.32	22164.73
577.681	22253.09
578.042	22348.68
578.403	22400.88
578.763	22367.89
579.124	22344.38
579.485	22428.45
579.845	22395.23
580.206	22300.32
580.566	22412.41
580.927	22470.03
581.287	22638.84
581.648	22385.74
582.008	22731.49
582.368	22523.59
582.728	22506.87
583.089	22521.78
583.449	22515.68
583.809	22500.99
584.169	22590.25
584.529	22502.8
584.889	22617.37
585.249	22562.01
585.609	22538.05
585.969	22580.99
586.329	22613.76
586.688	22603.13
587.048	22503.48
587.408	22576.02
587.768	22555.9
588.127	22484.49
588.487	22470.03
588.846	22660.76
589.206	22475.68
589.565	22445.85
589.925	22638.61
590.284	22537.15
590.643	22534.89
591.003	22565.17
591.362	22620.99
591.721	22554.77
592.08	22685.17
592.44	22688.33
592.799	22621.89
593.158	22604.26
593.517	22547.99
593.876	22641.78
594.235	22464.61
594.593	22572.4
594.952	22729.46
595.311	22630.03
595.67	22652.62
596.029	22711.15
596.387	22711.38
596.746	22665.05
597.104	22674.32
597.463	22517.94
597.822	22627.99
598.18	22595.9
598.538	22546.64
598.897	22719.97
599.255	22383.25
599.613	22826.86
599.972	22690.14
600.33	22869.79
600.688	22752.51
601.046	22805.62
601.404	22936.46
601.762	22836.8
602.12	22909.57
602.478	22821.43
602.836	22869.34
603.194	22846.74
603.552	22900.75
603.91	22742.11
604.268	22900.98
604.625	22912.05
604.983	22931.49
605.341	22760.87
605.698	22929
606.056	23025.5
606.413	22985.27
606.771	23106.85
607.128	23077.92
607.485	22959.28
607.843	22992.28
608.2	23139.39
608.557	23214.42
608.914	23050.35
609.272	23144.82
609.629	23230.69
609.986	23315.43
610.343	23227.98
610.7	23409.89
611.057	23444.24
611.414	23284.92
611.771	23340.06
612.127	23461.87
612.484	23447.86
612.841	23517.01
613.198	23412.15
613.554	23405.6
613.911	23517.01
614.267	23507.74
614.624	23585.93
614.98	23592.04
615.337	23774.4
615.693	23724.69
616.05	23777.34
616.406	23933.95
616.762	23715.65
617.118	23796.78
617.475	23785.93
617.831	23860.28
618.187	23846.04
618.543	23923.1
618.899	23973.49
619.255	24020.05
619.611	23971.91
619.967	24037.67
620.323	23980.5
620.678	23924
621.034	23924.23
621.39	23949.31
621.746	23990.22
622.101	24240.38
622.457	24056.66
622.812	24175.97
623.168	24175.97
623.523	24189.53
623.879	24209.42
624.234	24142.08
624.589	24227.95
624.945	24152.47
625.3	24272.92
625.655	24117.67
626.01	24269.98
626.365	24254.84
626.72	24221.4
627.075	24145.24
627.43	24173.71
627.785	24134.85
628.14	24240.83
628.495	24240.15
628.85	24096.43
629.205	24023.21
629.559	24179.36
629.914	24063.66
630.269	24026.15
630.623	24100.5
630.978	24056.88
631.332	24257.78
631.687	24195.41
632.041	24040.38
632.396	24103.66
632.75	24044
633.104	24159.48
633.459	23971.23
633.813	24022.31
634.167	23954.06
634.521	24012.14
634.875	23842.88
635.229	23854.85
635.583	23844.01
635.937	23750.9
636.291	23812.14
636.645	23759.26
636.999	23783.89
637.352	23784.35
637.706	23684.91
638.06	23877.45
638.413	23735.08
638.767	23707.29
639.121	23650.11
639.474	23532.83
639.828	23606.27
640.181	23729.88
640.534	23675.2
640.888	23561.53
641.241	23493.05
641.594	23528.76
641.947	23509.1
642.301	23432.27
642.654	23575.31
643.007	23578.25
643.36	23545.48
643.713	23500.51
644.066	23510.46
644.419	23429.55
644.771	23228.2
645.124	23046.74
645.477	22992.95
645.83	22874.31
646.182	22678.61
646.535	22740.76
646.888	22771.72
647.24	22673.87
647.593	22796.8
647.945	22726.75
648.298	22506.87
648.65	22520.42
649.002	22404.27
649.355	22636.58
649.707	22584.15
650.059	22551.38
650.411	22873.86
650.763	23036.12
651.115	23230.69
651.467	23190.01
651.819	23118.38
652.171	23136.68
652.523	23098.71
652.875	23080.41
653.227	22979.62
653.578	23193.85
653.93	23057.13
654.282	23026.17
654.633	23011.71
654.985	23082.9
655.337	23048.77
655.688	23085.16
656.039	23251.03
656.391	22922.9
656.742	23007.42
657.094	23015.33
657.445	23102.1
657.796	22898.95
658.147	22910.02
658.498	22924.03
658.849	23054.65
659.2	22903.92
659.551	22955.22
659.902	23044.25
660.253	23004.93
660.604	23051.03
660.955	22876.8
661.306	23060.3
661.656	22993.86
662.007	22976.91
662.358	22897.82
662.708	22968.32
663.059	22994.99
663.409	22802.23
663.76	23061.88
664.11	22986.63
664.461	22898.72
664.811	22914.31
665.161	22947.31
665.511	22874.31
665.862	22979.62
666.212	23079.05
666.562	23031.37
666.912	23100.97
667.262	22947.53
667.612	22916.35
667.962	23031.82
668.312	22981.43
668.662	23067.08
669.011	22971.71
669.361	22940.98
669.711	22905.73
670.06	22894.43
670.41	22833.86
670.76	22825.95
671.109	22878.16
671.459	22865.73
671.808	22792.73
672.157	22926.97
672.507	22656.24
672.856	22793.86
673.205	22823.69
673.554	22901.21
673.904	22850.13
674.253	22809.46
674.602	22725.84
674.951	22455.79
675.3	22413.08
675.649	22745.5
675.998	22623.47
676.346	22705.05
676.695	22729.68
677.044	22571.72
677.393	22686.75
677.741	22773.53
678.09	22587.32
678.438	22565.4
678.787	22501.44
679.135	22604.72
679.484	22371.95
679.832	22547.99
680.181	22364.27
680.529	22477.71
680.877	22391.39
681.225	22318.85
681.573	22468.22
681.922	22258.96
682.27	22158.4
682.618	22206.99
682.966	22105.52
683.314	22198.4
683.661	22142.58
684.009	21982.13
684.357	21963.15
684.705	21886.09
685.053	21896.03
685.4	21842.93
685.748	21730.16
686.095	21827.79
686.443	21763.38
686.79	21593.67
687.138	21722.71
687.485	21724.06
687.832	21552.31
688.18	21626.89
688.527	21511.41
688.874	21437.74
689.221	21340.79
689.568	21381.02
689.915	21258.99
690.262	21212.44
690.609	21251.98
690.956	21237.07
691.303	21065.32
691.65	21083.63
691.997	21063.06
692.344	20927.92
692.69	20988.49
693.037	20864.88
693.383	20659.68
693.73	20811.09
694.077	20669.17
694.423	20615.39
694.769	20632.79
695.116	20528.16
695.462	20481.83
695.808	20341.95
696.155	20365.23
696.501	20308.73
696.847	20194.16
697.193	20132.92
697.539	20165.01
697.885	19946.48
698.231	19918.69
698.577	19959.36
698.923	19807.5
699.269	19713.94
699.614	19706.94
699.96	19544.68
700.306	19519.15
700.651	19525.02
700.997	19534.97
701.342	19468.53
701.688	19377.91
702.033	19291.58
702.379	19240.74
702.724	19142.43
703.069	19166.61
703.415	18978.6
703.76	18943.34
704.105	18990.57
704.45	18888.88
704.795	18833.29
705.14	18713.97
705.485	18663.35
705.83	18656.57
706.175	18671.94
706.52	18580.87
706.865	18488.44
707.209	18466.97
707.554	18452.51
707.899	18507.87
708.243	18352.62
708.588	18316.92
708.932	18180.2
709.277	18158.73
709.621	18091.39
709.966	18164.83
710.31	18111.95
710.654	17969.81
710.998	17945.18
711.342	17956.7
711.687	17836.03
712.031	17801.68
712.375	17823.83
712.719	17812.75
713.063	17737.73
713.407	17662.7
713.75	17667.22
714.094	17730.72
714.438	17537.5
714.782	17591.51
715.125	17574.57
715.469	17629.25
715.812	17485.98
716.156	17316.95
716.499	17310.17
716.843	17325.99
717.186	17292.54
717.53	17441.24
717.873	17252.54
718.216	17269.04
718.559	17164.63
718.902	17111.08
719.246	17162.37
719.589	17083.05
719.932	16989.27
720.275	17006.22
720.617	16981.36
720.96	16980.46
721.303	16972.55
721.646	16959.67
721.989	16918.76
722.331	16969.61
722.674	16916.28
723.016	16958.99
723.359	16867.47
723.701	16925.09
724.044	16733.01
724.386	16693.23
724.729	16721.26
725.071	16709.05
725.413	16824.08
725.755	16665.21
726.097	16535.5
726.439	16563.52
726.782	16595.61
727.124	16594.93
727.465	16583.63
727.807	16568.26
728.149	16488.49
728.491	16401.94
728.833	16482.39
729.175	16582.5
729.516	16434.94
729.858	16453.92
730.199	16361.49
730.541	16408.04
730.882	16435.61
731.224	16366.69
731.565	16344.32
731.906	16324.2
732.248	16433.35
732.589	16281.94
732.93	16309.74
733.271	16385.44
733.612	16324.43
733.953	16317.88
734.294	16163.53
734.635	16255.96
734.976	16280.36
735.317	16222.96
735.658	16361.72
735.999	16223.19
736.339	16120.59
736.68	16224.09
737.021	16161.27
737.361	16142.29
737.702	16206.92
738.042	16092.8
738.383	16086.02
738.723	16161.5
739.063	16150.42
739.404	16152.46
739.744	16073.36
740.084	16107.49
740.424	16117.43
740.764	16068.17
741.104	16195.17
741.444	16131.44
741.784	16201.49
742.124	16056.64
742.464	16149.52
742.804	16094.61
743.143	16190.2
743.483	16124.89
743.823	16036.3
744.162	16119.01
744.502	16175.28
744.841	16109.75
745.181	16264.77
745.52	16201.72
745.86	16256.41
746.199	16273.13
746.538	16285.79
746.877	16435.61
747.216	16401.26
747.556	16313.58
747.895	16375.73
748.234	16434.48
748.573	16325.79
748.911	16424.31
749.25	16489.85
749.589	16493.69
749.928	16577.53
750.267	16577.3
750.605	16591.32
750.944	16582.73
751.283	16669.73
751.621	16800.12
751.96	16796.06
752.298	16839.44
752.636	16906.34
752.975	16880.57
753.313	16863.4
753.651	17078.99
753.989	17109.49
754.327	17069.04
754.666	17159.44
755.004	17298.19
755.342	17299.09
755.679	17397.17
756.017	17348.58
756.355	17530.95
756.693	17550.84
757.031	17629.93
757.368	17572.76
757.706	17700.89
758.044	17754
758.381	17822.02
758.719	17867.67
759.056	18023.37
759.394	18012.97
759.731	18045.29
760.068	18138.17
760.405	18130.94
760.743	18246.64
761.08	18292.29
761.417	18326.41
761.754	18368.22
762.091	18468.55
762.428	18477.82
762.765	18460.42
763.102	18504.26
763.438	18560.08
763.775	18532.73
764.112	18705.84
764.449	18682.56
764.785	18683.46
765.122	18681.43
765.458	18621.54
765.795	18636.01
766.131	18821.99
766.467	18839.62
766.804	18726.4
767.14	18715.33
767.476	18826.96
767.812	18830.58
768.148	18898.6
768.485	18803.91
768.821	18891.37
769.157	18835.1
769.492	18786.29
769.828	18945.38
770.164	18781.31
770.5	18795.78
770.836	18874.42
771.171	18816.12
771.507	18822.44
771.842	18716.68
772.178	18778.83
772.513	18626.74
772.849	18659.74
773.184	18547.65
773.519	18649.79
773.855	18605.27
774.19	18597.82
774.525	18637.59
774.86	18651.6
775.195	18586.29
775.53	18516.69
775.865	18434.2
776.2	18372.96
776.535	18280.76
776.87	18254.77
777.205	18189.01
777.539	18090.71
777.874	18240.31
778.209	18069.47
778.543	18108.34
778.878	18014.78
779.212	18084.38
779.547	17908.79
779.881	18009.81
780.215	17813.2
780.55	17937.72
780.884	17817.72
781.218	17789.93
781.552	17759.42
781.886	17774.79
782.22	17659.76
782.554	17582.48
782.888	17469.94
783.222	17372.54
783.556	17405.53
783.889	17376.61
784.223	17253.67
784.557	17311.97
784.89	17232.65
785.224	17203.5
785.557	17140
785.891	17045.77
786.224	17038.99
786.558	16985.66
786.891	16914.92
787.224	16794.02
787.557	16762.84
787.891	16781.82
788.224	16781.82
788.557	16704.76
788.89	16678.09
789.223	16666.57
789.556	16488.49
789.888	16518.1
790.221	16435.84
790.554	16335.5
790.887	16386.57
791.219	16260.93
791.552	16201.49
791.884	16215.51
792.217	16126.69
792.549	16057.32
792.882	16006.92
793.214	15884.44
793.546	15928.06
793.879	15894.38
794.211	15734.84
794.543	15828.62
794.875	15752.24
795.207	15816.19
795.539	15665.46
795.871	15674.73
796.203	15545.47
796.535	15487.84
796.867	15450.1
797.198	15407.39
797.53	15358.81
797.862	15271.58
798.193	15370.78
798.525	15226.15
798.856	15282.87
799.188	15134.63
799.519	15049.89
799.85	14982.09
800.182	15009.44
800.513	14999.72
800.844	14810.35
801.175	14814.41
801.506	14869.55
801.837	14809.89
802.168	14775.77
802.499	14722.21
802.83	14636.79
803.161	14567.87
803.491	14629.11
803.822	14533.74
804.153	14511.14
804.483	14326.97
804.814	14379.85
805.145	14330.36
805.475	14398.6
805.805	14313.41
806.136	14289.68
806.466	14293.52
806.796	14224.15
807.126	14128.1
807.457	14095.34
807.787	14134.66
808.117	13963.36
808.447	13997.49
808.777	13964.27
809.107	13864.83
809.436	13960.42
809.766	13894.21
810.096	13812.41
810.426	13708
810.755	13686.76
811.085	13765.4
811.414	13708.68
811.744	13566.31
812.073	13608.79
812.403	13617.16
812.732	13500.77
813.061	13492.87
813.39	13396.14
813.719	13403.6
814.049	13475.92
814.378	13402.25
814.707	13352.53
815.036	13330.16
815.365	13262.14
815.693	13111.63
816.022	13143.04
816.351	13143.04
816.68	13035.02
817.008	13110.05
817.337	12921.13
817.665	12993.67
817.994	13030.96
818.322	12925.2
818.651	12889.72
818.979	12817.4
819.307	12925.87
819.636	12868.02
819.964	12758.87
820.292	12821.47
820.62	12772.43
820.948	12816.73
821.276	12837.29
821.604	12692.21
821.932	12788.25
822.259	12769.95
822.587	12696.05
822.915	12764.75
823.243	12757.97
823.57	12750.51
823.898	12747.35
824.225	12695.6
824.553	12710.06
824.88	12668.71
825.207	12673
825.535	12720
825.862	12754.35
826.189	12608.14
826.516	12702.15
826.843	12736.28
827.17	12763.62
827.497	12742.15
827.824	12684.53
828.151	12690.63
828.478	12712.32
828.805	12720.23
829.131	12709.16
829.458	12618.76
829.785	12586.45
830.111	12596.17
830.438	12670.97
830.764	12556.17
831.09	12595.04
831.417	12568.14
831.743	12579.67
832.069	12683.85
832.395	12585.77
832.722	12645.88
833.048	12565.21
833.374	12612.66
833.7	12504.19
834.026	12530.18
834.351	12585.32
834.677	12586
835.003	12572.89
835.329	12608.14
835.654	12531.53
835.98	12459.67
836.306	12436.62
836.631	12372.44
836.956	12429.39
837.282	12447.92
837.607	12368.15
837.932	12314.14
838.258	12456.28
838.583	12317.98
838.908	12216.97
839.233	12318.89
839.558	12292.45
839.883	12207.25
840.208	12266.91
840.533	12155.27
840.858	12167.48
841.182	12138.1
841.507	12194.59
841.832	12107.59
842.156	12125.9
842.481	12078.89
842.805	12088.38
843.13	11911.21
843.454	12002.51
843.778	11870.31
844.103	11927.71
844.427	11858.56
844.751	11919.35
845.075	11854.04
845.399	11805.45
845.723	11699.47
846.047	11831.89
846.371	11659.24
846.695	11684.33
847.019	11567.27
847.343	11597.32
847.666	11506.25
847.99	11437.33
848.313	11429.64
848.637	11379.02
848.96	11405.46
849.284	11317.1
849.607	11187.39
849.931	11215.64
850.254	11139.48
850.577	11044.12
850.9	11051.12
851.223	11009.54
851.546	10897.45
851.869	10809.32
852.192	10942.88
852.515	10806.61
852.838	10758.7
853.161	10807.29
853.483	10821.07
853.806	10715.76
854.129	10670.11
854.451	10612.04
854.774	10561.42
855.096	10525.94
855.419	10485.49
855.741	10497.01
856.063	10398.94
856.385	10365.72
856.708	10352.16
857.03	10337.24
857.352	10337.24
857.674	10334.08
857.996	10241.43
858.318	10157.13
858.64	10270.13
858.961	10089.11
859.283	10172.95
859.605	10091.37
859.926	10066.51
860.248	10104.03
860.57	10002.34
860.891	10113.52
861.212	9952.39
861.534	9879.63
861.855	9852.51
862.176	10001.43
862.498	9906.07
862.819	9920.3
863.14	9852.28
863.461	9784.49
863.782	9782.45
864.103	9791.95
864.424	9756.47
864.745	9734.32
865.065	9652.06
865.386	9652.29
865.707	9658.62
866.027	9699.52
866.348	9642.57
866.668	9674.89
866.989	9592.86
867.309	9519.41
867.63	9561.22
867.95	9562.12
868.27	9584.95
868.59	9564.16
868.91	9532.07
869.23	9551.5
869.55	9458.85
869.87	9457.27
870.19	9406.65
870.51	9404.39
870.83	9454.55
871.15	9431.28
871.469	9330.26
871.789	9396.02
872.109	9368.45
872.428	9318.74
872.748	9344.05
873.067	9348.34
873.386	9352.18
873.706	9305.86
874.025	9266.54
874.344	9229.7
874.663	9250.04
874.982	9248.91
875.301	9242.13
875.62	9198.06
875.939	9189.93
876.258	9156.26
876.577	9169.36
876.896	9105.86
877.214	9119.87
877.533	9131.62
877.852	9096.6
878.17	9083.26
878.489	9097.5
878.807	9142.02
879.125	9017.05
879.444	9053.89
879.762	8991.74
880.08	9020.44
880.398	8944.74
880.716	9009.59
881.034	8922.59
881.352	9003.94
881.67	8931.86
881.988	8907.22
882.306	8871.74
882.624	8828.13
882.941	8780.9
883.259	8756.72
883.577	8743.84
883.894	8754.91
884.212	8747
884.529	8687.34
884.846	8743.39
885.164	8646.89
885.481	8669.26
885.798	8659.77
886.115	8574.8
886.432	8621.36
886.75	8494.35
887.067	8589.27
887.383	8537.74
887.7	8540.91
888.017	8483.96
888.334	8430.4
888.651	8458.87
888.967	8448.03
889.284	8370.51
889.6	8361.93
889.917	8221.82
890.233	8296.39
890.55	8262.49
890.866	8317.18
891.182	8253.46
891.498	8227.02
891.815	8283.29
892.131	8172.1
892.447	8179.56
892.763	8117.19
893.079	8143.18
893.395	8075.15
893.71	8079.22
894.026	8019.11
894.342	8064.76
894.657	8032.22
894.973	7935.05
895.289	8027.02
895.604	7942.05
895.92	7905.89
896.235	7887.82
896.55	7828.61
896.865	7842.62
897.181	7821.6
897.496	7770.08
897.811	7764.65
898.126	7723.07
898.441	7681.72
898.756	7636.75
899.071	7657.54
899.386	7597.43
899.7	7524.43
900.015	7496.19
900.33	7513.81
900.644	7533.7
900.959	7472.91
901.273	7435.62
901.588	7401.27
901.902	7397.66
902.216	7380.71
902.531	7339.58
902.845	7272.69
903.159	7243.54
903.473	7242.18
903.787	7206.03
904.101	7191.79
904.415	7165.57
904.729	7148.4
905.042	7095.75
905.356	7072.92
905.67	7102.07
905.984	7092.58
906.297	7071.57
906.611	6976.2
906.924	7019.36
907.237	6958.35
907.551	6846.49
907.864	6875.41
908.177	6854.85
908.491	6909.99
908.804	6831.57
909.117	6714.06
909.43	6733.95
909.743	6741.18
910.056	6671.58
910.368	6675.64
910.681	6712.25
910.994	6636.32
911.307	6598.81
911.619	6555.42
911.932	6549.55
912.244	6492.82
912.557	6510.68
912.869	6481.07
913.181	6394.75
913.494	6407.18
913.806	6377.12
914.118	6407.63
914.43	6311.59
914.742	6326.73
915.054	6274.98
915.366	6206.05
915.678	6256.45
915.99	6192.04
916.302	6121.99
916.613	6032.27
916.925	6110.01
917.236	6081.54
917.548	6074.76
917.859	6027.75
918.171	6034.98
918.482	5966.74
918.794	5979.84
919.105	6042.44
919.416	5906.62
919.727	5918.6
920.038	5888.55
920.349	5835.21
920.66	5843.35
920.971	5790.7
921.282	5752.28
921.593	5760.87
921.903	5717.02
922.214	5655.56
922.525	5674.99
922.835	5646.52
923.146	5611.04
923.456	5579.85
923.767	5585.95
924.077	5605.84
924.387	5597.93
924.697	5532.4
925.008	5503.47
925.318	5507.99
925.628	5497.14
925.938	5467.54
926.248	5368.79
926.558	5352.74
926.867	5371.72
927.177	5279.3
927.487	5335.11
927.796	5259.18
928.106	5280.88
928.416	5282.69
928.725	5284.27
929.034	5221.44
929.344	5215.57
929.653	5209.69
929.962	5174.21
930.271	5168.79
930.581	5070.04
930.89	5060.32
931.199	5104.39
931.508	5041.79
931.817	5017.83
932.125	4989.59
932.434	4985.07
932.743	4933.32
933.051	4935.35
933.36	4912.98
933.669	4892.41
933.977	4883.83
934.286	4858.97
934.594	4842.7
934.902	4819.87
935.21	4806.54
935.519	4751.63
935.827	4790.95
936.135	4670.72
936.443	4687.67
936.751	4660.78
937.059	4682.93
937.367	4669.59
937.674	4662.82
937.982	4644.06
938.29	4614.23
938.597	4578.3
938.905	4521.35
939.213	4541.01
939.52	4507.79
939.827	4543.95
940.135	4480.9
940.442	4484.06
940.749	4450.39
941.056	4428.92
941.363	4400.68
941.67	4390.51
941.977	4371.75
942.284	4344.41
942.591	4360.9
942.898	4307.34
943.205	4279.32
943.511	4292.66
943.818	4259.66
944.125	4226.67
944.431	4233.67
944.738	4218.08
945.044	4200.68
945.35	4147.12
945.657	4169.49
945.963	4130.85
946.269	4115.03
946.575	4109.61
946.881	4081.14
947.187	4105.32
947.493	4034.58
947.799	4012.89
948.105	4036.62
948.41	4002.27
948.716	3983.74
949.022	3954.36
949.327	3952.1
949.633	3922.27
949.938	3927.02
950.244	3914.81
950.549	3844.98
950.854	3829.16
951.16	3884.3
951.465	3813.12
951.77	3827.81
952.075	3790.75
952.38	3744.2
952.685	3822.39
952.99	3736.29
953.294	3750.52
953.599	3705.55
953.904	3682.73
954.209	3702.39
954.513	3661.26
954.818	3628.72
955.122	3655.61
955.426	3625.78
955.731	3611.09
956.035	3566.35
956.339	3569.51
956.643	3584.2
956.948	3553.01
957.252	3515.27
957.556	3491.55
957.86	3514.14
958.163	3517.31
958.467	3484.09
958.771	3462.39
959.075	3445.45
959.378	3428.95
959.682	3360.93
959.985	3401.83
960.289	3348.27
960.592	3360.93
960.896	3338.78
961.199	3334.94
961.502	3303.08
961.805	3322.51
962.108	3292.23
962.411	3290.65
962.714	3261.95
963.017	3256.98
963.32	3280.03
963.623	3234.38
963.926	3198.9
964.228	3204.77
964.531	3224.66
964.833	3236.64
965.136	3145.34
965.438	3119.58
965.741	3172.23
966.043	3119.35
966.345	3148.05
966.648	3122.29
966.95	3082.97
967.252	3022.18
967.554	3030.54
967.856	3021.95
968.158	3023.08
968.46	3002.75
968.761	3003.88
969.063	2983.99
969.365	2986.48
969.666	2930.43
969.968	2924.33
970.269	2940.83
970.571	2920.71
970.872	2903.54
971.174	2879.59
971.475	2884.1
971.776	2865.57
972.077	2865.12
972.378	2841.62
972.679	2861.05
972.98	2816.08
973.281	2795.07
973.582	2787.38
973.883	2799.14
974.183	2773.15
974.484	2727.95
974.785	2762.75
975.085	2748.06
975.386	2721.17
975.686	2709.65
975.986	2720.27
976.287	2697.9
976.587	2667.84
976.887	2668.29
977.187	2683.43
977.487	2677.33
977.787	2612.47
978.087	2652.02
978.387	2626.71
978.687	2601.4
978.987	2581.51
979.286	2580.61
979.586	2574.06
979.885	2563.89
980.185	2540.39
980.484	2528.41
980.784	2548.75
981.083	2485.02
981.382	2471.01
981.682	2498.13
981.981	2482.08
982.28	2480.05
982.579	2435.76
982.878	2447.96
983.177	2460.61
983.475	2412.48
983.774	2435.08
984.073	2452.7
984.372	2398.24
984.67	2396.43
984.969	2381.75
985.267	2366.15
985.566	2346.04
985.864	2341.52
986.162	2325.02
986.461	2313.05
986.759	2307.17
987.057	2300.84
987.355	2291.58
987.653	2273.95
987.951	2262.88
988.249	2284.57
988.547	2267.17
988.844	2249.77
989.142	2260.62
989.44	2207.96
989.737	2222.2
990.035	2198.47
990.332	2184.91
990.63	2201.64
990.927	2196.67
991.224	2135.2
991.521	2138.59
991.819	2115.09
992.116	2146.95
992.413	2132.26
992.71	2096.1
993.006	2111.47
993.303	2119.61
993.6	2083.67
993.897	2065.14
994.193	2042.09
994.49	2049.55
994.787	2063.34
995.083	2040.06
995.379	2043.68
995.676	2003.9
995.972	2024.69
996.268	2012.04
996.565	1974.3
996.861	1965.03
997.157	1991.93
997.453	1968.65
997.749	1927.97
998.044	1951.25
998.34	1953.96
998.636	1939.72
998.932	1913.51
999.227	1899.05
999.523	1895.66
999.818	1875.09
1000.114	1850.91
1000.409	1840.97
1000.704	1862.66
1001	1849.56
1001.295	1832.16
1001.59	1851.82
1001.885	1808.2
1002.18	1808.43
1002.475	1800.07
1002.77	1800.07
1003.065	1791.7
1003.359	1748.99
1003.654	1783.57
1003.949	1737.47
1004.243	1739.05
1004.538	1733.17
1004.832	1737.02
1005.127	1728.2
1005.421	1704.02
1005.715	1713.97
1006.009	1719.84
1006.304	1667.64
1006.598	1654.76
1006.892	1654.98
1007.186	1653.4
1007.48	1650.47
1007.773	1644.82
1008.067	1622.44
1008.361	1604.14
1008.655	1624.48
1008.948	1599.62
1009.242	1591.71
1009.535	1593.52
1009.829	1592.61
1010.122	1544.03
1010.415	1567.3
1010.708	1574.08
1011.001	1515.55
1011.295	1556.46
1011.588	1513.97
1011.881	1511.49
1012.173	1494.09
1012.466	1524.14
1012.759	1487.08
1013.052	1489.57
1013.344	1473.52
1013.637	1459.51
1013.93	1485.72
1014.222	1469.9
1014.514	1412.05
1014.807	1418.83
1015.099	1418.15
1015.391	1433.3
1015.683	1423.8
1015.976	1397.14
1016.268	1364.14
1016.56	1375.9
1016.851	1371.6
1017.143	1380.19
1017.435	1376.12
1017.727	1366.63
1018.018	1325.5
1018.31	1322.79
1018.602	1311.49
1018.893	1311.72
1019.185	1301.1
1019.476	1291.6
1019.767	1316.01
1020.058	1284.82
1020.35	1289.57
1020.641	1247.76
1020.932	1275.33
1021.223	1267.65
1021.514	1247.54
1021.804	1241.44
1022.095	1225.62
1022.386	1226.3
1022.677	1219.29
1022.967	1209.35
1023.258	1177.48
1023.548	1182.91
1023.839	1198.27
1024.129	1173.64
1024.419	1151.5
1024.709	1172.29
1025	1151.95
1025.29	1161.66
1025.58	1132.06
1025.87	1127.54
1026.16	1139.52
1026.449	1107.2
1026.739	1093.87
1027.029	1104.49
1027.319	1099.52
1027.608	1078.05
1027.898	1092.97
1028.187	1080.99
1028.477	1066.98
1028.766	1088.67
1029.055	1060.2
1029.344	1065.62
1029.634	1044.83
1029.923	1029.69
1030.212	1037.83
1030.501	1046.41
1030.79	1012.52
1031.078	1005.74
1031.367	1031.72
1031.656	999.41
1031.945	988.79
1032.233	995.12
1032.522	997.83
1032.81	998.28
1033.099	967.32
1033.387	994.89
1033.675	950.82
1033.963	935
1034.251	943.82
1034.54	943.14
1034.828	923.03
1035.116	927.09
1035.403	914.67
1035.691	909.24
1035.979	916.93
1036.267	926.64
1036.554	888.68
1036.842	913.08
1037.129	914.21
1037.417	891.16
1037.704	874.67
1037.992	869.02
1038.279	880.09
1038.566	864.95
1038.853	864.95
1039.14	864.95
