Data from hue_280_FLMS001491_00045.txt Node
Date: Tue Feb 07 15:55:19 GMT 2017
User: dcchb
Spectrometer: FLMS00149
Trigger mode: 0
Integration Time (sec): 2.000000E-2
Scans to average: 10
Electric dark correction enabled: true
Nonlinearity correction enabled: false
Boxcar width: 0
XAxis mode: Wavelengths
Number of Pixels in Spectrum: 2048
>>>>>Begin Spectral Data<<<<<
341.393	-12.25
341.776	-12.25
342.16	-12.25
342.543	-66.71
342.927	-69.42
343.31	-68.52
343.693	-62.87
344.077	-45.46
344.46	-43.21
344.843	-58.12
345.226	-41.85
345.61	-22.19
345.993	-36.2
346.376	-4.34
346.759	6.06
347.142	17.13
347.525	44.02
347.908	55.32
348.291	80.86
348.674	75.89
349.057	103.46
349.44	107.53
349.823	142.1
350.206	152.95
350.588	187.52
350.971	223.91
351.354	205.6
351.737	253.06
352.119	238.37
352.502	263.45
352.884	254.41
353.267	273.62
353.65	281.08
354.032	288.99
354.414	287.18
354.797	310.91
355.179	296.22
355.562	340.74
355.944	300.51
356.326	324.02
356.709	320.85
357.091	335.99
357.473	335.09
357.855	318.59
358.238	330.57
358.62	322.44
359.002	322.66
359.384	326.28
359.766	338.25
360.148	326.73
360.53	315.43
360.912	327.63
361.294	313.62
361.676	316.33
362.057	326.28
362.439	326.95
362.821	314.07
363.203	313.62
363.584	312.72
363.966	320.18
364.348	314.98
364.729	316.11
365.111	321.76
365.493	312.94
365.874	321.08
366.256	305.03
366.637	310.01
367.019	311.36
367.4	323.56
367.781	290.35
368.163	308.65
368.544	290.12
368.925	296.9
369.306	318.37
369.688	309.55
370.069	311.36
370.45	313.62
370.831	304.81
371.212	316.79
371.593	300.97
371.974	304.36
372.355	304.36
372.736	293.28
373.117	296.22
373.498	318.82
373.879	311.59
374.26	307.29
374.641	306.84
375.021	281.76
375.402	306.16
375.783	298.71
376.163	312.49
376.544	314.98
376.925	298.71
377.305	312.04
377.686	326.5
378.066	300.06
378.447	306.39
378.827	325.6
379.208	313.85
379.588	321.31
379.968	323.11
380.349	312.72
380.729	318.37
381.109	318.14
381.489	320.85
381.87	319.05
382.25	351.36
382.63	329.67
383.01	318.82
383.39	328.99
383.77	321.53
384.15	326.28
384.53	336.22
384.91	336.9
385.29	345.26
385.67	342.55
386.049	337.8
386.429	344.81
386.809	366.28
387.189	337.58
387.568	359.04
387.948	366.95
388.328	360.85
388.707	334.19
389.087	343.23
389.466	350.23
389.846	370.57
390.225	344.58
390.605	360.4
390.984	326.95
391.363	364.02
391.743	347.75
392.122	383.22
392.501	375.77
392.881	357.01
393.26	380.06
393.639	388.2
394.018	352.04
394.397	363.34
394.776	386.84
395.155	373.06
395.534	387.52
395.913	373.51
396.292	406.5
396.671	363.11
397.05	365.15
397.429	373.51
397.808	382.09
398.186	383.45
398.565	380.06
398.944	390.68
399.323	411.92
399.701	394.07
400.08	376.9
400.458	401.08
400.837	419.38
401.215	427.29
401.594	423.9
401.972	397.46
402.351	408.99
402.729	403.56
403.107	424.81
403.486	411.47
403.864	415.09
404.242	431.36
404.62	425.71
404.999	439.72
405.377	435.88
405.755	439.72
406.133	453.28
406.511	444.92
406.889	444.92
407.267	456.44
407.645	448.76
408.023	463.67
408.401	464.35
408.779	451.92
409.156	458.25
409.534	479.72
409.912	475.2
410.29	510.45
410.667	500.96
411.045	491.7
411.422	501.41
411.8	497.35
412.178	535.31
412.555	544.8
412.933	524.92
413.31	536.21
413.687	558.14
414.065	540.06
414.442	563.56
414.819	557.23
415.197	561.52
415.574	575.76
415.951	579.6
416.328	595.42
416.705	605.37
417.082	607.4
417.46	598.36
417.837	600.62
418.214	622.99
418.591	627.06
418.967	632.71
419.344	615.76
419.721	649.88
420.098	617.79
420.475	645.14
420.852	655.76
421.228	686.95
421.605	692.37
421.982	681.3
422.358	715.19
422.735	716.1
423.111	716.77
423.488	696.66
423.864	726.27
424.241	735.98
424.617	736.66
424.994	744.12
425.37	771.69
425.746	748.64
426.123	783.44
426.499	764.01
426.875	806.49
427.251	801.74
427.627	814.4
428.003	828.64
428.379	840.16
428.756	833.38
429.132	851.91
429.507	865.02
429.883	873.38
430.259	884.23
430.635	887.39
431.011	903.66
431.387	924.91
431.763	937.79
432.138	922.19
432.514	961.06
432.89	952.93
433.265	992.25
433.641	994.28
434.016	1020.72
434.392	1004.68
434.767	1020.95
435.143	1034.51
435.518	1029.31
435.894	1069.53
436.269	1095.07
436.644	1082.87
437.02	1124.45
437.395	1106.6
437.77	1132.58
438.145	1159.93
438.52	1149.53
438.895	1163.99
439.271	1187.72
439.646	1208.97
440.021	1224.56
440.395	1204.9
440.77	1205.8
441.145	1233.15
441.52	1260.94
441.895	1264.78
442.27	1268.17
442.645	1298.23
443.019	1293.03
443.394	1298.23
443.769	1279.7
444.143	1278.79
444.518	1329.64
444.892	1325.8
445.267	1336.19
445.641	1338.45
446.016	1332.8
446.39	1348.4
446.764	1343.65
447.139	1375.06
447.513	1366.93
447.887	1376.42
448.262	1379.81
448.636	1369.87
449.01	1410.99
449.384	1380.26
449.758	1403.31
450.132	1424.78
450.506	1429.75
450.88	1438.79
451.254	1437.43
451.628	1443.76
452.002	1503.19
452.376	1502.52
452.75	1473.14
453.123	1500.94
453.497	1537.54
453.871	1510.2
454.244	1527.38
454.618	1526.7
454.992	1545.45
455.365	1542.29
455.739	1585.9
456.112	1618.22
456.486	1590.65
456.859	1632.68
457.232	1647.6
457.606	1621.61
457.979	1638.78
458.352	1669.29
458.725	1707.26
459.099	1715.84
459.472	1768.05
459.845	1743.64
460.218	1794.03
460.591	1765.79
460.964	1746.8
461.337	1808.27
461.71	1823.41
462.083	1841.72
462.456	1830.19
462.829	1874.26
463.201	1886.01
463.574	1892.34
463.947	1910.42
464.32	1908.61
464.692	1956.06
465.065	1948.15
465.438	1990.41
465.81	1985.22
466.183	1980.7
466.555	2039.23
466.928	2056.17
467.3	2058.43
467.672	2096.4
468.045	2128.94
468.417	2127.36
468.789	2128.72
469.161	2149.96
469.534	2195.83
469.906	2215.72
470.278	2220.01
470.65	2238.77
471.022	2278.09
471.394	2305.43
471.766	2257.3
472.138	2322.61
472.51	2367.35
472.882	2383.62
473.253	2415.94
473.625	2417.97
473.997	2486.45
474.369	2479.44
474.74	2470.4
475.112	2517.86
475.484	2534.58
475.855	2580
476.227	2631.3
476.598	2677.63
476.97	2662.71
477.341	2706.1
477.713	2772.54
478.084	2799.21
478.455	2816.61
478.827	2845.08
479.198	2904.74
479.569	2854.57
479.94	2935.02
480.311	2957.85
480.682	3039.88
481.053	3065.87
481.424	3121.01
481.795	3111.74
482.166	3154.9
482.537	3188.8
482.908	3224.73
483.279	3267.44
483.65	3300.66
484.021	3351.51
484.391	3392.41
484.762	3376.37
485.133	3438.06
485.503	3443.71
485.874	3513.09
486.244	3536.59
486.615	3627.66
486.985	3633.53
487.356	3657.94
487.726	3686.64
488.097	3709.24
488.467	3751.95
488.837	3797.82
489.207	3845.51
489.578	3875.11
489.948	3917.59
490.318	3906.75
490.688	3956.01
491.058	4008.44
491.428	4043.69
491.798	4061.09
492.168	4170.02
492.538	4141.09
492.908	4133.41
493.278	4202.11
493.648	4208.43
494.017	4216.12
494.387	4302.67
494.757	4290.92
495.126	4325.95
495.496	4370.24
495.866	4396
496.235	4396
496.605	4445.94
496.974	4433.74
497.344	4450.69
497.713	4486.39
498.082	4513.29
498.452	4488.65
498.821	4588.31
499.19	4559.84
499.559	4603.68
499.928	4617.46
500.298	4626.5
500.667	4678.93
501.036	4624.92
501.405	4651.13
501.774	4669.21
502.143	4710.79
502.512	4734.97
502.88	4749.44
503.249	4759.15
503.618	4778.82
503.987	4822.2
504.356	4849.1
504.724	4821.3
505.093	4870.56
505.462	4835.08
505.83	4829.44
506.199	4880.73
506.567	4949.43
506.936	4949.21
507.304	4981.07
507.672	5013.84
508.041	5025.14
508.409	5026.04
508.777	4999.83
509.145	5070.78
509.514	5072.59
509.882	5065.36
510.25	5102.2
510.618	5082.99
510.986	5128.64
511.354	5103.55
511.722	5169.54
512.09	5199.82
512.458	5200.27
512.826	5212.48
513.193	5213.38
513.561	5195.75
513.929	5257.22
514.297	5288.63
514.664	5355.75
515.032	5308.29
515.4	5320.5
515.767	5360.95
516.135	5367.5
516.502	5316.65
516.869	5419.02
517.237	5430.32
517.604	5329.54
517.972	5416.76
518.339	5402.98
518.706	5406.82
519.073	5407.27
519.44	5439.81
519.808	5496.99
520.175	5449.53
520.542	5545.57
520.909	5547.38
521.276	5495.86
521.643	5571.34
522.009	5546.48
522.376	5593.26
522.743	5600.26
523.11	5631.9
523.477	5676.87
523.843	5710.77
524.21	5703.76
524.577	5718
524.943	5701.73
525.31	5753.93
525.676	5791.67
526.043	5817.66
526.409	5820.6
526.776	5833.93
527.142	5899.92
527.508	5907.82
527.874	6022.17
528.241	5996.41
528.607	5894.49
528.973	5960.7
529.339	6031.21
529.705	6025.11
530.071	6030.53
530.437	6085.45
530.803	6107.82
531.169	6081.15
531.535	6110.08
531.901	6126.58
532.267	6152.56
532.632	6185.11
532.998	6215.84
533.364	6172
533.73	6170.19
534.095	6263.52
534.461	6250.41
534.826	6238.21
535.192	6266.46
535.557	6267.36
535.923	6316.85
536.288	6312.79
536.653	6374.25
537.019	6326.12
537.384	6331.54
537.749	6362.28
538.114	6383.74
538.479	6405.66
538.845	6374.48
539.21	6372.22
539.575	6376.51
539.94	6447.47
540.305	6437.75
540.67	6495.61
541.034	6473.69
541.399	6489.73
541.764	6526.79
542.129	6506.68
542.494	6534.7
542.858	6546
543.223	6540.12
543.587	6594.81
543.952	6553.91
544.316	6601.14
544.681	6586.68
545.045	6582.61
545.41	6622.38
545.774	6630.07
546.138	6649.5
546.503	6606.34
546.867	6682.27
547.231	6693.34
547.595	6663.51
547.959	6707.8
548.324	6670.06
548.688	6682.04
549.052	6695.83
549.416	6770.85
549.779	6768.14
550.143	6801.59
550.507	6778.76
550.871	6819.44
551.235	6796.16
551.599	6900.57
551.962	6803.17
552.326	6819.21
552.689	6885.65
553.053	6831.19
553.417	6847.24
553.78	6940.34
554.143	6898.76
554.507	6917.06
554.87	6885.43
555.234	7005.42
555.597	6926.56
555.96	6986.67
556.323	6982.15
556.686	6998.19
557.05	6998.87
557.413	7000
557.776	7047.68
558.139	7070.96
558.502	7074.8
558.865	7155.25
559.228	7131.07
559.59	7142.14
559.953	7126.1
560.316	7260.33
560.679	7149.6
561.041	7244.51
561.404	7234.57
561.767	7282.93
562.129	7281.8
562.492	7350.05
562.854	7352.76
563.217	7333.1
563.579	7345.75
563.941	7380.1
564.304	7422.36
564.666	7441.34
565.028	7468.24
565.39	7513.21
565.753	7515.92
566.115	7523.6
566.477	7575.58
566.839	7548.69
567.201	7652.19
567.563	7598.85
567.925	7684.95
568.287	7668.46
568.648	7698.96
569.01	7737.16
569.372	7810.37
569.734	7776.48
570.095	7811.5
570.457	7788
570.819	7866.19
571.18	7912.29
571.542	7923.59
571.903	7932.63
572.265	7892.41
572.626	7982.8
572.987	8015.11
573.349	8031.84
573.71	8107.32
574.071	8051.5
574.432	8090.14
574.794	8213.3
575.155	8145.96
575.516	8167.65
575.877	8249.91
576.238	8301.66
576.599	8311.83
576.96	8327.2
577.32	8362.68
577.681	8371.94
578.042	8453.75
578.403	8457.36
578.763	8498.49
579.124	8566.51
579.485	8623.91
579.845	8698.94
580.206	8625.72
580.566	8668.66
580.927	8710.01
581.287	8804.92
581.648	8810.8
582.008	8903.9
582.368	8859.39
582.728	8945.94
583.089	9006.27
583.449	9073.84
583.809	9065.93
584.169	9165.59
584.529	9143.67
584.889	9349.32
585.249	9248.98
585.609	9335.76
585.969	9385.02
586.329	9442.2
586.688	9453.72
587.048	9448.07
587.408	9539.37
587.768	9647.84
588.127	9669.76
588.487	9747.5
588.846	9856.2
589.206	9848.06
589.565	9929.41
589.925	9984.78
590.284	9989.07
590.643	10121.73
591.003	10198.79
591.362	10287.82
591.721	10307.26
592.08	10354.26
592.44	10473.58
592.799	10417.76
593.158	10487.14
593.517	10547.93
593.876	10590.87
594.235	10661.6
594.593	10768.04
594.952	10855.49
595.311	10834.02
595.67	10966.67
596.029	10989.73
596.387	11118.54
596.746	11114.24
597.104	11213.9
597.463	11151.98
597.822	11280.79
598.18	11274.69
598.538	11257.29
598.897	11480.11
599.255	11397.62
599.613	11561.46
599.972	11507.9
600.33	11612.31
600.688	11613.44
601.046	11722.59
601.404	11784.28
601.762	11736.6
602.12	11822.02
602.478	11893.43
602.836	12057.27
603.194	11878.74
603.552	11944.73
603.91	11967.55
604.268	12062.24
604.625	12052.75
604.983	12147.89
605.341	12037.61
605.698	12163.93
606.056	12285.96
606.413	12290.71
606.771	12283.02
607.128	12348.56
607.485	12259.07
607.843	12387.2
608.2	12421.33
608.557	12462
608.914	12454.77
609.272	12654.77
609.629	12641.66
609.986	12652.28
610.343	12602.79
610.7	12747.42
611.057	12685.95
611.414	12695.44
611.771	12745.16
612.127	12850.69
612.484	12858.83
612.841	12924.82
613.198	12926.4
613.554	12841.65
613.911	13002.78
614.267	12998.49
614.624	12972.95
614.98	13052.04
615.337	13038.71
615.693	13015.89
616.05	13092.04
616.406	13132.72
616.762	13121.19
617.118	13091.36
617.475	13150.12
617.831	13217.24
618.187	13230.34
618.543	13225.37
618.899	13287.07
619.255	13292.72
619.611	13225.82
619.967	13428.08
620.323	13460.17
620.678	13386.05
621.034	13326.84
621.39	13360.96
621.746	13320.06
622.101	13499.94
622.457	13406.38
622.812	13423.33
623.168	13378.14
623.523	13434.18
623.879	13529.32
624.234	13380.85
624.589	13417.01
624.945	13521.64
625.3	13471.02
625.655	13543.33
626.01	13490.45
626.365	13492.26
626.72	13424.46
627.075	13519.6
627.43	13459.49
627.785	13479.38
628.14	13455.65
628.495	13558.7
628.85	13486.61
629.205	13486.83
629.559	13519.6
629.914	13393.5
630.269	13430.34
630.623	13468.76
630.978	13337.23
631.332	13444.8
631.687	13470.56
632.041	13422.43
632.396	13443.67
632.75	13341.08
633.104	13424.92
633.459	13417.68
633.813	13479.38
634.167	13383.11
634.521	13468.53
634.875	13395.54
635.229	13420.4
635.583	13294.3
635.937	13302.88
636.291	13264.02
636.645	13308.53
636.999	13333.84
637.352	13295.65
637.706	13154.41
638.06	13245.26
638.413	13265.37
638.767	13166.84
639.121	13291.81
639.474	13220.85
639.828	13200.29
640.181	13166.84
640.534	13155.09
640.888	13082.33
641.241	13136.56
641.594	13171.14
641.947	13213.4
642.301	13148.76
642.654	13164.13
643.007	13278.48
643.36	13140.18
643.713	13081.2
644.066	13110.12
644.419	13094.53
644.771	13061.08
645.124	12843.01
645.477	12877.36
645.83	12797.36
646.182	12757.14
646.535	12698.15
646.888	12782.9
647.24	12623.13
647.593	12799.17
647.945	12658.83
648.298	12718.95
648.65	12732.73
649.002	12708.32
649.355	12742.45
649.707	12781.54
650.059	12729.11
650.411	12906.96
650.763	12976.34
651.115	13047.75
651.467	13017.69
651.819	13053.4
652.171	12942.89
652.523	12986.06
652.875	12959.62
653.227	12977.47
653.578	13054.3
653.93	12992.61
654.282	12929.11
654.633	12929.34
654.985	13008.66
655.337	13028.09
655.688	13061.99
656.039	13042.78
656.391	12936.57
656.742	12897.92
657.094	13045.04
657.445	13016.56
657.796	13048.65
658.147	13037.81
658.498	13019.28
658.849	13069.44
659.2	13021.54
659.551	13003.68
659.902	13062.21
660.253	12925.72
660.604	13118.03
660.955	12992.84
661.306	13033.29
661.656	13005.72
662.007	13093.4
662.358	13103.12
662.708	13095.43
663.059	13022.89
663.409	12995.1
663.76	13042.1
664.11	13088.2
664.461	13134.08
664.811	13099.27
665.161	13166.62
665.511	13068.77
665.862	13156.22
666.212	13156.67
666.562	13202.32
666.912	13141.76
667.262	13115.32
667.612	13089.33
667.962	13210.46
668.312	13069.44
668.662	13257.69
669.011	13165.71
669.361	13152.83
669.711	13151.48
670.06	13067.41
670.41	13087.75
670.76	13029.22
671.109	13098.37
671.459	13161.19
671.808	13023.57
672.157	13007.75
672.507	12986.51
672.856	13065.6
673.205	12986.06
673.554	13125.49
673.904	12943.8
674.253	13084.13
674.602	12971.82
674.951	12809.79
675.3	12720.98
675.649	12898.15
675.998	12877.13
676.346	12959.39
676.695	12934.76
677.044	12886.62
677.393	12867.42
677.741	12931.37
678.09	12864.25
678.438	12890.24
678.787	12867.64
679.135	12849.11
679.484	12676.01
679.832	12758.72
680.181	12749.68
680.529	12800.98
680.877	12730.47
681.225	12634.43
681.573	12783.58
681.922	12690.7
682.27	12660.42
682.618	12591.49
682.966	12584.26
683.314	12621.09
683.661	12554.66
684.009	12566.18
684.357	12559.63
684.705	12453.87
685.053	12516.46
685.4	12422
685.748	12399.41
686.095	12414.32
686.443	12360.76
686.79	12290.48
687.138	12294.78
687.485	12331.38
687.832	12296.58
688.18	12348.33
688.527	12248.45
688.874	12200.77
689.221	12169.81
689.568	12132.52
689.915	12127.77
690.262	12149.69
690.609	11976.37
690.956	11926.42
691.303	11929.36
691.65	11773.66
691.997	11827.9
692.344	11821.12
692.69	11699.54
693.037	11758.52
693.383	11734.11
693.73	11707.22
694.077	11621.57
694.423	11691.85
694.769	11558.3
695.116	11535.47
695.462	11535.7
695.808	11480.11
696.155	11474.68
696.501	11347.91
696.847	11360.11
697.193	11316.95
697.539	11324.18
697.885	11191.75
698.231	11163.28
698.577	11165.54
698.923	11131.64
699.269	11024.07
699.614	10909.5
699.96	10936.85
700.306	10888.26
700.651	10949.95
700.997	10855.49
701.342	10822.72
701.688	10740.47
702.033	10765.55
702.379	10768.26
702.724	10703.18
703.069	10742.05
703.415	10621.6
703.76	10566.69
704.105	10577.08
704.45	10526.46
704.795	10481.49
705.14	10445.11
705.485	10369.63
705.83	10360.82
706.175	10401.04
706.52	10363.53
706.865	10275.85
707.209	10322.17
707.554	10251.89
707.899	10236.3
708.243	10240.82
708.588	10119.92
708.932	10071.56
709.277	10056.42
709.621	10054.83
709.966	9988.17
710.31	10051.9
710.654	9870.43
710.998	9959.7
711.342	9957.66
711.687	9831.56
712.031	9870.66
712.375	9822.3
712.719	9805.8
713.063	9803.54
713.407	9850.09
713.75	9775.29
714.094	9737.33
714.438	9782.75
714.782	9698.46
715.125	9690.1
715.469	9675.41
715.812	9702.3
716.156	9588.41
716.499	9587.73
716.843	9603.32
717.186	9555.86
717.53	9594.51
717.873	9556.77
718.216	9553.6
718.559	9507.96
718.902	9404.68
719.246	9499.37
719.589	9468.18
719.932	9440.84
720.275	9411.24
720.617	9415.08
720.96	9386.6
721.303	9395.19
721.646	9426.83
721.989	9363.78
722.331	9389.54
722.674	9329.66
723.016	9401.52
723.359	9344.12
723.701	9362.42
724.044	9253.05
724.386	9213.73
724.729	9301.41
725.071	9281.52
725.413	9279.71
725.755	9264.8
726.097	9300.73
726.439	9284.46
726.782	9257.57
727.124	9279.71
727.465	9171.24
727.807	9272.48
728.149	9196.78
728.491	9135.08
728.833	9269.09
729.175	9220.05
729.516	9239.71
729.858	9187.74
730.199	9239.04
730.541	9201.75
730.882	9167.4
731.224	9180.96
731.565	9177.34
731.906	9191.35
732.248	9167.17
732.589	9148.64
732.93	9133.73
733.271	9143.22
733.612	9184.57
733.953	9227.51
734.294	9146.38
734.635	9152.03
734.976	9111.36
735.317	9184.8
735.658	9174.63
735.999	9152.71
736.339	9110
736.68	9173.73
737.021	9147.97
737.361	9197.91
737.702	9203.33
738.042	9157.68
738.383	9264.8
738.723	9251.01
739.063	9260.73
739.404	9259.83
739.744	9311.13
740.084	9186.83
740.424	9276.32
740.764	9275.65
741.104	9360.39
741.444	9320.62
741.784	9220.51
742.124	9357.9
742.464	9358.81
742.804	9323.55
743.143	9326.72
743.483	9426.83
743.823	9449.43
744.162	9387.28
744.502	9479.71
744.841	9460.27
745.181	9498.24
745.52	9512.25
745.86	9612.81
746.199	9648.29
746.538	9691.91
746.877	9740.27
747.216	9813.48
747.556	9778.46
747.895	9900.94
748.234	9901.39
748.573	9915.63
748.911	10031.33
749.25	10083.31
749.589	10069.98
749.928	10164.89
750.267	10287.14
750.605	10367.14
750.944	10334.38
751.283	10482.62
751.621	10505.44
751.96	10651.88
752.298	10677.19
752.636	10789.96
752.975	10854.36
753.313	10934.59
753.651	11070.4
753.989	11119.89
754.327	11187.46
754.666	11375.7
755.004	11469.71
755.342	11640.56
755.679	11644.62
756.017	11817.27
756.355	11974.11
756.693	12018.85
757.031	12248.45
757.368	12286.87
757.706	12435.79
758.044	12596.01
758.381	12791.49
758.719	12809.34
759.056	12978.6
759.394	13156
759.731	13254.52
760.068	13371.58
760.405	13446.38
760.743	13645.93
761.08	13809.54
761.417	13927.5
761.754	14120.04
762.091	14155.29
762.428	14363.87
762.765	14400.71
763.102	14653.13
763.438	14674.83
763.775	14894.48
764.112	15046.34
764.449	15218.54
764.785	15299.89
765.122	15374.24
765.458	15511.87
765.795	15601.13
766.131	15750.73
766.467	15828.92
766.804	15916.6
767.14	16006.77
767.476	16125.86
767.812	16105.97
768.148	16368.34
768.485	16454.21
768.821	16509.13
769.157	16578.96
769.492	16799.06
769.828	16698.05
770.164	16810.82
770.5	16796.58
770.836	16958.16
771.171	16924.48
771.507	17008.32
771.842	17122.22
772.178	17117.25
772.513	17206.06
772.849	17291.25
773.184	17376.45
773.519	17369.44
773.855	17376.45
774.19	17474.75
774.525	17438.37
774.86	17523.56
775.195	17473.85
775.53	17646.95
775.865	17447.41
776.2	17560.17
776.535	17435.88
776.87	17680.4
777.205	17561.53
777.539	17619.38
777.874	17651.24
778.209	17611.92
778.543	17679.72
778.878	17608.31
779.212	17625.71
779.547	17645.82
779.881	17733.95
780.215	17650.12
780.55	17702.32
780.884	17698.25
781.218	17677.01
781.552	17677.91
781.886	17645.82
782.22	17543.68
782.554	17507.75
782.888	17476.33
783.222	17529.67
783.556	17441.76
783.889	17425.49
784.223	17365.6
784.557	17423.68
784.89	17420.06
785.224	17400.4
785.557	17324.93
785.891	17407.64
786.224	17338.26
786.558	17327.64
786.891	17261.88
787.224	17176.46
787.557	17134.87
787.891	17219.39
788.224	17128.09
788.557	17094.42
788.89	17090.58
789.223	17150.24
789.556	16997.02
789.888	17038.83
790.221	16924.71
790.554	16819.85
790.887	16804.94
791.219	16849.91
791.552	16734.88
791.884	16756.13
792.217	16670.71
792.549	16683.81
792.882	16536.25
793.214	16420.54
793.546	16546.19
793.879	16518.39
794.211	16403.82
794.543	16442.46
794.875	16371.28
795.207	16516.59
795.539	16279.76
795.871	16438.17
796.203	16214.22
796.535	16250.38
796.867	16119.53
797.198	16093.32
797.53	16072.3
797.862	15965.64
798.193	16103.71
798.525	15857.85
798.856	15974.68
799.188	15839.09
799.519	15766.55
799.85	15710.73
800.182	15736.27
800.513	15755.25
800.844	15662.6
801.175	15644.52
801.506	15618.98
801.837	15545.09
802.168	15465.99
802.499	15479.1
802.83	15416.95
803.161	15409.27
803.491	15423.73
803.822	15359.1
804.153	15252.89
804.483	15221.48
804.814	15106.45
805.145	15086.34
805.475	15177.86
805.805	15135.6
806.136	15149.39
806.466	15051.54
806.796	15076.17
807.126	14926.57
807.457	14895.61
807.787	14930.19
808.117	14830.53
808.447	14734.94
808.777	14791.21
809.107	14799.12
809.436	14784.2
809.766	14668.72
810.096	14645.67
810.426	14641.61
810.755	14672.79
811.085	14530.2
811.414	14541.95
811.744	14485.68
812.073	14449.3
812.403	14446.81
812.732	14336.08
813.061	14350.99
813.39	14326.13
813.719	14269.64
814.049	14330.65
814.378	14258.57
814.707	14144.67
815.036	14193.03
815.365	14127.72
815.693	13951
816.022	14102.41
816.351	14018.35
816.68	13923.21
817.008	13966.6
817.337	13869.2
817.665	13873.72
817.994	13956.65
818.322	13866.49
818.651	13785.13
818.979	13738.81
819.307	13879.82
819.636	13733.61
819.964	13630.33
820.292	13774.74
820.62	13647.06
820.948	13674.63
821.276	13704.46
821.604	13562.76
821.932	13645.93
822.259	13649.99
822.587	13629.2
822.915	13620.16
823.243	13642.76
823.57	13600.05
823.898	13656.77
824.225	13548.3
824.553	13596.44
824.88	13596.21
825.207	13761.86
825.535	13619.49
825.862	13663.33
826.189	13657.9
826.516	13674.4
826.843	13707.17
827.17	13593.72
827.497	13597.11
827.824	13711.91
828.151	13766.38
828.478	13604.35
828.805	13742.2
829.131	13588.07
829.458	13648.64
829.785	13565.25
830.111	13633.95
830.438	13661.52
830.764	13564.12
831.09	13681.86
831.417	13561.18
831.743	13686.38
832.069	13666.94
832.395	13514.86
832.722	13559.38
833.048	13504.01
833.374	13556.66
833.7	13575.42
834.026	13549.88
834.351	13577.91
834.677	13536.78
835.003	13543.78
835.329	13499.26
835.654	13482.09
835.98	13477.57
836.306	13446.16
836.631	13454.97
836.956	13403.22
837.282	13414.97
837.607	13344.92
837.932	13381.07
838.258	13327.97
838.583	13332.94
838.908	13265.37
839.233	13301.75
839.558	13257.69
839.883	13150.35
840.208	13221.08
840.533	13160.52
840.858	13170.46
841.182	13155.09
841.507	13165.26
841.832	13076.45
842.156	13098.14
842.481	13112.83
842.805	13022.89
843.13	12986.96
843.454	12958.49
843.778	12943.35
844.103	12840.07
844.427	12933.4
844.751	12831.03
845.075	12756.23
845.399	12825.16
845.723	12764.14
846.047	12780.64
846.371	12567.31
846.695	12598.72
847.019	12562.11
847.343	12499.29
847.666	12362.57
847.99	12347.88
848.313	12287.09
848.637	12245.29
848.96	12278.96
849.284	12210.26
849.607	12132.07
849.931	12106.08
850.254	11995.57
850.577	11939.76
850.9	11888.46
851.223	11868.12
851.546	11738.63
851.869	11701.57
852.192	11793.77
852.515	11694.34
852.838	11667.45
853.161	11635.36
853.483	11565.53
853.806	11512.88
854.129	11535.7
854.451	11489.15
854.774	11434.01
855.096	11473.55
855.419	11377.06
855.741	11370.28
856.063	11340.45
856.385	11300.9
856.708	11223.84
857.03	11175.93
857.352	11242.15
857.674	11142.49
857.996	11076.5
858.318	11023.85
858.64	11025.66
858.961	10979.33
859.283	10881.25
859.605	10860.69
859.926	10951.76
860.248	10906.56
860.57	10832.22
860.891	10810.52
861.212	10804.87
861.534	10748.6
861.855	10751.09
862.176	10676.06
862.498	10728.26
862.819	10677.64
863.14	10690.07
863.461	10650.75
863.782	10667.25
864.103	10613.46
864.424	10565.1
864.745	10577.76
865.065	10566.46
865.386	10484.2
865.707	10481.26
866.027	10462.51
866.348	10486.24
866.668	10420.02
866.989	10445.78
867.309	10381.15
867.63	10455.73
867.95	10341.15
868.27	10317.43
868.59	10327.82
868.91	10297.31
869.23	10279.46
869.55	10271.33
869.87	10319.46
870.19	10268.16
870.51	10271.55
870.83	10211.67
871.15	10207.82
871.469	10162.63
871.789	10117.66
872.109	10161.95
872.428	10092.35
872.748	10147.71
873.067	10172.35
873.386	10132.35
873.706	10092.12
874.025	10039.02
874.344	9978.23
874.663	10039.92
874.982	9986.36
875.301	9977.1
875.62	9974.84
875.939	9907.49
876.258	9950.43
876.577	9947.27
876.896	9938.68
877.214	9874.05
877.533	9887.83
877.852	9895.52
878.17	9920.37
878.489	9854.61
878.807	9841.05
879.125	9906.36
879.444	9776.2
879.762	9740.94
880.08	9770.55
880.398	9670.89
880.716	9742.98
881.034	9686.03
881.352	9759.7
881.67	9640.61
881.988	9645.13
882.306	9557.45
882.624	9597.45
882.941	9569.2
883.259	9480.39
883.577	9503.44
883.894	9524.68
884.212	9493.04
884.529	9456.66
884.846	9430.9
885.164	9401.07
885.481	9335.98
885.798	9383.89
886.115	9273.84
886.432	9290.33
886.75	9251.92
887.067	9320.16
887.383	9194.74
887.7	9237.91
888.017	9238.58
888.334	9237.91
888.651	9205.82
888.967	9217.57
889.284	9157.91
889.6	9033.62
889.917	9065.48
890.233	9025.48
890.55	9012.6
890.866	9013.73
891.182	8936.22
891.498	8982.55
891.815	8905.71
892.131	8841.53
892.447	8856.67
892.763	8797.92
893.079	8861.42
893.395	8736
893.71	8740.97
894.026	8727.19
894.342	8665.27
894.657	8736.9
894.973	8620.07
895.289	8604.25
895.604	8621.65
895.92	8510.69
896.235	8458.49
896.55	8508.66
896.865	8456.46
897.181	8442.22
897.496	8478.6
897.811	8353.41
898.126	8385.95
898.441	8280.19
898.756	8306.63
899.071	8251.72
899.386	8260.31
899.7	8218.27
900.015	8145.73
900.33	8150.25
900.644	8107.77
900.959	8122.23
901.273	8069.12
901.588	7968.11
901.902	8014.66
902.216	7915.23
902.531	7911.61
902.845	7869.13
903.159	7812.86
903.473	7825.74
903.787	7760.21
904.101	7771.96
904.415	7802.92
904.729	7697.83
905.042	7629.36
905.356	7676.14
905.67	7641.11
905.984	7578.06
906.297	7617.84
906.611	7570.15
906.924	7515.01
907.237	7515.01
907.551	7497.39
907.864	7478.18
908.177	7451.74
908.491	7350.27
908.804	7406.77
909.117	7272.31
909.43	7244.96
909.743	7242.71
910.056	7233.89
910.368	7263.95
910.681	7169.49
910.994	7121.8
911.307	7132.65
911.619	7038.87
911.932	7045.87
912.244	6986.67
912.557	6994.8
912.869	6938.31
913.181	6914.13
913.494	6903.28
913.806	6885.43
914.118	6835.71
914.43	6868.03
914.742	6784.19
915.054	6747.35
915.366	6674.81
915.678	6749.61
915.99	6724.75
916.302	6622.16
916.613	6645.21
916.925	6552.1
917.236	6571.08
917.548	6553.01
917.859	6510.97
918.171	6477.75
918.482	6429.17
918.794	6430.07
919.105	6428.26
919.416	6371.09
919.727	6370.41
920.038	6343.07
920.349	6267.14
920.66	6256.97
920.971	6270.75
921.282	6230.3
921.593	6201.38
921.903	6172.68
922.214	6147.37
922.525	6116.63
922.835	6082.51
923.146	6057.43
923.456	6045.9
923.767	6002.96
924.077	5984.43
924.387	5969.07
924.697	5944.66
925.008	5913.7
925.318	5969.52
925.628	5865.11
925.938	5836.87
926.248	5804.78
926.558	5753.03
926.867	5812.46
927.177	5773.37
927.487	5682.97
927.796	5701.5
928.106	5686.81
928.416	5692.01
928.725	5675.29
929.034	5649.75
929.344	5634.39
929.653	5593.26
929.962	5504.45
930.271	5527.72
930.581	5542.86
930.89	5473.49
931.199	5465.58
931.508	5458.35
931.817	5408.4
932.125	5393.26
932.434	5395.07
932.743	5359.82
933.051	5297.22
933.36	5300.61
933.669	5278.91
933.977	5237.11
934.286	5244.57
934.594	5236.2
934.902	5164.79
935.21	5160.05
935.519	5176.77
935.827	5131.12
936.135	5129.09
936.443	5136.32
936.751	5041.41
937.059	5056.1
937.367	5104.68
937.674	5039.15
937.982	4950.56
938.29	5018.13
938.597	4967.96
938.905	4900.62
939.213	4854.97
939.52	4863.33
939.827	4866.5
940.135	4855.88
940.442	4830.11
940.749	4792.6
941.056	4788.08
941.363	4706.05
941.67	4796.67
941.977	4728.42
942.284	4675.31
942.591	4656.33
942.898	4634.64
943.205	4633.73
943.511	4605.71
943.818	4557.8
944.125	4595.99
944.431	4563.45
944.738	4516.22
945.044	4526.62
945.35	4502.21
945.657	4441.65
945.963	4409.79
946.269	4442.55
946.575	4426.28
946.881	4404.36
947.187	4408.66
947.493	4345.38
947.799	4338.83
948.105	4293.4
948.41	4278.72
948.716	4238.04
949.022	4255.21
949.327	4269.45
949.633	4208.89
949.938	4224.48
950.244	4197.36
950.549	4148.1
950.854	4157.81
951.16	4158.72
951.465	4136.35
951.77	4090.92
952.075	4056.57
952.38	4111.94
952.685	4066.52
952.99	3991.27
953.294	4008.89
953.599	4022.45
953.904	3972.28
954.209	3969.12
954.513	3959.18
954.818	3954.2
955.122	3930.48
955.426	3898.61
955.731	3881.66
956.035	3847.31
956.339	3854.09
956.643	3822.68
956.948	3842.34
957.252	3776.81
957.556	3820.2
957.86	3744.72
958.163	3741.33
958.467	3744.94
958.771	3765.28
959.075	3711.95
959.378	3741.78
959.682	3706.3
959.985	3641.44
960.289	3625.85
960.592	3656.81
960.896	3618.39
961.199	3592.18
961.502	3602.57
961.805	3578.85
962.108	3559.19
962.411	3543.14
962.714	3517.15
963.017	3499.75
963.32	3515.57
963.623	3499.07
963.926	3481.9
964.228	3450.94
964.531	3415.46
964.833	3426.53
965.136	3361.45
965.438	3420.66
965.741	3327.33
966.043	3350.83
966.345	3328.46
966.648	3358.51
966.95	3306.31
967.252	3282.36
967.554	3296.59
967.856	3240.78
968.158	3260.89
968.46	3268.35
968.761	3238.74
969.063	3236.26
969.365	3201.91
969.666	3168.91
969.968	3161.91
970.269	3190.83
970.571	3152.19
970.872	3133.43
971.174	3118.07
971.475	3090.72
971.776	3082.36
972.077	3068.13
972.378	3057.28
972.679	3069.93
972.98	3031.29
973.281	3002.36
973.582	3036.49
973.883	3039.43
974.183	2990.16
974.484	2959.43
974.785	2985.42
975.085	2918.52
975.386	2929.37
975.686	2925.3
975.986	2910.16
976.287	2911.75
976.587	2865.19
976.887	2856.61
977.187	2874.01
977.487	2835.14
977.787	2819.32
978.087	2793.56
978.387	2785.42
978.687	2803.73
978.987	2777.74
979.286	2752.65
979.586	2724.63
979.885	2732.32
980.185	2718.08
980.484	2662.94
980.784	2692.77
981.083	2660.9
981.382	2685.31
981.682	2660.9
981.981	2665.88
982.28	2634.92
982.579	2658.64
982.878	2649.38
983.177	2626.78
983.475	2619.78
983.774	2587.23
984.073	2570.96
984.372	2501.81
984.67	2566.67
984.969	2537.29
985.267	2524.41
985.566	2497.52
985.864	2517.63
986.162	2534.58
986.461	2503.62
986.759	2494.13
987.057	2430.85
987.355	2445.77
987.653	2410.97
987.951	2413.68
988.249	2426.79
988.547	2400.35
988.844	2384.3
989.142	2370.52
989.44	2373
989.737	2361.93
990.035	2351.99
990.332	2359.9
990.63	2320.12
990.927	2289.16
991.224	2331.42
991.521	2297.07
991.819	2277.41
992.116	2261.59
992.413	2277.64
992.71	2259.11
993.006	2267.69
993.303	2246.23
993.6	2231.54
993.897	2217.75
994.193	2202.84
994.49	2170.75
994.787	2161.26
995.083	2192.22
995.379	2121.94
995.676	2160.58
995.972	2140.69
996.268	2123.97
996.565	2130.52
996.861	2095.72
997.157	2077.42
997.453	2063.18
997.749	2082.61
998.044	2062.28
998.34	2042.84
998.636	2054.82
998.932	2012.11
999.227	2024.09
999.523	1995.16
999.818	1992.9
1000.114	1988.61
1000.409	1992.9
1000.704	2012.11
1001	1950.41
1001.295	1914.94
1001.59	1913.81
1001.885	1946.57
1002.18	1927.82
1002.475	1884.65
1002.77	1912.45
1003.065	1839.68
1003.359	1855.5
1003.654	1883.75
1003.949	1874.71
1004.243	1867.03
1004.538	1847.37
1004.832	1857.08
1005.127	1822.51
1005.421	1833.13
1005.715	1815.73
1006.009	1785.22
1006.304	1792.68
1006.598	1760.59
1006.892	1782.51
1007.186	1760.14
1007.48	1736.64
1007.773	1742.96
1008.067	1727.14
1008.361	1720.82
1008.655	1702.74
1008.948	1678.78
1009.242	1689.63
1009.535	1650.08
1009.829	1667.03
1010.122	1658.45
1010.415	1666.58
1010.708	1660.25
1011.001	1620.03
1011.295	1609.41
1011.588	1587.94
1011.881	1594.72
1012.173	1578.9
1012.466	1598.79
1012.759	1572.57
1013.052	1566.47
1013.344	1536.64
1013.637	1534.83
1013.93	1539.35
1014.222	1523.31
1014.514	1526.25
1014.807	1487.38
1015.099	1506.36
1015.391	1458.9
1015.683	1487.83
1015.976	1453.7
1016.268	1457.09
1016.56	1462.52
1016.851	1435.17
1017.143	1422.75
1017.435	1417.32
1017.727	1409.86
1018.018	1416.87
1018.31	1384.78
1018.602	1412.58
1018.893	1391.11
1019.185	1383.88
1019.476	1379.58
1019.767	1360.6
1020.058	1333.48
1020.35	1327.83
1020.641	1332.58
1020.932	1321.5
1021.223	1322.86
1021.514	1291.45
1021.804	1297.55
1022.095	1293.03
1022.386	1288.29
1022.677	1275.4
1022.967	1277.66
1023.258	1269.08
1023.548	1253.71
1023.839	1237.89
1024.129	1240.6
1024.419	1216.2
1024.709	1221.62
1025	1206.25
1025.29	1195.86
1025.58	1185.46
1025.87	1168.74
1026.16	1179.36
1026.449	1182.98
1026.739	1178.91
1027.029	1187.72
1027.319	1155.86
1027.608	1166.03
1027.898	1135.3
1028.187	1134.84
1028.477	1123.54
1028.766	1127.16
1029.055	1105.47
1029.344	1078.35
1029.634	1088.97
1029.923	1070.66
1030.212	1062.53
1030.501	1086.48
1030.79	1051.68
1031.078	1057.56
1031.367	1056.2
1031.656	1051.23
1031.945	1046.26
1032.233	1044.45
1032.522	1037.9
1032.81	1024.34
1033.099	1010.78
1033.387	1049.2
1033.675	1026.37
1033.963	999.03
1034.251	969.42
1034.54	998.12
1034.828	974.4
1035.116	974.4
1035.403	965.81
1035.691	945.92
1035.979	938.92
1036.267	955.41
1036.554	961.29
1036.842	946.6
1037.129	912.02
1037.417	898.92
1037.704	900.27
1037.992	934.17
1038.279	892.59
1038.566	910.22
1038.853	910.22
1039.14	910.22
