Data from hue_230_FLMS001491_00087.txt Node
Date: Tue Feb 07 16:37:52 GMT 2017
User: dcchb
Spectrometer: FLMS00149
Trigger mode: 0
Integration Time (sec): 2.000000E-2
Scans to average: 10
Electric dark correction enabled: true
Nonlinearity correction enabled: false
Boxcar width: 0
XAxis mode: Wavelengths
Number of Pixels in Spectrum: 2048
>>>>>Begin Spectral Data<<<<<
341.393	-16.71
341.776	-16.71
342.16	-16.71
342.543	-56.48
342.927	-64.84
343.31	-68.91
343.693	-56.93
344.077	-72.75
344.46	-57.84
344.843	-47.44
345.226	-45.18
345.61	-35.69
345.993	-14
346.376	2.05
346.759	11.99
347.142	4.53
347.525	43.85
347.908	65.55
348.291	54.93
348.674	105.55
349.057	110.29
349.44	138.09
349.823	132.44
350.206	134.02
350.588	191.87
350.971	201.14
351.354	200.46
351.737	232.1
352.119	229.61
352.502	269.16
352.884	261.02
353.267	290.63
353.65	282.94
354.032	286.11
354.414	288.82
354.797	320.68
355.179	287.69
355.562	298.76
355.944	312.1
356.326	315.71
356.709	317.52
357.091	336.5
357.473	320.46
357.855	335.37
358.238	337.86
358.62	329.27
359.002	318.65
359.384	320.46
359.766	315.03
360.148	319.55
360.53	337.18
360.912	341.25
361.294	312.77
361.676	323.62
362.057	303.96
362.439	317.52
362.821	324.07
363.203	318.88
363.584	316.16
363.966	307.8
364.348	327.24
364.729	326.79
365.111	320.23
365.493	309.61
365.874	299.44
366.256	295.37
366.637	305.09
367.019	292.21
367.4	302.83
367.781	303.51
368.163	298.09
368.544	303.28
368.925	288.82
369.306	315.49
369.688	320.91
370.069	323.17
370.45	290.4
370.831	300.8
371.212	314.58
371.593	306.45
371.974	298.31
372.355	329.95
372.736	303.96
373.117	311.64
373.498	301.25
373.879	287.92
374.26	311.19
374.641	321.36
375.021	301.93
375.402	309.61
375.783	311.64
376.163	311.64
376.544	300.57
376.925	314.58
377.305	297.63
377.686	286.79
378.066	318.2
378.447	298.31
378.827	311.19
379.208	309.84
379.588	310.97
379.968	309.84
380.349	324.3
380.729	319.55
381.109	324.75
381.489	308.48
381.87	314.36
382.25	337.86
382.63	315.94
383.01	331.08
383.39	328.14
383.77	326.11
384.15	342.38
384.53	349.61
384.91	335.82
385.29	324.75
385.67	353.45
386.049	345.54
386.429	334.02
386.809	345.99
387.189	339.89
387.568	341.93
387.948	345.32
388.328	340.34
388.707	336.73
389.087	337.63
389.466	346.22
389.846	339.89
390.225	364.07
390.605	338.54
390.984	351.87
391.363	363.85
391.743	364.98
392.122	363.62
392.501	352.55
392.881	369.04
393.26	360
393.639	364.3
394.018	349.61
394.397	379.44
394.776	358.65
395.155	378.08
395.534	396.61
395.913	367.24
396.292	381.25
396.671	387.8
397.05	393.45
397.429	367.01
397.808	392.77
398.186	381.02
398.565	402.04
398.944	380.12
399.323	388.48
399.701	388.93
400.08	393.9
400.458	387.35
400.837	388.7
401.215	401.81
401.594	389.61
401.972	423.96
402.351	386.44
402.729	414.47
403.107	411.08
403.486	411.3
403.864	399.1
404.242	417.18
404.62	418.53
404.999	421.92
405.377	433
405.755	421.92
406.133	459.21
406.511	423.73
406.889	440.45
407.267	449.72
407.645	419.66
408.023	458.31
408.401	443.62
408.779	463.96
409.156	453.11
409.534	489.27
409.912	475.93
410.29	442.49
410.667	492.2
411.045	489.04
411.422	499.21
411.8	505.76
412.178	507.12
412.555	523.16
412.933	512.09
413.31	516.84
413.687	550.96
414.065	542.6
414.442	553.45
414.819	560.68
415.197	551.86
415.574	557.74
415.951	581.24
416.328	610.39
416.705	603.61
417.082	592.09
417.46	600.9
417.837	598.87
418.214	622.6
418.591	619.88
418.967	609.04
419.344	650.39
419.721	639.77
420.098	646.78
420.475	650.84
420.852	654.01
421.228	670.73
421.605	670.5
421.982	680.45
422.358	701.24
422.735	714.12
423.111	705.76
423.488	745.08
423.864	728.36
424.241	703.95
424.617	751.86
424.994	765.87
425.37	767
425.746	788.69
426.123	764.06
426.499	779.43
426.875	804.51
427.251	834.12
427.627	822.82
428.003	865.53
428.379	868.01
428.756	845.64
429.132	887.9
429.507	856.49
429.883	886.54
430.259	912.76
430.635	924.51
431.011	901.46
431.387	916.6
431.763	940.1
432.138	926.32
432.514	965.86
432.89	961.34
433.265	1001.12
433.641	1012.19
434.016	1031.63
434.392	1061.23
434.767	1046.99
435.143	1071.17
435.518	1096.93
435.894	1077.95
436.269	1108.69
436.644	1137.16
437.02	1139.19
437.395	1134.67
437.77	1176.25
438.145	1187.55
438.52	1202.69
438.895	1229.59
439.271	1212.19
439.646	1272.52
440.021	1246.31
440.395	1261.45
440.77	1293.09
441.145	1310.26
441.52	1350.71
441.895	1324.05
442.27	1326.76
442.645	1349.58
443.019	1360.88
443.394	1385.51
443.769	1398.4
444.143	1367.89
444.518	1417.38
444.892	1416.02
445.267	1449.24
445.641	1463.25
446.016	1447.43
446.39	1461.67
446.764	1492.18
447.139	1499.64
447.513	1509.8
447.887	1514.32
448.262	1509.13
448.636	1509.58
449.01	1534.66
449.384	1580.76
449.758	1578.5
450.132	1594.77
450.506	1579.86
450.88	1587.54
451.254	1625.96
451.628	1625.73
452.002	1647.43
452.376	1657.6
452.75	1665.28
453.123	1697.6
453.497	1704.83
453.871	1711.83
454.244	1737.6
454.618	1770.59
454.992	1773.53
455.365	1762.91
455.739	1792.74
456.112	1837.25
456.486	1821.89
456.859	1871.83
457.232	1895.11
457.606	1886.74
457.979	1883.13
458.352	1961.54
458.725	1959.28
459.099	1951.6
459.472	1991.37
459.845	1996.12
460.218	2033.63
460.591	2040.19
460.964	2074.76
461.337	2114.76
461.71	2131.26
462.083	2171.71
462.456	2170.13
462.829	2192.27
463.201	2223.46
463.574	2198.83
463.947	2260.75
464.32	2281.08
464.692	2309.78
465.065	2316.79
465.438	2324.92
465.81	2373.06
466.183	2400.85
466.555	2442.89
466.928	2447.18
467.3	2437.24
467.672	2528.31
468.045	2556.11
468.417	2574.18
468.789	2585.71
469.161	2616.44
469.534	2624.35
469.906	2659.15
470.278	2723.33
470.65	2723.78
471.022	2756.55
471.394	2799.26
471.766	2830.45
472.138	2858.02
472.51	2908.64
472.882	2940.73
473.253	2961.74
473.625	2999.26
473.997	3048.52
474.369	3075.19
474.74	3112.25
475.112	3158.35
475.484	3229.53
475.855	3248.29
476.227	3261.85
476.598	3365.35
476.97	3345.01
477.341	3440.15
477.713	3472.92
478.084	3501.62
478.455	3600.15
478.827	3593.59
479.198	3682.86
479.569	3681.73
479.94	3817.31
480.311	3784.55
480.682	3888.73
481.053	3956.52
481.424	3995.62
481.795	4013.69
482.166	4101.83
482.537	4110.64
482.908	4216.4
483.279	4232.22
483.65	4341.37
484.021	4368.71
484.391	4424.76
484.762	4440.35
485.133	4474.92
485.503	4548.37
485.874	4608.71
486.244	4613.45
486.615	4703.62
486.985	4741.58
487.356	4790.4
487.726	4856.16
488.097	4940
488.467	4953.1
488.837	5102.7
489.207	5129.82
489.578	5181.35
489.948	5137.73
490.318	5221.35
490.688	5241.23
491.058	5356.03
491.428	5396.26
491.798	5457.27
492.168	5522.13
492.538	5528.46
492.908	5572.3
493.278	5644.16
493.648	5666.53
494.017	5730.71
494.387	5737.94
494.757	5806.19
495.126	5820.88
495.496	5837.37
495.866	5848.67
496.235	5891.38
496.605	5976.81
496.974	6019.52
497.344	6008.44
497.713	6003.92
498.082	6071.04
498.452	6086.86
498.821	6150.13
499.19	6177.03
499.559	6209.57
499.928	6188.33
500.298	6256.35
500.667	6269.45
501.036	6216.12
501.405	6338.38
501.774	6287.08
502.143	6350.36
502.512	6394.65
502.88	6437.81
503.249	6438.04
503.618	6472.61
503.987	6416.57
504.356	6534.08
504.724	6541.09
505.093	6587.86
505.462	6600.97
505.83	6603.23
506.199	6635.32
506.567	6697.47
506.936	6692.49
507.304	6693.4
507.672	6739.5
508.041	6752.6
508.409	6839.38
508.777	6775.2
509.145	6804.13
509.514	6826.28
509.882	6861.3
510.25	6880.74
510.618	6880.51
510.986	6863.34
511.354	6967.06
511.722	6915.76
512.09	7010.45
512.458	7016.1
512.826	7042.77
513.193	7024.01
513.561	7041.64
513.929	7041.41
514.297	7049.77
514.664	7106.95
515.032	7094.74
515.4	7128.64
515.767	7171.8
516.135	7155.08
516.502	7112.6
516.869	7203.89
517.237	7155.98
517.604	7210.67
517.972	7174.29
518.339	7267.85
518.706	7192.14
519.073	7200.05
519.44	7228.3
519.808	7216.55
520.175	7193.72
520.542	7310.33
520.909	7339.03
521.276	7268.98
521.643	7286.38
522.009	7326.83
522.376	7391.91
522.743	7375.41
523.11	7440.27
523.477	7508.29
523.843	7458.58
524.21	7489.76
524.577	7505.13
524.943	7556.88
525.31	7568.63
525.676	7572.7
526.043	7558.91
526.409	7529.99
526.776	7665.35
527.142	7599.36
527.508	7561.62
527.874	7628.29
528.241	7641.4
528.607	7619.93
528.973	7665.8
529.339	7643.88
529.705	7671.68
530.071	7726.82
530.437	7602.98
530.803	7682.98
531.169	7725.01
531.535	7697.66
531.901	7629.64
532.267	7633.03
532.632	7662.19
532.998	7641.17
533.364	7684.11
533.73	7681.85
534.095	7698.12
534.461	7636.2
534.826	7669.87
535.192	7671.9
535.557	7734.05
535.923	7677.1
536.288	7680.26
536.653	7621.51
537.019	7577.67
537.384	7538.12
537.749	7644.78
538.114	7566.37
538.479	7563.43
538.845	7577.67
539.21	7538.35
539.575	7458.58
539.94	7531.12
540.305	7537.67
540.67	7526.37
541.034	7462.19
541.399	7485.02
541.764	7477.11
542.129	7449.76
542.494	7498.12
542.858	7475.75
543.223	7466.94
543.587	7415.19
543.952	7456.54
544.316	7402.08
544.681	7379.71
545.045	7344.45
545.41	7359.59
545.774	7393.94
546.138	7316.88
546.503	7369.31
546.867	7339.26
547.231	7355.3
547.595	7324.12
547.959	7283.89
548.324	7258.81
548.688	7232.82
549.052	7240.28
549.416	7224
549.779	7233.27
550.143	7298.13
550.507	7256.77
550.871	7191.24
551.235	7215.19
551.599	7210.45
551.962	7187.4
552.326	7219.94
552.689	7211.35
553.053	7168.19
553.417	7096.78
553.78	7175.64
554.143	7157.34
554.507	7145.36
554.87	7152.82
555.234	7177.23
555.597	7161.86
555.96	7175.19
556.323	7140.84
556.686	7099.04
557.05	7159.83
557.413	7159.6
557.776	7119.83
558.139	7090
558.502	7127.28
558.865	7147.85
559.228	7153.95
559.59	7141.3
559.953	7163.89
560.316	7202.31
560.679	7160.5
561.041	7213.16
561.404	7201.41
561.767	7262.65
562.129	7139.26
562.492	7255.19
562.854	7151.24
563.217	7203.89
563.579	7186.49
563.941	7245.25
564.304	7262.87
564.666	7264.91
565.028	7286.6
565.39	7257.45
565.753	7268.52
566.115	7305.36
566.477	7340.16
566.839	7285.7
567.201	7349.65
567.563	7335.87
567.925	7379.03
568.287	7396.88
568.648	7393.04
569.01	7390.1
569.372	7389.2
569.734	7425.81
570.095	7473.04
570.457	7468.74
570.819	7514.62
571.18	7491.79
571.542	7547.84
571.903	7548.74
572.265	7529.08
572.626	7577.89
572.987	7612.7
573.349	7664.9
573.71	7609.31
574.071	7628.97
574.432	7600.72
574.794	7681.17
575.155	7687.04
575.516	7682.75
575.877	7717.1
576.238	7688.63
576.599	7735.18
576.96	7717.55
577.32	7767.04
577.681	7761.39
578.042	7858.56
578.403	7780.6
578.763	7802.97
579.124	7808.85
579.485	7870.09
579.845	7904.67
580.206	7795.29
580.566	7881.16
580.927	7923.65
581.287	7926.36
581.648	7911.9
582.008	7964.1
582.368	7997.09
582.728	7993.48
583.089	7979.69
583.449	7934.95
583.809	7966.13
584.169	7939.01
584.529	7953.25
584.889	8010.2
585.249	8007.26
585.609	7953.25
585.969	8030.99
586.329	8035.51
586.688	8026.92
587.048	8039.58
587.408	8031.44
587.768	8101.95
588.127	8064.43
588.487	8021.27
588.846	8128.16
589.206	8024.21
589.565	8078.45
589.925	8180.36
590.284	8118.9
590.643	8153.25
591.003	8159.57
591.362	8187.14
591.721	8192.12
592.08	8179.69
592.44	8173.58
592.799	8120.25
593.158	8170.65
593.517	8180.59
593.876	8227.14
594.235	8255.39
594.593	8230.31
594.952	8253.81
595.311	8189.63
595.67	8195.96
596.029	8280.47
596.387	8336.29
596.746	8295.84
597.104	8243.87
597.463	8297.88
597.822	8319.12
598.18	8221.04
598.538	8230.08
598.897	8328.83
599.255	8271.44
599.613	8333.35
599.972	8240.93
600.33	8330.64
600.688	8288.61
601.046	8325.67
601.404	8354.37
601.762	8358.89
602.12	8354.82
602.478	8367.7
602.836	8439.11
603.194	8308.72
603.552	8341.04
603.91	8322.96
604.268	8348.95
604.625	8393.92
604.983	8418.78
605.341	8373.58
605.698	8390.98
606.056	8458.77
606.413	8380.81
606.771	8415.39
607.128	8388.27
607.485	8422.62
607.843	8438.44
608.2	8480.7
608.557	8435.05
608.914	8407.7
609.272	8408.15
609.629	8499.45
609.986	8463.29
610.343	8481.83
610.7	8559.11
611.057	8525.44
611.414	8495.16
611.771	8487.02
612.127	8572.44
612.484	8504.2
612.841	8539
613.198	8541.48
613.554	8520.24
613.911	8602.5
614.267	8595.95
614.624	8565.21
614.98	8541.26
615.337	8603.4
615.693	8642.95
616.05	8571.31
616.406	8629.62
616.762	8671.42
617.118	8624.65
617.475	8612.44
617.831	8663.74
618.187	8667.36
618.543	8671.42
618.899	8691.09
619.255	8693.34
619.611	8655.83
619.967	8743.29
620.323	8688.15
620.678	8726.56
621.034	8663.52
621.39	8703.74
621.746	8654.02
622.101	8781.03
622.457	8651.31
622.812	8720.01
623.168	8661.26
623.523	8724.3
623.879	8775.15
624.234	8662.39
624.589	8679.56
624.945	8714.36
625.3	8738.32
625.655	8727.02
626.01	8761.59
626.365	8677.53
626.72	8724.98
627.075	8692.89
627.43	8676.62
627.785	8675.27
628.14	8759.33
628.495	8765.66
628.85	8714.14
629.205	8676.62
629.559	8669.39
629.914	8681.37
630.269	8675.94
630.623	8571.99
630.978	8645.21
631.332	8565.44
631.687	8670.07
632.041	8614.7
632.396	8638.43
632.75	8602.5
633.104	8635.72
633.459	8578.32
633.813	8586.68
634.167	8570.41
634.521	8570.41
634.875	8524.99
635.229	8457.64
635.583	8500.58
635.937	8497.42
636.291	8556.63
636.645	8468.49
636.999	8444.99
637.352	8501.03
637.706	8382.39
638.06	8478.66
638.413	8424.88
638.767	8405.67
639.121	8394.6
639.474	8325.22
639.828	8410.41
640.181	8395.5
640.534	8396.86
640.888	8412.22
641.241	8355.5
641.594	8308.5
641.947	8390.53
642.301	8318.67
642.654	8388.27
643.007	8380.13
643.36	8324.99
643.713	8390.3
644.066	8380.36
644.419	8308.95
644.771	8247.48
645.124	8186.01
645.477	8165.45
645.83	8153.7
646.182	8114.83
646.535	8085
646.888	8110.08
647.24	8051.55
647.593	8080.48
647.945	8034.15
648.298	8053.36
648.65	8028.73
649.002	8021.72
649.355	8017.66
649.707	7998.45
650.059	8046.13
650.411	8146.47
650.763	8125.45
651.115	8199.12
651.467	8212
651.819	8216.97
652.171	8171.32
652.523	8210.42
652.875	8148.05
653.227	8145.56
653.578	8210.19
653.93	8144.21
654.282	8124.09
654.633	8120.7
654.985	8168.84
655.337	8124.55
655.688	8182.4
656.039	8164.77
656.391	8092.23
656.742	8144.66
657.094	8122.74
657.445	8177.43
657.796	8136.3
658.147	8104.21
658.498	8195.96
658.849	8152.34
659.2	8131.78
659.551	8153.25
659.902	8227.37
660.253	8123.42
660.604	8186.24
660.955	8209.97
661.306	8173.13
661.656	8140.59
662.007	8181.27
662.358	8148.05
662.708	8199.8
663.059	8162.51
663.409	8134.72
663.76	8169.74
664.11	8184.43
664.461	8181.27
664.811	8158.44
665.161	8203.87
665.511	8204.77
665.862	8198.22
666.212	8165.22
666.562	8213.81
666.912	8143.53
667.262	8194.37
667.612	8179.69
667.962	8225.11
668.312	8222.62
668.662	8241.83
669.011	8162.51
669.361	8142.62
669.711	8158.22
670.06	8106.24
670.41	8111.89
670.76	8192.12
671.109	8174.04
671.459	8144.66
671.808	8143.3
672.157	8139.46
672.507	8161.61
672.856	8060.37
673.205	8101.95
673.554	8134.94
673.904	8089.07
674.253	8160.7
674.602	8082.97
674.951	7983.76
675.3	7955.29
675.649	8070.08
675.998	8038.9
676.346	8127.48
676.695	8052.01
677.044	8056.75
677.393	8033.7
677.741	8065.56
678.09	8008.84
678.438	7955.96
678.787	7971.33
679.135	8000.48
679.484	7949.64
679.832	7981.05
680.181	7926.81
680.529	7966.58
680.877	7899.92
681.225	7900.37
681.573	7927.26
681.922	7894.04
682.27	7860.15
682.618	7858.79
682.966	7800.71
683.314	7824.67
683.661	7773.37
684.009	7766.59
684.357	7775.18
684.705	7708.51
685.053	7789.87
685.4	7731.79
685.748	7749.41
686.095	7665.35
686.443	7643.43
686.79	7670.09
687.138	7668.51
687.485	7638.91
687.832	7618.34
688.18	7615.86
688.527	7595.52
688.874	7575.63
689.221	7522.08
689.568	7506.71
689.915	7448.86
690.262	7501.96
690.609	7452.25
690.956	7448.18
691.303	7469.2
691.65	7313.04
691.997	7430.1
692.344	7334.74
692.69	7289.54
693.037	7368.41
693.383	7293.61
693.73	7318.01
694.077	7208.64
694.423	7251.12
694.769	7217.9
695.116	7198.92
695.462	7181.07
695.808	7172.93
696.155	7153.72
696.501	7087.51
696.847	7129.09
697.193	6996.67
697.539	7039.6
697.885	6991.69
698.231	7023.33
698.577	7001.64
698.923	6964.58
699.269	6911.92
699.614	6928.65
699.96	6854.75
700.306	6862.66
700.651	6802.77
700.997	6790.34
701.342	6761.42
701.688	6764.81
702.033	6718.48
702.379	6784.69
702.724	6716.45
703.069	6738.82
703.415	6620.18
703.76	6666.05
704.105	6653.85
704.45	6596.9
704.795	6588.09
705.14	6583.8
705.485	6536.79
705.83	6512.84
706.175	6460.41
706.52	6510.58
706.865	6502.67
707.209	6457.02
707.554	6423.35
707.899	6436.46
708.243	6371.6
708.588	6349.9
708.932	6365.04
709.277	6306.29
709.621	6364.14
709.966	6280.3
710.31	6328.89
710.654	6241.66
710.998	6240.3
711.342	6211.15
711.687	6224.94
712.031	6194.88
712.375	6152.39
712.719	6196.46
713.063	6135.9
713.407	6214.31
713.75	6150.81
714.094	6167.54
714.438	6114.88
714.782	6104.94
715.125	6083.47
715.469	6114.88
715.812	6036.47
716.156	6049.35
716.499	6008.44
716.843	6066.52
717.186	6047.99
717.53	6010.48
717.873	6052.74
718.216	6033.75
718.559	6015.9
718.902	5960.76
719.246	5980.87
719.589	5946.3
719.932	5932.51
720.275	5951.5
720.617	5961.67
720.96	5936.58
721.303	5913.08
721.646	5926.19
721.989	5866.98
722.331	5947.65
722.674	5921.21
723.016	5897.71
723.359	5905.62
723.701	5950.37
724.044	5867.66
724.386	5847.77
724.729	5912.63
725.071	5841.44
725.413	5857.71
725.755	5866.75
726.097	5850.71
726.439	5848.67
726.782	5837.15
727.124	5824.95
727.465	5853.65
727.807	5819.97
728.149	5792.86
728.491	5795.57
728.833	5810.93
729.175	5816.58
729.516	5837.15
729.858	5771.39
730.199	5812.74
730.541	5827.66
730.882	5800.54
731.224	5790.82
731.565	5761.44
731.906	5775.68
732.248	5769.13
732.589	5768.45
732.93	5769.35
733.271	5789.92
733.612	5768.22
733.953	5812.29
734.294	5767.32
734.635	5744.5
734.976	5763.48
735.317	5733.65
735.658	5782.01
735.999	5787.66
736.339	5814.55
736.68	5774.1
737.021	5802.35
737.361	5725.29
737.702	5773.2
738.042	5785.17
738.383	5786.75
738.723	5785.85
739.063	5776.81
739.404	5820.88
739.744	5798.73
740.084	5792.63
740.424	5839.86
740.764	5809.13
741.104	5866.75
741.444	5759.86
741.784	5840.76
742.124	5865.85
742.464	5871.5
742.804	5887.09
743.143	5928.9
743.483	5935.9
743.823	5896.81
744.162	5933.19
744.502	6029.46
744.841	5969.35
745.181	6032.85
745.52	5993.08
745.86	6003.02
746.199	6067.65
746.538	6056.13
746.877	6133.86
747.216	6159.17
747.556	6229.91
747.895	6219.96
748.234	6278.27
748.573	6245.27
748.911	6264.71
749.25	6319.4
749.589	6302.22
749.928	6363.69
750.267	6433.97
750.605	6511.71
750.944	6556
751.283	6590.8
751.621	6664.47
751.96	6655.66
752.298	6772.49
752.636	6813.62
752.975	6884.13
753.313	6936.1
753.651	7097.68
753.989	7098.81
754.327	7159.37
754.666	7269.65
755.004	7324.79
755.342	7443.66
755.679	7572.47
756.017	7580.83
756.355	7711
756.693	7756.65
757.031	7902.18
757.368	7935.17
757.706	8021.72
758.044	8208.84
758.381	8284.77
758.719	8332.45
759.056	8536.74
759.394	8635.04
759.731	8714.36
760.068	8799.78
760.405	8851.98
760.743	8963.39
761.08	9163.84
761.417	9229.6
761.754	9352.08
762.091	9519.54
762.428	9616.94
762.765	9660.78
763.102	9796.82
763.438	9924.05
763.775	10015.8
764.112	10098.51
764.449	10246.07
764.785	10444.03
765.122	10424.37
765.458	10583.01
765.795	10721.77
766.131	10699.17
766.467	10913.85
766.804	10941.65
767.14	11064.58
767.476	11158.14
767.812	11209.21
768.148	11333.5
768.485	11373.5
768.821	11482.88
769.157	11529.2
769.492	11646.71
769.828	11726.71
770.164	11755.19
770.5	11835.41
770.836	11855.3
771.171	11947.04
771.507	12007.61
771.842	12029.75
772.178	12182.07
772.513	12231.56
772.849	12277.88
773.184	12341.61
773.519	12436.75
773.855	12419.12
774.19	12450.53
774.525	12537.31
774.86	12624.54
775.195	12632.9
775.53	12597.65
775.865	12573.02
776.2	12549.06
776.535	12612.11
776.87	12637.65
777.205	12651.66
777.539	12711.54
777.874	12745.67
778.209	12736.18
778.543	12750.64
778.878	12797.42
779.212	12871.54
779.547	12750.41
779.881	12879.9
780.215	12876.06
780.55	12872.44
780.884	12832.67
781.218	12844.65
781.552	12916.74
781.886	12819.34
782.22	12847.36
782.554	12798.1
782.888	12752.45
783.222	12811.88
783.556	12774.14
783.889	12795.61
784.223	12663.64
784.557	12745.89
784.89	12701.6
785.224	12749.96
785.557	12650.98
785.891	12745.22
786.224	12687.36
786.558	12657.99
786.891	12591.1
787.224	12578.89
787.557	12574.6
787.891	12521.27
788.224	12554.49
788.557	12578.89
788.89	12568.27
789.223	12569.4
789.556	12490.53
789.888	12434.26
790.221	12455.28
790.554	12348.39
790.887	12423.19
791.219	12350.2
791.552	12349.07
791.884	12273.36
792.217	12281.27
792.549	12294.38
792.882	12259.58
793.214	12161.28
793.546	12271.1
793.879	12102.52
794.211	12058
794.543	12191.33
794.875	12157.21
795.207	12182.97
795.539	12111.33
795.871	12144.1
796.203	11987.5
796.535	11973.94
796.867	12014.84
797.198	11961.96
797.53	11948.85
797.862	11855.75
798.193	11877.44
798.525	11806.48
798.856	11837.67
799.188	11690.33
799.519	11648.3
799.85	11702.76
800.182	11677.67
800.513	11686.71
800.844	11561.07
801.175	11583.66
801.506	11605.81
801.837	11561.52
802.168	11544.12
802.499	11463.89
802.83	11468.19
803.161	11451.01
803.491	11412.82
803.822	11461.41
804.153	11413.95
804.483	11238.81
804.814	11327.4
805.145	11251.7
805.475	11299.6
805.805	11254.41
806.136	11221.41
806.466	11200.17
806.796	11213.28
807.126	11050.8
807.457	11052.83
807.787	11117.46
808.117	11095.09
808.447	10999.5
808.777	11017.13
809.107	10977.35
809.436	10975.32
809.766	11043.79
810.096	10817.13
810.426	10902.78
810.755	10858.94
811.085	10889.67
811.414	10863.01
811.744	10818.26
812.073	10681.09
812.403	10826.85
812.732	10737.13
813.061	10699.17
813.39	10681.77
813.719	10575.56
814.049	10631.15
814.378	10612.39
814.707	10543.47
815.036	10578.27
815.365	10515.44
815.693	10522.22
816.022	10521.32
816.351	10479.06
816.68	10397.25
817.008	10429.57
817.337	10308.22
817.665	10370.14
817.994	10407.42
818.322	10375.11
818.651	10276.35
818.979	10285.39
819.307	10370.59
819.636	10342.79
819.964	10276.58
820.292	10350.93
820.62	10310.25
820.948	10270.7
821.276	10344.37
821.604	10249.91
821.932	10228.9
822.259	10249.69
822.587	10174.89
822.915	10172.4
823.243	10233.42
823.57	10116.13
823.898	10222.34
824.225	10174.66
824.553	10167.43
824.88	10224.38
825.207	10237.49
825.535	10203.14
825.862	10246.3
826.189	10129.47
826.516	10366.75
826.843	10269.12
827.17	10296.01
827.497	10232.74
827.824	10200.42
828.151	10320.19
828.478	10244.49
828.805	10317.71
829.131	10275.22
829.458	10205.62
829.785	10197.26
830.111	10243.36
830.438	10289.91
830.764	10265.51
831.09	10305.51
831.417	10209.92
831.743	10240.87
832.069	10218.73
832.395	10241.1
832.722	10279.07
833.048	10142.35
833.374	10206.75
833.7	10183.25
834.026	10234.1
834.351	10225.96
834.677	10231.84
835.003	10177.83
835.329	10178.5
835.654	10154.32
835.98	10153.65
836.306	10084.49
836.631	10087.88
836.956	10167.2
837.282	10105.29
837.607	10093.53
837.932	10053.54
838.258	10056.02
838.583	10035.91
838.908	10019.41
839.233	9983.93
839.558	10013.31
839.883	9914.1
840.208	9905.74
840.533	9936.48
840.858	9891.28
841.182	9870.49
841.507	9888.34
841.832	9884.73
842.156	9864.84
842.481	9853.77
842.805	9791.17
843.13	9831.39
843.454	9772.86
843.778	9759.31
844.103	9718.18
844.427	9706.43
844.751	9677.73
845.075	9676.82
845.399	9600.21
845.723	9515.47
846.047	9588.69
846.371	9511.4
846.695	9498.97
847.019	9428.47
847.343	9388.69
847.666	9308.24
847.99	9342.37
848.313	9368.81
848.637	9241.13
848.96	9227.12
849.284	9242.03
849.607	9177.85
849.931	9131.07
850.254	9116.61
850.577	9055.6
850.9	9021.02
851.223	8973.11
851.546	8928.14
851.869	8947.35
852.192	8947.8
852.515	8848.14
852.838	8817.41
853.161	8816.96
853.483	8796.84
853.806	8721.37
854.129	8695.6
854.451	8612.44
854.774	8636.62
855.096	8612.9
855.419	8612.22
855.741	8544.2
856.063	8548.49
856.385	8546.46
856.708	8508.72
857.03	8445.22
857.352	8448.83
857.674	8354.37
857.996	8372.9
858.318	8322.28
858.64	8383.52
858.961	8356.86
859.283	8252.9
859.605	8227.14
859.926	8319.12
860.248	8211.1
860.57	8201.61
860.891	8270.31
861.212	8163.19
861.534	8132.68
861.855	8132
862.176	8063.53
862.498	8196.63
862.819	8154.6
863.14	8064.66
863.461	8037.54
863.782	8089.97
864.103	8062.4
864.424	8002.52
864.745	8015.85
865.065	8003.87
865.386	7998
865.707	7934.49
866.027	8007.71
866.348	7886.59
866.668	7972.23
866.989	7878.45
867.309	7838.68
867.63	7843.65
867.95	7882.29
868.27	7779.7
868.59	7828.73
868.91	7865.57
869.23	7835.51
869.55	7756.87
869.87	7780.6
870.19	7753.71
870.51	7758.45
870.83	7776.98
871.15	7764.33
871.469	7671
871.789	7758
872.109	7699.02
872.428	7703.77
872.748	7659.47
873.067	7699.92
873.386	7655.63
873.706	7687.27
874.025	7611.11
874.344	7617.89
874.663	7632.13
874.982	7582.87
875.301	7647.95
875.62	7559.14
875.939	7537.9
876.258	7514.17
876.577	7534.73
876.896	7541.51
877.214	7463.32
877.533	7527.73
877.852	7438.46
878.17	7484.79
878.489	7449.54
878.807	7453.83
879.125	7438.69
879.444	7457.67
879.762	7452.47
880.08	7372.02
880.398	7376.32
880.716	7366.37
881.034	7389.88
881.352	7347.84
881.67	7282.53
881.988	7368.18
882.306	7280.05
882.624	7270.56
882.941	7277.34
883.259	7246.83
883.577	7229.65
883.894	7241.41
884.212	7198.24
884.529	7224
884.846	7108.08
885.164	7175.64
885.481	7141.07
885.798	7180.84
886.115	7055.65
886.432	7080.05
886.75	7063.33
887.067	7099.71
887.383	7076.44
887.7	7043.22
888.017	7013.84
888.334	7029.89
888.651	7017
888.967	6953.5
889.284	6950.34
889.6	6939.72
889.917	6929.55
890.233	6882.32
890.55	6866.05
890.866	6873.28
891.182	6829.89
891.498	6865.14
891.815	6802.55
892.131	6775.43
892.447	6738.14
892.763	6785.37
893.079	6696.56
893.395	6698.6
893.71	6665.15
894.026	6624.25
894.342	6631.7
894.657	6571.37
894.973	6596.45
895.289	6574.76
895.604	6599.16
895.92	6511.71
896.235	6478.94
896.55	6493.85
896.865	6425.61
897.181	6441.65
897.496	6506.96
897.811	6418.6
898.126	6390.81
898.441	6358.27
898.756	6305.61
899.071	6261.77
899.386	6327.08
899.7	6241.21
900.015	6255.44
900.33	6208.89
900.644	6175.22
900.959	6180.64
901.273	6125.95
901.588	6061.1
901.902	6128.44
902.216	6004.83
902.531	6082.34
902.845	6090.48
903.159	6034.66
903.473	5991.27
903.787	5972.51
904.101	5970.7
904.415	5941.55
904.729	5895.23
905.042	5851.39
905.356	5897.71
905.67	5852.06
905.984	5835.11
906.297	5858.39
906.611	5803.03
906.924	5787.43
907.237	5754.21
907.551	5700.2
907.864	5727.55
908.177	5713.54
908.491	5673.31
908.804	5627.66
909.117	5591.73
909.43	5547.44
909.743	5580.43
910.056	5540.66
910.368	5492.98
910.681	5494.11
910.994	5507.89
911.307	5485.07
911.619	5422.24
911.932	5432.19
912.244	5431.74
912.557	5392.19
912.869	5312.87
913.181	5296.15
913.494	5321.68
913.806	5270.61
914.118	5304.96
914.43	5223.15
914.742	5238.52
915.054	5232.42
915.366	5226.77
915.678	5221.12
915.99	5152.65
916.302	5146.77
916.613	5104.29
916.925	5089.15
917.236	5111.52
917.548	5048.47
917.859	5019.77
918.171	5010.73
918.482	4983.39
918.794	4965.53
919.105	4987.91
919.416	4965.53
919.727	4933.22
920.038	4892.99
920.349	4896.16
920.66	4848.02
920.971	4832.66
921.282	4827.46
921.593	4761.92
921.903	4761.7
922.214	4788.59
922.525	4779.32
922.835	4763.05
923.146	4728.48
923.456	4640.57
923.767	4669.95
924.077	4689.61
924.387	4629.72
924.697	4611.19
925.008	4573.91
925.318	4533.68
925.628	4556.28
925.938	4547.47
926.248	4548.82
926.558	4508.14
926.867	4479.9
927.177	4476.51
927.487	4452.1
927.796	4414.59
928.106	4428.37
928.416	4412.33
928.725	4366
929.034	4344.31
929.344	4350.41
929.653	4337.08
929.962	4315.38
930.271	4280.58
930.581	4272.44
930.89	4212.78
931.199	4250.3
931.508	4172.56
931.817	4150.41
932.125	4157.87
932.434	4151.54
932.743	4202.62
933.051	4131.66
933.36	4150.64
933.669	4105.89
933.977	4108.83
934.286	4084.88
934.594	4086.91
934.902	4028.61
935.21	4042.39
935.519	4024.54
935.827	4009.85
936.135	3982.28
936.443	3961.04
936.751	3957.88
937.059	3914.71
937.367	3912.23
937.674	3898.22
937.982	3889.18
938.29	3844.43
938.597	3864.77
938.905	3777.77
939.213	3839.69
939.52	3803.53
939.827	3787.49
940.135	3771.21
940.442	3740.03
940.749	3786.36
941.056	3707.26
941.363	3688.05
941.67	3706.81
941.977	3663.19
942.284	3635.17
942.591	3638.56
942.898	3658.67
943.205	3637.66
943.511	3617.09
943.818	3590.2
944.125	3553.82
944.431	3558.34
944.738	3565.34
945.044	3535.74
945.35	3496.87
945.657	3493.93
945.963	3483.54
946.269	3450.54
946.575	3439.7
946.881	3435.63
947.187	3429.3
947.493	3414.39
947.799	3399.02
948.105	3368.06
948.41	3364.45
948.716	3371.45
949.022	3297.1
949.327	3341.4
949.633	3331.45
949.938	3281.06
950.244	3310.89
950.549	3282.41
950.854	3275.18
951.16	3232.92
951.465	3245.58
951.77	3224.79
952.075	3199.93
952.38	3194.51
952.685	3206.48
952.99	3148.18
953.294	3176.43
953.599	3147.05
953.904	3124
954.209	3110.44
954.513	3153.83
954.818	3083.55
955.122	3088.52
955.426	3096.43
955.731	3070.67
956.035	3070.67
956.339	3044.68
956.643	3014.4
956.948	3016.21
957.252	3013.95
957.556	2988.41
957.86	2986.38
958.163	2948.41
958.467	2952.03
958.771	2940.5
959.075	2954.06
959.378	2921.75
959.682	2914.51
959.985	2918.36
960.289	2888.3
960.592	2863.44
960.896	2826.61
961.199	2857.34
961.502	2820.96
961.805	2822.76
962.108	2771.47
962.411	2792.94
962.714	2804.69
963.017	2781.64
963.32	2727.4
963.623	2716.1
963.926	2738.47
964.228	2766.72
964.531	2707.29
964.833	2709.55
965.136	2697.12
965.438	2650.11
965.741	2665.03
966.043	2659.38
966.345	2616.67
966.648	2632.26
966.95	2641.3
967.252	2588.87
967.554	2597.91
967.856	2587.74
968.158	2559.04
968.46	2568.76
968.761	2542.77
969.063	2538.7
969.365	2543.22
969.666	2486.05
969.968	2488.54
970.269	2464.13
970.571	2518.59
970.872	2501.64
971.174	2463.9
971.475	2458.25
971.776	2428.88
972.077	2439.95
972.378	2419.61
972.679	2422.78
972.98	2414.41
973.281	2416.9
973.582	2413.96
973.883	2383.45
974.183	2375.09
974.484	2350.91
974.785	2329.44
975.085	2340.52
975.386	2372.16
975.686	2334.87
975.986	2293.51
976.287	2329.22
976.587	2318.6
976.887	2274.3
977.187	2299.61
977.487	2268.88
977.787	2232.95
978.087	2205.83
978.387	2210.58
978.687	2209.67
978.987	2224.36
979.286	2220.29
979.586	2222.55
979.885	2156.34
980.185	2183.23
980.484	2152.95
980.784	2196.79
981.083	2127.19
981.382	2145.72
981.682	2148.43
981.981	2122.44
982.28	2117.92
982.579	2107.08
982.878	2149.56
983.177	2100.75
983.475	2119.05
983.774	2039.96
984.073	2057.36
984.372	2048.55
984.67	2036.8
984.969	2028.89
985.267	2025.5
985.566	2026.63
985.864	2020.53
986.162	1996.57
986.461	1969.91
986.759	1986.85
987.057	1930.36
987.355	1971.71
987.653	1942.56
987.951	1982.79
988.249	1944.37
988.547	1935.1
988.844	1892.17
989.142	1924.71
989.44	1904.14
989.737	1913.18
990.035	1891.26
990.332	1898.04
990.63	1869.34
990.927	1826.41
991.224	1843.13
991.521	1852.62
991.819	1838.16
992.116	1841.1
992.413	1852.39
992.71	1846.75
993.006	1812.17
993.303	1823.47
993.6	1765.17
993.897	1821.44
994.193	1798.38
994.49	1780.31
994.787	1766.97
995.083	1775.56
995.379	1758.39
995.676	1742.12
995.972	1771.94
996.268	1740.76
996.565	1712.51
996.861	1686.98
997.157	1702.57
997.453	1707.31
997.749	1677.94
998.044	1671.83
998.34	1663.25
998.636	1635
998.932	1627.77
999.227	1627.09
999.523	1635.68
999.818	1623.02
1000.114	1641.78
1000.409	1626.86
1000.704	1611.95
1001	1607.88
1001.295	1577.6
1001.59	1570.82
1001.885	1582.12
1002.18	1573.31
1002.475	1565.62
1002.77	1537.15
1003.065	1530.14
1003.359	1512.29
1003.654	1522.46
1003.949	1519.3
1004.243	1525.4
1004.538	1493.76
1004.832	1521.56
1005.127	1486.08
1005.421	1493.53
1005.715	1492.86
1006.009	1466.42
1006.304	1451.05
1006.598	1434.33
1006.892	1455.12
1007.186	1460.09
1007.48	1406.98
1007.773	1420.54
1008.067	1427.32
1008.361	1415.12
1008.655	1380.99
1008.948	1383.25
1009.242	1368.79
1009.535	1384.16
1009.829	1337.38
1010.122	1358.4
1010.415	1360.43
1010.708	1351.39
1011.001	1332.63
1011.295	1324.27
1011.588	1319.3
1011.881	1305.52
1012.173	1323.14
1012.466	1320.88
1012.759	1291.28
1013.052	1310.04
1013.344	1279.08
1013.637	1260.09
1013.93	1272.52
1014.222	1273.88
1014.514	1275.23
1014.807	1261
1015.099	1207.89
1015.391	1239.53
1015.683	1253.99
1015.976	1210.38
1016.268	1218.74
1016.56	1202.69
1016.851	1211.51
1017.143	1212.19
1017.435	1162.47
1017.727	1181.9
1018.018	1172.86
1018.31	1162.02
1018.602	1152.3
1018.893	1151.4
1019.185	1123.37
1019.476	1143.94
1019.767	1092.19
1020.058	1121.79
1020.35	1118.18
1020.641	1094.45
1020.932	1094.9
1021.223	1077.27
1021.514	1113.21
1021.804	1091.96
1022.095	1066.43
1022.386	1069.59
1022.677	1060.78
1022.967	1070.95
1023.258	1068.69
1023.548	1067.78
1023.839	1036.82
1024.129	1039.76
1024.419	1011.06
1024.709	1009.25
1025	1014
1025.29	1007.22
1025.58	997.73
1025.87	978.75
1026.16	1000.67
1026.449	992.3
1026.739	973.55
1027.029	986.65
1027.319	960.67
1027.608	948.92
1027.898	970.16
1028.187	966.54
1028.477	945.07
1028.766	943.49
1029.055	948.24
1029.344	924.74
1029.634	931.06
1029.923	928.13
1030.212	919.54
1030.501	918.41
1030.79	900.56
1031.078	907.11
1031.367	906.66
1031.656	864.4
1031.945	896.04
1032.233	887.67
1032.522	867.11
1032.81	867.79
1033.099	857.17
1033.387	877.28
1033.675	837.96
1033.963	831.86
1034.251	835.02
1034.54	871.86
1034.828	801.57
1035.116	839.31
1035.403	864.4
1035.691	834.79
1035.979	815.59
1036.267	811.07
1036.554	788.47
1036.842	801.8
1037.129	805.87
1037.417	815.13
1037.704	777.85
1037.992	785.53
1038.279	772.65
1038.566	776.49
1038.853	776.49
1039.14	776.49
