Data from hue_40_FLMS001491_77.txt Node
Date: Mon Feb 06 15:08:25 GMT 2017
User: dcchb
Spectrometer: FLMS00149
Trigger mode: 0
Integration Time (sec): 2.000000E-2
Scans to average: 10
Electric dark correction enabled: true
Nonlinearity correction enabled: false
Boxcar width: 0
XAxis mode: Wavelengths
Number of Pixels in Spectrum: 2048
>>>>>Begin Spectral Data<<<<<
341.393	-17.57
341.776	-17.57
342.16	-17.57
342.543	-56.44
342.927	-57.57
343.31	-81.3
343.693	-74.07
344.077	-58.47
344.46	-64.57
344.843	-57.57
345.226	-29.1
345.61	-20.96
345.993	-30
346.376	4.8
346.759	-2.66
347.142	30.34
347.525	27.85
347.908	73.73
348.291	83.44
348.674	95.2
349.057	103.33
349.44	110.79
349.823	138.36
350.206	183.33
350.588	194.4
350.971	210.22
351.354	204.8
351.737	235.76
352.119	270.33
352.502	245.93
352.884	258.58
353.267	280.95
353.65	294.29
354.032	303.55
354.414	305.13
354.797	308.75
355.179	307.62
355.562	306.72
355.944	316.88
356.326	339.03
356.709	313.04
357.091	328.18
357.473	334.74
357.855	322.99
358.238	335.64
358.62	342.19
359.002	339.93
359.384	344.45
359.766	318.01
360.148	323.44
360.53	335.87
360.912	345.81
361.294	364.11
361.676	341.06
362.057	346.71
362.439	335.64
362.821	341.97
363.203	332.7
363.584	329.99
363.966	317.11
364.348	312.82
364.729	320.73
365.111	311.46
365.493	309.65
365.874	303.1
366.256	306.94
366.637	312.14
367.019	299.03
367.4	321.63
367.781	310.33
368.163	301.74
368.544	322.08
368.925	307.85
369.306	324.34
369.688	325.47
370.069	327.96
370.45	312.82
370.831	309.2
371.212	301.07
371.593	295.64
371.974	305.81
372.355	320.05
372.736	309.2
373.117	315.75
373.498	320.27
373.879	309.65
374.26	311.01
374.641	311.91
375.021	310.78
375.402	298.35
375.783	332.03
376.163	315.08
376.544	325.47
376.925	326.83
377.305	344.23
377.686	313.27
378.066	311.69
378.447	318.47
378.827	328.41
379.208	342.19
379.588	330.22
379.968	328.64
380.349	325.25
380.729	335.41
381.109	316.43
381.489	330.44
381.87	332.93
382.25	336.32
382.63	336.09
383.01	345.13
383.39	340.16
383.77	344
384.15	329.77
384.53	336.54
384.91	336.32
385.29	337.45
385.67	346.04
386.049	301.97
386.429	346.04
386.809	331.35
387.189	345.13
387.568	363.21
387.948	342.19
388.328	344.23
388.707	340.61
389.087	359.6
389.466	365.7
389.846	357.34
390.225	351.01
390.605	356.21
390.984	361.4
391.363	370.67
391.743	350.1
392.122	364.11
392.501	369.76
392.881	385.58
393.26	366.6
393.639	359.37
394.018	360.72
394.397	353.49
394.776	376.09
395.155	387.16
395.534	360.05
395.913	391.91
396.292	382.87
396.671	390.1
397.05	365.24
397.429	377.67
397.808	372.25
398.186	368.41
398.565	357.11
398.944	387.84
399.323	387.39
399.701	398.92
400.08	379.03
400.458	388.29
400.837	408.63
401.215	384.45
401.594	384.45
401.972	393.27
402.351	401.4
402.729	411.8
403.107	412.25
403.486	390.78
403.864	390.78
404.242	420.38
404.62	403.89
404.999	394.85
405.377	411.35
405.755	400.27
406.133	417.9
406.511	419.03
406.889	407.05
407.267	438.24
407.645	443.89
408.023	411.57
408.401	399.82
408.779	425.81
409.156	431.91
409.534	427.16
409.912	431.01
410.29	448.86
410.667	418.8
411.045	436.88
411.422	435.75
411.8	421.51
412.178	440.95
412.555	465.58
412.933	435.75
413.31	462.87
413.687	458.8
414.065	473.26
414.442	488.18
414.819	453.38
415.197	470.55
415.574	461.06
415.951	492.25
416.328	468.74
416.705	468.29
417.082	475.52
417.46	473.72
417.837	486.6
418.214	475.75
418.591	487.5
418.967	511.46
419.344	498.57
419.721	513.04
420.098	504.9
420.475	495.86
420.852	511.68
421.228	512.36
421.605	507.39
421.982	542.87
422.358	527.95
422.735	523.43
423.111	537.44
423.488	519.36
423.864	532.47
424.241	555.52
424.617	539.25
424.994	527.05
425.37	549.19
425.746	541.51
426.123	525.92
426.499	537.22
426.875	548.06
427.251	546.93
427.627	564.34
428.003	569.76
428.379	568.86
428.756	574.5
429.132	565.01
429.507	582.87
429.883	563.88
430.259	569.08
430.635	570.66
431.011	595.52
431.387	594.39
431.763	616.54
432.138	612.92
432.514	626.03
432.89	607.5
433.265	628.74
433.641	639.14
434.016	628.74
434.392	646.59
434.767	652.02
435.143	622.64
435.518	656.54
435.894	651.34
436.269	679.36
436.644	642.53
437.02	676.87
437.395	670.55
437.77	697.89
438.145	680.49
438.52	693.37
438.895	689.3
439.271	690.66
439.646	713.71
440.021	708.96
440.395	708.96
440.77	708.29
441.145	701.51
441.52	706.93
441.895	697.89
442.27	729.53
442.645	728.85
443.019	750.09
443.394	721.62
443.769	753.48
444.143	747.38
444.518	768.17
444.892	738.57
445.267	752.81
445.641	751.9
446.016	764.1
446.39	766.59
446.764	745.12
447.139	759.81
447.513	777.66
447.887	770.21
448.262	777.21
448.636	777.66
449.01	791.45
449.384	794.39
449.758	803.43
450.132	809.98
450.506	803.65
450.88	813.37
451.254	832.8
451.628	843.65
452.002	832.8
452.376	838.9
452.75	826.7
453.123	842.52
453.497	877.77
453.871	836.64
454.244	890.2
454.618	889.75
454.992	899.02
455.365	905.12
455.739	891.11
456.112	919.58
456.486	942.63
456.859	942.4
457.232	946.47
457.606	959.58
457.979	934.27
458.352	970.43
458.725	981.05
459.099	987.6
459.472	995.96
459.845	1002.74
460.218	1026.92
460.591	1024.89
460.964	1028.5
461.337	1063.76
461.71	1090.65
462.083	1075.73
462.456	1090.42
462.829	1069.18
463.201	1104.66
463.574	1131.78
463.947	1115.96
464.32	1164.55
464.692	1180.14
465.065	1160.03
465.438	1167.71
465.81	1212.45
466.183	1230.31
466.555	1221.72
466.928	1248.16
467.3	1230.31
467.672	1281.15
468.045	1307.14
468.417	1317.99
468.789	1342.39
469.161	1329.74
469.534	1377.42
469.906	1409.06
470.278	1427.14
470.65	1418.78
471.022	1448.83
471.394	1443.18
471.766	1508.04
472.138	1515.72
472.51	1558.21
472.882	1602.73
473.253	1606.57
473.625	1642.95
473.997	1667.13
474.369	1683.85
474.74	1723.63
475.112	1759.11
475.484	1809.73
475.855	1854.7
476.227	1881.81
476.598	1948.03
476.97	1955.03
477.341	2020.79
477.713	2047.69
478.084	2089.72
478.455	2176.5
478.827	2189.15
479.198	2244.97
479.569	2294.01
479.94	2394.34
480.311	2407.68
480.682	2457.17
481.053	2560.67
481.424	2622.36
481.795	2630.72
482.166	2712.53
482.537	2810.83
482.908	2886.08
483.279	2980.09
483.65	3034.33
484.021	3090.6
484.391	3155.91
484.762	3253.76
485.133	3339.18
485.503	3412.62
485.874	3497.14
486.244	3560.19
486.615	3663.46
486.985	3741.88
487.356	3855.1
487.726	3938.48
488.097	4073.17
488.467	4079.05
488.837	4229.55
489.207	4320.39
489.578	4421.18
489.948	4493.95
490.318	4615.98
490.688	4698.24
491.058	4791.34
491.428	4860.49
491.798	4996.31
492.168	5127.83
492.538	5156.98
492.908	5258.9
493.278	5406.47
493.648	5431.33
494.017	5538.22
494.387	5692.56
494.757	5789.73
495.126	5883.52
495.496	5887.13
495.866	6048.03
496.235	6128.71
496.605	6180.01
496.974	6303.17
497.344	6374.13
497.713	6438.31
498.082	6632.65
498.452	6673.78
498.821	6763.72
499.19	6805.3
499.559	6950.83
499.928	6975.01
500.298	7082.58
500.667	7173.65
501.036	7197.61
501.405	7323.93
501.774	7325.51
502.143	7454.78
502.512	7531.61
502.88	7639.18
503.249	7684.83
503.618	7820.19
503.987	7817.48
504.356	7930.47
504.724	8001.65
505.093	8068.77
505.462	8099.73
505.83	8184.93
506.199	8257.01
506.567	8452.72
506.936	8414.3
507.304	8598.7
507.672	8662.88
508.041	8711.47
508.409	8776.55
508.777	8890.22
509.145	8864.23
509.514	8911.91
509.882	9035.75
510.25	9096.77
510.618	9151.23
510.986	9201.17
511.354	9296.54
511.722	9358.68
512.09	9476.64
512.458	9504.21
512.826	9626.7
513.193	9629.18
513.561	9656.53
513.929	9767.26
514.297	9807.03
514.664	9944.65
515.032	9973.81
515.4	10021.04
515.767	10127.25
516.135	10169.96
516.502	10145.1
516.869	10293.57
517.237	10437.3
517.604	10368.82
517.972	10487.01
518.339	10468.26
518.706	10511.19
519.073	10603.17
519.44	10751.86
519.808	10761.81
520.175	10762.03
520.542	10903.95
520.909	11015.81
521.276	11029.15
521.643	11085.41
522.009	11255.35
522.376	11251.51
522.743	11294
523.11	11444.28
523.477	11463.94
523.843	11600.2
524.21	11779.63
524.577	11768.56
524.943	11766.98
525.31	11843.59
525.676	12016.92
526.043	12032.28
526.409	12072.73
526.776	12219.4
527.142	12261.88
527.508	12296
527.874	12424.36
528.241	12414.87
528.607	12523.34
528.973	12713.85
529.339	12693.51
529.705	12808.53
530.071	12945.25
530.437	12920.39
530.803	13091.01
531.169	13180.73
531.535	13115.64
531.901	13158.81
532.267	13198.35
532.632	13345.24
532.998	13345.24
533.364	13382.98
533.73	13440.38
534.095	13662.97
534.461	13613.71
534.826	13656.65
535.192	13770.54
535.557	13914.27
535.923	13857.09
536.288	13969.18
536.653	13927.37
537.019	13943.42
537.384	14079.46
537.749	14073.81
538.114	14213.47
538.479	14188.16
538.845	14355.39
539.21	14280.36
539.575	14262.73
539.94	14424.08
540.305	14493.69
540.67	14514.03
541.034	14550.41
541.399	14564.87
541.764	14755.15
542.129	14744.98
542.494	14764.64
542.858	14836.95
543.223	14843.51
543.587	14980
543.952	15029.94
544.316	15040.79
544.681	15109.72
545.045	15136.83
545.41	15314.46
545.774	15328.02
546.138	15341.35
546.503	15475.58
546.867	15368.69
547.231	15537.28
547.595	15583.83
547.959	15646.2
548.324	15615.01
548.688	15725.74
549.052	15749.92
549.416	15837.15
549.779	15861.11
550.143	15991.27
550.507	16013.19
550.871	15983.37
551.235	16055.23
551.599	16205.96
551.962	16163.7
552.326	16158.95
552.689	16357.14
553.053	16332.96
553.417	16323.02
553.78	16513.97
554.143	16476.23
554.507	16613.63
554.87	16623.8
555.234	16774.98
555.597	16650.69
555.96	16817.69
556.323	16815.43
556.686	16824.47
557.05	17045.71
557.413	16962.1
557.776	17110.34
558.139	17173.84
558.502	17184.46
558.865	17211.13
559.228	17319.15
559.59	17424.01
559.953	17452.25
560.316	17660.84
560.679	17586.26
561.041	17727.73
561.404	17813.83
561.767	17797.1
562.129	17839.14
562.492	18080.49
562.854	17961.17
563.217	18021.28
563.579	18142.86
563.941	18276.19
564.304	18298.56
564.666	18424.66
565.028	18425.56
565.39	18503.3
565.753	18664.65
566.115	18582.84
566.477	18765.21
566.839	18800.01
567.201	18837.3
567.563	18870.52
567.925	19015.83
568.287	19014.25
568.648	19099.67
569.01	19137.86
569.372	19326.33
569.734	19263.05
570.095	19393.67
570.457	19472.54
570.819	19477.96
571.18	19651.97
571.542	19678.64
571.903	19765.41
572.265	19971.73
572.626	19944.16
572.987	19987.1
573.349	20123.82
573.71	20158.17
574.071	20270.26
574.432	20322.46
574.794	20494.21
575.155	20519.74
575.516	20554.09
575.877	20650.59
576.238	20726.52
576.599	20919.73
576.96	20914.31
577.32	21093.97
577.681	21331.25
578.042	21325.15
578.403	21383.22
578.763	21530.56
579.124	21635.87
579.485	21829.09
579.845	21974.17
580.206	22008.74
580.566	22095.97
580.927	22215.29
581.287	22425.46
581.648	22463.42
582.008	22761.72
582.368	22774.37
582.728	23060.47
583.089	23045.33
583.449	23318.54
583.809	23358.99
584.169	23501.59
584.529	23624.75
584.889	23969.82
585.249	24022.93
585.609	23921.01
585.969	24395.8
586.329	24427.89
586.688	24744.26
587.048	24843.92
587.408	24988.1
587.768	25216.34
588.127	25458.37
588.487	25555.77
588.846	25872.14
589.206	25786.5
589.565	26049.09
589.925	26312.13
590.284	26406.14
590.643	26698.11
591.003	26867.82
591.362	27047.93
591.721	27336.96
592.08	27434.14
592.44	27590.97
592.799	27789.83
593.158	27910.06
593.517	28115.25
593.876	28306.88
594.235	28449.03
594.593	28583.03
594.952	28881.33
595.311	28962.23
595.67	29221.66
596.029	29458.49
596.387	29652.61
596.746	29838.82
597.104	29796.79
597.463	30111.58
597.822	30432.93
598.18	30524.45
598.538	30544.79
598.897	30968.06
599.255	30780.26
599.613	31488.27
599.972	31253.92
600.33	31600.81
600.688	31429.74
601.046	31791.31
601.404	32030.85
601.762	32122.6
602.12	32313.11
602.478	32594.45
602.836	32646.88
603.194	32629.93
603.552	32721
603.91	32818.63
604.268	33142.01
604.625	33011.84
604.983	33506.75
605.341	33323.7
605.698	33577.7
606.056	33731.15
606.413	33679.4
606.771	34019.95
607.128	34121.19
607.485	33998.48
607.843	34347.85
608.2	34513.73
608.557	34701.29
608.914	34552.82
609.272	34873.04
609.629	35039.59
609.986	35254.04
610.343	35102.86
610.7	35525.9
611.057	35509.63
611.414	35499.24
611.771	35661.94
612.127	35866.23
612.484	35931.09
612.841	36070.29
613.198	36092.21
613.554	36170.4
613.911	36463.05
614.267	36512.09
614.624	36436.39
614.98	36727.23
615.337	36929.25
615.693	36838.64
616.05	36813.78
616.406	36915.7
616.762	37010.83
617.118	37053.09
617.475	37156.82
617.831	37295.57
618.187	37484.04
618.543	37419.64
618.899	37691.04
619.255	37662.8
619.611	37695.79
619.967	37912.28
620.323	37962.22
620.678	37860.98
621.034	37791.15
621.39	37813.98
621.746	37785.73
622.101	38330.35
622.457	38105.04
622.812	38266.39
623.168	38361.53
623.523	38290.12
623.879	38521.3
624.234	38136.91
624.589	38407.63
624.945	38531.7
625.3	38679.04
625.655	38634.52
626.01	38491.02
626.365	38848.53
626.72	38824.35
627.075	38720.17
627.43	38766.49
627.785	38695.76
628.14	38823.22
628.495	38893.72
628.85	38825.7
629.205	38649.44
629.559	39078.58
629.914	38783.67
630.269	38848.3
630.623	38878.81
630.978	38705.48
631.332	38912.71
631.687	38870.9
632.041	38790.9
632.396	38936.43
632.75	38890.33
633.104	38919.03
633.459	38741.18
633.813	38728.53
634.167	38759.72
634.521	38775.99
634.875	38823.89
635.229	38735.99
635.583	38622.09
635.937	38709.55
636.291	38617.12
636.645	38764.46
636.999	38671.81
637.352	38745.25
637.706	38531.02
638.06	38782.31
638.413	38663.9
638.767	38521.53
639.121	38615.76
639.474	38246.06
639.828	38354.75
640.181	38538.48
640.534	38557.23
640.888	38412.38
641.241	38200.18
641.594	38354.3
641.947	38466.16
642.301	38437.46
642.654	38317.24
643.007	38356.34
643.36	38361.76
643.713	38150.01
644.066	38351.14
644.419	38122.9
644.771	37775.11
645.124	37604.72
645.477	37511.16
645.83	37282.47
646.182	37204.95
646.535	37107.33
646.888	37113.88
647.24	37013.55
647.593	37223.48
647.945	37099.19
648.298	36914.11
648.65	36856.71
649.002	36811.97
649.355	36917.5
649.707	36826.21
650.059	36955.47
650.411	37413.76
650.763	37431.84
651.115	37832.51
651.467	37665.96
651.819	37729.46
652.171	37732.62
652.523	37458.28
652.875	37508.45
653.227	37437.94
653.578	37663.25
653.93	37639.97
654.282	37517.49
654.633	37436.36
654.985	37532.4
655.337	37507.77
655.688	37446.08
656.039	37642
656.391	37428
656.742	37291.51
657.094	37296.48
657.445	37436.59
657.796	37253.09
658.147	37347.78
658.498	37207.21
658.849	37374.67
659.2	37475.23
659.551	37157.72
659.902	37314.33
660.253	37172.19
660.604	37359.07
660.955	37251.51
661.306	37283.82
661.656	37117.72
662.007	37178.74
662.358	37189.14
662.708	37095.58
663.059	37057.84
663.409	36852.19
663.76	37167.67
664.11	37180.77
664.461	37080.21
664.811	37000.44
665.161	37155.69
665.511	36981.68
665.862	37015.81
666.212	37068.23
666.562	37181.9
666.912	37126.76
667.262	37114.33
667.612	37094.45
667.962	37073.66
668.312	37022.59
668.662	37124.96
669.011	37092.41
669.361	37042.7
669.711	37037.27
670.06	36817.85
670.41	36846.09
670.76	36822.82
671.109	36941.23
671.459	36844.96
671.808	36832.53
672.157	36956.15
672.507	36773.33
672.856	36712.99
673.205	36831.63
673.554	36914.79
673.904	36736.04
674.253	36859.65
674.602	36882.48
674.951	36235.04
675.3	36057.64
675.649	36745.08
675.998	36590.73
676.346	36683.16
676.695	36783.95
677.044	36557.51
677.393	36586.67
677.741	36635.25
678.09	36653.56
678.438	36333.34
678.787	36510.73
679.135	36392.55
679.484	36264.64
679.832	36435.26
680.181	36299.89
680.529	36387.57
680.877	36102.84
681.225	36244.98
681.573	36389.61
681.922	36149.61
682.27	36030.07
682.618	36079.79
682.966	35894.48
683.314	36075.04
683.661	35866.23
684.009	35781.26
684.357	35798.44
684.705	35643.64
685.053	35604.77
685.4	35576.07
685.748	35513.02
686.095	35427.6
686.443	35308.28
686.79	35219.7
687.138	35321.61
687.485	35359.58
687.832	35084.78
688.18	35198.68
688.527	35107.16
688.874	34986.48
689.221	34962.53
689.568	34811.12
689.915	34716.66
690.262	34706.71
690.609	34588.75
690.956	34527.74
691.303	34545.81
691.65	34387.17
691.997	34307.85
692.344	34239.38
692.69	34050.01
693.037	34025.38
693.383	33888.43
693.73	34044.36
694.077	33783.8
694.423	33761.88
694.769	33678.04
695.116	33629.23
695.462	33594.88
695.808	33437.37
696.155	33459.74
696.501	33142.46
696.847	33296.58
697.193	33023.37
697.539	33186.08
697.885	33032.86
698.231	32947.44
698.577	32942.02
698.923	32923.03
699.269	32750.83
699.614	32482.14
699.96	32605.75
700.306	32583.15
700.651	32355.36
700.997	32291.41
701.342	32251.19
701.688	32152.66
702.033	31983.4
702.379	32038.76
702.724	31922.38
703.069	32024.3
703.415	31528.94
703.76	31693.23
704.105	31608.72
704.45	31536.63
704.795	31264.09
705.14	31263.64
705.485	31366.69
705.83	31197.43
706.175	31206.92
706.52	31060.03
706.865	31032.91
707.209	30943.65
707.554	30741.85
707.899	30805.12
708.243	30648.52
708.588	30630.44
708.932	30374.63
709.277	30288.3
709.621	30381.4
709.966	30321.97
710.31	30409.88
710.654	30127.85
710.998	30164.24
711.342	30090.56
711.687	29997.23
712.031	29849.67
712.375	29877.91
712.719	29836.79
713.063	29711.37
713.407	29876.56
713.75	29604.02
714.094	29686.73
714.438	29512.95
714.782	29566.96
715.125	29450.13
715.469	29440.64
715.812	29319.96
716.156	29080.65
716.499	29198.16
716.843	29193.87
717.186	29011.27
717.53	29267.31
717.873	29090.82
718.216	28986.41
718.559	29055.56
718.902	28668.46
719.246	28844.04
719.589	28764.5
719.932	28596.14
720.275	28602.69
720.617	28596.82
720.96	28516.37
721.303	28605.86
721.646	28526.09
721.989	28300.1
722.331	28375.81
722.674	28175.36
723.016	28242.03
723.359	28218.75
723.701	28146.44
724.044	28081.35
724.386	28014.69
724.729	28030.28
725.071	27911.64
725.413	27964.52
725.755	27803.62
726.097	27786.67
726.439	27545.32
726.782	27778.31
727.124	27813.11
727.465	27592.1
727.807	27710.51
728.149	27586.68
728.491	27511.42
728.833	27582.16
729.175	27434.14
729.516	27302.62
729.858	27440.24
730.199	27324.54
730.541	27251.09
730.882	27284.54
731.224	27348.49
731.565	27115.95
731.906	27186.01
732.248	27225.56
732.589	26931.55
732.93	26931.33
733.271	26963.19
733.612	27044.54
733.953	26976.3
734.294	26847.71
734.635	26882.29
734.976	26790.54
735.317	26701.28
735.658	26623.09
735.999	26736.75
736.339	26717.09
736.68	26574.95
737.021	26592.8
737.361	26399.81
737.702	26631.45
738.042	26463.09
738.383	26423.09
738.723	26440.49
739.063	26369.53
739.404	26397.55
739.744	26192.81
740.084	26158.46
740.424	26180.39
740.764	26155.07
741.104	26219.93
741.444	26106.26
741.784	25978.81
742.124	26050.44
742.464	26048.19
742.804	25939.26
743.143	25938.58
743.483	25880.96
743.823	25698.82
744.162	25704.92
744.502	25725.26
744.841	25649.1
745.181	25816.33
745.52	25574.07
745.86	25737.91
746.199	25597.35
746.538	25647.29
746.877	25583.79
747.216	25586.28
747.556	25520.29
747.895	25464.92
748.234	25326.62
748.573	25311.03
748.911	25277.13
749.25	25232.84
749.589	25121.2
749.928	25243.91
750.267	25165.27
750.605	25046.4
750.944	24986.07
751.283	24904.71
751.621	25013.18
751.96	24831.27
752.298	24873.98
752.636	24902.23
752.975	24733.19
753.313	24612.52
753.651	24786.52
753.989	24676.92
754.327	24480.77
754.666	24371.17
755.004	24496.14
755.342	24476.25
755.679	24445.74
756.017	24341.11
756.355	24236.48
756.693	24217.5
757.031	24154.9
757.368	24146.09
757.706	23944.06
758.044	23944.51
758.381	23935.47
758.719	23917.85
759.056	23850.95
759.394	23758.3
759.731	23701.13
760.068	23700.45
760.405	23596.27
760.743	23501.59
761.08	23455.26
761.417	23328.48
761.754	23284.64
762.091	23323.74
762.428	23158.77
762.765	23061.15
763.102	23182.72
763.438	22929.17
763.775	22957.87
764.112	22961.26
764.449	22855.5
764.785	22743.41
765.122	22623.19
765.458	22569.18
765.795	22529.18
766.131	22567.15
766.467	22363.31
766.804	22295.06
767.14	22305.23
767.476	22240.83
767.812	22109.53
768.148	22132.13
768.485	22003.32
768.821	21882.64
769.157	21834.51
769.492	21775.3
769.828	21733.95
770.164	21576.21
770.5	21479.72
770.836	21493.28
771.171	21444.24
771.507	21347.74
771.842	21181.42
772.178	21076.34
772.513	21204.02
772.849	21028.43
773.184	20905.72
773.519	20825.72
773.855	20813.75
774.19	20751.6
774.525	20672.73
774.86	20668.89
775.195	20627.08
775.53	20507.09
775.865	20331.05
776.2	20189.36
776.535	20179.19
776.87	20114.1
777.205	20028.91
777.539	19879.08
777.874	20040.21
778.209	19865.97
778.543	19842.25
778.878	19697.62
779.212	19638.86
779.547	19583.27
779.881	19531.29
780.215	19449.71
780.55	19523.84
780.884	19286.33
781.218	19355.03
781.552	19324.29
781.886	19248.59
782.22	19089.05
782.554	19053.79
782.888	18859.45
783.222	18734.71
783.556	18767.7
783.889	18612.67
784.223	18560.47
784.557	18627.36
784.89	18618.78
785.224	18428.72
785.557	18317.09
785.891	18302.63
786.224	18232.8
786.558	18202.29
786.891	18110.31
787.224	18013.59
787.557	17907.61
787.891	17920.72
788.224	17864.9
788.557	17884.11
788.89	17738.57
789.223	17742.64
789.556	17654.51
789.888	17669.87
790.221	17558.92
790.554	17398.02
790.887	17313.5
791.219	17206.84
791.552	17285.25
791.884	17242.77
792.217	17152.83
792.549	17112.15
792.882	16983.79
793.214	16891.14
793.546	16934.98
793.879	16755.32
794.211	16808.43
794.543	16807.3
794.875	16645.95
795.207	16699.96
795.539	16570.92
795.871	16561.43
796.203	16377.03
796.535	16355.11
796.867	16377.03
797.198	16187.2
797.53	16235.79
797.862	16199.18
798.193	16131.84
798.525	15989.69
798.856	16017.04
799.188	15892.75
799.519	15880.09
799.85	15723.48
800.182	15845.06
800.513	15806.65
800.844	15667.44
801.175	15728.23
801.506	15686.88
801.837	15608.91
802.168	15579.31
802.499	15482.14
802.83	15429.71
803.161	15379.54
803.491	15422.7
803.822	15357.62
804.153	15283.72
804.483	15141.81
804.814	15081.24
805.145	15124.4
805.475	15102.26
805.805	15042.6
806.136	15111.52
806.466	15013
806.796	14897.97
807.126	14804.41
807.457	14823.85
807.787	14843.28
808.117	14703.4
808.447	14693.23
808.777	14693
809.107	14569.39
809.436	14577.98
809.766	14570.97
810.096	14580.24
810.426	14415.04
810.755	14460.92
811.085	14394.93
811.414	14392.45
811.744	14255.27
812.073	14264.31
812.403	14208.72
812.732	14137.31
813.061	14167.14
813.39	14123.75
813.719	14040.59
814.049	14086.92
814.378	13984.1
814.707	13906.36
815.036	14006.02
815.365	13862.52
815.693	13804.89
816.022	13828.17
816.351	13736.87
816.68	13689.64
817.008	13701.39
817.337	13614.61
817.665	13500.49
817.994	13665.01
818.322	13596.99
818.651	13526.48
818.979	13450.1
819.307	13521.96
819.636	13409.65
819.964	13418.46
820.292	13304.57
820.62	13330.33
820.948	13312.7
821.276	13333.27
821.604	13351.12
821.932	13348.86
822.259	13375.52
822.587	13311.34
822.915	13253.72
823.243	13296.66
823.57	13222.31
823.898	13323.1
824.225	13151.12
824.553	13182.31
824.88	13196.32
825.207	13321.51
825.535	13243.55
825.862	13303.89
826.189	13203.55
826.516	13229.54
826.843	13253.27
827.17	13268.86
827.497	13297.33
827.824	13248.3
828.151	13233.61
828.478	13208.97
828.805	13290.55
829.131	13241.29
829.458	13219.37
829.785	13122.88
830.111	13242.87
830.438	13281.74
830.764	13207.39
831.09	13184.57
831.417	13177.56
831.743	13206.26
832.069	13171.91
832.395	13135.98
832.722	13152.93
833.048	13117.9
833.374	13159.94
833.7	13079.49
834.026	13110.22
834.351	13077
834.677	13093.5
835.003	13106.15
835.329	13076.32
835.654	13033.61
835.98	13006.95
836.306	12997.23
836.631	12914.97
836.956	12971.92
837.282	13044.91
837.607	12884.69
837.932	12878.36
838.258	12909.55
838.583	12801.3
838.908	12825.26
839.233	12722.43
839.558	12778.93
839.883	12706.16
840.208	12675.66
840.533	12727.86
840.858	12697.35
841.182	12687.18
841.507	12616.9
841.832	12537.58
842.156	12605.83
842.481	12537.35
842.805	12507.52
843.13	12520.63
843.454	12452.61
843.778	12451.03
844.103	12438.83
844.427	12294.2
844.751	12448.54
845.075	12251.49
845.399	12246.74
845.723	12293.29
846.047	12269.79
846.371	12192.28
846.695	12121.09
847.019	12031.6
847.343	11954.77
847.666	11941.44
847.99	11844.49
848.313	11833.64
848.637	11828.67
848.96	11721.1
849.284	11773.76
849.607	11648.56
849.931	11586.87
850.254	11545.74
850.577	11456.7
850.9	11397.27
851.223	11457.83
851.546	11382.58
851.869	11284.05
852.192	11294
852.515	11247.22
852.838	11206.32
853.161	11228.46
853.483	11155.24
853.806	11084.51
854.129	11026.21
854.451	10968.13
854.774	10948.24
855.096	10966.1
855.419	10874.8
855.741	10929.71
856.063	10837.29
856.385	10799.09
856.708	10775.14
857.03	10701.7
857.352	10742.6
857.674	10690.17
857.996	10672.09
858.318	10466.9
858.64	10553.9
858.961	10554.13
859.283	10452.44
859.605	10397.75
859.926	10563.39
860.248	10412.89
860.57	10417.64
860.891	10375.6
861.212	10325.89
861.534	10379.44
861.855	10294.25
862.176	10270.97
862.498	10294.7
862.819	10247.92
863.14	10219.9
863.461	10178.09
863.782	10111.88
864.103	10161.6
864.424	10183.74
864.745	10088.83
865.065	10101.26
865.386	10027.82
865.707	10080.92
866.027	10029.62
866.348	10106.91
866.668	10017.19
866.989	9990.98
867.309	9920.47
867.63	9990.3
867.95	9957.08
868.27	9863.53
868.59	9957.99
868.91	9857.42
869.23	9948.5
869.55	9855.84
869.87	9884.32
870.19	9890.87
870.51	9833.47
870.83	9801.38
871.15	9729.97
871.469	9752.79
871.789	9725
872.109	9813.36
872.428	9749.4
872.748	9739.69
873.067	9690.88
873.386	9720.48
873.706	9734.04
874.025	9632.12
874.344	9632.12
874.663	9636.19
874.982	9556.42
875.301	9533.37
875.62	9553.03
875.939	9512.8
876.258	9518.45
876.577	9543.31
876.896	9488.85
877.214	9445.46
877.533	9457.66
877.852	9513.7
878.17	9456.98
878.489	9475.74
878.807	9444.78
879.125	9399.81
879.444	9363.2
879.762	9355.52
880.08	9367.49
880.398	9285.24
880.716	9313.94
881.034	9259.02
881.352	9297.67
881.67	9228.97
881.988	9271.9
882.306	9234.84
882.624	9116.65
882.941	9074.39
883.259	9129.31
883.577	9094.28
883.894	9120.72
884.212	9026.49
884.529	9104.68
884.846	9005.02
885.164	9041.4
885.481	8977.45
885.798	9026.03
886.115	8896.77
886.432	8934.06
886.75	8885.02
887.067	8901.29
887.383	8855.64
887.7	8851.8
888.017	8817.45
888.334	8784.68
888.651	8755.08
888.967	8733.61
889.284	8749.66
889.6	8636.89
889.917	8541.75
890.233	8626.95
890.55	8670.34
890.866	8537.91
891.182	8551.47
891.498	8517.35
891.815	8593.73
892.131	8487.97
892.447	8461.98
892.763	8413.17
893.079	8390.8
893.395	8406.62
893.71	8380.4
894.026	8389.44
894.342	8355.77
894.657	8261.31
894.973	8261.31
895.289	8233.51
895.604	8244.36
895.92	8163.68
896.235	8149.22
896.55	8118.94
896.865	8113.97
897.181	8099.05
897.496	8056.34
897.811	8070.13
898.126	8011.15
898.441	7954.88
898.756	8028.55
899.071	7881.66
899.386	7931.37
899.7	7892.96
900.015	7882.34
900.33	7798.5
900.644	7745.62
900.959	7752.17
901.273	7748.78
901.588	7657.48
901.902	7627.2
902.216	7619.07
902.531	7601.44
902.845	7645.05
903.159	7527.77
903.473	7469.01
903.787	7474.21
904.101	7432.63
904.415	7398.51
904.729	7391.05
905.042	7322.58
905.356	7377.26
905.67	7283.93
905.984	7311.73
906.297	7286.19
906.611	7236.48
906.924	7213.2
907.237	7174.11
907.551	7154.22
907.864	7104.05
908.177	7189.47
908.491	7069.7
908.804	7084.84
909.117	6982.02
909.43	6962.59
909.743	6940.21
910.056	6934.11
910.368	6931.4
910.681	6901.12
910.994	6876.94
911.307	6863.6
911.619	6797.17
911.932	6823.61
912.244	6780.44
912.557	6755.59
912.869	6716.72
913.181	6661.35
913.494	6677.4
913.806	6590.17
914.118	6616.38
914.43	6563.05
914.742	6600.79
915.054	6547.23
915.366	6465.88
915.678	6488.7
915.99	6412.54
916.302	6351.53
916.613	6370.06
916.925	6377.74
917.236	6325.31
917.548	6274.92
917.859	6287.12
918.171	6316.27
918.482	6249.38
918.794	6156.28
919.105	6216.39
919.416	6129.61
919.727	6191.76
920.038	6081.48
920.349	6064.98
920.66	5991.31
920.971	5973.01
921.282	5977.75
921.593	5949.96
921.903	5905.44
922.214	5991.31
922.525	5876.96
922.835	5857.98
923.146	5857.98
923.456	5841.48
923.767	5768.04
924.077	5773.46
924.387	5768.72
924.697	5745.67
925.008	5692.56
925.318	5695.05
925.628	5668.38
925.938	5673.58
926.248	5587.25
926.558	5612.79
926.867	5559.46
927.177	5561.04
927.487	5521.95
927.796	5470.65
928.106	5498.22
928.416	5447.37
928.725	5444.21
929.034	5363.53
929.344	5436.52
929.653	5327.37
929.962	5358.56
930.271	5294.15
930.581	5293.48
930.89	5229.3
931.199	5208.96
931.508	5225.46
931.817	5201.73
932.125	5208.51
932.434	5150.2
932.743	5115.4
933.051	5117.89
933.36	5063.43
933.669	5035.18
933.977	5042.18
934.286	5032.69
934.594	5013.03
934.902	4974.84
935.21	4949.08
935.519	4947.05
935.827	4908.4
936.135	4832.92
936.443	4828.18
936.751	4862.75
937.059	4860.49
937.367	4828.86
937.674	4766.94
937.982	4841.74
938.29	4818.23
938.597	4712.25
938.905	4681.52
939.213	4712.93
939.52	4643.1
939.827	4695.75
940.135	4610.1
940.442	4621.63
940.749	4571.01
941.056	4574.4
941.363	4542.31
941.67	4517.45
941.977	4479.03
942.284	4496.21
942.591	4465.02
942.898	4502.99
943.205	4463.67
943.511	4401.75
943.818	4370.11
944.125	4364.91
944.431	4409.43
944.738	4358.59
945.044	4295.31
945.35	4298.25
945.657	4251.92
945.963	4244.46
946.269	4251.24
946.575	4227.52
946.881	4244.69
947.187	4166.5
947.493	4184.81
947.799	4150.91
948.105	4147.52
948.41	4128.08
948.716	4126.05
949.022	4077.69
949.327	4091.7
949.633	4020.74
949.938	4029.78
950.244	4027.52
950.549	4003.57
950.854	3979.84
951.16	3993.62
951.465	3918.82
951.77	3937.13
952.075	3892.38
952.38	3909.56
952.685	3940.97
952.99	3880.18
953.294	3850.8
953.599	3852.38
953.904	3790.47
954.209	3778.26
954.513	3826.17
954.818	3789.79
955.122	3787.75
955.426	3767.19
955.731	3691.48
956.035	3700.07
956.339	3668.66
956.643	3672.73
956.948	3665.04
957.252	3654.2
957.556	3641.32
957.86	3605.84
958.163	3601.54
958.467	3560.87
958.771	3566.97
959.075	3528.78
959.378	3513.41
959.682	3519.96
959.985	3508.21
960.289	3477.03
960.592	3470.93
960.896	3474.09
961.199	3419.63
961.502	3406.75
961.805	3386.18
962.108	3410.36
962.411	3358.84
962.714	3381.21
963.017	3348.22
963.32	3344.38
963.623	3336.69
963.926	3326.07
964.228	3293.3
964.531	3285.39
964.833	3294.21
965.136	3232.06
965.438	3262.8
965.741	3227.54
966.043	3189.13
966.345	3194.55
966.648	3158.62
966.95	3182.12
967.252	3201.55
967.554	3111.16
967.856	3153.87
968.158	3109.13
968.46	3109.35
968.761	3077.72
969.063	3076.13
969.365	3080.2
969.666	3021.67
969.968	2983.93
970.269	3000.88
970.571	3006.08
970.872	3014.21
971.174	2997.72
971.475	2947.1
971.776	2960.2
972.077	2933.31
972.378	2903.71
972.679	2921.56
972.98	2872.75
973.281	2924.05
973.582	2883.37
973.883	2889.7
974.183	2849.25
974.484	2844.95
974.785	2863.48
975.085	2827.55
975.386	2821.9
975.686	2842.47
975.986	2763.15
976.287	2792.75
976.587	2770.15
976.887	2741.45
977.187	2770.38
977.487	2763.83
977.787	2700.1
978.087	2680.44
978.387	2679.99
978.687	2670.04
978.987	2662.59
979.286	2652.42
979.586	2650.38
979.885	2615.13
980.185	2636.15
980.484	2604.51
980.784	2540.33
981.083	2549.59
981.382	2584.85
981.682	2560.89
981.981	2553.66
982.28	2545.3
982.579	2527.67
982.878	2523.61
983.177	2527
983.475	2500.33
983.774	2510.95
984.073	2495.36
984.372	2496.04
984.67	2461.91
984.969	2450.39
985.267	2461.69
985.566	2436.38
985.864	2398.19
986.162	2420.11
986.461	2368.81
986.759	2397.73
987.057	2369.49
987.355	2364.51
987.653	2356.38
987.951	2340.56
988.249	2336.94
988.547	2298.75
988.844	2307.11
989.142	2305.31
989.44	2298.08
989.737	2272.77
990.035	2280
990.332	2234.12
990.63	2237.74
990.927	2204.52
991.224	2237.51
991.521	2215.37
991.819	2208.36
992.116	2185.54
992.413	2170.17
992.71	2151.41
993.006	2182.82
993.303	2173.11
993.6	2169.04
993.897	2139.44
994.193	2134.92
994.49	2135.59
994.787	2080.91
995.083	2087.91
995.379	2092.66
995.676	2095.82
995.972	2072.09
996.268	2056.95
996.565	2036.61
996.861	2032.32
997.157	2042.71
997.453	2027.57
997.749	2001.59
998.044	1986.22
998.34	1991.19
998.636	1977.41
998.932	1981.02
999.227	1950.29
999.523	1946.22
999.818	1934.69
1000.114	1942.6
1000.409	1901.93
1000.704	1940.12
1001	1901.02
1001.295	1895.37
1001.59	1907.8
1001.885	1862.61
1002.18	1838.2
1002.475	1854.47
1002.77	1823.29
1003.065	1845.88
1003.359	1826.9
1003.654	1861.93
1003.949	1812.89
1004.243	1755.94
1004.538	1756.85
1004.832	1793.68
1005.127	1764.3
1005.421	1739.45
1005.715	1770.18
1006.009	1739.22
1006.304	1741.25
1006.598	1719.33
1006.892	1732.89
1007.186	1714.36
1007.48	1670.52
1007.773	1669.84
1008.067	1657.19
1008.361	1678.66
1008.655	1666.23
1008.948	1640.69
1009.242	1651.54
1009.535	1626.68
1009.829	1639.79
1010.122	1616.06
1010.415	1605.89
1010.708	1583.74
1011.001	1570.86
1011.295	1584.42
1011.588	1566.34
1011.881	1580.35
1012.173	1554.37
1012.466	1536.97
1012.759	1517.76
1013.052	1528.38
1013.344	1528.15
1013.637	1506.23
1013.93	1505.55
1014.222	1475.5
1014.514	1509.4
1014.807	1454.48
1015.099	1482.5
1015.391	1466.46
1015.683	1457.19
1015.976	1461.94
1016.268	1447.25
1016.56	1417.19
1016.851	1409.74
1017.143	1418.32
1017.435	1425.56
1017.727	1409.51
1018.018	1392.79
1018.31	1349.63
1018.602	1346.69
1018.893	1342.85
1019.185	1347.14
1019.476	1314.6
1019.767	1354.37
1020.058	1338.1
1020.35	1310.08
1020.641	1276.63
1020.932	1280.02
1021.223	1292.68
1021.514	1273.47
1021.804	1249.29
1022.095	1267.37
1022.386	1263.07
1022.677	1255.84
1022.967	1228.27
1023.258	1239.12
1023.548	1256.97
1023.839	1204.77
1024.129	1222.85
1024.419	1206.58
1024.709	1184.66
1025	1181.95
1025.29	1160.48
1025.58	1178.1
1025.87	1192.79
1026.16	1145.11
1026.449	1172.46
1026.739	1134.94
1027.029	1144.89
1027.319	1130.65
1027.608	1163.64
1027.898	1094.72
1028.187	1094.27
1028.477	1093.36
1028.766	1093.36
1029.055	1081.84
1029.344	1066.47
1029.634	1077.54
1029.923	1073.25
1030.212	1057.66
1030.501	1062.63
1030.79	1043.87
1031.078	1040.26
1031.367	1043.42
1031.656	1038.67
1031.945	1009.52
1032.233	1009.75
1032.522	988.96
1032.81	1002.74
1033.099	993.93
1033.387	980.14
1033.675	972.46
1033.963	976.53
1034.251	980.37
1034.54	958
1034.828	971.1
1035.116	970.43
1035.403	941.27
1035.691	948.96
1035.979	944.66
1036.267	922.97
1036.554	943.99
1036.842	928.39
1037.129	897.21
1037.417	922.29
1037.704	904.67
1037.992	898.34
1038.279	885.91
1038.566	884.78
1038.853	884.78
1039.14	884.78
