Data from hue_250_FLMS001491_00025.txt Node
Date: Tue Feb 07 16:00:45 GMT 2017
User: dcchb
Spectrometer: FLMS00149
Trigger mode: 0
Integration Time (sec): 2.000000E-2
Scans to average: 10
Electric dark correction enabled: true
Nonlinearity correction enabled: false
Boxcar width: 0
XAxis mode: Wavelengths
Number of Pixels in Spectrum: 2048
>>>>>Begin Spectral Data<<<<<
341.393	-6.02
341.776	-6.02
342.16	-6.02
342.543	-35.17
342.927	-61.83
343.31	-76.52
343.693	-78.56
344.077	-65.9
344.46	-49.63
344.843	-51.44
345.226	-38.56
345.61	-29.07
345.993	-14.38
346.376	13.42
346.759	9.12
347.142	29.91
347.525	31.27
347.908	63.59
348.291	76.24
348.674	84.6
349.057	95.9
349.44	118.73
349.823	150.82
350.206	178.39
350.588	180.64
350.971	199.85
351.354	220.42
351.737	236.24
352.119	248.89
352.502	253.86
352.884	287.99
353.267	285.05
353.65	273.98
354.032	298.83
354.414	299.96
354.797	309
355.179	312.84
355.562	314.88
355.944	312.84
356.326	324.6
356.709	329.57
357.091	340.64
357.473	344.48
357.855	345.16
358.238	339.51
358.62	347.65
359.002	359.62
359.384	331.83
359.766	330.7
360.148	344.26
360.53	330.92
360.912	347.87
361.294	320.08
361.676	329.34
362.057	317.36
362.439	330.25
362.821	324.82
363.203	333.18
363.584	312.17
363.966	323.01
364.348	334.99
364.729	313.52
365.111	311.94
365.493	325.5
365.874	318.95
366.256	302.9
366.637	330.47
367.019	327.99
367.4	317.14
367.781	313.52
368.163	332.73
368.544	318.95
368.925	299.96
369.306	331.15
369.688	316.91
370.069	296.57
370.45	305.61
370.831	302.9
371.212	318.95
371.593	297.7
371.974	304.03
372.355	317.59
372.736	319.85
373.117	324.37
373.498	316.91
373.879	314.88
374.26	317.59
374.641	313.07
375.021	318.49
375.402	343.8
375.783	329.12
376.163	325.05
376.544	324.14
376.925	345.61
377.305	320.3
377.686	330.92
378.066	339.96
378.447	341.32
378.827	329.12
379.208	343.8
379.588	334.54
379.968	339.96
380.349	344.03
380.729	332.05
381.109	337.48
381.489	327.99
381.87	320.08
382.25	338.38
382.63	346.97
383.01	360.75
383.39	347.87
383.77	342
384.15	342.67
384.53	360.75
384.91	357.59
385.29	360.3
385.67	342.22
386.049	362.34
386.429	362.11
386.809	366.63
387.189	373.18
387.568	365.27
387.948	371.83
388.328	353.3
388.707	371.15
389.087	368.89
389.466	351.26
389.846	371.6
390.225	374.31
390.605	374.54
390.984	370.92
391.363	359.17
391.743	380.87
392.122	373.63
392.501	373.18
392.881	379.74
393.26	386.06
393.639	389
394.018	400.3
394.397	386.97
394.776	389.91
395.155	367.76
395.534	388.55
395.913	384.03
396.292	393.29
396.671	406.63
397.05	381.32
397.429	413.18
397.808	421.32
398.186	421.09
398.565	436.01
398.944	405.5
399.323	408.66
399.701	415.89
400.08	415.67
400.458	426.97
400.837	398.49
401.215	416.34
401.594	431.26
401.972	453.18
402.351	449.79
402.729	453.63
403.107	461.32
403.486	445.95
403.864	414.09
404.242	431.49
404.62	464.71
404.999	462.67
405.377	457.25
405.755	463.12
406.133	461.99
406.511	450.92
406.889	469.22
407.267	477.59
407.645	474.2
408.023	478.72
408.401	507.64
408.779	507.19
409.156	501.31
409.534	519.39
409.912	504.48
410.29	514.2
410.667	526.85
411.045	540.18
411.422	525.04
411.8	548.77
412.178	561.43
412.555	564.36
412.933	574.98
413.31	561.43
413.687	572.5
414.065	571.82
414.442	570.92
414.819	561.65
415.197	591.26
415.574	592.16
415.951	606.17
416.328	625.83
416.705	620.18
417.082	643.46
417.46	647.07
417.837	651.14
418.214	631.25
418.591	640.52
418.967	638.71
419.344	692.27
419.721	670.12
420.098	680.29
420.475	684.13
420.852	690.46
421.228	699.5
421.605	713.96
421.982	724.36
422.358	737.92
422.735	734.75
423.111	726.17
423.488	754.64
423.864	788.99
424.241	773.85
424.617	805.49
424.994	809.33
425.37	818.59
425.746	813.85
426.123	803.23
426.499	850.91
426.875	840.74
427.251	871.02
427.627	869.44
428.003	874.19
428.379	878.03
428.756	912.83
429.132	915.99
429.507	897.69
429.883	921.87
430.259	917.8
430.635	928.2
431.011	962.55
431.387	968.87
431.763	971.58
432.138	995.09
432.514	1017.01
432.89	1020.62
433.265	1035.76
433.641	1052.94
434.016	1058.14
434.392	1075.76
434.767	1096.55
435.143	1113.28
435.518	1142.43
435.894	1143.78
436.269	1161.41
436.644	1137.23
437.02	1193.95
437.395	1163.9
437.77	1191.01
438.145	1233.27
438.52	1263.55
438.895	1260.62
439.271	1257.68
439.646	1297.45
440.021	1283.44
440.395	1321.86
440.77	1309.43
441.145	1314.4
441.52	1337.68
441.895	1368.18
442.27	1389.65
442.645	1393.04
443.019	1390.33
443.394	1418.13
443.769	1445.02
444.143	1449.54
444.518	1442.31
444.892	1446.37
445.267	1491.34
445.641	1492.02
446.016	1504.9
446.39	1501.74
446.764	1480.27
447.139	1517.11
447.513	1518.01
447.887	1535.19
448.262	1562.53
448.636	1534.73
449.01	1602.75
449.384	1590.1
449.758	1585.35
450.132	1590.78
450.506	1639.36
450.88	1632.13
451.254	1622.41
451.628	1635.07
452.002	1679.36
452.376	1689.31
452.75	1711.68
453.123	1726.82
453.497	1760.49
453.871	1739.93
454.244	1751.9
454.618	1791
454.992	1792.35
455.365	1822.18
455.739	1885.01
456.112	1858.11
456.486	1872.13
456.859	1859.7
457.232	1926.81
457.606	1932.46
457.979	1936.53
458.352	1989.64
458.725	1981.73
459.099	1981.5
459.472	2068.5
459.845	2034.38
460.218	2050.65
460.591	2130.42
460.964	2103.98
461.337	2167.49
461.71	2200.7
462.083	2201.61
462.456	2208.84
462.829	2233.25
463.201	2266.92
463.574	2250.87
463.947	2303.53
464.32	2355.73
464.692	2363.41
465.065	2382.17
465.438	2417.42
465.81	2429.4
466.183	2472.56
466.555	2491.54
466.928	2531.77
467.3	2521.6
467.672	2533.35
468.045	2584.88
468.417	2593.24
468.789	2614.48
469.161	2691.77
469.534	2707.36
469.906	2749.84
470.278	2778.99
470.65	2811.76
471.022	2863.96
471.394	2875.94
471.766	2931.76
472.138	2931.53
472.51	3015.15
472.882	2993.68
473.253	3029.38
473.625	3102.83
473.997	3167.23
474.369	3173.11
474.74	3199.32
475.112	3242.49
475.484	3271.86
475.855	3366.32
476.227	3347.34
476.598	3454.46
476.97	3457.17
477.341	3538.97
477.713	3624.4
478.084	3582.36
478.455	3705.52
478.827	3736.71
479.198	3823.26
479.569	3812.87
479.94	3889.25
480.311	3910.49
480.682	3976.25
481.053	4079.3
481.424	4126.98
481.795	4185.51
482.166	4226.19
482.537	4257.83
482.908	4335.34
483.279	4387.31
483.65	4430.25
484.021	4541.89
484.391	4566.97
484.762	4627.08
485.133	4599.51
485.503	4675.89
485.874	4799.28
486.244	4809.68
486.615	4859.62
486.985	4893.06
487.356	5031.14
487.726	5000.18
488.097	5107.75
488.467	5129.67
488.837	5225.71
489.207	5279.49
489.578	5375.99
489.948	5404.46
490.318	5437
490.688	5476.55
491.058	5556.55
491.428	5603.1
491.798	5688.07
492.168	5797.67
492.538	5804.23
492.908	5863.43
493.278	5862.08
493.648	5915.18
494.017	5957.67
494.387	5997.89
494.757	5992.24
495.126	6099.36
495.496	6093.26
495.866	6161.05
496.235	6177.32
496.605	6242.86
496.974	6274.5
497.344	6291.67
497.713	6324.21
498.082	6363.31
498.452	6444.66
498.821	6436.53
499.19	6406.7
499.559	6517.43
499.928	6525.34
500.298	6588.84
500.667	6610.76
501.036	6633.36
501.405	6678.33
501.774	6659.8
502.143	6759.23
502.512	6793.13
502.88	6778.21
503.249	6770.08
503.618	6790.19
503.987	6801.26
504.356	6858.66
504.724	6894.14
505.093	6900.47
505.462	6918.09
505.83	6960.58
506.199	7018.66
506.567	7043.06
506.936	7076.96
507.304	7125.1
507.672	7183.85
508.041	7155.6
508.409	7204.19
508.777	7255.49
509.145	7243.51
509.514	7268.37
509.882	7309.27
510.25	7310.18
510.618	7358.76
510.986	7342.94
511.354	7384.98
511.722	7437.18
512.09	7493.9
512.458	7494.8
512.826	7469.49
513.193	7535.71
513.561	7563.73
513.929	7594.69
514.297	7658.19
514.664	7627.45
515.032	7636.49
515.4	7697.96
515.767	7683.95
516.135	7750.62
516.502	7685.98
516.869	7784.29
517.237	7824.51
517.604	7769.15
517.972	7807.56
518.339	7842.59
518.706	7804.85
519.073	7852.53
519.44	7891.85
519.808	7929.82
520.175	7912.42
520.542	8042.59
520.909	7952.42
521.276	7955.58
521.643	8007.56
522.009	8022.25
522.376	8055.24
522.743	8109.02
523.11	8153.54
523.477	8228.79
523.843	8169.59
524.21	8262.92
524.577	8278.74
524.943	8363.48
525.31	8265.18
525.676	8353.09
526.043	8343.37
526.409	8427.66
526.776	8471.5
527.142	8467.21
527.508	8518.96
527.874	8505.62
528.241	8563.02
528.607	8506.08
528.973	8558.28
529.339	8520.99
529.705	8589.24
530.071	8668.78
530.437	8623.13
530.803	8632.63
531.169	8675.56
531.535	8671.72
531.901	8657.71
532.267	8693.87
532.632	8684.15
532.998	8701.55
533.364	8752.62
533.73	8744.26
534.095	8789.91
534.461	8746.52
534.826	8769.35
535.192	8806.86
535.557	8791.49
535.923	8807.08
536.288	8803.7
536.653	8796.24
537.019	8790.81
537.384	8753.53
537.749	8774.32
538.114	8815.67
538.479	8829.91
538.845	8864.26
539.21	8791.94
539.575	8808.44
539.94	8731.61
540.305	8809.34
540.67	8775
541.034	8777.93
541.399	8823.13
541.764	8797.82
542.129	8766.41
542.494	8855.9
542.858	8840.53
543.223	8815.22
543.587	8806.63
543.952	8780.42
544.316	8866.52
544.681	8804.82
545.045	8868.78
545.41	8841.21
545.774	8877.59
546.138	8838.95
546.503	8833.52
546.867	8807.76
547.231	8905.16
547.595	8866.29
547.959	8855.9
548.324	8809.8
548.688	8866.97
549.052	8873.52
549.416	8843.69
549.779	8860.87
550.143	8885.73
550.507	8876.69
550.871	8843.69
551.235	8826.29
551.599	8904.03
551.962	8871.04
552.326	8906.07
552.689	8881.89
553.053	8816.12
553.417	8880.98
553.78	8957.82
554.143	8904.94
554.507	8918.49
554.87	8879.4
555.234	8935.44
555.597	8892.05
555.96	8909.23
556.323	8927.99
556.686	8982.45
557.05	8959.62
557.413	9033.75
557.776	8975.67
558.139	9056.8
558.502	8998.04
558.865	9063.12
559.228	9107.64
559.59	9084.59
559.953	9153.29
560.316	9238.26
560.679	9137.25
561.041	9194.87
561.404	9209.33
561.767	9253.4
562.129	9232.38
562.492	9293.63
562.854	9284.81
563.217	9259.05
563.579	9273.06
563.941	9321.65
564.304	9342.66
564.666	9435.99
565.028	9348.09
565.39	9459.95
565.753	9505.6
566.115	9435.99
566.477	9498.82
566.839	9498.59
567.201	9584.01
567.563	9649.1
567.925	9666.27
568.287	9645.71
568.648	9620.17
569.01	9655.65
569.372	9763.67
569.734	9723.44
570.095	9783.1
570.457	9755.76
570.819	9784.23
571.18	9822.88
571.542	9857
571.903	9892.25
572.265	9850.9
572.626	9858.36
572.987	9919.37
573.349	9969.99
573.71	10002.76
574.071	9945.59
574.432	10023.55
574.794	10075.75
575.155	10102.42
575.516	10053.61
575.877	10075.07
576.238	10134.51
576.599	10160.95
576.96	10191.91
577.32	10240.95
577.681	10299.47
578.042	10250.89
578.403	10230.78
578.763	10262.87
579.124	10361.17
579.485	10365.24
579.845	10386.48
580.206	10441.62
580.566	10385.57
580.927	10414.95
581.287	10375.41
581.648	10449.08
582.008	10405.46
582.368	10467.15
582.728	10525.01
583.089	10491.79
583.449	10522.75
583.809	10510.99
584.169	10560.49
584.529	10587.38
584.889	10589.64
585.249	10585.12
585.609	10598.68
585.969	10643.87
586.329	10610.43
586.688	10648.62
587.048	10598.9
587.408	10624.89
587.768	10669.63
588.127	10614.72
588.487	10628.73
588.846	10732.23
589.206	10746.92
589.565	10773.13
589.925	10772.46
590.284	10731.78
590.643	10780.14
591.003	10821.27
591.362	10830.76
591.721	10792.34
592.08	10739.46
592.44	10828.5
592.799	10852
593.158	10860.36
593.517	10808.16
593.876	10867.37
594.235	10833.92
594.593	10819.69
594.952	10878.44
595.311	10871.89
595.67	10889.29
596.029	10869.63
596.387	10954.37
596.746	10917.76
597.104	10862.17
597.463	10907.37
597.822	10960.47
598.18	10913.7
598.538	10913.24
598.897	10988.04
599.255	10886.35
599.613	11002.51
599.972	11054.48
600.33	10990.76
600.688	10953.24
601.046	11031.66
601.404	11077.99
601.762	11028.72
602.12	11116.18
602.478	11038.89
602.836	11064.2
603.194	11051.32
603.552	11129.51
603.91	11023.07
604.268	11051.55
604.625	11102.84
604.983	11079.12
605.341	11063.97
605.698	11136.97
606.056	11120.47
606.413	11139.9
606.771	11107.36
607.128	11160.47
607.485	11174.48
607.843	11195.95
608.2	11186.91
608.557	11173.35
608.914	11190.3
609.272	11257.87
609.629	11258.32
609.986	11286.34
610.343	11244.99
610.7	11278.88
611.057	11282.05
611.414	11301.48
611.771	11306.23
612.127	11284.31
612.484	11392.55
612.841	11381.71
613.198	11268.49
613.554	11303.29
613.911	11341.26
614.267	11337.87
614.624	11361.14
614.98	11443.4
615.337	11494.92
615.693	11429.16
616.05	11334.93
616.406	11482.72
616.762	11449.73
617.118	11480.23
617.475	11504.19
617.831	11459.22
618.187	11492.66
618.543	11485.43
618.899	11533.79
619.255	11512.32
619.611	11504.87
619.967	11505.09
620.323	11519.78
620.678	11520.46
621.034	11428.26
621.39	11533.34
621.746	11459.22
622.101	11639.55
622.457	11562.04
622.812	11553.91
623.168	11575.37
623.523	11587.58
623.879	11574.24
624.234	11497.41
624.589	11569.05
624.945	11541.48
625.3	11560.91
625.655	11557.07
626.01	11545.09
626.365	11541.48
626.72	11461.25
627.075	11576.28
627.43	11494.7
627.785	11481.82
628.14	11442.95
628.495	11479.56
628.85	11430.07
629.205	11396.17
629.559	11481.82
629.914	11429.84
630.269	11461.93
630.623	11341.71
630.978	11355.94
631.332	11402.72
631.687	11492.89
632.041	11357.53
632.396	11388.49
632.75	11384.64
633.104	11409.95
633.459	11309.62
633.813	11256.06
634.167	11282.27
634.521	11256.06
634.875	11287.7
635.229	11261.71
635.583	11229.17
635.937	11214.93
636.291	11229.62
636.645	11218.32
636.999	11160.92
637.352	11258.32
637.706	11145.55
638.06	11240.47
638.413	11177.42
638.767	11215.16
639.121	11188.27
639.474	11129.74
639.828	11055.16
640.181	11096.29
640.534	11098.55
640.888	10993.92
641.241	11001.38
641.594	11023.98
641.947	11037.53
642.301	11012.22
642.654	11072.56
643.007	11008.16
643.36	10998.67
643.713	10997.08
644.066	11021.94
644.419	10871.89
644.771	10904.2
645.124	10771.33
645.477	10727.26
645.83	10724.1
646.182	10643.19
646.535	10576.3
646.888	10593.7
647.24	10545.8
647.593	10585.34
647.945	10628.96
648.298	10485.46
648.65	10461.28
649.002	10508.51
649.355	10586.25
649.707	10534.95
650.059	10590.31
650.411	10711.67
650.763	10689.3
651.115	10806.81
651.467	10778.33
651.819	10792.12
652.171	10773.59
652.523	10814.26
652.875	10783.08
653.227	10706.47
653.578	10830.08
653.93	10827.37
654.282	10705.11
654.633	10734.72
654.985	10748.28
655.337	10748.5
655.688	10739.92
656.039	10777.2
656.391	10678.22
656.742	10672.35
657.094	10787.37
657.445	10799.57
657.796	10724.55
658.147	10697.2
658.498	10636.19
658.849	10730.42
659.2	10768.16
659.551	10696.3
659.902	10730.2
660.253	10765.45
660.604	10741.27
660.955	10665.12
661.306	10742.18
661.656	10690.2
662.007	10768.84
662.358	10687.94
662.708	10759.35
663.059	10729.52
663.409	10689.07
663.76	10687.94
664.11	10759.12
664.461	10699.01
664.811	10702.63
665.161	10776.3
665.511	10750.99
665.862	10708.5
666.212	10765.9
666.562	10798.67
666.912	10685.68
667.262	10708.28
667.612	10660.14
667.962	10666.24
668.312	10617.21
668.662	10753.93
669.011	10718.45
669.361	10678.45
669.711	10732.01
670.06	10640.03
670.41	10650.88
670.76	10625.57
671.109	10613.14
671.459	10666.24
671.808	10614.95
672.157	10668.05
672.507	10567.04
672.856	10624.21
673.205	10681.16
673.554	10600.71
673.904	10535.17
674.253	10582.41
674.602	10551.22
674.951	10416.99
675.3	10392.13
675.649	10536.53
675.998	10561.16
676.346	10498.79
676.695	10544.89
677.044	10442.75
677.393	10560.71
677.741	10532.69
678.09	10583.54
678.438	10402.98
678.787	10472.58
679.135	10461.5
679.484	10430.54
679.832	10420.15
680.181	10325.69
680.529	10317.1
680.877	10455.63
681.225	10335.63
681.573	10432.58
681.922	10285.46
682.27	10268.74
682.618	10266.93
682.966	10246.37
683.314	10187.39
683.661	10239.59
684.009	10127.05
684.357	10122.76
684.705	10195.3
685.053	10124.79
685.4	10131.57
685.748	10040.5
686.095	10122.53
686.443	10036.66
686.79	10017.22
687.138	9988.3
687.485	10005.47
687.832	9964.57
688.18	9997.79
688.527	9889.99
688.874	9908.75
689.221	9875.53
689.568	9846.61
689.915	9822.88
690.262	9787.85
690.609	9825.36
690.956	9786.27
691.303	9759.38
691.65	9689.1
691.997	9688.19
692.344	9601.41
692.69	9589.66
693.037	9562.32
693.383	9594.41
693.73	9569.32
694.077	9414.75
694.423	9499.5
694.769	9495.2
695.116	9419.27
695.462	9328.65
695.808	9368.2
696.155	9404.13
696.501	9239.16
696.847	9192.16
697.193	9176.57
697.539	9291.37
697.885	9153.97
698.231	9134.53
698.577	9156.23
698.923	9048.66
699.269	9043.46
699.614	9080.3
699.96	8918.27
700.306	8932.05
700.651	8923.24
700.997	8900.64
701.342	8913.52
701.688	8911.04
702.033	8831.72
702.379	8817.25
702.724	8845.73
703.069	8793.3
703.415	8693.87
703.76	8735.22
704.105	8692.06
704.45	8633.08
704.795	8619.97
705.14	8567.09
705.485	8552.18
705.83	8525.28
706.175	8526.64
706.52	8446.19
706.865	8423.82
707.209	8401.9
707.554	8430.6
707.899	8453.2
708.243	8388.56
708.588	8383.37
708.932	8320.09
709.277	8304.27
709.621	8277.83
709.966	8231.96
710.31	8223.15
710.654	8208.46
710.998	8154.22
711.342	8205.07
711.687	8185.86
712.031	8155.35
712.375	8133.88
712.719	8141.79
713.063	8118.97
713.407	8161.23
713.75	8068.12
714.094	8059.08
714.438	8002.13
714.782	8035.35
715.125	7966.43
715.469	8004.62
715.812	8076.26
716.156	7894.57
716.499	7924.85
716.843	7979.99
717.186	7918.52
717.53	8002.81
717.873	7893.21
718.216	7870.16
718.559	7887.56
718.902	7845.98
719.246	7834.68
719.589	7779.32
719.932	7821.35
720.275	7786.55
720.617	7776.6
720.96	7808.69
721.303	7737.06
721.646	7748.13
721.989	7705.42
722.331	7726.89
722.674	7734.34
723.016	7765.76
723.359	7695.7
723.701	7725.76
724.044	7667.23
724.386	7653.44
724.729	7716.72
725.071	7622.03
725.413	7629.49
725.755	7623.16
726.097	7598.76
726.439	7556.04
726.782	7556.04
727.124	7579.09
727.465	7514.01
727.807	7617.51
728.149	7546.33
728.491	7532.32
728.833	7503.62
729.175	7581.58
729.516	7501.36
729.858	7494.12
730.199	7542.03
730.541	7475.14
730.882	7502.94
731.224	7479.44
731.565	7465.88
731.906	7508.14
732.248	7502.94
732.589	7479.89
732.93	7438.31
733.271	7420.68
733.612	7544.29
733.953	7471.53
734.294	7525.31
734.635	7448.02
734.976	7409.38
735.317	7416.16
735.658	7441.25
735.999	7461.13
736.339	7434.24
736.68	7496.16
737.021	7399.66
737.361	7438.76
737.702	7449.83
738.042	7491.64
738.383	7396.05
738.723	7436.73
739.063	7401.02
739.404	7470.17
739.744	7470.85
740.084	7410.74
740.424	7439.44
740.764	7445.09
741.104	7505.42
741.444	7442.6
741.784	7417.74
742.124	7446.44
742.464	7490.06
742.804	7501.81
743.143	7513.79
743.483	7486.44
743.823	7478.08
744.162	7518.08
744.502	7535.48
744.841	7525.54
745.181	7583.61
745.52	7636.95
745.86	7602.14
746.199	7609.6
746.538	7593.56
746.877	7650.28
747.216	7710.16
747.556	7665.87
747.895	7727.57
748.234	7753.33
748.573	7762.59
748.911	7845.08
749.25	7840.33
749.589	7902.7
749.928	7954
750.267	7967.11
750.605	7967.56
750.944	8057.5
751.283	8055.01
751.621	8167.55
751.96	8227.67
752.298	8170.49
752.636	8328.23
752.975	8380.88
753.313	8371.84
753.651	8455.46
753.989	8516.25
754.327	8544.49
754.666	8675.56
755.004	8780.64
755.342	8815.9
755.679	8832.85
756.017	8874.2
756.355	9019.28
756.693	9129.34
757.031	9260.63
757.368	9249.33
757.706	9316.45
758.044	9440.74
758.381	9514.64
758.719	9636.89
759.056	9726.83
759.394	9831.24
759.731	9892.25
760.068	9946.49
760.405	10001.86
760.743	10124.56
761.08	10280.49
761.417	10385.35
761.754	10480.49
762.091	10543.31
762.428	10653.14
762.765	10762.29
763.102	10872.79
763.438	10897.65
763.775	11029.63
764.112	11150.75
764.449	11264.2
764.785	11329.28
765.122	11423.74
765.458	11425.77
765.795	11567.92
766.131	11740.57
766.467	11782.6
766.804	11740.79
767.14	11790.74
767.476	12010.84
767.812	12093.78
768.148	12233.66
768.485	12168.13
768.821	12230.27
769.157	12323.38
769.492	12364.05
769.828	12539.42
770.164	12462.58
770.5	12567.66
770.836	12630.49
771.171	12558.4
771.507	12689.69
771.842	12662.12
772.178	12807.21
772.513	12881.33
772.849	12948.44
773.184	12849.69
773.519	12988.44
773.855	13051.94
774.19	12966.98
774.525	13053.98
774.86	12996.13
775.195	13025.5
775.53	13203.13
775.865	13206.74
776.2	13078.38
776.535	13069.12
776.87	13148.67
777.205	13166.52
777.539	13198.16
777.874	13272.05
778.209	13215.56
778.543	13270.92
778.878	13189.12
779.212	13279.51
779.547	13148.67
779.881	13197.7
780.215	13147.31
780.55	13355.89
780.884	13218.95
781.218	13299.85
781.552	13290.13
781.886	13232.51
782.22	13211.94
782.554	13225.5
782.888	13057.14
783.222	13073.41
783.556	13103.24
783.889	13092.17
784.223	13028.89
784.557	13050.82
784.89	13113.41
785.224	13096.01
785.557	12941.67
785.891	12978.5
786.224	12939.86
786.558	12935.79
786.891	12848.11
787.224	12856.02
787.557	12830.48
787.891	12857.6
788.224	12870.93
788.557	12803.36
788.89	12844.94
789.223	12765.62
789.556	12692.18
789.888	12765.17
790.221	12670.71
790.554	12650.6
790.887	12632.97
791.219	12688.11
791.552	12664.61
791.884	12545.52
792.217	12599.75
792.549	12563.37
792.882	12435.01
793.214	12470.27
793.546	12421.91
793.879	12441.57
794.211	12336.03
794.543	12394.79
794.875	12371.51
795.207	12346.65
795.539	12306.43
795.871	12344.39
796.203	12236.83
796.535	12146.88
796.867	12162.7
797.198	12124.51
797.53	12130.16
797.862	12045.19
798.193	12083.83
798.525	12023.27
798.856	12064.17
799.188	11924.74
799.519	11871.41
799.85	11844.52
800.182	11955.48
800.513	11904.4
800.844	11763.62
801.175	11869.6
801.506	11773.56
801.837	11793
802.168	11694.92
802.499	11704.18
802.83	11666.67
803.161	11671.42
803.491	11577.41
803.822	11621.25
804.153	11581.48
804.483	11517.52
804.814	11412.44
805.145	11453.12
805.475	11440.91
805.805	11435.72
806.136	11460.35
806.466	11418.32
806.796	11399.33
807.126	11255.61
807.457	11228.04
807.787	11259.22
808.117	11190.07
808.447	11188.27
808.777	11290.18
809.107	11156.63
809.436	11133.35
809.766	11119.79
810.096	11102.17
810.426	11037.31
810.755	11090.87
811.085	11040.25
811.414	11018.33
811.744	10923.64
812.073	10880.93
812.403	10964.54
812.732	10855.84
813.061	10862.62
813.39	10800.93
813.719	10853.81
814.049	10907.37
814.378	10815.39
814.707	10779.24
815.036	10739.46
815.365	10687.94
815.693	10605.23
816.022	10657.88
816.351	10624.21
816.68	10567.04
817.008	10651.33
817.337	10532.69
817.665	10543.99
817.994	10589.86
818.322	10533.37
818.651	10482.75
818.979	10395.97
819.307	10463.09
819.636	10410.43
819.964	10402.3
820.292	10454.05
820.62	10412.69
820.948	10324.33
821.276	10385.57
821.604	10340.83
821.932	10296.54
822.259	10378.57
822.587	10377.89
822.915	10335.86
823.243	10349.64
823.57	10341.28
823.898	10358.23
824.225	10342.86
824.553	10330.21
824.88	10346.71
825.207	10384.67
825.535	10341.06
825.862	10402.52
826.189	10385.12
826.516	10380.83
826.843	10318.23
827.17	10334.95
827.497	10344.9
827.824	10321.85
828.151	10404.33
828.478	10407.49
828.805	10433.93
829.131	10407.04
829.458	10315.75
829.785	10357.55
830.111	10369.76
830.438	10408.62
830.764	10404.56
831.09	10437.78
831.417	10348.97
831.743	10376.31
832.069	10376.76
832.395	10336.54
832.722	10384.67
833.048	10282.75
833.374	10381.96
833.7	10320.04
834.026	10365.91
834.351	10341.28
834.677	10279.59
835.003	10328.63
835.329	10321.62
835.654	10348.29
835.98	10257.67
836.306	10213.38
836.631	10258.12
836.956	10291.57
837.282	10240.27
837.607	10195.07
837.932	10178.57
838.258	10125.92
838.583	10173.15
838.908	10071.68
839.233	10113.49
839.558	10059.48
839.883	10070.33
840.208	9986.49
840.533	10037.33
840.858	10048.86
841.182	10041.18
841.507	10058.8
841.832	9964.12
842.156	9931.58
842.481	9963.66
842.805	9922.76
843.13	9846.83
843.454	9903.1
843.778	9825.36
844.103	9789.88
844.427	9740.85
844.751	9812.26
845.075	9768.19
845.399	9686.84
845.723	9668.53
846.047	9636.89
846.371	9659.94
846.695	9618.81
847.019	9530
847.343	9471.7
847.666	9508.76
847.99	9449.78
848.313	9405.71
848.637	9313.74
848.96	9365.26
849.284	9308.31
849.607	9198.03
849.931	9277.58
850.254	9206.62
850.577	9125.04
850.9	9083.69
851.223	9074.42
851.546	9070.81
851.869	8966.4
852.192	9046.85
852.515	8906.52
852.838	8886.4
853.161	8882.11
853.483	8874.43
853.806	8775.67
854.129	8804.37
854.451	8766.86
854.774	8720.31
855.096	8695.45
855.419	8678.95
855.741	8614.55
856.063	8635.56
856.385	8655.22
856.708	8600.76
857.03	8557.83
857.352	8578.62
857.674	8498.84
857.996	8480.54
858.318	8428.34
858.64	8456.13
858.961	8400.77
859.283	8403.71
859.605	8365.51
859.926	8337.72
860.248	8366.87
860.57	8301.11
860.891	8312.41
861.212	8239.64
861.534	8286.19
861.855	8204.16
862.176	8211.62
862.498	8264.73
862.819	8220.21
863.14	8190.15
863.461	8221.34
863.782	8154.9
864.103	8158.29
864.424	8163.49
864.745	8191.51
865.065	8045.3
865.386	8049.14
865.707	8094.79
866.027	8048.23
866.348	8050.95
866.668	8088.01
866.989	8002.13
867.309	7942.47
867.63	8048.23
867.95	7935.92
868.27	7934.79
868.59	7943.15
868.91	7922.14
869.23	7911.97
869.55	7942.02
869.87	7906.77
870.19	7823.61
870.51	7842.82
870.83	7876.04
871.15	7836.71
871.469	7764.63
871.789	7806.66
872.109	7836.94
872.428	7735.25
872.748	7770.95
873.067	7733.21
873.386	7791.29
873.706	7748.81
874.025	7734.8
874.344	7704.06
874.663	7709.49
874.982	7631.07
875.301	7632.2
875.62	7656.38
875.939	7682.14
876.258	7683.05
876.577	7585.87
876.896	7627.68
877.214	7598.08
877.533	7576.83
877.852	7601.47
878.17	7599.66
878.489	7591.98
878.807	7661.8
879.125	7509.49
879.444	7533.67
879.762	7498.87
880.08	7535.25
880.398	7510.17
880.716	7467.69
881.034	7448.93
881.352	7471.3
881.67	7416.61
881.988	7435.37
882.306	7436.95
882.624	7368.48
882.941	7301.36
883.259	7330.51
883.577	7309.5
883.894	7302.94
884.212	7322.15
884.529	7288.25
884.846	7271.53
885.164	7321.47
885.481	7241.02
885.798	7209.39
886.115	7190.4
886.432	7214.13
886.75	7151.99
887.067	7197.86
887.383	7128.71
887.7	7137.3
888.017	7117.41
888.334	7114.7
888.651	7093.91
888.967	7077.64
889.284	7018.88
889.6	7025.89
889.917	7047.13
890.233	6919.68
890.55	6919.68
890.866	6961.26
891.182	6893.46
891.498	6881.49
891.815	6878.1
892.131	6869.51
892.447	6876.74
892.763	6874.03
893.079	6834.03
893.395	6811.66
893.71	6793.8
894.026	6759.68
894.342	6709.74
894.657	6699.12
894.973	6707.03
895.289	6677.2
895.604	6645.11
895.92	6591.32
896.235	6543.87
896.55	6578.44
896.865	6538.22
897.181	6524.21
897.496	6549.29
897.811	6524.88
898.126	6493.25
898.441	6414.38
898.756	6429.97
899.071	6402.4
899.386	6381.39
899.7	6351.33
900.015	6285.12
900.33	6324.66
900.644	6258.9
900.959	6323.53
901.273	6230.43
901.588	6246.25
901.902	6161.73
902.216	6147.49
902.531	6179.36
902.845	6108.17
903.159	6096.87
903.473	6104.33
903.787	6024.79
904.101	6021.17
904.415	6109.75
904.729	6036.08
905.042	5953.83
905.356	5933.94
905.67	5942.75
905.984	5924.67
906.297	5936.43
906.611	5872.25
906.924	5859.82
907.237	5836.32
907.551	5834.06
907.864	5797.67
908.177	5766.71
908.491	5802.64
908.804	5722.19
909.117	5696.21
909.43	5657.11
909.743	5646.04
910.056	5673.38
910.368	5620.5
910.681	5570.11
910.994	5613.5
911.307	5528.75
911.619	5482.2
911.932	5542.31
912.244	5496.21
912.557	5482.88
912.869	5449.43
913.181	5395.2
913.494	5427.96
913.806	5335.99
914.118	5328.31
914.43	5300.28
914.742	5321.98
915.054	5274.3
915.366	5323.33
915.678	5250.34
915.99	5225.48
916.302	5171.7
916.613	5137.58
916.925	5194.98
917.236	5172.6
917.548	5103
917.859	5134.41
918.171	5061.87
918.482	5045.38
918.794	5006.05
919.105	5032.95
919.416	5002.89
919.727	4986.62
920.038	4986.62
920.349	4955.43
920.66	4953.4
920.971	4943.46
921.282	4916.57
921.593	4873.4
921.903	4867.75
922.214	4881.99
922.525	4802.67
922.835	4764.48
923.146	4782.33
923.456	4737.59
923.767	4734.88
924.077	4702.11
924.387	4725.38
924.697	4665.05
925.008	4666.85
925.318	4609.23
925.628	4660.08
925.938	4637.93
926.248	4557.03
926.558	4570.13
926.867	4541.43
927.177	4532.17
927.487	4539.63
927.796	4473.19
928.106	4506.41
928.416	4430.48
928.725	4432.96
929.034	4405.84
929.344	4438.39
929.653	4405.39
929.962	4372.85
930.271	4317.49
930.581	4324.49
930.89	4321.78
931.199	4289.01
931.508	4256.7
931.817	4253.76
932.125	4235.23
932.434	4229.35
932.743	4204.04
933.051	4204.27
933.36	4159.3
933.669	4127.89
933.977	4148.45
934.286	4174.44
934.594	4119.98
934.902	4109.58
935.21	4093.99
935.519	4042.24
935.827	4059.19
936.135	4047.89
936.443	3980.32
936.751	3986.65
937.059	4008.57
937.367	3991.17
937.674	3949.59
937.982	3954.11
938.29	3936.48
938.597	3906.42
938.905	3914.78
939.213	3868.91
939.52	3852.86
939.827	3874.33
940.135	3809.93
940.442	3833.2
940.749	3834.11
941.056	3785.3
941.363	3739.65
941.67	3744.39
941.977	3712.76
942.284	3711.4
942.591	3703.49
942.898	3701
943.205	3717.73
943.511	3679.99
943.818	3658.52
944.125	3623.72
944.431	3629.14
944.738	3583.72
945.044	3567.22
945.35	3537.17
945.657	3531.07
945.963	3524.06
946.269	3550.27
946.575	3519.99
946.881	3502.82
947.187	3494.23
947.493	3466.89
947.799	3441.8
948.105	3424.85
948.41	3411.07
948.716	3374.01
949.022	3384.4
949.327	3353.22
949.633	3348.02
949.938	3380.11
950.244	3382.82
950.549	3323.61
950.854	3324.07
951.16	3303.95
951.465	3271.86
951.77	3242.71
952.075	3232.54
952.38	3185.99
952.685	3255.59
952.99	3217.4
953.294	3189.61
953.599	3158.65
953.904	3179.89
954.209	3147.57
954.513	3160
954.818	3122.71
955.122	3145.76
955.426	3078.65
955.731	3082.94
956.035	3094.92
956.339	3066.22
956.643	3058.99
956.948	3008.82
957.252	3024.41
957.556	3037.52
957.86	2977.18
958.163	3006.11
958.467	2985.09
958.771	2958.88
959.075	2982.83
959.378	2924.3
959.682	2952.32
959.985	2897.86
960.289	2903.51
960.592	2890.18
960.896	2892.89
961.199	2831.42
961.502	2895.83
961.805	2857.18
962.108	2829.61
962.411	2822.38
962.714	2810.86
963.017	2792.78
963.32	2807.92
963.623	2750.29
963.926	2776.96
964.228	2754.81
964.531	2746.91
964.833	2708.26
965.136	2724.31
965.438	2698.77
965.741	2691.09
966.043	2686.12
966.345	2699.22
966.648	2692.22
966.95	2675.49
967.252	2653.57
967.554	2628.94
967.856	2639.11
968.158	2638.66
968.46	2607.7
968.761	2582.84
969.063	2567.7
969.365	2560.92
969.666	2549.62
969.968	2509.17
970.269	2499.23
970.571	2544.42
970.872	2546.91
971.174	2499.91
971.475	2473.47
971.776	2477.76
972.077	2461.04
972.378	2492
972.679	2449.29
972.98	2478.44
973.281	2424.88
973.582	2416.74
973.883	2414.26
974.183	2386.69
974.484	2393.69
974.785	2373.13
975.085	2375.84
975.386	2375.62
975.686	2369.51
975.986	2381.94
976.287	2333.13
976.587	2283.87
976.887	2301.49
977.187	2311.44
977.487	2301.49
977.787	2269.4
978.087	2244.77
978.387	2239.8
978.687	2234.38
978.987	2255.62
979.286	2263.3
979.586	2227.82
979.885	2216.98
980.185	2214.04
980.484	2189.63
980.784	2179.01
981.083	2189.63
981.382	2150.76
981.682	2195.96
981.981	2153.02
982.28	2147.15
982.579	2105.79
982.878	2150.31
983.177	2139.69
983.475	2097.43
983.774	2111.89
984.073	2070.31
984.372	2078
984.67	2082.74
984.969	2087.26
985.267	2048.39
985.566	2043.65
985.864	2043.19
986.162	2041.61
986.461	2033.93
986.759	2022.86
987.057	2015.85
987.355	2005.68
987.653	1997.09
987.951	1965.91
988.249	1986.02
988.547	1958.23
988.844	1981.28
989.142	1929.07
989.44	1916.64
989.737	1933.14
990.035	1903.76
990.332	1933.37
990.63	1916.87
990.927	1922.07
991.224	1897.89
991.521	1899.24
991.819	1870.77
992.116	1873.03
992.413	1840.49
992.71	1834.39
993.006	1821.05
993.303	1826.25
993.6	1836.19
993.897	1824.67
994.193	1812.24
994.49	1818.34
994.787	1802.52
995.083	1786.48
995.379	1761.17
995.676	1747.16
995.972	1746.25
996.268	1750.1
996.565	1746.25
996.861	1741.28
997.157	1746.71
997.453	1717.55
997.749	1724.79
998.044	1680.27
998.34	1698.12
998.636	1673.94
998.932	1700.15
999.227	1650.66
999.523	1642.75
999.818	1653.37
1000.114	1630.55
1000.409	1615.18
1000.704	1641.85
1001	1593.26
1001.295	1603.88
1001.59	1602.08
1001.885	1562.53
1002.18	1598.23
1002.475	1599.36
1002.77	1550.78
1003.065	1573.6
1003.359	1565.02
1003.654	1561.17
1003.949	1558.01
1004.243	1534.51
1004.538	1518.91
1004.832	1529.31
1005.127	1529.08
1005.421	1504.45
1005.715	1503.1
1006.009	1482.76
1006.304	1496.54
1006.598	1460.84
1006.892	1481.85
1007.186	1436.88
1007.48	1456.32
1007.773	1450.22
1008.067	1428.52
1008.361	1442.08
1008.655	1407.51
1008.948	1454.28
1009.242	1407.28
1009.535	1400.73
1009.829	1382.42
1010.122	1376.09
1010.415	1365.47
1010.708	1356.89
1011.001	1377.68
1011.295	1356.89
1011.588	1304.68
1011.881	1329.09
1012.173	1336.32
1012.466	1336.55
1012.759	1307.17
1013.052	1317.56
1013.344	1315.08
1013.637	1300.16
1013.93	1274.85
1014.222	1264.01
1014.514	1278.24
1014.807	1269.2
1015.099	1263.78
1015.391	1246.83
1015.683	1249.54
1015.976	1243.22
1016.268	1219.71
1016.56	1223.78
1016.851	1216.55
1017.143	1221.3
1017.435	1231.69
1017.727	1181.75
1018.018	1194.18
1018.31	1178.81
1018.602	1183.33
1018.893	1160.28
1019.185	1139.94
1019.476	1163.44
1019.767	1124.12
1020.058	1155.31
1020.35	1136.33
1020.641	1119.83
1020.932	1110.56
1021.223	1113.28
1021.514	1135.87
1021.804	1107.85
1022.095	1106.5
1022.386	1095.65
1022.677	1091.36
1022.967	1080.96
1023.258	1075.08
1023.548	1079.38
1023.839	1064.46
1024.129	1039.83
1024.419	1072.37
1024.709	1048.87
1025	1028.76
1025.29	1021.75
1025.58	1024.46
1025.87	1005.03
1026.16	985.6
1026.449	1004.13
1026.739	993.28
1027.029	1006.61
1027.319	992.83
1027.608	980.62
1027.898	974.07
1028.187	992.38
1028.477	958.48
1028.766	935.88
1029.055	960.96
1029.344	960.51
1029.634	950.57
1029.923	933.85
1030.212	951.92
1030.501	941.75
1030.79	927.52
1031.078	917.12
1031.367	895.88
1031.656	896.11
1031.945	917.8
1032.233	915.31
1032.522	900.63
1032.81	871.7
1033.099	880.29
1033.387	867.86
1033.675	863.11
1033.963	861.76
1034.251	866.73
1034.54	880.29
1034.828	835.09
1035.116	828.54
1035.403	822.66
1035.691	853.4
1035.979	824.92
1036.267	842.32
1036.554	841.42
1036.842	810.46
1037.129	812.04
1037.417	812.04
1037.704	803.23
1037.992	814.98
1038.279	807.75
1038.566	803.91
1038.853	803.91
1039.14	803.91
