Data from hue_180_FLMS001491_00027.txt Node
Date: Tue Feb 07 16:46:46 GMT 2017
User: dcchb
Spectrometer: FLMS00149
Trigger mode: 0
Integration Time (sec): 2.000000E-2
Scans to average: 10
Electric dark correction enabled: true
Nonlinearity correction enabled: false
Boxcar width: 0
XAxis mode: Wavelengths
Number of Pixels in Spectrum: 2048
>>>>>Begin Spectral Data<<<<<
341.393	-16.17
341.776	-16.17
342.16	-16.17
342.543	-70.86
342.927	-76.74
343.31	-44.87
343.693	-63.85
344.077	-65.44
344.46	-54.36
344.843	-58.2
345.226	-46.45
345.61	-46
345.993	-22.5
346.376	-4.65
346.759	0.55
347.142	20.89
347.525	47.78
347.908	47.56
348.291	72.87
348.674	99.76
349.057	116.93
349.44	132.07
349.823	129.59
350.206	158.29
350.588	181.34
350.971	222.69
351.354	209.13
351.737	232.86
352.119	238.28
352.502	250.26
352.884	260.66
353.267	271.73
353.65	293.2
354.032	309.24
354.414	313.99
354.797	305.18
355.179	312.18
355.562	320.77
355.944	309.92
356.326	328
356.709	339.3
357.091	323.03
357.473	330.94
357.855	338.4
358.238	336.59
358.62	338.62
359.002	354.21
359.384	334.78
359.766	350.37
360.148	344.27
360.53	339.98
360.912	326.19
361.294	333.65
361.676	319.41
362.057	337.04
362.439	342.69
362.821	323.25
363.203	306.08
363.584	315.12
363.966	333.88
364.348	346.76
364.729	331.62
365.111	309.47
365.493	339.75
365.874	316.47
366.256	288.68
366.637	321.22
367.019	313.99
367.4	321.67
367.781	304.95
368.163	303.14
368.544	296.81
368.925	301.56
369.306	320.54
369.688	294.33
370.069	306.08
370.45	327.1
370.831	310.83
371.212	300.66
371.593	313.31
371.974	322.58
372.355	320.99
372.736	312.18
373.117	309.24
373.498	301.79
373.879	325.06
374.26	306.53
374.641	304.5
375.021	316.7
375.402	310.6
375.783	308.57
376.163	326.19
376.544	327.55
376.925	311.73
377.305	323.25
377.686	331.84
378.066	314.67
378.447	316.7
378.827	334.55
379.208	317.83
379.588	333.42
379.968	322.35
380.349	349.69
380.729	332.97
381.109	321.9
381.489	339.98
381.87	329.58
382.25	329.58
382.63	351.05
383.01	349.24
383.39	353.99
383.77	346.98
384.15	327.1
384.53	333.42
384.91	349.92
385.29	361.9
385.67	352.18
386.049	348.11
386.429	330.03
386.809	340.43
387.189	346.98
387.568	340.2
387.948	350.6
388.328	343.82
388.707	326.42
389.087	372.29
389.466	362.8
389.846	353.54
390.225	375.68
390.605	351.95
390.984	359.86
391.363	366.64
391.743	367.32
392.122	398.51
392.501	370.48
392.881	350.37
393.26	376.13
393.639	361.9
394.018	384.27
394.397	369.13
394.776	382.01
395.155	385.4
395.534	366.64
395.913	382.91
396.292	391.05
396.671	385.4
397.05	369.35
397.429	388.11
397.808	361.9
398.186	387.21
398.565	384.27
398.944	390.82
399.323	409.81
399.701	419.3
400.08	396.7
400.458	396.02
400.837	403.25
401.215	400.99
401.594	400.09
401.972	413.42
402.351	411.16
402.729	401.44
403.107	419.07
403.486	414.1
403.864	432.63
404.242	424.27
404.62	442.12
404.999	436.25
405.377	428.79
405.755	410.94
406.133	444.61
406.511	444.83
406.889	456.13
407.267	451.84
407.645	448.22
408.023	450.71
408.401	439.64
408.779	485.06
409.156	468.34
409.534	491.84
409.912	464.04
410.29	494.1
410.667	499.52
411.045	503.81
411.422	488.22
411.8	513.08
412.178	507.88
412.555	549.69
412.933	522.8
413.31	525.51
413.687	552.63
414.065	567.09
414.442	571.84
414.819	565.51
415.197	581.1
415.574	600.08
415.951	586.3
416.328	621.33
416.705	594.66
417.082	619.29
417.46	631.27
417.837	650.48
418.214	607.54
418.591	643.92
418.967	649.8
419.344	674.21
419.721	670.14
420.098	667.43
420.475	705.39
420.852	690.93
421.228	715.11
421.605	674.21
421.982	730.48
422.358	735.67
422.735	726.86
423.111	754.43
423.488	765.5
423.864	768.89
424.241	774.54
424.617	781.77
424.994	793.98
425.37	792.62
425.746	829.68
426.123	828.55
426.499	819.74
426.875	856.8
427.251	869.23
427.627	865.61
428.003	852.28
428.379	917.36
428.756	894.76
429.132	915.1
429.507	924.82
429.883	920.98
430.259	930.7
430.635	960.98
431.011	959.17
431.387	992.39
431.763	995.55
432.138	1007.3
432.514	1040.98
432.89	1022.67
433.265	1066.29
433.641	1063.35
434.016	1077.81
434.392	1097.47
434.767	1127.07
435.143	1127.53
435.518	1135.66
435.894	1153.06
436.269	1180.86
436.644	1215.43
437.02	1209.56
437.395	1221.54
437.77	1242.1
438.145	1257.24
438.52	1284.13
438.895	1294.3
439.271	1302.66
439.646	1356
440.021	1343.34
440.395	1350.12
440.77	1370.91
441.145	1378.82
441.52	1427.41
441.895	1432.83
442.27	1436.22
442.645	1444.81
443.019	1475.54
443.394	1477.8
443.769	1498.36
444.143	1503.34
444.518	1515.77
444.892	1504.24
445.267	1528.42
445.641	1560.06
446.016	1560.51
446.39	1618.14
446.764	1577.91
447.139	1589.66
447.513	1601.41
447.887	1605.71
448.262	1615.88
448.636	1643.22
449.01	1648.19
449.384	1669.66
449.758	1692.94
450.132	1721.41
450.506	1702.43
450.88	1736.55
451.254	1760.5
451.628	1750.79
452.002	1776.78
452.376	1792.59
452.75	1819.03
453.123	1839.37
453.497	1882.08
453.871	1857.45
454.244	1907.85
454.618	1930.44
454.992	1943.55
455.365	1929.54
455.739	2023.77
456.112	2025.36
456.486	2032.81
456.859	2054.73
457.232	2111
457.606	2111
457.979	2136.77
458.352	2188.74
458.725	2186.26
459.099	2199.82
459.472	2226.03
459.845	2256.08
460.218	2275.07
460.591	2297.67
460.964	2312.58
461.337	2404.56
461.71	2409.75
462.083	2455.4
462.456	2450.66
462.829	2469.86
463.201	2523.42
463.574	2531.78
463.947	2606.58
464.32	2635.74
464.692	2637.32
465.065	2659.46
465.438	2762.06
465.81	2750.99
466.183	2797.77
466.555	2870.31
466.928	2858.78
467.3	2866.46
467.672	2938.78
468.045	3005.67
468.417	3008.83
468.789	3049.51
469.161	3046.57
469.534	3167.47
469.906	3208.83
470.278	3250.41
470.65	3253.12
471.022	3347.13
471.394	3415.6
471.766	3437.3
472.138	3471.65
472.51	3568.37
472.882	3638.87
473.253	3663.96
473.625	3729.72
473.997	3831.41
474.369	3860.11
474.74	3968.81
475.112	3996.38
475.484	4060.78
475.855	4111.18
476.227	4224.85
476.598	4297.61
476.97	4397.5
477.341	4465.52
477.713	4518.62
478.084	4559.53
478.455	4721.1
478.827	4749.8
479.198	4916.35
479.569	4949.57
479.94	5072.96
480.311	5194.54
480.682	5283.8
481.053	5427.53
481.424	5505.04
481.795	5559.5
482.166	5651.7
482.537	5742.55
482.908	5848.76
483.279	5967.63
483.65	6088.3
484.021	6188.64
484.391	6318.12
484.762	6386.6
485.133	6399.03
485.503	6597.44
485.874	6718.79
486.244	6758.79
486.615	6860.48
486.985	7000.59
487.356	7090.53
487.726	7160.14
488.097	7396.29
488.467	7397.42
488.837	7540.69
489.207	7627.02
489.578	7847.8
489.948	7881.25
490.318	7970.28
490.688	8113.33
491.058	8208.02
491.428	8344.06
491.798	8360.78
492.168	8533.89
492.538	8587.44
492.908	8684.84
493.278	8826.53
493.648	8835.8
494.017	8992.18
494.387	8989.47
494.757	9057.71
495.126	9229.23
495.496	9215.9
495.866	9241.21
496.235	9339.06
496.605	9451.83
496.974	9550.36
497.344	9632.39
497.713	9686.17
498.082	9734.98
498.452	9926.17
498.821	9869.22
499.19	9875.77
499.559	9983.34
499.928	10042.77
500.298	10155.99
500.667	10161.19
501.036	10202.54
501.405	10284.12
501.774	10247.97
502.143	10384.23
502.512	10379.04
502.88	10492.25
503.249	10445.93
503.618	10525.7
503.987	10527.05
504.356	10513.95
504.724	10598.92
505.093	10662.64
505.462	10701.51
505.83	10764.11
506.199	10760.49
506.567	10850.66
506.936	10861.96
507.304	10972.01
507.672	10940.83
508.041	10957.32
508.409	11092.01
508.777	11081.84
509.145	11162.74
509.514	11081.84
509.882	11211.78
510.25	11217.21
510.618	11337.43
510.986	11212.46
511.354	11306.02
511.722	11357.09
512.09	11397.54
512.458	11357.99
512.826	11413.36
513.193	11423.3
513.561	11493.36
513.929	11401.83
514.297	11527.03
514.664	11562.51
515.032	11550.98
515.4	11647.02
515.767	11634.14
516.135	11586.01
516.502	11508.04
516.869	11609.51
517.237	11679.79
517.604	11627.36
517.972	11668.04
518.339	11707.36
518.706	11767.47
519.073	11641.83
519.44	11655.39
519.808	11783.29
520.175	11766.57
520.542	11864.87
520.909	11798.21
521.276	11824.65
521.643	11852.89
522.009	11865.1
522.376	11887.24
522.743	11871.65
523.11	11889.28
523.477	11979.9
523.843	11965.43
524.21	11941.93
524.577	12102.83
524.943	12055.38
525.31	12014.25
525.676	12054.7
526.043	12135.82
526.409	12084.98
526.776	12165.43
527.142	12114.81
527.508	12105.77
527.874	12149.61
528.241	12132.89
528.607	12129.5
528.973	12124.75
529.339	12031.87
529.705	12066.22
530.071	12054.25
530.437	12163.85
530.803	12064.41
531.169	12028.26
531.535	11987.81
531.901	11957.3
532.267	11965.89
532.632	11998.65
532.998	12031.19
533.364	11977.86
533.73	11917.98
534.095	11934.02
534.461	11861.48
534.826	11866.23
535.192	11861.93
535.557	11786.23
535.923	11769.96
536.288	11783.07
536.653	11718.66
537.019	11638.89
537.384	11685.22
537.749	11580.59
538.114	11536.74
538.479	11509.63
538.845	11467.59
539.21	11447.48
539.575	11396.86
539.94	11377.2
540.305	11355.96
540.67	11297.65
541.034	11283.87
541.399	11237.32
541.764	11261.72
542.129	11143.08
542.494	11119.35
542.858	11106.7
543.223	10989.64
543.587	11115.29
543.952	10896.31
544.316	10899.7
544.681	10907.38
545.045	10856.54
545.41	10871.68
545.774	10779.93
546.138	10731.34
546.503	10634.4
546.867	10659.03
547.231	10709.87
547.595	10547.17
547.959	10533.83
548.324	10477.56
548.688	10394.85
549.052	10410.22
549.416	10346.95
549.779	10323.44
550.143	10310.34
550.507	10334.97
550.871	10247.29
551.235	10203.67
551.599	10250
551.962	10077.12
552.326	10074.18
552.689	10054.3
553.053	9925.49
553.417	9925.04
553.78	10014.07
554.143	9983.79
554.507	9897.01
554.87	9842.55
555.234	9920.74
555.597	9847.3
555.96	9753.74
556.323	9740.63
556.686	9724.81
557.05	9738.6
557.413	9713.06
557.776	9676
558.139	9619.05
558.502	9595.33
558.865	9619.73
559.228	9638.94
559.59	9599.62
559.953	9527.98
560.316	9673.52
560.679	9563.46
561.041	9607.98
561.404	9598.72
561.767	9564.82
562.129	9562.11
562.492	9611.82
562.854	9478.27
563.217	9505.39
563.579	9530.47
563.941	9549.23
564.304	9527.53
564.666	9550.81
565.028	9498.15
565.39	9480.75
565.753	9508.78
566.115	9515.78
566.477	9467.42
566.839	9517.59
567.201	9514.65
567.563	9473.3
567.925	9507.87
568.287	9521.66
568.648	9510.13
569.01	9561.2
569.372	9584.93
569.734	9435.11
570.095	9565.95
570.457	9578.83
570.819	9548.32
571.18	9522.56
571.542	9533.18
571.903	9562.11
572.265	9538.61
572.626	9564.37
572.987	9546.74
573.349	9570.92
573.71	9513.3
574.071	9543.58
574.432	9551.49
574.794	9562.79
575.155	9574.54
575.516	9485.73
575.877	9544.71
576.238	9496.8
576.599	9574.08
576.96	9528.66
577.32	9503.35
577.681	9529.57
578.042	9545.61
578.403	9553.75
578.763	9450.25
579.124	9504.71
579.485	9486.18
579.845	9523.46
580.206	9442.56
580.566	9427.87
580.927	9449.12
581.287	9541.09
581.648	9497.02
582.008	9463.58
582.368	9454.99
582.728	9449.79
583.089	9438.49
583.449	9430.36
583.809	9451.83
584.169	9423.81
584.529	9385.61
584.889	9468.78
585.249	9386.07
585.609	9403.24
585.969	9384.71
586.329	9362.56
586.688	9346.29
587.048	9329.57
587.408	9361.21
587.768	9281.44
588.127	9281.66
588.487	9252.96
588.846	9352.17
589.206	9237.14
589.565	9257.03
589.925	9283.24
590.284	9283.47
590.643	9226.52
591.003	9232.4
591.362	9313.3
591.721	9266.3
592.08	9186.3
592.44	9298.61
592.799	9225.62
593.158	9205.73
593.517	9202.34
593.876	9163.93
594.235	9188.33
594.593	9197.37
594.952	9231.72
595.311	9102.46
595.67	9209.35
596.029	9221.33
596.387	9184.94
596.746	9265.84
597.104	9174.55
597.463	9116.92
597.822	9179.07
598.18	9117.15
598.538	9136.13
598.897	9122.57
599.255	9091.16
599.613	9213.19
599.972	9084.38
600.33	9151.5
600.688	9125.96
601.046	9083.48
601.404	9176.13
601.762	9062.01
602.12	9179.52
602.478	9096.58
602.836	9126.86
603.194	9066.3
603.552	9039.41
603.91	9074.44
604.268	9023.59
604.625	9038.28
604.983	9035.34
605.341	9058.84
605.698	9036.47
606.056	9062.69
606.413	9061.56
606.771	9088.9
607.128	9063.82
607.485	9027.66
607.843	9127.99
608.2	9046.64
608.557	9088.9
608.914	9029.69
609.272	9039.41
609.629	9054.78
609.986	9113.53
610.343	9087.09
610.7	9152.4
611.057	9099.52
611.414	9130.71
611.771	9075.79
612.127	9146.07
612.484	9120.31
612.841	9136.58
613.198	9140.88
613.554	9116.47
613.911	9222
614.267	9134.1
614.624	9137.71
614.98	9180.42
615.337	9199.18
615.693	9189.91
616.05	9220.87
616.406	9250.93
616.762	9190.82
617.118	9240.31
617.475	9257.26
617.831	9198.05
618.187	9222.91
618.543	9174.77
618.899	9213.64
619.255	9259.06
619.611	9278.5
619.967	9241.21
620.323	9167.09
620.678	9241.89
621.034	9199.86
621.39	9142.46
621.746	9203.7
622.101	9277.37
622.457	9173.42
622.812	9247.54
623.168	9342.9
623.523	9235.11
623.879	9271.27
624.234	9228.78
624.589	9316.24
624.945	9222.68
625.3	9299.52
625.655	9240.76
626.01	9265.84
626.365	9308.78
626.72	9220.2
627.075	9206.41
627.43	9206.18
627.785	9210.93
628.14	9140.2
628.495	9201.44
628.85	9239.18
629.205	9194.89
629.559	9202.12
629.914	9167.32
630.269	9152.4
630.623	9073.98
630.978	9139.52
631.332	9180.42
631.687	9173.64
632.041	9129.8
632.396	9179.52
632.75	9128.45
633.104	9120.31
633.459	9077.15
633.813	9040.77
634.167	9076.02
634.521	9060.65
634.875	9071.05
635.229	9063.59
635.583	9057.94
635.937	9025.4
636.291	9003.7
636.645	9044.38
636.999	8972.74
637.352	9016.81
637.706	8906.31
638.06	8966.42
638.413	8946.3
638.767	8939.98
639.121	8968.68
639.474	8879.41
639.828	8869.92
640.181	8871.96
640.534	8940.2
640.888	8827.21
641.241	8833.76
641.594	8902.24
641.947	8875.12
642.301	8850.94
642.654	8801
643.007	8868.57
643.36	8817.72
643.713	8782.01
644.066	8859.53
644.419	8813.2
644.771	8749.25
645.124	8638.29
645.477	8606.43
645.83	8601.23
646.182	8555.58
646.535	8521.91
646.888	8498.63
647.24	8498.63
647.593	8518.07
647.945	8572.75
648.298	8494.79
648.65	8451.4
649.002	8466.32
649.355	8518.07
649.707	8483.27
650.059	8520.78
650.411	8598.52
650.763	8643.94
651.115	8676.48
651.467	8722.36
651.819	8702.02
652.171	8742.69
652.523	8733.43
652.875	8678.29
653.227	8695.01
653.578	8700.89
653.93	8692.07
654.282	8690.72
654.633	8612.08
654.985	8642.81
655.337	8685.97
655.688	8693.88
656.039	8760.55
656.391	8711.28
656.742	8667.44
657.094	8713.09
657.445	8786.31
657.796	8821.56
658.147	8753.99
658.498	8698.63
658.849	8749.25
659.2	8767.55
659.551	8737.5
659.902	8744.28
660.253	8714.45
660.604	8739.3
660.955	8692.3
661.306	8800.09
661.656	8723.03
662.007	8730.72
662.358	8789.47
662.708	8760.77
663.059	8736.14
663.409	8645.97
663.76	8762.81
664.11	8798.29
664.461	8746.99
664.811	8817.72
665.161	8824.95
665.511	8743.15
665.862	8753.77
666.212	8860.2
666.562	8824.05
666.912	8776.59
667.262	8812.75
667.612	8841.67
667.962	8805.29
668.312	8812.75
668.662	8884.61
669.011	8796.7
669.361	8792.41
669.711	8811.39
670.06	8885.29
670.41	8791.73
670.76	8739.98
671.109	8825.18
671.459	8788.12
671.808	8801.22
672.157	8851.84
672.507	8763.26
672.856	8782.92
673.205	8753.77
673.554	8734.78
673.904	8758.06
674.253	8777.04
674.602	8759.64
674.951	8603.49
675.3	8564.17
675.649	8748.34
675.998	8698.85
676.346	8662.7
676.695	8722.36
677.044	8639.65
677.393	8641.91
677.741	8642.36
678.09	8633.54
678.438	8595.35
678.787	8616.6
679.135	8605.75
679.484	8537.73
679.832	8579.08
680.181	8532.98
680.529	8545.41
680.877	8478.29
681.225	8448.01
681.573	8490.95
681.922	8450.5
682.27	8412.76
682.618	8430.84
682.966	8372.53
683.314	8412.76
683.661	8443.49
684.009	8371.18
684.357	8312.2
684.705	8351.29
685.053	8355.36
685.4	8328.69
685.748	8243.95
686.095	8266.32
686.443	8255.48
686.79	8202.82
687.138	8242.14
687.485	8287.56
687.832	8237.85
688.18	8202.14
688.527	8166.44
688.874	8156.49
689.221	8130.96
689.568	8050.06
689.915	8086.44
690.262	8073.78
690.609	8048.25
690.956	7917.86
691.303	7912.43
691.65	7934.58
691.997	7914.92
692.344	7862.27
692.69	7822.94
693.037	7835.37
693.383	7810.97
693.73	7761.02
694.077	7746.11
694.423	7695.04
694.769	7744.53
695.116	7652.55
695.462	7639.22
695.808	7651.42
696.155	7568.94
696.501	7525.1
696.847	7559.22
697.193	7446.23
697.539	7438.32
697.885	7420.92
698.231	7388.15
698.577	7408.94
698.923	7369.17
699.269	7280.81
699.614	7303.41
699.96	7290.98
700.306	7299.12
700.651	7277.87
700.997	7220.7
701.342	7153.58
701.688	7179.12
702.033	7135.73
702.379	7130.76
702.724	7107.48
703.069	7056.18
703.415	6990.88
703.76	6970.09
704.105	7001.04
704.45	6988.62
704.795	6902.52
705.14	6953.36
705.485	6884.66
705.83	6833.82
706.175	6814.61
706.52	6848.28
706.865	6771.9
707.209	6795.85
707.554	6722.41
707.899	6742.97
708.243	6731.22
708.588	6650.32
708.932	6657.78
709.277	6600.15
709.621	6620.72
709.966	6567.16
710.31	6609.19
710.654	6545.24
710.998	6557.21
711.342	6542.53
711.687	6555.18
712.031	6500.49
712.375	6423.88
712.719	6499.81
713.063	6478.35
713.407	6475.63
713.75	6452.58
714.094	6379.14
714.438	6352.25
714.782	6418.01
715.125	6381.4
715.469	6336.43
715.812	6367.62
716.156	6319.48
716.499	6339.37
716.843	6307.96
717.186	6307.73
717.53	6305.02
717.873	6304.34
718.216	6302.53
718.559	6266.83
718.902	6247.17
719.246	6274.51
719.589	6243.1
719.932	6182.99
720.275	6181.18
720.617	6240.16
720.96	6205.13
721.303	6227.73
721.646	6243.55
721.989	6176.43
722.331	6196.09
722.674	6214.85
723.016	6221.63
723.359	6147.28
723.701	6152.93
724.044	6153.61
724.386	6102.31
724.729	6170.11
725.071	6159.71
725.413	6090.11
725.755	6171.24
726.097	6105.25
726.439	6033.84
726.782	6086.49
727.124	6099.83
727.465	6092.37
727.807	6059.15
728.149	6136.89
728.491	6076.55
728.833	6130.33
729.175	6109.32
729.516	6113.84
729.858	6116.32
730.199	6102.99
730.541	6048.53
730.882	6081.07
731.224	6148.86
731.565	6103.89
731.906	6100.28
732.248	6056.66
732.589	6055.98
732.93	6040.84
733.271	6092.59
733.612	6087.62
733.953	6110.67
734.294	6096.21
734.635	6087.4
734.976	6186.15
735.317	6112.93
735.658	6127.17
735.999	6129.43
736.339	6107.06
736.68	6143.89
737.021	6130.56
737.361	6148.86
737.702	6171.46
738.042	6121.97
738.383	6127.17
738.723	6191.12
739.063	6133.72
739.404	6213.27
739.744	6170.11
740.084	6184.12
740.424	6176.21
740.764	6250.33
741.104	6276.77
741.444	6263.89
741.784	6198.13
742.124	6243.55
742.464	6302.08
742.804	6274.96
743.143	6307.05
743.483	6326.71
743.823	6316.09
744.162	6359.03
744.502	6435.64
744.841	6455.52
745.181	6490.1
745.52	6475.63
745.86	6542.53
746.199	6542.75
746.538	6617.55
746.877	6650.77
747.216	6678.79
747.556	6690.54
747.895	6798.34
748.234	6760.6
748.573	6823.65
748.911	6871.1
749.25	6949.97
749.589	7035.85
749.928	7081.04
750.267	7165.33
750.605	7264.54
750.944	7242.85
751.283	7361.94
751.621	7484.42
751.96	7481.71
752.298	7649.62
752.636	7747.01
752.975	7763.96
753.313	7842.15
753.651	7998.98
753.989	8032.66
754.327	8188.36
754.666	8309.71
755.004	8388.58
755.342	8506.54
755.679	8662.7
756.017	8768.68
756.355	8914.44
756.693	9029.69
757.031	9165.51
757.368	9289.35
757.706	9398.27
758.044	9579.73
758.381	9727.53
758.719	9900.63
759.056	10065.82
759.394	10200.51
759.731	10334.74
760.068	10531.12
760.405	10599.14
760.743	10772.92
761.08	10997.32
761.417	11099.47
761.754	11233.02
762.091	11448.39
762.428	11585.33
762.765	11773.12
763.102	11969.73
763.438	12064.64
763.775	12280
764.112	12382.82
764.449	12635.47
764.785	12736.49
765.122	12787.11
765.458	12994.11
765.795	13180.32
766.131	13361.1
766.467	13478.61
766.804	13554.09
767.14	13687.42
767.476	13934.65
767.812	14023.91
768.148	14336.9
768.485	14272.27
768.821	14465.03
769.157	14650.34
769.492	14718.13
769.828	14861.4
770.164	14864.11
770.5	14879.71
770.836	15215.97
771.171	15280.6
771.507	15366.25
771.842	15392.01
772.178	15586.36
772.513	15608.73
772.849	15696.41
773.184	15802.85
773.519	15878.33
773.855	15902.28
774.19	16036.51
774.525	16140.01
774.86	16250.29
775.195	16314.25
775.53	16340.69
775.865	16382.27
776.2	16393.11
776.535	16408.71
776.87	16458.88
777.205	16534.13
777.539	16581.13
777.874	16667.68
778.209	16641.02
778.543	16627.91
778.878	16648.25
779.212	16795.14
779.547	16735.03
779.881	16913.55
780.215	16857.51
780.55	16902.93
780.884	16840.79
781.218	16923.5
781.552	17026.32
781.886	16919.65
782.22	16892.54
782.554	16946.09
782.888	16879.88
783.222	16852.31
783.556	16813.22
783.889	16915.36
784.223	16930.28
784.557	16851.86
784.89	16909.03
785.224	16836.04
785.557	16702.94
785.891	16870.62
786.224	16797.17
786.558	16798.53
786.891	16755.59
787.224	16751.97
787.557	16742.94
787.891	16755.36
788.224	16737.51
788.557	16759.66
788.89	16681.02
789.223	16785.19
789.556	16680.79
789.888	16699.77
790.221	16681.02
790.554	16503.39
790.887	16624.97
791.219	16496.39
791.552	16469.27
791.884	16486.9
792.217	16450.51
792.549	16449.38
792.882	16457.52
793.214	16361.02
793.546	16375.49
793.879	16297.07
794.211	16241.03
794.543	16275.6
794.875	16277.86
795.207	16287.58
795.539	16332.55
795.871	16214.14
796.203	16109.51
796.535	16115.83
796.867	16028.15
797.198	16007.81
797.53	16048.94
797.862	15887.59
798.193	16026.34
798.525	15897.53
798.856	15926.01
799.188	15785.45
799.519	15639.01
799.85	15564.66
800.182	15705.22
800.513	15743.19
800.844	15564.89
801.175	15747.71
801.506	15654.83
801.837	15539.35
802.168	15535.06
802.499	15386.13
802.83	15437.21
803.161	15384.33
803.491	15434.5
803.822	15454.16
804.153	15375.06
804.483	15267.27
804.814	15115.86
805.145	15138.46
805.475	15210.77
805.805	15067.95
806.136	15095.97
806.466	15083.77
806.796	15098.68
807.126	14938.92
807.457	14961.51
807.787	14927.62
808.117	14892.36
808.447	14883.55
808.777	14946.15
809.107	14879.26
809.436	14814.62
809.766	14797
810.096	14709.54
810.426	14698.47
810.755	14698.24
811.085	14664.57
811.414	14649.21
811.744	14514.29
812.073	14524.01
812.403	14481.07
812.732	14591.13
813.061	14485.82
813.39	14341.64
813.719	14367.4
814.049	14475.88
814.378	14424.58
814.707	14344.58
815.036	14312.49
815.365	14217.35
815.693	14166.05
816.022	14199.73
816.351	14187.97
816.68	14087.41
817.008	14126.06
817.337	14027.3
817.665	14053.74
817.994	14010.13
818.322	14053.06
818.651	13952.95
818.979	13834.09
819.307	14022.56
819.636	13864.37
819.964	13937.13
820.292	14021.43
820.62	13943.69
820.948	13867.08
821.276	13951.6
821.604	13870.02
821.932	13894.42
822.259	13855.1
822.587	13851.94
822.915	13855.33
823.243	13923.8
823.57	13830.02
823.898	13853.52
824.225	13782.56
824.553	13831.15
824.88	13936.91
825.207	13849.23
825.535	13835.44
825.862	13891.49
826.189	13837.02
826.516	13904.82
826.843	13915.44
827.17	13891.94
827.497	13962.22
827.824	13825.72
828.151	13881.99
828.478	13832.5
828.805	13959.28
829.131	13891.71
829.458	13868.21
829.785	13728.78
830.111	13807.19
830.438	13944.82
830.764	13896.23
831.09	13924.48
831.417	13832.05
831.743	13898.04
832.069	13793.18
832.395	13791.37
832.722	13835.22
833.048	13786.4
833.374	13863.46
833.7	13781.88
834.026	13751.83
834.351	13929.22
834.677	13695.33
835.003	13731.72
835.329	13757.7
835.654	13699.85
835.98	13648.1
836.306	13731.26
836.631	13769.91
836.956	13697.59
837.282	13742.79
837.607	13566.3
837.932	13596.13
838.258	13592.51
838.583	13551.83
838.908	13483.36
839.233	13504.83
839.558	13496.92
839.883	13386.19
840.208	13394.32
840.533	13401.33
840.858	13378.96
841.182	13393.19
841.507	13363.82
841.832	13266.64
842.156	13288.79
842.481	13270.26
842.805	13240.2
843.13	13336.02
843.454	13218.28
843.778	13196.36
844.103	13218.28
844.427	13091.73
844.751	13108.91
845.075	13108
845.399	13023.03
845.723	12898.97
846.047	12993.66
846.371	12856.03
846.695	12888.35
847.019	12795.02
847.343	12774.45
847.666	12649.71
847.99	12557.28
848.313	12590.95
848.637	12563.61
848.96	12524.06
849.284	12405.42
849.607	12285.65
849.931	12357.74
850.254	12264.18
850.577	12254.01
850.9	12140.12
851.223	12167.46
851.546	12010.4
851.869	12037.3
852.192	12075.04
852.515	11896.06
852.838	11886.34
853.161	11803.4
853.483	11821.71
853.806	11776.96
854.129	11800.01
854.451	11701.94
854.774	11604.99
855.096	11518.21
855.419	11623.97
855.741	11622.39
856.063	11505.79
856.385	11476.41
856.708	11391.66
857.03	11350.99
857.352	11378.33
857.674	11309.41
857.996	11372
858.318	11296.3
858.64	11305.34
858.961	11221.95
859.283	11198.9
859.605	11118.22
859.926	11132.24
860.248	11069.41
860.57	11010.43
860.891	11062.18
861.212	10973.37
861.534	10965.46
861.855	10890.66
862.176	10968.85
862.498	10976.08
862.819	10951.22
863.14	10882.98
863.461	10909.64
863.782	10869.87
864.103	10849.08
864.424	10814.96
864.745	10824.45
865.065	10686.37
865.386	10689.54
865.707	10669.42
866.027	10694.28
866.348	10722.08
866.668	10719.59
866.989	10699.93
867.309	10591.91
867.63	10648.86
867.95	10626.03
868.27	10558.01
868.59	10564.79
868.91	10485.25
869.23	10499.48
869.55	10453.16
869.87	10516.66
870.19	10475.53
870.51	10497.68
870.83	10469.65
871.15	10377.91
871.469	10392.59
871.789	10478.47
872.109	10372.93
872.428	10342.88
872.748	10405.93
873.067	10293.16
873.386	10328.64
873.706	10301.97
874.025	10247.06
874.344	10199.83
874.663	10285.03
874.982	10239.38
875.301	10239.15
875.62	10215.65
875.939	10191.02
876.258	10101.08
876.577	10147.4
876.896	10128.19
877.214	10071.92
877.533	10125.48
877.852	10079.61
878.17	10078.25
878.489	10033.28
878.807	10070.34
879.125	9963
879.444	9985.6
879.762	9901.31
880.08	10002.1
880.398	9912.61
880.716	9958.48
881.034	9930.46
881.352	9912.83
881.67	9889.56
881.988	9883
882.306	9788.99
882.624	9760.75
882.941	9728.88
883.259	9742.67
883.577	9702.67
883.894	9775.89
884.212	9669
884.529	9712.84
884.846	9680.75
885.164	9673.74
885.481	9611.82
885.798	9546.06
886.115	9573.86
886.432	9524.37
886.75	9472.17
887.067	9508.55
887.383	9491.83
887.7	9507.65
888.017	9391.94
888.334	9437.59
888.651	9417.25
888.967	9356.91
889.284	9324.37
889.6	9316.69
889.917	9309.91
890.233	9311.94
890.55	9244.6
890.866	9221.78
891.182	9157.6
891.498	9113.98
891.815	9085.51
892.131	9069.69
892.447	9044.83
892.763	9072.63
893.079	8967.77
893.395	8949.47
893.71	8985.17
894.026	8934.1
894.342	8881.45
894.657	8844.16
894.973	8817.27
895.289	8804.61
895.604	8827.21
895.92	8715.8
896.235	8657.95
896.55	8679.64
896.865	8589.48
897.181	8675.13
897.496	8640.78
897.811	8570.95
898.126	8521.91
898.441	8559.2
898.756	8420.22
899.071	8441.01
899.386	8410.5
899.7	8349.26
900.015	8364.17
900.33	8248.7
900.644	8293.67
900.959	8246.21
901.273	8207.34
901.588	8204.4
901.902	8203.27
902.216	8131.64
902.531	8113.33
902.845	8087.12
903.159	8028.81
903.473	8010.74
903.787	8015.71
904.101	7972.54
904.415	7859.1
904.729	7879.89
905.042	7868.59
905.356	7830.85
905.67	7814.58
905.984	7817.07
906.297	7781.82
906.611	7671.54
906.924	7626.79
907.237	7699.11
907.551	7649.39
907.864	7663.4
908.177	7566
908.491	7573.69
908.804	7564.42
909.117	7495.95
909.43	7361.26
909.743	7368.72
910.056	7356.29
910.368	7353.8
910.681	7322.17
910.994	7290.3
911.307	7244.2
911.619	7182.28
911.932	7169.85
912.244	7132.11
912.557	7123.98
912.869	7076.3
913.181	7076.07
913.494	7027.71
913.806	6997.65
914.118	6956.07
914.43	6972.34
914.742	6996.75
915.054	6846.92
915.366	6880.37
915.678	6856.64
915.99	6857.55
916.302	6748.17
916.613	6751.33
916.925	6746.36
917.236	6725.35
917.548	6648.74
917.859	6703.88
918.171	6618.68
918.482	6633.14
918.794	6560.38
919.105	6551.11
919.416	6479.7
919.727	6449.42
920.038	6536.65
920.349	6470.66
920.66	6419.14
920.971	6425.69
921.282	6380.04
921.593	6347.28
921.903	6292.81
922.214	6295.07
922.525	6292.14
922.835	6223.21
923.146	6214.17
923.456	6160.61
923.767	6149.77
924.077	6106.6
924.387	6139.82
924.697	6095.08
925.008	6071.13
925.318	5997.68
925.628	6055.53
925.938	6009.88
926.248	5947.51
926.558	5947.51
926.867	5925.59
927.177	5878.59
927.487	5886.72
927.796	5840.85
928.106	5847.63
928.416	5833.39
928.725	5769.66
929.034	5768.31
929.344	5701.42
929.653	5707.29
929.962	5663.45
930.271	5625.94
930.581	5666.39
930.89	5591.14
931.199	5548.65
931.508	5561.31
931.817	5550.69
932.125	5543.46
932.434	5520.86
932.743	5516.34
933.051	5447.87
933.36	5462.78
933.669	5411.48
933.977	5389.34
934.286	5361.77
934.594	5331.03
934.902	5298.49
935.21	5331.26
935.519	5284.93
935.827	5260.07
936.135	5202.9
936.443	5162.67
936.751	5182.11
937.059	5166.74
937.367	5162
937.674	5110.25
937.982	5124.71
938.29	5122.68
938.597	5043.58
938.905	4997.03
939.213	5036.35
939.52	4986.41
939.827	5002
940.135	4956.8
940.442	4962.45
940.749	4918.39
941.056	4930.14
941.363	4863.47
941.67	4815.57
941.977	4830.25
942.284	4814.66
942.591	4800.65
942.898	4788
943.205	4780.99
943.511	4748
943.818	4734.21
944.125	4715.46
944.431	4668.68
944.738	4667.77
945.044	4639.3
945.35	4597.94
945.657	4594.33
945.963	4558.4
946.269	4549.13
946.575	4554.33
946.881	4497.38
947.187	4513.65
947.493	4421.45
947.799	4464.84
948.105	4403.37
948.41	4404.5
948.716	4390.72
949.022	4392.07
949.327	4326.09
949.633	4290.16
949.938	4320.44
950.244	4276.6
950.549	4259.65
950.854	4302.58
951.16	4243.15
951.465	4225.3
951.77	4209.25
952.075	4214.68
952.38	4188.92
952.685	4162.93
952.99	4094.68
953.294	4142.81
953.599	4115.47
953.904	4059.65
954.209	4060.78
954.513	4039.54
954.818	4076.15
955.122	4004.06
955.426	4005.64
955.731	3997.51
956.035	3952.99
956.339	3971.97
956.643	3981.01
956.948	3933.55
957.252	3891.97
957.556	3893.78
957.86	3863.73
958.163	3880.45
958.467	3807
958.771	3828.02
959.075	3852.2
959.378	3777.17
959.682	3743.73
959.985	3777.4
960.289	3750.73
960.592	3753.22
960.896	3699.44
961.199	3694.24
961.502	3731.53
961.805	3678.19
962.108	3611.98
962.411	3616.95
962.714	3654.47
963.017	3585.99
963.32	3609.04
963.623	3562.72
963.926	3543.28
964.228	3533.79
964.531	3510.52
964.833	3525.88
965.136	3480.91
965.438	3521.14
965.741	3430.52
966.043	3504.87
966.345	3421.93
966.648	3426.45
966.95	3395.26
967.252	3392.33
967.554	3361.37
967.856	3381.48
968.158	3305.55
968.46	3342.61
968.761	3305.1
969.063	3325.21
969.365	3311.2
969.666	3285.44
969.968	3266.91
970.269	3273.46
970.571	3250.18
970.872	3194.59
971.174	3228.49
971.475	3198.21
971.776	3199.79
972.077	3149.85
972.378	3117.53
972.679	3117.53
972.98	3112.33
973.281	3160.02
973.582	3081.15
973.883	3095.61
974.183	3085.89
974.484	3046.8
974.785	3047.93
975.085	3023.75
975.386	3007.7
975.686	2995.73
975.986	3012
976.287	2960.02
976.587	2982.39
976.887	2946.46
977.187	2944.88
977.487	2960.25
977.787	2895.84
978.087	2907.37
978.387	2868.27
978.687	2872.11
978.987	2864.66
979.286	2845.9
979.586	2861.72
979.885	2818.33
980.185	2818.56
980.484	2798.44
980.784	2808.39
981.083	2760.03
981.382	2776.07
981.682	2772
981.981	2727.26
982.28	2749.41
982.579	2737.43
982.878	2703.3
983.177	2696.07
983.475	2661.5
983.774	2663.53
984.073	2622.63
984.372	2633.93
984.67	2623.53
984.969	2642.29
985.267	2617.43
985.566	2599.35
985.864	2556.42
986.162	2562.07
986.461	2578.11
986.759	2501.28
987.057	2530.43
987.355	2472.58
987.653	2530.65
987.951	2492.24
988.249	2499.92
988.547	2484.1
988.844	2466.7
989.142	2423.09
989.44	2452.24
989.737	2399.36
990.035	2446.81
990.332	2413.37
990.63	2385.12
990.927	2379.47
991.224	2390.09
991.521	2388.74
991.819	2369.3
992.116	2359.81
992.413	2337.89
992.71	2307.38
993.006	2297.21
993.303	2278.68
993.6	2309.42
993.897	2291.11
994.193	2266.93
994.49	2263.99
994.787	2227.38
995.083	2220.83
995.379	2226.48
995.676	2209.08
995.972	2230.55
996.268	2195.97
996.565	2187.16
996.861	2200.94
997.157	2155.52
997.453	2149.87
997.749	2149.65
998.044	2127.73
998.34	2143.77
998.636	2104.68
998.932	2138.35
999.227	2077.56
999.523	2069.65
999.818	2081.17
1000.114	2099.93
1000.409	2031.68
1000.704	2042.31
1001	2009.99
1001.295	2009.76
1001.59	2021.97
1001.885	2008.41
1002.18	1974.28
1002.475	2003.66
1002.77	1985.58
1003.065	1949.88
1003.359	1944.45
1003.654	1946.71
1003.949	1926.83
1004.243	1907.85
1004.538	1867.17
1004.832	1895.19
1005.127	1891.12
1005.421	1841.86
1005.715	1853.61
1006.009	1832.82
1006.304	1853.16
1006.598	1828.75
1006.892	1815.42
1007.186	1783.78
1007.48	1813.61
1007.773	1769.54
1008.067	1759.83
1008.361	1778.13
1008.655	1777.23
1008.948	1733.39
1009.242	1748.75
1009.535	1733.61
1009.829	1692.94
1010.122	1733.16
1010.415	1685.25
1010.708	1672.6
1011.001	1665.37
1011.295	1656.78
1011.588	1650.9
1011.881	1647.74
1012.173	1626.04
1012.466	1659.49
1012.759	1625.59
1013.052	1634.18
1013.344	1586.95
1013.637	1616.33
1013.93	1598.25
1014.222	1591.47
1014.514	1586.72
1014.807	1560.28
1015.099	1559.61
1015.391	1533.62
1015.683	1548.76
1015.976	1516.44
1016.268	1524.13
1016.56	1499.27
1016.851	1490
1017.143	1469.21
1017.435	1479.61
1017.727	1468.31
1018.018	1472.83
1018.31	1467.86
1018.602	1428.99
1018.893	1405.03
1019.185	1413.62
1019.476	1417.69
1019.767	1409.33
1020.058	1378.59
1020.35	1396.67
1020.641	1373.85
1020.932	1342.89
1021.223	1368.88
1021.514	1341.08
1021.804	1357.8
1022.095	1337.92
1022.386	1331.14
1022.677	1316.9
1022.967	1298.14
1023.258	1289.56
1023.548	1294.08
1023.839	1278.26
1024.129	1267.18
1024.419	1267.64
1024.709	1265.38
1025	1277.13
1025.29	1232.38
1025.58	1229.67
1025.87	1201.65
1026.16	1210.01
1026.449	1227.19
1026.739	1186.06
1027.029	1197.36
1027.319	1172.27
1027.608	1168.43
1027.898	1156.23
1028.187	1184.47
1028.477	1183.8
1028.766	1173.63
1029.055	1153.06
1029.344	1146.96
1029.634	1146.06
1029.923	1139.96
1030.212	1127.07
1030.501	1092.95
1030.79	1129.11
1031.078	1098.83
1031.367	1086.4
1031.656	1063.35
1031.945	1071.03
1032.233	1086.4
1032.522	1070.81
1032.81	1068.09
1033.099	1063.12
1033.387	1041.2
1033.675	1027.87
1033.963	1016.8
1034.251	1031.26
1034.54	1015.44
1034.828	1009.56
1035.116	1011.6
1035.403	999.85
1035.691	989.9
1035.979	997.81
1036.267	965.27
1036.554	964.82
1036.842	952.84
1037.129	944.48
1037.417	919.4
1037.704	951.94
1037.992	947.42
1038.279	912.17
1038.566	925.95
1038.853	925.95
1039.14	925.95
