Data from hue_250_FLMS001491_00051.txt Node
Date: Tue Feb 07 16:01:09 GMT 2017
User: dcchb
Spectrometer: FLMS00149
Trigger mode: 0
Integration Time (sec): 2.000000E-2
Scans to average: 10
Electric dark correction enabled: true
Nonlinearity correction enabled: false
Boxcar width: 0
XAxis mode: Wavelengths
Number of Pixels in Spectrum: 2048
>>>>>Begin Spectral Data<<<<<
341.393	-1.58
341.776	-1.58
342.16	-1.58
342.543	-67.34
342.927	-70.28
343.31	-67.57
343.693	-59.21
344.077	-68.47
344.46	-64.18
344.843	-60.79
345.226	-51.3
345.61	-35.25
345.993	-23.5
346.376	-15.37
346.759	28.02
347.142	11.3
347.525	32.54
347.908	68.47
348.291	76.61
348.674	104.63
349.057	124.06
349.44	113.9
349.823	123.16
350.206	135.36
350.588	172.2
350.971	199.32
351.354	202.03
351.737	229.82
352.119	269.15
352.502	233.44
352.884	268.02
353.267	271.63
353.65	284.51
354.032	279.09
354.414	301.46
354.797	282.03
355.179	315.25
355.562	303.04
355.944	315.25
356.326	333.55
356.709	321.8
357.091	322.25
357.473	336.04
357.855	329.03
358.238	317.05
358.62	338.75
359.002	335.58
359.384	345.75
359.766	347.56
360.148	329.48
360.53	322.25
360.912	313.21
361.294	339.43
361.676	347.11
362.057	332.42
362.439	322.7
362.821	328.35
363.203	322.25
363.584	343.72
363.966	321.35
364.348	310.5
364.729	324.96
365.111	313.66
365.493	319.99
365.874	305.53
366.256	302.59
366.637	284.29
367.019	295.36
367.4	304.62
367.781	300.11
368.163	319.09
368.544	313.21
368.925	302.14
369.306	309.82
369.688	298.52
370.069	306.21
370.45	277.51
370.831	303.95
371.212	297.39
371.593	295.13
371.974	301.46
372.355	305.53
372.736	304.4
373.117	298.3
373.498	305.3
373.879	301.69
374.26	303.04
374.641	315.02
375.021	327
375.402	300.11
375.783	309.14
376.163	326.09
376.544	291.52
376.925	334.68
377.305	319.54
377.686	317.28
378.066	324.96
378.447	300.78
378.827	337.17
379.208	335.13
379.588	328.58
379.968	328.35
380.349	329.48
380.729	316.15
381.109	338.52
381.489	341.91
381.87	325.42
382.25	306.66
382.63	324.51
383.01	324.06
383.39	349.14
383.77	337.62
384.15	335.58
384.53	336.04
384.91	352.31
385.29	336.26
385.67	331.29
386.049	341.91
386.429	333.1
386.809	311.4
387.189	340.56
387.568	356.15
387.948	361.12
388.328	342.14
388.707	343.49
389.087	361.12
389.466	365.64
389.846	346.66
390.225	359.31
390.605	377.39
390.984	342.14
391.363	365.41
391.743	329.26
392.122	352.31
392.501	368.35
392.881	374
393.26	389.14
393.639	384.17
394.018	369.71
394.397	365.87
394.776	357.73
395.155	357.73
395.534	390.72
395.913	381.23
396.292	398.86
396.671	370.61
397.05	398.86
397.429	393.89
397.808	383.04
398.186	406.09
398.565	391.63
398.944	408.35
399.323	397.05
399.701	423.49
400.08	417.16
400.458	421.23
400.837	416.26
401.215	432.31
401.594	409.03
401.972	413.32
402.351	427.11
402.729	425.3
403.107	423.49
403.486	421.23
403.864	431.85
404.242	469.82
404.62	436.37
404.999	438.86
405.377	454.9
405.755	474.34
406.133	452.87
406.511	463.04
406.889	472.53
407.267	473.89
407.645	476.6
408.023	477.73
408.401	480.44
408.779	489.03
409.156	497.84
409.534	499.87
409.912	508.69
410.29	512.08
410.667	512.98
411.045	524.51
411.422	510.27
411.8	524.51
412.178	550.95
412.555	551.4
412.933	573.09
413.31	564.5
413.687	562.02
414.065	590.49
414.442	582.36
414.819	594.56
415.197	595.01
415.574	583.04
415.951	586.43
416.328	601.11
416.705	637.72
417.082	621.9
417.46	618.74
417.837	610.38
418.214	631.85
418.591	661.23
418.967	662.36
419.344	656.48
419.721	675.46
420.098	684.28
420.475	664.39
420.852	663.26
421.228	701.45
421.605	717.5
421.982	710.94
422.358	722.24
422.735	739.42
423.111	745.52
423.488	761.79
423.864	761.56
424.241	786.19
424.617	762.47
424.994	793.43
425.37	791.39
425.746	814.22
426.123	803.59
426.499	822.8
426.875	860.32
427.251	827.32
427.627	877.72
428.003	881.33
428.379	893.54
428.756	883.59
429.132	906.87
429.507	899.19
429.883	928.34
430.259	926.98
430.635	920.43
431.011	951.39
431.387	952.29
431.763	994.78
432.138	988.22
432.514	1007.21
432.89	1016.02
433.265	1028.22
433.641	1044.94
434.016	1070.25
434.392	1080.65
434.767	1092.4
435.143	1080.88
435.518	1115.9
435.894	1144.83
436.269	1153.42
436.644	1161.55
437.02	1211.95
437.395	1199.52
437.77	1180.08
438.145	1246.29
438.52	1252.85
438.895	1261.21
439.271	1254.43
439.646	1317.71
440.021	1318.38
440.395	1298.5
440.77	1340.08
441.145	1338.04
441.52	1391.15
441.895	1383.92
442.27	1400.87
442.645	1358.38
443.019	1410.36
443.394	1416.46
443.769	1423.47
444.143	1428.89
444.518	1471.15
444.892	1479.06
445.267	1473.41
445.641	1470.02
446.016	1496.68
446.39	1499.4
446.764	1507.08
447.139	1517.7
447.513	1524.25
447.887	1539.85
448.262	1561.99
448.636	1576.46
449.01	1571.48
449.384	1558.83
449.758	1595.66
450.132	1592.95
450.506	1607.42
450.88	1625.27
451.254	1639.73
451.628	1679.05
452.002	1683.8
452.376	1704.59
452.75	1718.15
453.123	1729.9
453.497	1734.64
453.871	1754.08
454.244	1771.93
454.618	1778.94
454.992	1819.39
455.365	1811.03
455.739	1878.59
456.112	1865.26
456.486	1871.82
456.859	1881.08
457.232	1953.62
457.606	1940.97
457.979	1958.82
458.352	1976.45
458.725	2001.76
459.099	2026.16
459.472	2018.93
459.845	2055.99
460.218	2071.81
460.591	2101.19
460.964	2143.22
461.337	2150.23
461.71	2190.22
462.083	2185.25
462.456	2200.85
462.829	2215.76
463.201	2235.87
463.574	2258.02
463.947	2300.96
464.32	2342.09
464.692	2330.33
465.065	2389.09
465.438	2430.22
465.81	2422.31
466.183	2441.29
466.555	2503.89
466.928	2533.72
467.3	2513.61
467.672	2566.49
468.045	2589.08
468.417	2620.27
468.789	2611.68
469.161	2651.91
469.534	2712.7
469.906	2772.58
470.278	2769.42
470.65	2815.97
471.022	2857.78
471.394	2884.22
471.766	2883.54
472.138	2966.25
472.51	2992.69
472.882	3025.68
473.253	3047.83
473.625	3074.5
473.997	3169.63
474.369	3158.34
474.74	3214.15
475.112	3259.12
475.484	3317.65
475.855	3372.11
476.227	3376.63
476.598	3455.5
476.97	3499.34
477.341	3569.4
477.713	3596.29
478.084	3625.89
478.455	3714.03
478.827	3730.07
479.198	3867.92
479.569	3845.55
479.94	3918.09
480.311	3941.82
480.682	4052.1
481.053	4103.39
481.424	4180.68
481.795	4224.3
482.166	4218.19
482.537	4319.43
482.908	4352.65
483.279	4400.56
483.65	4487.11
484.021	4557.62
484.391	4612.08
484.762	4652.76
485.133	4671.06
485.503	4730.72
485.874	4801.23
486.244	4828.12
486.615	4957.84
486.985	4984.05
487.356	5079.19
487.726	5091.17
488.097	5170.26
488.467	5167.77
488.837	5286.41
489.207	5354.21
489.578	5375.68
489.948	5443.25
490.318	5518.27
490.688	5500.65
491.058	5599.63
491.428	5673.52
491.798	5731.6
492.168	5812.28
492.538	5845.95
492.908	5875.55
493.278	5966.62
493.648	5989.9
494.017	5983.57
494.387	6042.33
494.757	6073.96
495.126	6186.96
495.496	6205.03
495.866	6166.39
496.235	6278.93
496.605	6258.59
496.974	6352.15
497.344	6380.17
497.713	6467.85
498.082	6428.53
498.452	6441.64
498.821	6510.56
499.19	6540.17
499.559	6622.65
499.928	6617.91
500.298	6626.27
500.667	6681.41
501.036	6659.26
501.405	6730.22
501.774	6740.16
502.143	6755.3
502.512	6779.93
502.88	6828.97
503.249	6835.75
503.618	6899.03
503.987	6972.92
504.356	6944
504.724	6962.08
505.093	6976.31
505.462	7051.79
505.83	7068.06
506.199	7116.88
506.567	7083.43
506.936	7155.07
507.304	7238
507.672	7266.25
508.041	7209.3
508.409	7244.56
508.777	7287.27
509.145	7397.32
509.514	7349.19
509.882	7370.43
510.25	7376.98
510.618	7363.2
510.986	7441.61
511.354	7493.81
511.722	7520.71
512.09	7619.69
512.458	7522.51
512.826	7590.31
513.193	7615.17
513.561	7555.51
513.929	7679.35
514.297	7685
514.664	7740.14
515.032	7764.77
515.4	7763.64
515.767	7798.21
516.135	7820.13
516.502	7704.66
516.869	7847.93
517.237	7821.49
517.604	7820.81
517.972	7887.93
518.339	7876.18
518.706	7890.64
519.073	7914.37
519.44	7916.63
519.808	7957.3
520.175	7993.24
520.542	8068.04
520.909	8078.21
521.276	8042.05
521.643	8049.28
522.009	8116.17
522.376	8128.6
522.743	8156.62
523.11	8220.57
523.477	8199.78
523.843	8260.57
524.21	8321.14
524.577	8325.2
524.943	8339.44
525.31	8320.46
525.676	8463.28
526.043	8383.96
526.409	8379.21
526.776	8502.38
527.142	8488.36
527.508	8517.74
527.874	8584.18
528.241	8533.11
528.607	8485.43
528.973	8576.5
529.339	8541.92
529.705	8614.91
530.071	8630.96
530.437	8610.4
530.803	8693.56
531.169	8670.73
531.535	8647.46
531.901	8672.99
532.267	8715.25
532.632	8731.52
532.998	8627.57
533.364	8743.72
533.73	8719.77
534.095	8856.72
534.461	8813.55
534.826	8783.95
535.192	8829.37
535.557	8822.82
535.923	8799.54
536.288	8853.33
536.653	8758.19
537.019	8750.73
537.384	8737.4
537.749	8771.75
538.114	8778.07
538.479	8725.19
538.845	8785.53
539.21	8721.35
539.575	8780.56
539.94	8674.57
540.305	8760.45
540.67	8734.46
541.034	8793.89
541.399	8738.08
541.764	8792.76
542.129	8785.98
542.494	8795.7
542.858	8743.5
543.223	8729.26
543.587	8854.46
543.952	8805.19
544.316	8710.96
544.681	8713.22
545.045	8790.5
545.41	8754.57
545.774	8687.46
546.138	8728.36
546.503	8768.81
546.867	8693.1
547.231	8750.5
547.595	8748.24
547.959	8762.26
548.324	8723.39
548.688	8729.04
549.052	8788.7
549.416	8728.36
549.779	8763.39
550.143	8688.13
550.507	8738.75
550.871	8697.85
551.235	8642.48
551.599	8764.29
551.962	8736.49
552.326	8821.01
552.689	8681.35
553.053	8635.25
553.417	8692.2
553.78	8850.16
554.143	8756.38
554.507	8750.5
554.87	8741.92
555.234	8829.82
555.597	8740.11
555.96	8688.81
556.323	8826.21
556.686	8803.38
557.05	8844.97
557.413	8757.96
557.776	8752.54
558.139	8810.62
558.502	8865.53
558.865	8822.14
559.228	8892.65
559.59	8919.54
559.953	8891.97
560.316	8988.92
560.679	8871.18
561.041	8958.18
561.404	8991.18
561.767	9029.82
562.129	8936.94
562.492	9086.54
562.854	8977.84
563.217	8994.57
563.579	9098.29
563.941	9127.9
564.304	9124.96
564.666	9144.39
565.028	9188.46
565.39	9223.49
565.753	9206.99
566.115	9176.48
566.477	9287.67
566.839	9247.89
567.201	9355.23
567.563	9344.39
567.925	9357.04
568.287	9336.48
568.648	9378.96
569.01	9427.1
569.372	9482.91
569.734	9425.97
570.095	9473.88
570.457	9471.62
570.819	9485.17
571.18	9477.72
571.542	9640.65
571.903	9553.42
572.265	9662.57
572.626	9643.81
572.987	9576.47
573.349	9672.74
573.71	9739.4
574.071	9725.39
574.432	9747.77
574.794	9800.42
575.155	9792.74
575.516	9787.77
575.877	9775.11
576.238	9845.62
576.599	9861.89
576.96	9870.25
577.32	9920.87
577.681	9957.03
578.042	9977.14
578.403	9999.96
578.763	9994.09
579.124	10030.92
579.485	10032.05
579.845	10117.02
580.206	9993.18
580.566	10082.22
580.927	10121.99
581.287	10150.69
581.648	10151.6
582.008	10195.89
582.368	10113.86
582.728	10163.12
583.089	10148.66
583.449	10312.5
583.809	10207.42
584.169	10192.05
584.529	10187.53
584.889	10351.37
585.249	10309.79
585.609	10264.14
585.969	10397.92
586.329	10298.71
586.688	10362.89
587.048	10362.44
587.408	10300.97
587.768	10357.47
588.127	10393.85
588.487	10387.75
588.846	10399.05
589.206	10447.63
589.565	10430.91
589.925	10511.81
590.284	10411.03
590.643	10480.18
591.003	10456.67
591.362	10530.8
591.721	10432.95
592.08	10480.85
592.44	10575.99
592.799	10464.36
593.158	10495.54
593.517	10588.2
593.876	10555.88
594.235	10599.5
594.593	10592.26
594.952	10547.52
595.311	10565.37
595.67	10606.05
596.029	10633.84
596.387	10648.99
596.746	10643.56
597.104	10631.81
597.463	10565.15
597.822	10678.14
598.18	10626.39
598.538	10622.32
598.897	10624.13
599.255	10563.56
599.613	10764.91
599.972	10663.22
600.33	10663.45
600.688	10644.24
601.046	10711.13
601.404	10773.73
601.762	10651.47
602.12	10725.37
602.478	10704.58
602.836	10802.43
603.194	10721.53
603.552	10713.39
603.91	10755.65
604.268	10733.96
604.625	10790.9
604.983	10783.45
605.341	10768.53
605.698	10833.16
606.056	10829.77
606.413	10752.26
606.771	10789.77
607.128	10919.71
607.485	10800.62
607.843	10798.81
608.2	10815.31
608.557	10888.08
608.914	10844.23
609.272	10888.98
609.629	10904.8
609.986	10994.06
610.343	10859.15
610.7	10926.49
611.057	10950.67
611.414	10971.46
611.771	10951.12
612.127	10988.19
612.484	10970.11
612.841	11007.62
613.198	11011.24
613.554	10975.98
613.911	10998.13
614.267	11100.5
614.624	10948.64
614.98	11043.1
615.337	11110.44
615.693	11076.09
616.05	10956.77
616.406	11103.44
616.762	11036.09
617.118	11083.78
617.475	11075.64
617.831	11089.43
618.187	11139.37
618.543	11072.93
618.899	11186.37
619.255	11247.61
619.611	11159.48
619.967	11142.98
620.323	11198.58
620.678	11194.06
621.034	11210.78
621.39	11184.56
621.746	11170.55
622.101	11239.03
622.457	11205.13
622.812	11189.76
623.168	11221.63
623.523	11206.71
623.879	11227.95
624.234	11097.56
624.589	11199.71
624.945	11189.54
625.3	11273.38
625.655	11181.4
626.01	11201.29
626.365	11224.79
626.72	11151.8
627.075	11206.49
627.43	11167.16
627.785	11151.12
628.14	11196.09
628.495	11147.28
628.85	11189.99
629.205	11124
629.559	11119.93
629.914	11113.83
630.269	11111.12
630.623	11127.84
630.978	11118.35
631.332	11126.94
631.687	11128.29
632.041	11027.96
632.396	11088.97
632.75	11001.97
633.104	11043.55
633.459	10975.53
633.813	10972.14
634.167	10989.99
634.521	10982.76
634.875	11011.24
635.229	10961.97
635.583	10982.31
635.937	10916.1
636.291	10902.54
636.645	10958.13
636.999	10877
637.352	10904.57
637.706	10830.9
638.06	10853.95
638.413	10916.78
638.767	10835.2
639.121	10857.34
639.474	10766.5
639.828	10775.54
640.181	10766.95
640.534	10733.73
640.888	10704.8
641.241	10636.33
641.594	10738.93
641.947	10703.45
642.301	10726.72
642.654	10698.02
643.007	10706.84
643.36	10717.68
643.713	10629.78
644.066	10675.43
644.419	10595.88
644.771	10590
645.124	10531.7
645.477	10458.93
645.83	10400.86
646.182	10378.71
646.535	10316.56
646.888	10351.37
647.24	10282.67
647.593	10358.37
647.945	10306.85
648.298	10278.15
648.65	10209.9
649.002	10239.5
649.355	10255.1
649.707	10242.67
650.059	10336.68
650.411	10433.62
650.763	10454.87
651.115	10511.14
651.467	10486.73
651.819	10489.22
652.171	10480.18
652.523	10474.07
652.875	10450.57
653.227	10414.87
653.578	10432.72
653.93	10485.15
654.282	10476.33
654.633	10446.28
654.985	10440.86
655.337	10436.34
655.688	10447.63
656.039	10565.37
656.391	10466.17
656.742	10437.01
657.094	10474.98
657.445	10481.08
657.796	10438.37
658.147	10477.69
658.498	10467.97
658.849	10444.25
659.2	10455.32
659.551	10380.97
659.902	10473.4
660.253	10406.73
660.604	10413.29
660.955	10397.92
661.306	10449.89
661.656	10449.44
662.007	10484.47
662.358	10499.84
662.708	10533.28
663.059	10483.34
663.409	10375.55
663.76	10419.61
664.11	10426.17
664.461	10477.92
664.811	10499.38
665.161	10461.87
665.511	10447.86
665.862	10467.75
666.212	10498.93
666.562	10462.32
666.912	10411.48
667.262	10455.32
667.612	10390.24
667.962	10433.17
668.312	10500.06
668.662	10479.95
669.011	10475.66
669.361	10413.96
669.711	10349.56
670.06	10417.81
670.41	10414.19
670.76	10380.29
671.109	10415.32
671.459	10439.5
671.808	10371.7
672.157	10347.3
672.507	10321.54
672.856	10362.89
673.205	10368.54
673.554	10453.28
673.904	10317.24
674.253	10430.23
674.602	10336.9
674.951	10195.44
675.3	10147.53
675.649	10349.33
675.998	10256.68
676.346	10256
676.695	10324.93
677.044	10196.79
677.393	10218.94
677.741	10258.94
678.09	10290.8
678.438	10249
678.787	10227.08
679.135	10234.08
679.484	10135.55
679.832	10185.49
680.181	10127.42
680.529	10162.44
680.877	10074.54
681.225	10152.05
681.573	10171.71
681.922	10072.05
682.27	10011.49
682.618	10014.65
682.966	9975.78
683.314	10041.77
683.661	10039.96
684.009	9912.28
684.357	9931.72
684.705	9911.15
685.053	9940.3
685.4	9905.05
685.748	9845.84
686.095	9835.22
686.443	9773.75
686.79	9817.59
687.138	9787.54
687.485	9786.64
687.832	9784.38
688.18	9704.6
688.527	9655.79
688.874	9643.59
689.221	9658.5
689.568	9643.59
689.915	9641.1
690.262	9555.91
690.609	9609.01
690.956	9500.09
691.303	9489.24
691.65	9388.68
691.997	9467.77
692.344	9385.29
692.69	9305.29
693.037	9359.53
693.383	9335.8
693.73	9294.22
694.077	9191.17
694.423	9220.55
694.769	9226.88
695.116	9188.01
695.462	9181.23
695.808	9114.79
696.155	9148.69
696.501	8995.02
696.847	9066.65
697.193	8988.01
697.539	8982.36
697.885	8980.33
698.231	8943.95
698.577	8913.89
698.923	8874.79
699.269	8794.35
699.614	8797.96
699.96	8772.88
700.306	8733.33
700.651	8698.08
700.997	8652.88
701.342	8662.82
701.688	8684.97
702.033	8621.47
702.379	8584.41
702.724	8553.67
703.069	8588.93
703.415	8499.44
703.76	8459.21
704.105	8443.85
704.45	8422.83
704.795	8402.49
705.14	8378.76
705.485	8369.27
705.83	8268.71
706.175	8324.3
706.52	8372.21
706.865	8228.71
707.209	8254.7
707.554	8196.85
707.899	8193
708.243	8188.03
708.588	8172.89
708.932	8107.13
709.277	8051.54
709.621	8113.68
709.966	8027.36
710.31	8009.28
710.654	7956.63
710.998	7990.07
711.342	8021.71
711.687	7928.15
712.031	7974.48
712.375	7923.41
712.719	7906.46
713.063	7877.31
713.407	7936.29
713.75	7884.09
714.094	7794.6
714.438	7808.61
714.782	7843.64
715.125	7767.25
715.469	7788.95
715.812	7770.64
716.156	7715.73
716.499	7744.2
716.843	7739.23
717.186	7768.61
717.53	7646.8
717.873	7694.71
718.216	7761.6
718.559	7659.01
718.902	7640.48
719.246	7673.24
719.589	7656.75
719.932	7569.97
720.275	7586.02
720.617	7535.85
720.96	7601.16
721.303	7602.96
721.646	7610.87
721.989	7508.96
722.331	7518.9
722.674	7537.43
723.016	7560.03
723.359	7522.97
723.701	7425.57
724.044	7492.01
724.386	7427.6
724.729	7528.16
725.071	7473.7
725.413	7407.71
725.755	7445.68
726.097	7380.37
726.439	7401.16
726.782	7414.04
727.124	7400.71
727.465	7386.25
727.807	7363.65
728.149	7306.02
728.491	7383.99
728.833	7437.09
729.175	7368.17
729.516	7395.29
729.858	7358.22
730.199	7432.57
730.541	7373.14
730.882	7370.43
731.224	7386.47
731.565	7306.02
731.906	7346.02
732.248	7304.89
732.589	7277.1
732.93	7261.05
733.271	7361.16
733.612	7329.52
733.953	7340.82
734.294	7303.08
734.635	7247.49
734.976	7326.14
735.317	7276.64
735.658	7320.49
735.999	7312.58
736.339	7250.43
736.68	7322.75
737.021	7299.47
737.361	7226.93
737.702	7262.63
738.042	7271.9
738.383	7282.29
738.723	7280.94
739.063	7319.58
739.404	7300.82
739.744	7272.58
740.084	7304.89
740.424	7335.63
740.764	7251.79
741.104	7314.38
741.444	7303.31
741.784	7244.1
742.124	7296.53
742.464	7367.49
742.804	7307.38
743.143	7326.81
743.483	7295.4
743.823	7310.77
744.162	7355.96
744.502	7344.21
744.841	7383.53
745.181	7386.25
745.52	7449.52
745.86	7458.33
746.199	7537.88
746.538	7484.1
746.877	7620.82
747.216	7530.65
747.556	7575.39
747.895	7603.19
748.234	7658.33
748.573	7666.47
748.911	7682.06
749.25	7698.55
749.589	7795.5
749.928	7862.17
750.267	7869.4
750.605	7926.35
750.944	7964.08
751.283	8023.74
751.621	8095.15
751.96	8094.02
752.298	8173.57
752.636	8156.85
752.975	8237.75
753.313	8275.49
753.651	8432.77
753.989	8437.29
754.327	8452.66
754.666	8556.39
755.004	8700.56
755.342	8771.52
755.679	8835.47
756.017	8917.28
756.355	9065.98
756.693	9072.53
757.031	9222.36
757.368	9263.03
757.706	9406.98
758.044	9457.38
758.381	9604.72
758.719	9656.7
759.056	9778.27
759.394	9893.07
759.731	9940.08
760.068	10038.61
760.405	10129.23
760.743	10235.21
761.08	10390.69
761.417	10326.06
761.754	10489.44
762.091	10654.18
762.428	10722.88
762.765	10813.73
763.102	10955.19
763.438	11024.34
763.775	11135.98
764.112	11214.17
764.449	11365.8
764.785	11481.05
765.122	11455.29
765.458	11617.55
765.795	11672.24
766.131	11840.14
766.467	11900.48
766.804	11985.45
767.14	12048.72
767.476	12124.65
767.812	12216.63
768.148	12286.46
768.485	12334.36
768.821	12334.59
769.157	12493.23
769.492	12539.56
769.828	12595.15
770.164	12625.66
770.5	12706.33
770.836	12792.66
771.171	12864.52
771.507	12789.04
771.842	12823.62
772.178	12927.12
772.513	13058.64
772.849	12966.66
773.184	12988.81
773.519	13060.45
773.855	13130.73
774.19	13171.86
774.525	13189.26
774.86	13198.07
775.195	13255.7
775.53	13273.1
775.865	13228.35
776.2	13236.49
776.535	13276.49
776.87	13288.46
777.205	13262.48
777.539	13312.87
777.874	13352.19
778.209	13305.19
778.543	13316.71
778.878	13288.01
779.212	13275.58
779.547	13282.36
779.881	13395.81
780.215	13317.62
780.55	13394
780.884	13354.9
781.218	13333.21
781.552	13334.56
781.886	13358.97
782.22	13299.76
782.554	13311.29
782.888	13186.09
783.222	13226.54
783.556	13167.11
783.889	13114.68
784.223	13114.46
784.557	13105.19
784.89	13197.39
785.224	13184.06
785.557	13108.81
785.891	13066.32
786.224	13072.42
786.558	13100.22
786.891	12988.36
787.224	12964.63
787.557	12967.12
787.891	13011.41
788.224	13025.19
788.557	13078.98
788.89	12941.13
789.223	12966.66
789.556	12881.7
789.888	12840.34
790.221	12851.19
790.554	12737.07
790.887	12767.8
791.219	12774.13
791.552	12697.75
791.884	12711.76
792.217	12645.77
792.549	12646.22
792.882	12548.14
793.214	12520.57
793.546	12578.43
793.879	12454.14
794.211	12429.96
794.543	12508.6
794.875	12487.36
795.207	12493.46
795.539	12394.48
795.871	12415.49
796.203	12325.1
796.535	12267.7
796.867	12252.33
797.198	12216.85
797.53	12278.1
797.862	12117.87
798.193	12121.72
798.525	12072.9
798.856	12167.59
799.188	12007.14
799.519	12021.6
799.85	11951.1
800.182	11961.04
800.513	11915.84
800.844	11886.02
801.175	11908.16
801.506	11858.67
801.837	11832.46
802.168	11866.35
802.499	11785.45
802.83	11715.4
803.161	11763.08
803.491	11778.67
803.822	11730.31
804.153	11671.33
804.483	11552.24
804.814	11567.38
805.145	11566.7
805.475	11499.81
805.805	11492.35
806.136	11509.53
806.466	11469.08
806.796	11439.25
807.126	11396.08
807.457	11326.93
807.787	11383.43
808.117	11274.05
808.447	11314.73
808.777	11364.22
809.107	11322.64
809.436	11165.81
809.766	11232.92
810.096	11208.52
810.426	11153.61
810.755	11160.16
811.085	11084.23
811.414	11070.67
811.744	11042.65
812.073	10989.54
812.403	11047.85
812.732	11003.33
813.061	10891.69
813.39	10843.56
813.719	10828.87
814.049	10923.1
814.378	10874.06
814.707	10881.97
815.036	10844.91
815.365	10715.42
815.693	10725.37
816.022	10756.33
816.351	10730.57
816.68	10644.69
817.008	10716.1
817.337	10559.27
817.665	10598.37
817.994	10629.1
818.322	10610.12
818.651	10570.57
818.979	10440.63
819.307	10635.2
819.636	10514.98
819.964	10472.72
820.292	10514.53
820.62	10424.81
820.948	10389.56
821.276	10406.96
821.604	10499.61
821.932	10438.6
822.259	10450.12
822.587	10438.37
822.915	10479.27
823.243	10391.37
823.57	10394.75
823.898	10374.87
824.225	10365.6
824.553	10427.52
824.88	10443.57
825.207	10519.5
825.535	10395.21
825.862	10445.83
826.189	10405.83
826.516	10507.75
826.843	10500.29
827.17	10451.93
827.497	10460.06
827.824	10479.72
828.151	10488.99
828.478	10466.39
828.805	10503.23
829.131	10473.85
829.458	10401.53
829.785	10382.55
830.111	10435.21
830.438	10420.29
830.764	10457.13
831.09	10474.07
831.417	10373.74
831.743	10504.13
832.069	10376.45
832.395	10411.48
832.722	10389.33
833.048	10360.63
833.374	10398.82
833.7	10376.45
834.026	10321.08
834.351	10418.03
834.677	10373.96
835.003	10351.37
835.329	10373.29
835.654	10337.13
835.98	10317.69
836.306	10323.34
836.631	10245.15
836.956	10289.22
837.282	10319.28
837.607	10270.92
837.932	10229.11
838.258	10192.5
838.583	10205.61
838.908	10173.52
839.233	10219.17
839.558	10120.41
839.883	10173.97
840.208	10101.2
840.533	10163.12
840.858	10101.43
841.182	10138.94
841.507	10075.67
841.832	10043.58
842.156	9989.12
842.481	10010.36
842.805	9899.85
843.13	9944.15
843.454	9907.99
843.778	9827.09
844.103	9874.77
844.427	9862.11
844.751	9827.31
845.075	9835.45
845.399	9777.82
845.723	9734.43
846.047	9748.22
846.371	9660.54
846.695	9690.59
847.019	9613.98
847.343	9492.41
847.666	9524.27
847.99	9503.48
848.313	9506.19
848.637	9423.93
848.96	9405.63
849.284	9334.9
849.607	9276.59
849.931	9339.19
850.254	9164.05
850.577	9217.84
850.9	9120.89
851.223	9051.06
851.546	9066.88
851.869	8994.11
852.192	9101.46
852.515	8986.88
852.838	8913.66
853.161	8961.8
853.483	8944.85
853.806	8939.2
854.129	8858.3
854.451	8847
854.774	8824.85
855.096	8757.28
855.419	8770.84
855.741	8832.99
856.063	8644.74
856.385	8707.79
856.708	8661.24
857.03	8598.42
857.352	8561.81
857.674	8617.85
857.996	8555.03
858.318	8516.61
858.64	8484.52
858.961	8467.12
859.283	8448.14
859.605	8425.32
859.926	8507.12
860.248	8395.94
860.57	8348.48
860.891	8380.34
861.212	8287.01
861.534	8274.58
861.855	8331.31
862.176	8266
862.498	8274.58
862.819	8228.71
863.14	8280.23
863.461	8256.51
863.782	8176.28
864.103	8162.5
864.424	8142.84
864.745	8203.85
865.065	8098.09
865.386	8093.12
865.707	8093.12
866.027	8064.42
866.348	8087.92
866.668	8068.26
866.989	8111.43
867.309	8024.65
867.63	7962.05
867.95	8024.2
868.27	7985.1
868.59	7979
868.91	8005.67
869.23	7969.51
869.55	7938.55
869.87	7958.89
870.19	7927.48
870.51	8016.74
870.83	7941.26
871.15	7905.33
871.469	7886.8
871.789	7870.3
872.109	7877.31
872.428	7831.88
872.748	7910.98
873.067	7818.55
873.386	7838.44
873.706	7827.82
874.025	7786.24
874.344	7746.01
874.663	7777.2
874.982	7802.05
875.301	7791.43
875.62	7699.68
875.939	7722.06
876.258	7737.2
876.577	7727.25
876.896	7670.76
877.214	7685
877.533	7645.22
877.852	7601.83
878.17	7674.6
878.489	7671.66
878.807	7624.43
879.125	7608.16
879.444	7598.44
879.762	7573.36
880.08	7482.52
880.398	7558.22
880.716	7522.74
881.034	7497.2
881.352	7551.44
881.67	7434.61
881.988	7453.59
882.306	7428.96
882.624	7362.07
882.941	7361.84
883.259	7336.53
883.577	7354.61
883.894	7403.65
884.212	7366.13
884.529	7303.31
884.846	7294.27
885.164	7341.95
885.481	7267.15
885.798	7258.34
886.115	7224.44
886.432	7226.25
886.75	7201.39
887.067	7180.6
887.383	7176.99
887.7	7176.53
888.017	7077.33
888.334	7167.5
888.651	7112.81
888.967	7067.38
889.284	7064.9
889.6	7027.61
889.917	7027.84
890.233	7000.95
890.55	6961.17
890.866	6995.52
891.182	6939.48
891.498	6875.75
891.815	6923.43
892.131	6875.3
892.447	6862.42
892.763	6861.74
893.079	6871.01
893.395	6836.88
893.71	6760.27
894.026	6758.92
894.342	6758.01
894.657	6728.64
894.973	6683.67
895.289	6656.77
895.604	6694.29
895.92	6665.36
896.235	6607.96
896.55	6586.95
896.865	6591.92
897.181	6631.24
897.496	6588.98
897.811	6507.85
898.126	6494.52
898.441	6505.82
898.756	6504.24
899.071	6442.99
899.386	6400.28
899.7	6435.99
900.015	6357.8
900.33	6310.34
900.644	6257.01
900.959	6273.51
901.273	6247.97
901.588	6278.48
901.902	6252.04
902.216	6216.56
902.531	6165.04
902.845	6150.8
903.159	6074.19
903.473	6114.19
903.787	6044.59
904.101	6064.93
904.415	6031.48
904.729	6084.59
905.042	6006.17
905.356	5913.74
905.67	5952.16
905.984	6007.3
906.297	5929.34
906.611	5907.42
906.924	5872.84
907.237	5841.43
907.551	5836
907.864	5813.63
908.177	5723.01
908.491	5758.04
908.804	5731.83
909.117	5711.04
909.43	5686.4
909.743	5649.79
910.056	5620.87
910.368	5633.3
910.681	5565.73
910.994	5601.21
911.307	5577.48
911.619	5521.66
911.932	5528.67
912.244	5486.86
912.557	5518.72
912.869	5431.27
913.181	5410.48
913.494	5441.44
913.806	5411.84
914.118	5327.77
914.43	5344.27
914.742	5341.55
915.054	5304.04
915.366	5288.45
915.678	5259.75
915.99	5319.18
916.302	5203.93
916.613	5193.54
916.925	5203.03
917.236	5189.02
917.548	5126.87
917.859	5140.66
918.171	5123.93
918.482	5047.1
918.794	4990.6
919.105	5039.87
919.416	5015.46
919.727	5020.43
920.038	4976.82
920.349	4958.74
920.66	4972.3
920.971	4945.18
921.282	4916.25
921.593	4888.01
921.903	4873.09
922.214	4850.95
922.525	4845.75
922.835	4762.36
923.146	4753.1
923.456	4769.59
923.767	4777.05
924.077	4702.02
924.387	4729.37
924.697	4675.36
925.008	4675.36
925.318	4667
925.628	4656.37
925.938	4620.67
926.248	4590.39
926.558	4536.15
926.867	4564.85
927.177	4600.56
927.487	4546.32
927.796	4480.11
928.106	4488.7
928.416	4503.84
928.725	4454.57
929.034	4434.69
929.344	4453.67
929.653	4427.23
929.962	4360.11
930.271	4334.35
930.581	4317.17
930.89	4314.24
931.199	4300.68
931.508	4282.15
931.817	4287.12
932.125	4270.85
932.434	4208.02
932.743	4249.15
933.051	4172.09
933.36	4186.33
933.669	4151.76
933.977	4130.51
934.286	4144.07
934.594	4138.2
934.902	4108.82
935.21	4095.03
935.519	4105.2
935.827	4080.8
936.135	4055.71
936.443	3973.23
936.751	3998.31
937.059	4001.02
937.367	3987.24
937.674	4006.67
937.982	3966.9
938.29	3923.96
938.597	3967.58
938.905	3877.19
939.213	3880.35
939.52	3874.02
939.827	3886
940.135	3824.76
940.442	3837.64
940.749	3800.35
941.056	3810.07
941.363	3783.18
941.67	3775.49
941.977	3739.11
942.284	3699.56
942.591	3714.48
942.898	3666.57
943.205	3660.69
943.511	3637.87
943.818	3632.67
944.125	3622.73
944.431	3670.86
944.738	3609.85
945.044	3565.78
945.35	3567.82
945.657	3551.09
945.963	3537.08
946.269	3511.55
946.575	3524.43
946.881	3509.74
947.187	3484.65
947.493	3410.98
947.799	3445.79
948.105	3415.5
948.41	3394.49
948.716	3418.89
949.022	3403.53
949.327	3397.65
949.633	3382.96
949.938	3374.6
950.244	3370.76
950.549	3328.95
950.854	3311.33
951.16	3272
951.465	3291.66
951.77	3281.5
952.075	3281.5
952.38	3269.74
952.685	3236.98
952.99	3233.81
953.294	3200.14
953.599	3186.36
953.904	3178.22
954.209	3128.73
954.513	3158.34
954.818	3149.97
955.122	3147.49
955.426	3106.36
955.731	3090.09
956.035	3090.31
956.339	3091.44
956.643	3053.71
956.948	3033.14
957.252	3035.85
957.556	3029.3
957.86	3015.97
958.163	3015.51
958.467	3016.64
958.771	2986.81
959.075	2952.24
959.378	2966.7
959.682	2965.35
959.985	2972.8
960.289	2896.87
960.592	2914.95
960.896	2885.12
961.199	2897.32
961.502	2871.79
961.805	2849.64
962.108	2877.89
962.411	2844.22
962.714	2810.77
963.017	2836.76
963.32	2828.4
963.623	2786.37
963.926	2763.09
964.228	2784.79
964.531	2779.36
964.833	2782.98
965.136	2729.19
965.438	2710.44
965.741	2683.09
966.043	2689.65
966.345	2675.18
966.648	2663.88
966.95	2668.86
967.252	2671.12
967.554	2627.05
967.856	2623.43
968.158	2611.46
968.46	2583.89
968.761	2604.9
969.063	2589.99
969.365	2566.94
969.666	2563.32
969.968	2537.11
970.269	2549.76
970.571	2518.13
970.872	2512.48
971.174	2519.26
971.475	2521.74
971.776	2515.87
972.077	2472.7
972.378	2475.64
972.679	2495.3
972.98	2439.03
973.281	2427.96
973.582	2420.95
973.883	2412.37
974.183	2402.65
974.484	2402.65
974.785	2383.44
975.085	2389.09
975.386	2395.19
975.686	2355.19
975.986	2337.11
976.287	2326.04
976.587	2309.77
976.887	2308.87
977.187	2312.48
977.487	2291.01
977.787	2273.39
978.087	2277.68
978.387	2244.46
978.687	2255.53
978.987	2212.15
979.286	2270.67
979.586	2212.37
979.885	2248.08
980.185	2216.44
980.484	2189.55
980.784	2202.2
981.083	2206.5
981.382	2196.78
981.682	2205.82
981.981	2151.36
982.28	2144.12
982.579	2169.21
982.878	2185.93
983.177	2089.89
983.475	2087.63
983.774	2090.11
984.073	2080.4
984.372	2081.3
984.67	2091.92
984.969	2068.42
985.267	2054.18
985.566	2059.83
985.864	2067.52
986.162	2020.29
986.461	2040.17
986.759	2040.85
987.057	1982.77
987.355	2011.25
987.653	1995.65
987.951	1984.81
988.249	1961.3
988.547	1986.16
988.844	1976.45
989.142	1950.46
989.44	1973.28
989.737	1931.02
990.035	1924.02
990.332	1907.97
990.63	1895.32
990.927	1902.1
991.224	1881.76
991.521	1890.57
991.819	1843.34
992.116	1888.54
992.413	1870.91
992.71	1869.1
993.006	1820.52
993.303	1824.36
993.6	1823.45
993.897	1821.2
994.193	1818.03
994.49	1767.64
994.787	1772.16
995.083	1770.57
995.379	1767.19
995.676	1732.16
995.972	1768.54
996.268	1750.01
996.565	1749.56
996.861	1747.75
997.157	1712.72
997.453	1724.7
997.749	1704.14
998.044	1706.17
998.34	1688.77
998.636	1670.24
998.932	1677.24
999.227	1635.89
999.523	1648.32
999.818	1646.28
1000.114	1616.91
1000.409	1623.91
1000.704	1609.68
1001	1647.41
1001.295	1612.61
1001.59	1592.95
1001.885	1595.66
1002.18	1596.34
1002.475	1581.88
1002.77	1563.57
1003.065	1562.9
1003.359	1564.03
1003.654	1523.58
1003.949	1524.25
1004.243	1514.99
1004.538	1534.42
1004.832	1524.03
1005.127	1517.47
1005.421	1513.86
1005.715	1507.53
1006.009	1504.59
1006.304	1480.64
1006.598	1475.44
1006.892	1474.54
1007.186	1439.28
1007.48	1414.65
1007.773	1411.71
1008.067	1406.29
1008.361	1423.24
1008.655	1409.91
1008.948	1398.38
1009.242	1402.22
1009.535	1388.21
1009.829	1388.44
1010.122	1379.4
1010.415	1388.89
1010.708	1380.75
1011.001	1348.89
1011.295	1364.03
1011.588	1342.79
1011.881	1318.84
1012.173	1321.55
1012.466	1320.19
1012.759	1323.81
1013.052	1294.66
1013.344	1298.5
1013.637	1299.85
1013.93	1287.2
1014.222	1273.41
1014.514	1267.09
1014.807	1266.63
1015.099	1248.1
1015.391	1237.93
1015.683	1243.81
1015.976	1249.01
1016.268	1236.8
1016.56	1224.37
1016.851	1204.49
1017.143	1211.49
1017.435	1172.85
1017.727	1179.86
1018.018	1187.99
1018.31	1180.53
1018.602	1153.64
1018.893	1169.46
1019.185	1140.08
1019.476	1141.21
1019.767	1122
1020.058	1137.37
1020.35	1122.23
1020.641	1117.26
1020.932	1109.12
1021.223	1104.6
1021.514	1107.09
1021.804	1083.36
1022.095	1081.55
1022.386	1096.24
1022.677	1091.04
1022.967	1066.41
1023.258	1048.11
1023.548	1058.28
1023.839	1034.32
1024.129	1065.28
1024.419	1031.16
1024.709	1020.76
1025	1025.28
1025.29	1005.85
1025.58	1006.08
1025.87	978.51
1026.16	1001.33
1026.449	995.45
1026.739	994.55
1027.029	980.31
1027.319	983.48
1027.608	976.92
1027.898	955
1028.187	945.74
1028.477	957.04
1028.766	952.97
1029.055	969.69
1029.344	934.21
1029.634	959.07
1029.923	931.05
1030.212	914.55
1030.501	918.62
1030.79	925.85
1031.078	911.39
1031.367	885.4
1031.656	912.29
1031.945	890.37
1032.233	885.4
1032.522	901.45
1032.81	877.72
1033.099	880.43
1033.387	879.98
1033.675	851.5
1033.963	878.85
1034.251	837.27
1034.54	857.83
1034.828	827.32
1035.116	829.81
1035.403	833.65
1035.691	816.7
1035.979	826.19
1036.267	802.69
1036.554	817.61
1036.842	809.47
1037.129	794.1
1037.417	803.37
1037.704	790.94
1037.992	785.74
1038.279	779.19
1038.566	787.55
1038.853	787.55
1039.14	787.55
