Data from hue_210_FLMS001491_00011.txt Node
Date: Tue Feb 07 16:40:48 GMT 2017
User: dcchb
Spectrometer: FLMS00149
Trigger mode: 0
Integration Time (sec): 2.000000E-2
Scans to average: 10
Electric dark correction enabled: true
Nonlinearity correction enabled: false
Boxcar width: 0
XAxis mode: Wavelengths
Number of Pixels in Spectrum: 2048
>>>>>Begin Spectral Data<<<<<
341.393	-24.66
341.776	-24.66
342.16	-24.66
342.543	-63.98
342.927	-65.56
343.31	-74.38
343.693	-67.6
344.077	-74.83
344.46	-42.06
344.843	-43.19
345.226	-50.42
345.61	-25.34
345.993	-32.8
346.376	-15.17
346.759	10.59
347.142	16.92
347.525	47.65
347.908	53.76
348.291	80.42
348.674	97.14
349.057	119.29
349.44	107.77
349.823	145.5
350.206	181.89
350.588	197.25
350.971	226.18
351.354	242.23
351.737	225.5
352.119	274.54
352.502	255.78
352.884	274.77
353.267	284.94
353.65	281.32
354.032	330.13
354.414	299.85
354.797	314.77
355.179	312.73
355.562	308.44
355.944	322.45
356.326	335.78
356.709	351.6
357.091	348.44
357.473	348.66
357.855	347.53
358.238	327.42
358.62	334.88
359.002	353.63
359.384	331.26
359.766	340.3
360.148	345.27
360.53	359.96
360.912	339.17
361.294	350.92
361.676	319.74
362.057	331.71
362.439	331.26
362.821	309.79
363.203	336.91
363.584	336.69
363.966	338.27
364.348	311.15
364.729	308.44
365.111	307.76
365.493	308.66
365.874	324.48
366.256	304.37
366.637	327.65
367.019	327.65
367.4	324.93
367.781	325.84
368.163	322
368.544	306.86
368.925	307.31
369.306	332.62
369.688	299.62
370.069	295.78
370.45	316.8
370.831	317.25
371.212	299.85
371.593	311.38
371.974	320.19
372.355	308.89
372.736	320.19
373.117	317.7
373.498	320.87
373.879	308.21
374.26	314.54
374.641	300.98
375.021	319.74
375.402	303.92
375.783	318.16
376.163	304.37
376.544	315.44
376.925	330.13
377.305	317.03
377.686	330.36
378.066	338.72
378.447	324.48
378.827	337.36
379.208	346.86
379.588	332.39
379.968	352.28
380.349	330.81
380.729	353.18
381.109	322.68
381.489	342.11
381.87	344.82
382.25	341.21
382.63	343.24
383.01	330.13
383.39	320.42
383.77	339.85
384.15	362.22
384.53	358.61
384.91	343.47
385.29	349.34
385.67	360.41
386.049	341.43
386.429	364.93
386.809	336.69
387.189	343.92
387.568	369.91
387.948	365.16
388.328	354.54
388.707	368.32
389.087	344.6
389.466	382.79
389.846	364.48
390.225	358.83
390.605	378.04
390.984	371.94
391.363	382.79
391.743	358.61
392.122	382.79
392.501	372.17
392.881	363.8
393.26	376.23
393.639	386.85
394.018	360.87
394.397	376.46
394.776	390.47
395.155	387.76
395.534	404.03
395.913	385.27
396.292	369.91
396.671	379.17
397.05	406.74
397.429	400.41
397.808	403.58
398.186	399.06
398.565	414.42
398.944	386.4
399.323	408.55
399.701	425.5
400.08	400.64
400.458	420.53
400.837	412.16
401.215	434.76
401.594	429.34
401.972	428.89
402.351	452.39
402.729	432.05
403.107	428.66
403.486	441.54
403.864	440.41
404.242	451.03
404.62	431.6
404.999	463.46
405.377	470.92
405.755	478.6
406.133	459.85
406.511	462.56
406.889	481.99
407.267	471.6
407.645	499.62
408.023	494.87
408.401	500.75
408.779	516.12
409.156	532.84
409.534	527.87
409.912	533.74
410.29	536.68
410.667	533.52
411.045	537.58
411.422	552.27
411.8	566.96
412.178	587.07
412.555	577.13
412.933	599.96
413.31	601.76
413.687	609
414.065	648.32
414.442	647.86
414.819	624.14
415.197	629.11
415.574	665.94
415.951	666.39
416.328	681.08
416.705	664.81
417.082	703.68
417.46	684.47
417.837	717.47
418.214	695.77
418.591	726.73
418.967	724.47
419.344	740.74
419.721	749.78
420.098	764.47
420.475	752.49
420.852	769.9
421.228	811.02
421.605	788.2
421.982	841.08
422.358	833.62
422.735	841.76
423.111	865.49
423.488	877.24
423.864	882.89
424.241	902.55
424.617	927.18
424.994	927.86
425.37	959.04
425.746	971.7
426.123	989.32
426.499	973.51
426.875	992.04
427.251	993.39
427.627	1051.24
428.003	1058.7
428.379	1054.41
428.756	1069.1
429.132	1070.23
429.507	1088.08
429.883	1108.42
430.259	1121.3
430.635	1109.77
431.011	1139.83
431.387	1168.53
431.763	1183.67
432.138	1209.66
432.514	1199.71
432.89	1238.36
433.265	1278.13
433.641	1274.29
434.016	1293.05
434.392	1338.92
434.767	1368.3
435.143	1323.1
435.518	1398.13
435.894	1405.81
436.269	1420.95
436.644	1460.95
437.02	1468.41
437.395	1471.57
437.77	1521.29
438.145	1545.47
438.52	1565.81
438.895	1614.17
439.271	1619.82
439.646	1669.53
440.021	1691.23
440.395	1698.01
440.77	1661.62
441.145	1754.73
441.52	1765.35
441.895	1752.92
442.27	1803.99
442.645	1801.05
443.019	1827.95
443.394	1831.79
443.769	1857.32
444.143	1882.18
444.518	1904.55
444.892	1883.99
445.267	1944.78
445.641	1983.87
446.016	1962.86
446.39	1976.87
446.764	1996.3
447.139	2016.19
447.513	2033.36
447.887	2034.27
448.262	2039.69
448.636	2024.55
449.01	2108.84
449.384	2128.73
449.758	2090.99
450.132	2137.09
450.506	2166.47
450.88	2191.78
451.254	2189.97
451.628	2224.09
452.002	2235.39
452.376	2297.09
452.75	2277.2
453.123	2291.21
453.497	2355.62
453.871	2349.74
454.244	2403.07
454.618	2434.48
454.992	2442.85
455.365	2460.7
455.739	2527.59
456.112	2536.18
456.486	2537.53
456.859	2566.68
457.232	2610.75
457.606	2627.93
457.979	2648.72
458.352	2681.94
458.725	2742.05
459.099	2768.94
459.472	2815.04
459.845	2782.72
460.218	2801.71
460.591	2859.33
460.964	2888.03
461.337	2906.56
461.71	2949.5
462.083	3014.58
462.456	3013.68
462.829	3014.13
463.201	3099.33
463.574	3088.7
463.947	3139.55
464.32	3205.76
464.692	3244.41
465.065	3252.77
465.438	3285.54
465.81	3354.23
466.183	3347.68
466.555	3446.21
466.928	3460.67
467.3	3470.39
467.672	3526.66
468.045	3565.75
468.417	3586.77
468.789	3622.25
469.161	3636.71
469.534	3704.51
469.906	3815.92
470.278	3795.8
470.65	3867.67
471.022	3904.73
471.394	3984.95
471.766	3994.67
472.138	4067.21
472.51	4141.33
472.882	4194.66
473.253	4224.04
473.625	4282.8
473.997	4339.07
474.369	4386.98
474.74	4385.39
475.112	4474.43
475.484	4569.34
475.855	4617.03
476.227	4651.15
476.598	4771.82
476.97	4798.49
477.341	4889.11
477.713	4939.05
478.084	4949.9
478.455	5103.79
478.827	5190.12
479.198	5214.3
479.569	5277.12
479.94	5388.53
480.311	5444.8
480.682	5542.65
481.053	5653.61
481.424	5687.28
481.795	5805.69
482.166	5813.15
482.537	5917.56
482.908	6021.28
483.279	6048.17
483.65	6178.79
484.021	6251.11
484.391	6367.94
484.762	6412.23
485.133	6463.98
485.503	6504.21
485.874	6654.03
486.244	6708.72
486.615	6790.08
486.985	6812.9
487.356	6959.11
487.726	6997.75
488.097	7169.27
488.467	7129.95
488.837	7227.35
489.207	7344.41
489.578	7445.2
489.948	7461.7
490.318	7598.64
490.688	7624.18
491.058	7680
491.428	7817.39
491.798	7831.4
492.168	7969.93
492.538	8005.64
492.908	8037.27
493.278	8154.11
493.648	8176.03
494.017	8237.72
494.387	8262.35
494.757	8329.7
495.126	8403.82
495.496	8475.91
495.866	8455.79
496.235	8598.16
496.605	8626.86
496.974	8605.17
497.344	8708.44
497.713	8712.51
498.082	8832.28
498.452	8898.72
498.821	8857.82
499.19	8891.72
499.559	8902.56
499.928	8993.63
500.298	9005.84
500.667	9103.46
501.036	9032.95
501.405	9129.68
501.774	9142.56
502.143	9221.42
502.512	9227.75
502.88	9259.62
503.249	9272.04
503.618	9313.63
503.987	9289.45
504.356	9325.6
504.724	9404.24
505.093	9368.76
505.462	9429.1
505.83	9464.13
506.199	9460.97
506.567	9579.61
506.936	9603.79
507.304	9589.32
507.672	9677.01
508.041	9651.7
508.409	9728.53
508.777	9747.51
509.145	9759.94
509.514	9716.55
509.882	9725.82
510.25	9765.36
510.618	9882.88
510.986	9758.13
511.354	9876.1
511.722	9912.25
512.09	9975.53
512.458	9907.96
512.826	10005.13
513.193	9936.43
513.561	9961.52
513.929	10042.19
514.297	10108.41
514.664	10089.42
515.032	10032.93
515.4	10109.31
515.767	10162.42
516.135	10126.49
516.502	10068.18
516.869	10124.68
517.237	10170.1
517.604	10129.42
517.972	10234.05
518.339	10206.94
518.706	10140.95
519.073	10216.65
519.44	10228.63
519.808	10221.85
520.175	10281.96
520.542	10342.75
520.909	10290.77
521.276	10237.89
521.643	10359.02
522.009	10318.57
522.376	10360.83
522.743	10300.49
523.11	10423.65
523.477	10447.83
523.843	10455.74
524.21	10426.14
524.577	10419.81
524.943	10437.21
525.31	10451.67
525.676	10531.67
526.043	10516.98
526.409	10509.07
526.776	10596.3
527.142	10547.49
527.508	10549.52
527.874	10557.66
528.241	10680.82
528.607	10548.85
528.973	10527.6
529.339	10599.02
529.705	10609.64
530.071	10582.29
530.437	10558.11
530.803	10565.12
531.169	10596.3
531.535	10521.73
531.901	10482.86
532.267	10472.01
532.632	10507.04
532.998	10530.99
533.364	10459.36
533.73	10420.49
534.095	10508.17
534.461	10480.37
534.826	10416.2
535.192	10415.97
535.557	10392.47
535.923	10347.72
536.288	10389.98
536.653	10355.86
537.019	10256.88
537.384	10275.63
537.749	10260.94
538.114	10221.4
538.479	10171.91
538.845	10189.53
539.21	10146.82
539.575	10106.82
539.94	10055.98
540.305	10052.81
540.67	10021.4
541.034	10037.67
541.399	9960.61
541.764	9952.7
542.129	10008.75
542.494	9934.63
542.858	9829.77
543.223	9868.41
543.587	9864.57
543.952	9796.32
544.316	9780.05
544.681	9707.06
545.045	9698.02
545.41	9745.93
545.774	9641.98
546.138	9578.93
546.503	9615.54
546.867	9537.57
547.231	9519.5
547.595	9599.49
547.959	9511.59
548.324	9470.23
548.688	9516.33
549.052	9527.4
549.416	9444.92
549.779	9410.57
550.143	9378.03
550.507	9401.76
550.871	9350.91
551.235	9264.81
551.599	9303.91
551.962	9308.88
552.326	9249.45
552.689	9259.39
553.053	9149.11
553.417	9152.27
553.78	9156.57
554.143	9113.86
554.507	9110.24
554.87	9131.71
555.234	9133.74
555.597	9011.26
555.96	9050.13
556.323	9045.84
556.686	9027.76
557.05	8960.41
557.413	8976.23
557.776	8930.13
558.139	8961.09
558.502	8936.23
558.865	8977.59
559.228	8997.25
559.59	8947.53
559.953	8944.6
560.316	8976.23
560.679	8892.39
561.041	8933.97
561.404	8938.27
561.767	8954.76
562.129	8885.39
562.492	8968.1
562.854	8953.63
563.217	8893.52
563.579	8944.6
563.941	8945.27
564.304	8938.49
564.666	8956.57
565.028	8990.47
565.39	8980.3
565.753	8985.27
566.115	8991.37
566.477	9020.75
566.839	8963.13
567.201	8981.66
567.563	8962.67
567.925	9062.11
568.287	9118.83
568.648	9117.25
569.01	9035.67
569.372	9106.4
569.734	8990.24
570.095	9133.74
570.457	9096.46
570.819	9109.34
571.18	9086.96
571.542	9150.24
571.903	9159.5
572.265	9056
572.626	9112.05
572.987	9133.52
573.349	9164.02
573.71	9207.87
574.071	9201.76
574.432	9240.41
574.794	9299.39
575.155	9253.06
575.516	9267.98
575.877	9245.15
576.238	9260.75
576.599	9333.74
576.96	9286.96
577.32	9297.35
577.681	9340.07
578.042	9297.13
578.403	9331.03
578.763	9336.68
579.124	9338.48
579.485	9363.12
579.845	9412.38
580.206	9359.73
580.566	9366.05
580.927	9331.25
581.287	9469.78
581.648	9336.45
582.008	9450.8
582.368	9401.08
582.728	9449.21
583.089	9455.99
583.449	9372.61
583.809	9438.59
584.169	9451.25
584.529	9435.2
584.889	9538.7
585.249	9462.1
585.609	9442.21
585.969	9504.35
586.329	9485.37
586.688	9477.24
587.048	9471.81
587.408	9437.24
587.768	9441.08
588.127	9431.81
588.487	9465.49
588.846	9518.37
589.206	9489.89
589.565	9523.34
589.925	9479.04
590.284	9456.22
590.643	9465.49
591.003	9604.24
591.362	9587.74
591.721	9568.99
592.08	9562.66
592.44	9553.62
592.799	9586.16
593.158	9597.23
593.517	9550.91
593.876	9509.55
594.235	9526.05
594.593	9547.29
594.952	9550.68
595.311	9559.49
595.67	9570.57
596.029	9558.59
596.387	9519.72
596.746	9588.65
597.104	9548.2
597.463	9550.68
597.822	9564.69
598.18	9509.33
598.538	9591.81
598.897	9521.76
599.255	9468.42
599.613	9671.81
599.972	9531.25
600.33	9648.08
600.688	9572.83
601.046	9576.67
601.404	9620.28
601.762	9592.04
602.12	9682.43
602.478	9646.5
602.836	9658.25
603.194	9526.27
603.552	9642.66
603.91	9479.5
604.268	9586.84
604.625	9593.17
604.983	9607.63
605.341	9620.96
605.698	9674.52
606.056	9646.5
606.413	9569.21
606.771	9662.77
607.128	9670.23
607.485	9629.32
607.843	9626.61
608.2	9725.82
608.557	9655.99
608.914	9693.73
609.272	9655.31
609.629	9746.61
609.986	9707.06
610.343	9688.53
610.7	9740.28
611.057	9715.42
611.414	9721.3
611.771	9741.18
612.127	9777.57
612.484	9741.18
612.841	9782.77
613.198	9789.09
613.554	9764.46
613.911	9853.05
614.267	9827.51
614.624	9757.68
614.98	9705.48
615.337	9880.62
615.693	9841.29
616.05	9854.4
616.406	9920.39
616.762	9850.11
617.118	9818.7
617.475	9795.87
617.831	9955.87
618.187	9839.71
618.543	9874.29
618.899	9959.94
619.255	9934.63
619.611	9954.29
619.967	9954.96
620.323	9994.06
620.678	9891.92
621.034	9860.96
621.39	9914.74
621.746	9889.88
622.101	9954.29
622.457	9980.5
622.812	9902.08
623.168	9901.63
623.523	9928.98
623.879	9944.57
624.234	9888.75
624.589	9961.29
624.945	9919.03
625.3	10000.16
625.655	9942.99
626.01	9902.99
626.365	9962.65
626.72	9891.46
627.075	9854.4
627.43	9966.94
627.785	9838.58
628.14	9925.13
628.495	9871.58
628.85	9897.34
629.205	9842.88
629.559	9908.41
629.914	9812.14
630.269	9832.03
630.623	9866.6
630.978	9822.09
631.332	9820.96
631.687	9818.24
632.041	9822.09
632.396	9836.55
632.75	9794.52
633.104	9756.1
633.459	9772.82
633.813	9750.68
634.167	9702.99
634.521	9756.78
634.875	9775.08
635.229	9700.51
635.583	9696.21
635.937	9699.15
636.291	9717.46
636.645	9690.34
636.999	9601.75
637.352	9655.76
637.706	9642.66
638.06	9635.2
638.413	9655.31
638.767	9545.26
639.121	9615.09
639.474	9544.35
639.828	9491.93
640.181	9531.47
640.534	9580.74
640.888	9470.68
641.241	9425.03
641.594	9531.7
641.947	9556.78
642.301	9534.18
642.654	9508.65
643.007	9449.21
643.36	9502.77
643.713	9397.92
644.066	9501.19
644.419	9442.66
644.771	9372.38
645.124	9268.88
645.477	9269.33
645.83	9214.42
646.182	9146.62
646.535	9197.02
646.888	9259.84
647.24	9144.14
647.593	9221.65
647.945	9122.22
648.298	9178.49
648.65	9110.01
649.002	9067.3
649.355	9107.08
649.707	9086.74
650.059	9160.86
650.411	9204.93
650.763	9285.38
651.115	9394.53
651.467	9389.33
651.819	9291.25
652.171	9334.19
652.523	9300.52
652.875	9274.98
653.227	9297.35
653.578	9366.96
653.93	9368.76
654.282	9309.33
654.633	9269.78
654.985	9324.92
655.337	9354.75
655.688	9367.41
656.039	9403.79
656.391	9282.67
656.742	9371.02
657.094	9330.12
657.445	9317.69
657.796	9322.89
658.147	9364.25
658.498	9376.45
658.849	9373.06
659.2	9339.16
659.551	9301.2
659.902	9344.81
660.253	9333.51
660.604	9368.09
660.955	9357.01
661.306	9381.19
661.656	9387.3
662.007	9395.88
662.358	9350.01
662.708	9389.78
663.059	9364.25
663.409	9317.92
663.76	9444.24
664.11	9385.94
664.461	9382.55
664.811	9405.15
665.161	9366.96
665.511	9393.17
665.862	9382.32
666.212	9397.46
666.562	9392.04
666.912	9392.27
667.262	9324.47
667.612	9359.73
667.962	9304.13
668.312	9387.52
668.662	9423.23
669.011	9371.93
669.361	9383.68
669.711	9378.48
670.06	9361.31
670.41	9272.04
670.76	9364.47
671.109	9341.87
671.459	9284.7
671.808	9288.09
672.157	9342.32
672.507	9265.26
672.856	9271.37
673.205	9298.26
673.554	9370.57
673.904	9263.46
674.253	9342.1
674.602	9272.27
674.951	9140.52
675.3	9091.26
675.649	9186.85
675.998	9278.82
676.346	9192.5
676.695	9235.21
677.044	9167.64
677.393	9235.66
677.741	9136
678.09	9131.71
678.438	9104.14
678.787	9225.72
679.135	9170.13
679.484	9138.94
679.832	9114.08
680.181	9077.93
680.529	9087.87
680.877	9067.3
681.225	9073.41
681.573	9065.95
681.922	9028.21
682.27	9008.1
682.618	9022.33
682.966	8948.21
683.314	8980.3
683.661	8917.48
684.009	8991.6
684.357	8843.36
684.705	8860.08
685.053	8906.86
685.4	8905.95
685.748	8802
686.095	8768.33
686.443	8810.14
686.79	8749.35
687.138	8787.31
687.485	8760.19
687.832	8730.82
688.18	8717.71
688.527	8689.01
688.874	8614.66
689.221	8557.94
689.568	8607.2
689.915	8590.03
690.262	8626.19
690.609	8521.56
690.956	8482.46
691.303	8494.89
691.65	8440.65
691.997	8501.22
692.344	8428.9
692.69	8424.61
693.037	8422.35
693.383	8289.92
693.73	8270.04
694.077	8251.28
694.423	8243.82
694.769	8258.96
695.116	8184.16
695.462	8200.66
695.808	8198.4
696.155	8143.03
696.501	8068.23
696.847	8046.77
697.193	8046.99
697.539	8039.53
697.885	7982.81
698.231	7840.22
698.577	7910.95
698.923	7935.13
699.269	7828.69
699.614	7791.41
699.96	7789.82
700.306	7776.94
700.651	7736.72
700.997	7721.8
701.342	7747.34
701.688	7664.85
702.033	7637.96
702.379	7605.2
702.724	7564.97
703.069	7639.09
703.415	7493.33
703.76	7473
704.105	7482.49
704.45	7522.49
704.795	7471.87
705.14	7453.79
705.485	7414.01
705.83	7395.48
706.175	7350.74
706.52	7334.02
706.865	7356.61
707.209	7208.37
707.554	7252.21
707.899	7250.4
708.243	7224.41
708.588	7275.26
708.932	7211.99
709.277	7157.07
709.621	7150.97
709.966	7132.44
710.31	7146.68
710.654	7092.21
710.998	7135.15
711.342	7079.56
711.687	7040.69
712.031	7003.63
712.375	6944.42
712.719	6995.49
713.063	7030.52
713.407	7022.39
713.75	6997.08
714.094	6900.36
714.438	6889.96
714.782	6933.35
715.125	6847.48
715.469	6913.46
715.812	6875.72
716.156	6770.64
716.499	6843.86
716.843	6825.33
717.186	6818.1
717.53	6832.56
717.873	6846.12
718.216	6842.5
718.559	6806.35
718.902	6728.83
719.246	6763.86
719.589	6704.65
719.932	6746.24
720.275	6688.84
720.617	6701.72
720.96	6710.3
721.303	6698.1
721.646	6742.62
721.989	6709.17
722.331	6661.27
722.674	6649.97
723.016	6644.99
723.359	6645.67
723.701	6668.05
724.044	6599.8
724.386	6625.33
724.729	6678.44
725.071	6604.32
725.413	6597.99
725.755	6629.63
726.097	6605.22
726.439	6565.67
726.782	6561.38
727.124	6622.4
727.465	6567.93
727.807	6600.7
728.149	6576.52
728.491	6543.53
728.833	6622.17
729.175	6539.46
729.516	6543.53
729.858	6564.32
730.199	6514.83
730.541	6511.21
730.882	6546.69
731.224	6618.78
731.565	6508.05
731.906	6542.85
732.248	6519.8
732.589	6513.47
732.93	6518.67
733.271	6522.06
733.612	6488.61
733.953	6570.65
734.294	6516.18
734.635	6524.32
734.976	6523.87
735.317	6492.68
735.658	6568.84
735.999	6526.58
736.339	6521.38
736.68	6547.37
737.021	6511.21
737.361	6512.57
737.702	6555.73
738.042	6558.44
738.383	6548.27
738.723	6517.99
739.063	6583.98
739.404	6607.71
739.744	6550.53
740.084	6560.93
740.424	6541.72
740.764	6643.64
741.104	6623.3
741.444	6665.79
741.784	6682.06
742.124	6655.39
742.464	6666.01
742.804	6664.88
743.143	6684.99
743.483	6681.6
743.823	6745.11
744.162	6780.36
744.502	6781.94
744.841	6816.97
745.181	6892.9
745.52	6881.6
745.86	6965.44
746.199	6925.89
746.538	6911.43
746.877	7017.64
747.216	7065.32
747.556	7048.15
747.895	7124.98
748.234	7189.16
748.573	7184.64
748.911	7250.85
749.25	7306.67
749.589	7356.84
749.928	7405.88
750.267	7548.93
750.605	7582.15
750.944	7642.71
751.283	7652.65
751.621	7801.57
751.96	7803.83
752.298	7937.62
752.636	8042.47
752.975	8173.77
753.313	8193.2
753.651	8323.59
753.989	8404.04
754.327	8499.64
754.666	8625.73
755.004	8701.21
755.342	8850.81
755.679	8984.37
756.017	9103.24
756.355	9221.42
756.693	9330.12
757.031	9543
757.368	9657.34
757.706	9797
758.044	9938.24
758.381	10060.5
758.719	10235.63
759.056	10396.08
759.394	10567.38
759.731	10662.29
760.068	10897.09
760.405	11062.73
760.743	11149.51
761.08	11373.01
761.417	11434.7
761.754	11682.15
762.091	11910.62
762.428	12025.42
762.765	12219.54
763.102	12437.61
763.438	12560.09
763.775	12675.12
764.112	12927.32
764.449	13126.18
764.785	13214.99
765.122	13376.12
765.458	13544.02
765.795	13707.86
766.131	13868.08
766.467	14060.84
766.804	14235.08
767.14	14192.82
767.476	14495.86
767.812	14606.37
768.148	14745.57
768.485	14857.66
768.821	15023.08
769.157	15077.09
769.492	15270.53
769.828	15451.09
770.164	15531.54
770.5	15577.19
770.836	15831.65
771.171	15887.69
771.507	15930.85
771.842	16023.51
772.178	16289.71
772.513	16375.81
772.849	16461.01
773.184	16460.56
773.519	16657.16
773.855	16645.41
774.19	16761.11
774.525	16848.79
774.86	16883.6
775.195	17003.82
775.53	17107.09
775.865	17115.45
776.2	17096.25
776.535	17174.21
776.87	17266.41
777.205	17224.6
777.539	17276.35
777.874	17491.49
778.209	17374.2
778.543	17442.9
778.878	17347.76
779.212	17580.98
779.547	17538.95
779.881	17611.26
780.215	17605.16
780.55	17795.44
780.884	17669.11
781.218	17668.43
781.552	17675.67
781.886	17752.95
782.22	17654.42
782.554	17734.42
782.888	17673.63
783.222	17606.51
783.556	17634.31
783.889	17670.92
784.223	17628.21
784.557	17586.18
784.89	17631.37
785.224	17627.76
785.557	17605.61
785.891	17659.62
786.224	17667.08
786.558	17708.43
786.891	17530.81
787.224	17488.55
787.557	17525.84
787.891	17628.89
788.224	17567.65
788.557	17509.34
788.89	17485.39
789.223	17637.93
789.556	17515.22
789.888	17464.15
790.221	17430.47
790.554	17350.7
790.887	17341.89
791.219	17244.04
791.552	17340.76
791.884	17223.93
792.217	17239.29
792.549	17216.02
792.882	17141.89
793.214	17047.21
793.546	17175.34
793.879	17139.41
794.211	16976.93
794.543	17116.13
794.875	17052.4
795.207	17126.53
795.539	16949.81
795.871	17014.67
796.203	16959.53
796.535	16770.6
796.867	16868.45
797.198	16824.61
797.53	16848.12
797.862	16706.65
798.193	16724.5
798.525	16614.22
798.856	16661.45
799.188	16384.4
799.519	16401.35
799.85	16442.25
800.182	16381.91
800.513	16453.55
800.844	16345.98
801.175	16381.46
801.506	16343.04
801.837	16352.31
802.168	16200.68
802.499	16191.86
802.83	16186.44
803.161	16096.27
803.491	16123.84
803.822	16169.94
804.153	16098.98
804.483	15906.9
804.814	15911.87
805.145	15930.63
805.475	15925.88
805.805	15826.9
806.136	15821.25
806.466	15827.35
806.796	15842.49
807.126	15771.53
807.457	15717.52
807.787	15626.68
808.117	15627.81
808.447	15706.45
808.777	15598.21
809.107	15512.11
809.436	15562.27
809.766	15473.01
810.096	15460.58
810.426	15373.35
810.755	15496.06
811.085	15350.53
811.414	15338.55
811.744	15278.89
812.073	15235.5
812.403	15242.06
812.732	15158.22
813.061	15184.43
813.39	15041.61
813.719	14982.85
814.049	15189.63
814.378	15044.77
814.707	15043.42
815.036	15040.03
815.365	14944.44
815.693	14818.57
816.022	14833.25
816.351	14820.6
816.68	14761.84
817.008	14824.21
817.337	14705.8
817.665	14677.78
817.994	14663.77
818.322	14655.86
818.651	14620.83
818.979	14574.05
819.307	14645.46
819.636	14653.6
819.964	14562.07
820.292	14616.76
820.62	14572.7
820.948	14592.81
821.276	14570.44
821.604	14492.02
821.932	14516.43
822.259	14566.14
822.587	14492.47
822.915	14452.93
823.243	14550.55
823.57	14511
823.898	14485.01
824.225	14454.05
824.553	14515.97
824.88	14403.89
825.207	14589.64
825.535	14518.46
825.862	14528.18
826.189	14480.04
826.516	14518.69
826.843	14645.91
827.17	14588.06
827.497	14497.22
827.824	14602.75
828.151	14637.55
828.478	14570.89
828.805	14683.43
829.131	14573.37
829.458	14541.96
829.785	14457.22
830.111	14490.89
830.438	14650.43
830.764	14565.69
831.09	14650.66
831.417	14469.65
831.743	14479.82
832.069	14589.87
832.395	14509.65
832.722	14561.4
833.048	14474.39
833.374	14460.61
833.7	14403.21
834.026	14405.02
834.351	14521.4
834.677	14450.67
835.003	14484.11
835.329	14376.09
835.654	14419.71
835.98	14394.62
836.306	14397.56
836.631	14277.79
836.956	14345.36
837.282	14352.14
837.607	14277.34
837.932	14226.72
838.258	14276.21
838.583	14232.59
838.908	14200.95
839.233	14138.36
839.558	14132.48
839.883	14059.26
840.208	14091.35
840.533	14070.56
840.858	14054.52
841.182	14117.11
841.507	14037.57
841.832	14037.34
842.156	14066.72
842.481	14003.67
842.805	13978.81
843.13	13941.53
843.454	13874.86
843.778	13849.33
844.103	13689.33
844.427	13789.44
844.751	13789.21
845.075	13826.5
845.399	13678.48
845.723	13527.53
846.047	13571.82
846.371	13485.94
846.695	13563.46
847.019	13385.38
847.343	13332.28
847.666	13221.55
847.99	13195.11
848.313	13236.46
848.637	13112.17
848.96	13128.44
849.284	13093.41
849.607	13076.01
849.931	12965.05
850.254	12881.21
850.577	12905.62
850.9	12710.15
851.223	12772.29
851.546	12696.81
851.869	12575.69
852.192	12681.22
852.515	12542.01
852.838	12478.06
853.161	12559.64
853.483	12428.35
853.806	12297.5
854.129	12326.43
854.451	12333.43
854.774	12247.33
855.096	12105.64
855.419	12078.98
855.741	12102.03
856.063	12120.33
856.385	12109.94
856.708	11981.8
857.03	11951.75
857.352	11962.14
857.674	11977.74
857.996	11918.53
858.318	11824.52
858.64	11849.38
858.961	11735.26
859.283	11690.51
859.605	11705.43
859.926	11731.87
860.248	11659.1
860.57	11613.68
860.891	11616.39
861.212	11528.93
861.534	11557.86
861.855	11534.36
862.176	11502.04
862.498	11528.93
862.819	11422.95
863.14	11361.93
863.461	11366.45
863.782	11341.37
864.103	11445.32
864.424	11358.54
864.745	11273.57
865.065	11254.82
865.386	11238.09
865.707	11219.34
866.027	11214.59
866.348	11164.88
866.668	11145.89
866.989	11239
867.309	11011.66
867.63	11100.92
867.95	11104.76
868.27	11025.9
868.59	11046.91
868.91	11004.43
869.23	11024.31
869.55	10960.81
869.87	10990.42
870.19	10945.45
870.51	10952
870.83	10989.06
871.15	10859.8
871.469	10878.33
871.789	10936.41
872.109	10934.37
872.428	10875.62
872.748	10853.7
873.067	10791.33
873.386	10902.51
873.706	10816.41
874.025	10690.54
874.344	10677.88
874.663	10738.67
874.982	10703.19
875.301	10687.15
875.62	10738.22
875.939	10673.36
876.258	10665.91
876.577	10595.85
876.896	10660.71
877.214	10606.25
877.533	10552.01
877.852	10520.6
878.17	10537.55
878.489	10577.55
878.807	10470.2
879.125	10501.16
879.444	10423.88
879.762	10504.33
880.08	10468.85
880.398	10451.67
880.716	10472.01
881.034	10447.83
881.352	10372.35
881.67	10314.5
881.988	10383.65
882.306	10295.75
882.624	10288.74
882.941	10221.85
883.259	10195.64
883.577	10174.39
883.894	10183.43
884.212	10173.94
884.529	10132.36
884.846	10084
885.164	10065.92
885.481	10012.36
885.798	10032.25
886.115	9976.66
886.432	9991.8
886.75	9995.64
887.067	9982.53
887.383	9919.26
887.7	9917.45
888.017	9860.5
888.334	9936.89
888.651	9808.53
888.967	9874.74
889.284	9724.46
889.6	9831.35
889.917	9695.31
890.233	9728.53
890.55	9670
890.866	9712.94
891.182	9646.5
891.498	9575.99
891.815	9543
892.131	9477.01
892.447	9495.32
892.763	9433.4
893.079	9454.19
893.395	9384.58
893.71	9365.38
894.026	9383
894.342	9353.4
894.657	9293.06
894.973	9218.94
895.289	9260.97
895.604	9240.63
895.92	9120.64
896.235	9094.65
896.55	9119.28
896.865	9081.54
897.181	9086.51
897.496	9104.14
897.811	8987.53
898.126	8949.34
898.441	8940.53
898.756	8903.01
899.071	8896.69
899.386	8889.68
899.7	8785.28
900.015	8740.53
900.33	8677.48
900.644	8636.58
900.959	8626.64
901.273	8671.16
901.588	8561.78
901.902	8575.79
902.216	8552.97
902.531	8514.78
902.845	8447.21
903.159	8452.86
903.473	8444.95
903.787	8381.22
904.101	8376.02
904.415	8342.8
904.729	8297.38
905.042	8269.58
905.356	8176.25
905.67	8190.26
905.984	8154.33
906.297	8152.07
906.611	8079.31
906.924	8077.95
907.237	8099.19
907.551	8032.98
907.864	8025.75
908.177	8023.94
908.491	7933.32
908.804	7893.1
909.117	7851.52
909.43	7759.09
909.743	7715.93
910.056	7818.52
910.368	7697.4
910.681	7635.25
910.994	7599.55
911.307	7567
911.619	7560.9
911.932	7601.58
912.244	7507.57
912.557	7502.83
912.869	7508.7
913.181	7426.67
913.494	7431.64
913.806	7368.14
914.118	7325.65
914.43	7252.66
914.742	7276.16
915.054	7229.61
915.366	7257.18
915.678	7218.31
915.99	7128.37
916.302	7135.15
916.613	7015.15
916.925	7045.89
917.236	7071.88
917.548	7089.05
917.859	6960.24
918.171	6909.17
918.482	6892.9
918.794	6906.46
919.105	6878.89
919.416	6851.32
919.727	6803.41
920.038	6829.85
920.349	6783.52
920.66	6717.76
920.971	6690.42
921.282	6707.37
921.593	6675.5
921.903	6624.88
922.214	6579.01
922.525	6579.46
922.835	6532.46
923.146	6563.19
923.456	6483.87
923.767	6478.45
924.077	6421.72
924.387	6402.06
924.697	6363.19
925.008	6325
925.318	6336.75
925.628	6291.56
925.938	6302.86
926.248	6273.93
926.558	6221.96
926.867	6197.77
927.177	6215.18
927.487	6137.21
927.796	6083.43
928.106	6093.37
928.416	6128.62
928.725	6000.94
929.034	6054.73
929.344	6036.42
929.653	6022.86
929.962	5970.66
930.271	5893.6
930.581	5891.34
930.89	5882.98
931.199	5870.78
931.508	5853.6
931.817	5812.47
932.125	5782.42
932.434	5761.18
932.743	5747.39
933.051	5705.81
933.36	5685.02
933.669	5732.25
933.977	5624
934.286	5623.78
934.594	5617.23
934.902	5618.81
935.21	5489.32
935.519	5533.39
935.827	5497.68
936.135	5492.93
936.443	5451.13
936.751	5435.08
937.059	5436.89
937.367	5369.1
937.674	5343.33
937.982	5318.25
938.29	5316.44
938.597	5302.66
938.905	5245.03
939.213	5291.13
939.52	5233.96
939.827	5214.3
940.135	5221.08
940.442	5192.6
940.749	5148.08
941.056	5125.71
941.363	5113.96
941.67	5092.72
941.977	5030.8
942.284	5023.12
942.591	5012.5
942.898	4975.89
943.205	5031.03
943.511	4930.46
943.818	4963.68
944.125	4881.65
944.431	4896.79
944.738	4919.16
945.044	4835.1
945.35	4850.69
945.657	4827.64
945.963	4800.07
946.269	4783.35
946.575	4759.85
946.881	4737.7
947.187	4724.82
947.493	4680.53
947.799	4643.69
948.105	4683.92
948.41	4613.18
948.716	4617.03
949.022	4587.2
949.327	4613.18
949.633	4507.88
949.938	4510.14
950.244	4554.43
950.549	4478.72
950.854	4495.22
951.16	4475.79
951.465	4448.22
951.77	4440.76
952.075	4405.05
952.38	4372.74
952.685	4366.41
952.99	4304.72
953.294	4319.63
953.599	4284.38
953.904	4283.7
954.209	4211.84
954.513	4270.82
954.818	4273.31
955.122	4231.05
955.426	4198.05
955.731	4189.47
956.035	4144.27
956.339	4103.82
956.643	4113.76
956.948	4103.14
957.252	4102.46
957.556	4090.94
957.86	4079.64
958.163	4058.62
958.467	4047.32
958.771	3994.44
959.075	4014.1
959.378	3971.39
959.682	3984.27
959.985	3936.14
960.289	3925.74
960.592	3918.51
960.896	3879.19
961.199	3855.46
961.502	3831.96
961.805	3834.9
962.108	3787.67
962.411	3784.28
962.714	3766.43
963.017	3785.18
963.32	3791.51
963.623	3748.35
963.926	3746.54
964.228	3743.15
964.531	3682.81
964.833	3709.03
965.136	3655.02
965.438	3646.88
965.741	3618.41
966.043	3638.97
966.345	3632.87
966.648	3589.93
966.95	3591.97
967.252	3526.66
967.554	3523.72
967.856	3511.29
968.158	3500.9
968.46	3495.25
968.761	3448.24
969.063	3457.51
969.365	3424.97
969.666	3417.73
969.968	3411.18
970.269	3424.29
970.571	3410.5
970.872	3351.97
971.174	3365.08
971.475	3347.91
971.776	3337.51
972.077	3290.28
972.378	3298.87
972.679	3323.27
972.98	3320.34
973.281	3260.23
973.582	3245.76
973.883	3215.03
974.183	3208.47
974.484	3235.59
974.785	3202.37
975.085	3181.13
975.386	3165.99
975.686	3154.01
975.986	3148.36
976.287	3118.08
976.587	3053.9
976.887	3080.12
977.187	3120.12
977.487	3047.35
977.787	3061.81
978.087	2988.37
978.387	3039.67
978.687	2981.59
978.987	3002.38
979.286	2972.55
979.586	2977.07
979.885	2963.06
980.185	2934.58
980.484	2917.18
980.784	2928.26
981.083	2878.09
981.382	2869.73
981.682	2853.68
981.981	2832.21
982.28	2848.03
982.579	2828.82
982.878	2847.13
983.177	2799.45
983.475	2844.42
983.774	2759.22
984.073	2782.72
984.372	2759.67
984.67	2751.99
984.969	2736.4
985.267	2711.76
985.566	2731.43
985.864	2709.51
986.162	2684.42
986.461	2705.66
986.759	2667.25
987.057	2661.14
987.355	2605.33
987.653	2637.42
987.951	2614.82
988.249	2588.6
988.547	2617.76
988.844	2587.7
989.142	2613.01
989.44	2549.74
989.737	2564.88
990.035	2523.75
990.332	2544.54
990.63	2469.74
990.927	2520.58
991.224	2486.91
991.521	2488.04
991.819	2456.18
992.116	2443.3
992.413	2421.15
992.71	2434.26
993.006	2393.81
993.303	2417.99
993.6	2397.2
993.897	2412.79
994.193	2367.14
994.49	2354.26
994.787	2327.82
995.083	2326.24
995.379	2314.71
995.676	2315.62
995.972	2295.05
996.268	2271.55
996.565	2276.07
996.861	2242.17
997.157	2261.16
997.453	2241.49
997.749	2238.56
998.044	2220.48
998.34	2243.53
998.636	2201.5
998.932	2182.74
999.227	2178.45
999.523	2153.59
999.818	2141.61
1000.114	2154.27
1000.409	2125.34
1000.704	2103.42
1001	2105.91
1001.295	2070.65
1001.59	2080.37
1001.885	2062.29
1002.18	2089.63
1002.475	2073.82
1002.77	2054.61
1003.065	2040.6
1003.359	2035.85
1003.654	2010.54
1003.949	2008.05
1004.243	1988.39
1004.538	1979.35
1004.832	1975.96
1005.127	1972.12
1005.421	1951.11
1005.715	1938.68
1006.009	1924.67
1006.304	1926.93
1006.598	1896.87
1006.892	1871.56
1007.186	1890.54
1007.48	1858.23
1007.773	1839.25
1008.067	1840.15
1008.361	1822.3
1008.655	1833.82
1008.948	1784.33
1009.242	1785.46
1009.535	1807.83
1009.829	1774.61
1010.122	1749.98
1010.415	1773.26
1010.708	1747.04
1011.001	1761.51
1011.295	1749.76
1011.588	1719.93
1011.881	1691.68
1012.173	1701.62
1012.466	1700.94
1012.759	1688.97
1013.052	1679.02
1013.344	1665.46
1013.637	1667.72
1013.93	1640.61
1014.222	1613.94
1014.514	1639.7
1014.807	1617.1
1015.099	1603.77
1015.391	1620.72
1015.683	1581.4
1015.976	1606.71
1016.268	1564.22
1016.56	1536.2
1016.851	1547.05
1017.143	1551.34
1017.435	1536.2
1017.727	1542.3
1018.018	1517.9
1018.31	1509.08
1018.602	1482.87
1018.893	1491.68
1019.185	1480.38
1019.476	1448.3
1019.767	1454.4
1020.058	1459.59
1020.35	1420.27
1020.641	1443.32
1020.932	1423.89
1021.223	1394.51
1021.514	1397
1021.804	1399.93
1022.095	1386.38
1022.386	1369.88
1022.677	1352.48
1022.967	1370.11
1023.258	1317.23
1023.548	1305.25
1023.839	1326.26
1024.129	1304.8
1024.419	1309.09
1024.709	1325.36
1025	1296.21
1025.29	1285.59
1025.58	1279.94
1025.87	1272.25
1026.16	1256.89
1026.449	1273.84
1026.739	1248.98
1027.029	1238.81
1027.319	1231.35
1027.608	1221.41
1027.898	1218.47
1028.187	1230
1028.477	1215.53
1028.766	1182.54
1029.055	1182.09
1029.344	1150.45
1029.634	1144.8
1029.923	1148.87
1030.212	1161.75
1030.501	1142.09
1030.79	1162.43
1031.078	1092.15
1031.367	1129.21
1031.656	1128.3
1031.945	1112.26
1032.233	1089.89
1032.522	1083.33
1032.81	1118.13
1033.099	1054.86
1033.387	1065.48
1033.675	1066.38
1033.963	1067.29
1034.251	1069.55
1034.54	1046.5
1034.828	1023
1035.116	1048.53
1035.403	1026.16
1035.691	1035.65
1035.979	1026.39
1036.267	1009.66
1036.554	957.46
1036.842	989.1
1037.129	981.87
1037.417	975.09
1037.704	952.72
1037.992	1001.53
1038.279	970.34
1038.566	980.51
1038.853	980.51
1039.14	980.51
