Data from hue_290_FLMS001491_00092.txt Node
Date: Tue Feb 07 15:53:44 GMT 2017
User: dcchb
Spectrometer: FLMS00149
Trigger mode: 0
Integration Time (sec): 2.000000E-2
Scans to average: 10
Electric dark correction enabled: true
Nonlinearity correction enabled: false
Boxcar width: 0
XAxis mode: Wavelengths
Number of Pixels in Spectrum: 2048
>>>>>Begin Spectral Data<<<<<
341.393	-6.3
341.776	-6.3
342.16	-6.3
342.543	-60.08
342.927	-61.44
343.31	-63.92
343.693	-75.45
344.077	-61.67
344.46	-70.7
344.843	-60.31
345.226	-46.75
345.61	-30.71
345.993	-25.06
346.376	11.78
346.759	7.94
347.142	24.66
347.525	38.22
347.908	68.28
348.291	73.25
348.674	105.79
349.057	104.66
349.44	140.14
349.823	132.23
350.206	174.71
350.588	183.98
350.971	208.38
351.354	212
351.737	236.63
352.119	239.12
352.502	252.45
352.884	267.59
353.267	268.27
353.65	295.16
354.032	290.87
354.414	294.26
354.797	307.14
355.179	310.3
355.562	326.8
355.944	319.34
356.326	320.7
356.709	342.84
357.091	355.5
357.473	344.65
357.855	336.74
358.238	348.72
358.62	342.17
359.002	324.99
359.384	332
359.766	332.45
360.148	317.53
360.53	312.34
360.912	333.35
361.294	330.64
361.676	326.12
362.057	308.04
362.439	340.58
362.821	334.26
363.203	320.7
363.584	339
363.966	328.16
364.348	319.57
364.729	340.36
365.111	308.49
365.493	293.35
365.874	312.34
366.256	316.63
366.637	328.16
367.019	289.51
367.4	309.62
367.781	315.5
368.163	324.31
368.544	302.62
368.925	305.78
369.306	333.58
369.688	317.31
370.069	302.17
370.45	295.16
370.831	327.7
371.212	316.4
371.593	296.52
371.974	291.77
372.355	334.71
372.736	313.01
373.117	314.14
373.498	325.22
373.879	310.08
374.26	332.22
374.641	310.08
375.021	315.05
375.402	325.22
375.783	337.87
376.163	354.82
376.544	317.76
376.925	323.41
377.305	312.56
377.686	328.83
378.066	318.44
378.447	337.19
378.827	306.46
379.208	339.91
379.588	342.39
379.968	332.22
380.349	348.27
380.729	331.54
381.109	322.96
381.489	342.84
381.87	326.8
382.25	341.49
382.63	335.39
383.01	345.56
383.39	350.75
383.77	350.98
384.15	338.32
384.53	352.11
384.91	359.57
385.29	335.84
385.67	345.1
386.049	331.54
386.429	360.7
386.809	351.88
387.189	340.13
387.568	338.32
387.948	347.36
388.328	340.81
388.707	364.54
389.087	340.81
389.466	357.76
389.846	333.13
390.225	357.31
390.605	354.37
390.984	362.73
391.363	381.71
391.743	355.95
392.122	371.77
392.501	395.5
392.881	367.48
393.26	369.74
393.639	372.22
394.018	393.01
394.397	401.37
394.776	396.85
395.155	390.53
395.534	395.95
395.913	404.76
396.292	393.69
396.671	402.05
397.05	390.98
397.429	407.02
397.808	426.46
398.186	399.79
398.565	403.86
398.944	411.54
399.323	403.41
399.701	410.41
400.08	416.97
400.458	405.89
400.837	411.99
401.215	424.2
401.594	433.24
401.972	430.53
402.351	430.98
402.729	422.62
403.107	424.2
403.486	449.96
403.864	464.65
404.242	448.15
404.62	460.13
404.999	429.17
405.377	466.68
405.755	456.74
406.133	461.94
406.511	469.39
406.889	497.19
407.267	458.77
407.645	464.65
408.023	486.57
408.401	478.66
408.779	486.57
409.156	491.09
409.534	521.6
409.912	510.52
410.29	514.82
410.667	546.45
411.045	520.01
411.422	536.06
411.8	556.4
412.178	565.89
412.555	555.49
412.933	542.16
413.31	571.54
413.687	584.42
414.065	584.65
414.442	581.93
414.819	600.69
415.197	647.02
415.574	609.28
415.951	647.02
416.328	638.88
416.705	653.57
417.082	656.96
417.46	647.69
417.837	697.86
418.214	663.06
418.591	662.84
418.967	707.35
419.344	673
419.721	703.29
420.098	726.34
420.475	724.75
420.852	738.54
421.228	738.77
421.605	767.69
421.982	751.65
422.358	771.99
422.735	770.63
423.111	782.83
423.488	769.27
423.864	783.06
424.241	821.93
424.617	823.96
424.994	796.84
425.37	852.44
425.746	842.72
426.123	866.45
426.499	864.41
426.875	877.52
427.251	905.77
427.627	894.92
428.003	923.17
428.379	917.52
428.756	907.8
429.132	938.31
429.507	960.68
429.883	947.35
430.259	984.86
430.635	999.55
431.011	980.57
431.387	1027.8
431.763	1011.08
432.138	1047.46
432.514	1051.53
432.89	1060.34
433.265	1088.14
433.641	1071.86
434.016	1071.41
434.392	1082.49
434.767	1125.2
435.143	1095.14
435.518	1158.42
435.894	1166.78
436.269	1175.14
436.644	1188.25
437.02	1222.82
437.395	1204.29
437.77	1227.79
438.145	1258.07
438.52	1270.5
438.895	1268.24
439.271	1294.68
439.646	1284.51
440.021	1325.42
440.395	1331.07
440.77	1272.09
441.145	1339.2
441.52	1364.51
441.895	1346.89
442.27	1349.82
442.645	1340.33
443.019	1401.12
443.394	1376.49
443.769	1378.07
444.143	1378.52
444.518	1402.03
444.892	1417.39
445.267	1408.35
445.641	1421.23
446.016	1452.87
446.39	1440.89
446.764	1465.07
447.139	1451.06
447.513	1456.71
447.887	1461.23
448.262	1449.26
448.636	1477.73
449.01	1485.86
449.384	1501.23
449.758	1516.37
450.132	1521.57
450.506	1510.72
450.88	1518.41
451.254	1543.49
451.628	1542.13
452.002	1581.23
452.376	1543.94
452.75	1536.49
453.123	1585.07
453.497	1631.17
453.871	1606.54
454.244	1652.19
454.618	1646.09
454.992	1651.96
455.365	1667.33
455.739	1694
456.112	1695.12
456.486	1694.45
456.859	1728.57
457.232	1739.87
457.606	1757.72
457.979	1746.65
458.352	1756.37
458.725	1793.43
459.099	1793.2
459.472	1827.55
459.845	1837.49
460.218	1844.95
460.591	1862.13
460.964	1856.93
461.337	1873.65
461.71	1913.2
462.083	1942.58
462.456	1955.91
462.829	1952.97
463.201	1980.77
463.574	1974.44
463.947	1984.16
464.32	2050.82
464.692	2026.19
465.065	2067.54
465.438	2091.72
465.81	2092.63
466.183	2103.48
466.555	2152.06
466.928	2143.25
467.3	2158.62
467.672	2204.94
468.045	2198.16
468.417	2180.08
468.789	2210.37
469.161	2251.27
469.534	2327.42
469.906	2321.78
470.278	2335.56
470.65	2348.44
471.022	2381.43
471.394	2434.54
471.766	2444.26
472.138	2448.78
472.51	2496.69
472.882	2537.14
473.253	2562.9
473.625	2571.49
473.997	2628.66
474.369	2599.06
474.74	2633.86
475.112	2711.37
475.484	2690.58
475.855	2719.05
476.227	2746.85
476.598	2807.86
476.97	2837.02
477.341	2854.87
477.713	2882.21
478.084	2904.13
478.455	2988.65
478.827	2953.85
479.198	3057.12
479.569	3048.99
479.94	3090.57
480.311	3108.2
480.682	3179.83
481.053	3223.67
481.424	3279.72
481.795	3295.99
482.166	3299.6
482.537	3391.58
482.908	3425.02
483.279	3445.36
483.65	3497.11
484.021	3506.6
484.391	3551.8
484.762	3532.36
485.133	3596.77
485.503	3687.16
485.874	3717.22
486.244	3677.45
486.615	3736.43
486.985	3793.6
487.356	3837.44
487.726	3870.89
488.097	3929.19
488.467	3965.12
488.837	4011.45
489.207	4043.09
489.578	4097.32
489.948	4116.53
490.318	4182.52
490.688	4152.01
491.058	4214.38
491.428	4258.67
491.798	4272.23
492.168	4335.51
492.538	4381.16
492.908	4391.78
493.278	4417.31
493.648	4395.62
494.017	4464.54
494.387	4492.34
494.757	4561.26
495.126	4610.98
495.496	4596.97
495.866	4617.08
496.235	4681.94
496.605	4698.44
496.974	4698.21
497.344	4752.9
497.713	4753.58
498.082	4801.48
498.452	4816.4
498.821	4873.12
499.19	4825.89
499.559	4882.39
499.928	4871.31
500.298	4916.96
500.667	4999.67
501.036	4941.59
501.405	5017.75
501.774	5000.57
502.143	5018.2
502.512	5004.64
502.88	5106.56
503.249	5075.6
503.618	5124.19
503.987	5107.46
504.356	5150.63
504.724	5136.84
505.093	5136.39
505.462	5205.32
505.83	5193.56
506.199	5233.56
506.567	5300
506.936	5295.93
507.304	5326.44
507.672	5309.72
508.041	5309.72
508.409	5345.65
508.777	5386.33
509.145	5406.21
509.514	5434.46
509.882	5420
510.25	5438.3
510.618	5429.94
510.986	5523.27
511.354	5545.19
511.722	5564.4
512.09	5551.97
512.458	5614.8
512.826	5641.46
513.193	5649.15
513.561	5655.02
513.929	5690.95
514.297	5703.38
514.664	5726.21
515.032	5739.76
515.4	5761.91
515.767	5780.89
516.135	5780.89
516.502	5740.67
516.869	5844.62
517.237	5864.51
517.604	5791.29
517.972	5883.49
518.339	5843.49
518.706	5854.34
519.073	5915.58
519.44	5884.39
519.808	5944.96
520.175	5965.75
520.542	6041.45
520.909	6039.87
521.276	6019.31
521.643	6087.1
522.009	6088.23
522.376	6118.29
522.743	6189.47
523.11	6213.2
523.477	6212.52
523.843	6253.88
524.21	6300.88
524.577	6280.09
524.943	6323.03
525.31	6300.43
525.676	6403.48
526.043	6384.95
526.409	6452.06
526.776	6440.76
527.142	6473.98
527.508	6535.22
527.874	6537.94
528.241	6547.2
528.607	6554.21
528.973	6664.71
529.339	6676.24
529.705	6711.72
530.071	6802.56
530.437	6790.36
530.803	6760.75
531.169	6810.02
531.535	6783.35
531.901	6814.09
532.267	6872.16
532.632	6916.23
532.998	6891.6
533.364	6977.02
533.73	6946.74
534.095	6990.13
534.461	7018.37
534.826	7023.8
535.192	7065.15
535.557	7071.48
535.923	7132.5
536.288	7106.28
536.653	7105.38
537.019	7064.02
537.384	7142.21
537.749	7184.25
538.114	7209.33
538.479	7246.62
538.845	7242.1
539.21	7248.43
539.575	7258.37
539.94	7252.72
540.305	7321.19
540.67	7394.64
541.034	7270.57
541.399	7356.67
541.764	7390.79
542.129	7400.06
542.494	7381.76
542.858	7442.77
543.223	7456.56
543.587	7562.54
543.952	7553.5
544.316	7537.01
544.681	7557.8
545.045	7596.89
545.41	7603.22
545.774	7736.55
546.138	7656.1
546.503	7667.17
546.867	7698.81
547.231	7752.82
547.595	7697.45
547.959	7772.71
548.324	7762.08
548.688	7783.1
549.052	7816.55
549.416	7858.13
549.779	7816.55
550.143	7927.73
550.507	7905.13
550.871	7920.27
551.235	7856.54
551.599	7977.67
551.962	7997.11
552.326	7987.61
552.689	8009.54
553.053	8029.2
553.417	8004.11
553.78	8043.88
554.143	8031.46
554.507	8096.76
554.87	8152.81
555.234	8099.25
555.597	8150.77
555.96	8152.36
556.323	8167.72
556.686	8243.65
557.05	8266.03
557.413	8241.39
557.776	8222.18
558.139	8303.09
558.502	8322.97
558.865	8287.95
559.228	8329.07
559.59	8382.41
559.953	8357.32
560.316	8436.87
560.679	8429.41
561.041	8531.78
561.404	8533.82
561.767	8530.43
562.129	8486.13
562.492	8624.89
562.854	8598.67
563.217	8628.05
563.579	8652.68
563.941	8683.19
564.304	8711.44
564.666	8748.95
565.028	8689.74
565.39	8734.71
565.753	8795.5
566.115	8839.57
566.477	8911.21
566.839	8816.29
567.201	8925.67
567.563	8917.53
567.925	9051.32
568.287	8991.2
568.648	9057.87
569.01	9086.34
569.372	9105.1
569.734	9131.77
570.095	9178.54
570.457	9145.78
570.819	9261.25
571.18	9253.12
571.542	9286.34
571.903	9282.5
572.265	9301.7
572.626	9371.08
572.987	9416.5
573.349	9397.97
573.71	9518.42
574.071	9539.89
574.432	9545.77
574.794	9652.66
575.155	9707.12
575.516	9688.36
575.877	9779.66
576.238	9808.13
576.599	9941.69
576.96	9887
577.32	9925.19
577.681	10054.68
578.042	10057.16
578.403	10142.59
578.763	10164.51
579.124	10302.13
579.485	10310.72
579.845	10373.09
580.206	10445.63
580.566	10459.64
580.927	10562.69
581.287	10684.49
581.648	10686.3
582.008	10915
582.368	10926.29
582.728	11038.83
583.089	11069.57
583.449	11166.51
583.809	11244.03
584.169	11389.33
584.529	11460.74
584.889	11691.7
585.249	11659.83
585.609	11710.45
585.969	11908.19
586.329	12025.02
586.688	12123.55
587.048	12239.71
587.408	12277.22
587.768	12378.23
588.127	12514.28
588.487	12624.1
588.846	12861.38
589.206	12890.31
589.565	13056.63
589.925	13260.92
590.284	13356.97
590.643	13455.95
591.003	13642.61
591.362	13784.75
591.721	13903.84
592.08	14047.79
592.44	14275.81
592.799	14342.93
593.158	14465.86
593.517	14544.5
593.876	14786.53
594.235	14819.98
594.593	15012.06
594.952	15156.01
595.311	15207.31
595.67	15400.98
596.029	15654.53
596.387	15819.95
596.746	15883.9
597.104	15895.66
597.463	16068.31
597.822	16240.51
598.18	16388.07
598.538	16471.23
598.897	16573.83
599.255	16736.09
599.613	16962.75
599.972	16947.61
600.33	17164.55
600.688	17155.96
601.046	17291.33
601.404	17580.36
601.762	17598.89
602.12	17771.99
602.478	17895.83
602.836	18023.28
603.194	18059.67
603.552	18151.64
603.91	18116.61
604.268	18393.44
604.625	18393.89
604.983	18580.1
605.341	18561.12
605.698	18737.61
606.056	18801.12
606.413	18910.94
606.771	18967.89
607.128	19026.87
607.485	19118.85
607.843	19188.22
608.2	19284.49
608.557	19440.2
608.914	19483.58
609.272	19641.09
609.629	19672.28
609.986	19961.76
610.343	19829.11
610.7	20023.91
611.057	19940.97
611.414	20021.65
611.771	20114.08
612.127	20260.06
612.484	20319.04
612.841	20347.29
613.198	20405.82
613.554	20457.12
613.911	20644.01
614.267	20643.55
614.624	20722.42
614.98	20864.34
615.337	20926.94
615.693	21015.75
616.05	21011.91
616.406	21111.34
616.762	21145.46
617.118	21115.86
617.475	21164.44
617.831	21178.23
618.187	21358.11
618.543	21294.38
618.899	21382.97
619.255	21528.95
619.611	21474.49
619.967	21665.9
620.323	21660.93
620.678	21614.83
621.034	21709.97
621.39	21669.74
621.746	21574.83
622.101	21951.09
622.457	21760.81
622.812	21853.24
623.168	21865.67
623.523	21934.82
623.879	22065.21
624.234	21909.06
624.589	21993.12
624.945	22025.66
625.3	22034.03
625.655	22072.89
626.01	22072.67
626.365	22072.89
626.72	22060.01
627.075	22148.6
627.43	22147.47
627.785	22179.78
628.14	22202.83
628.495	22258.2
628.85	22229.73
629.205	22130.29
629.559	22264.98
629.914	22060.69
630.269	22244.64
630.623	22120.12
630.978	22129.16
631.332	22253.45
631.687	22251.19
632.041	22132.78
632.396	22201.48
632.75	22098.66
633.104	22235.6
633.459	22057.98
633.813	22067.7
634.167	22090.75
634.521	22126.68
634.875	22050.97
635.229	22083.97
635.583	21974.59
635.937	22046.45
636.291	21963.74
636.645	21956.29
636.999	21939.11
637.352	22191.54
637.706	21881.03
638.06	22047.81
638.413	21976.17
638.767	21897.53
639.121	22010.07
639.474	21741.83
639.828	21820.92
640.181	21903.63
640.534	21868.15
640.888	21874.03
641.241	21721.27
641.594	21793.13
641.947	21888.49
642.301	21834.03
642.654	21783.41
643.007	21872.45
643.36	21725.33
643.713	21772.56
644.066	21837.65
644.419	21773.69
644.771	21514.26
645.124	21420.03
645.477	21437.43
645.83	21304.1
646.182	21177.55
646.535	21136.87
646.888	21194.27
647.24	21010.32
647.593	21245.8
647.945	21111.56
648.298	21066.82
648.65	20981.85
649.002	21066.37
649.355	21194.5
649.707	21157.44
650.059	21314.5
650.411	21404.89
650.763	21342.07
651.115	21735.73
651.467	21728.27
651.819	21721.94
652.171	21782.96
652.523	21613.7
652.875	21528.05
653.227	21501.84
653.578	21697.54
653.93	21715.84
654.282	21494.15
654.633	21559.69
654.985	21611.66
655.337	21613.02
655.688	21578.67
656.039	21692.11
656.391	21578.67
656.742	21601.27
657.094	21551.78
657.445	21642.62
657.796	21594.49
658.147	21606.47
658.498	21637.2
658.849	21675.39
659.2	21624.09
659.551	21631.32
659.902	21642.17
660.253	21584.32
660.604	21674.49
660.955	21552
661.306	21604.21
661.656	21621.38
662.007	21694.37
662.358	21655.05
662.708	21705.45
663.059	21703.41
663.409	21510.42
663.76	21756.74
664.11	21732.34
664.461	21708.84
664.811	21697.76
665.161	21721.27
665.511	21625.67
665.862	21646.46
666.212	21751.32
666.562	21767.14
666.912	21697.54
667.262	21744.99
667.612	21713.13
667.962	21707.93
668.312	21659.35
668.662	21737.08
669.011	21735.05
669.361	21714.49
669.711	21749.96
670.06	21647.59
670.41	21652.34
670.76	21594.49
671.109	21679.46
671.459	21599.23
671.808	21544.77
672.157	21580.48
672.507	21457.77
672.856	21474.94
673.205	21439.92
673.554	21600.59
673.904	21425.23
674.253	21654.6
674.602	21464.32
674.951	21230.2
675.3	21116.08
675.649	21517.2
675.998	21407.6
676.346	21365.34
676.695	21430.43
677.044	21355.4
677.393	21406.25
677.741	21496.19
678.09	21311.33
678.438	21237.89
678.787	21221.84
679.135	21307.72
679.484	21205.35
679.832	21279.92
680.181	21096.42
680.529	21120.6
680.877	21100.49
681.225	21039.93
681.573	21131.22
681.922	20968.52
682.27	20947.95
682.618	20889.2
682.966	20985.92
683.314	20956.77
683.661	20855.3
684.009	20773.04
684.357	20709.09
684.705	20661.86
685.053	20778.01
685.4	20627.96
685.748	20571.01
686.095	20569.2
686.443	20531.47
686.79	20439.26
687.138	20484.01
687.485	20439.04
687.832	20325.6
688.18	20378.02
688.527	20255.77
688.874	20199.27
689.221	20097.8
689.568	20105.26
689.915	20073.85
690.262	19996.56
690.609	19953.18
690.956	19902.1
691.303	19911.37
691.65	19824.14
691.997	19706.18
692.344	19681.32
692.69	19644.71
693.037	19586.18
693.383	19477.93
693.73	19612.17
694.077	19364.72
694.423	19390.48
694.769	19298.28
695.116	19206.08
695.462	19263.48
695.808	19326.75
696.155	19237.71
696.501	19065.52
696.847	19023.71
697.193	18872.75
697.539	18843.6
697.885	18853.32
698.231	18798.4
698.577	18621.91
698.923	18683.15
699.269	18488.81
699.614	18443.16
699.96	18412.65
700.306	18435.7
700.651	18276.38
700.997	18232.32
701.342	18271.19
701.688	18202.94
702.033	18156.61
702.379	18028.71
702.724	17955.71
703.069	17991.87
703.415	17751.43
703.76	17872.1
704.105	17760.01
704.45	17758.43
704.795	17648.15
705.14	17523.64
705.485	17548.04
705.83	17463.75
706.175	17514.37
706.52	17391.44
706.865	17412.45
707.209	17281.61
707.554	17160.93
707.899	17289.29
708.243	17134.49
708.588	17106.92
708.932	16974.5
709.277	16977.89
709.621	17064.21
709.966	16845.46
710.31	16953.71
710.654	16802.98
710.998	16785.35
711.342	16748.97
711.687	16674.84
712.031	16620.83
712.375	16627.61
712.719	16604.34
713.063	16628.97
713.407	16630.1
713.75	16494.28
714.094	16542.19
714.438	16326.6
714.782	16494.96
715.125	16274.85
715.469	16399.37
715.812	16292.71
716.156	16258.81
716.499	16175.65
716.843	16175.65
717.186	16198.7
717.53	16153.5
717.873	16259.26
718.216	16093.62
718.559	16080.51
718.902	15910.12
719.246	16018.36
719.589	15920.97
719.932	15883.68
720.275	15970.23
720.617	15925.49
720.96	15904.02
721.303	15960.96
721.646	15952.6
721.989	15763.46
722.331	15830.8
722.674	15811.82
723.016	15820.18
723.359	15699.73
723.701	15702.89
724.044	15648.88
724.386	15612.73
724.729	15769.56
725.071	15558.04
725.413	15615.89
725.755	15621.54
726.097	15545.61
726.439	15512.61
726.782	15504.93
727.124	15602.78
727.465	15533.41
727.807	15408.66
728.149	15437.81
728.491	15470.81
728.833	15504.03
729.175	15485.72
729.516	15384.48
729.858	15354.65
730.199	15392.39
730.541	15383.35
730.882	15365.5
731.224	15507.87
731.565	15335.22
731.906	15360.75
732.248	15311.04
732.589	15335.22
732.93	15291.38
733.271	15312.39
733.612	15323.24
733.953	15323.69
734.294	15296.35
734.635	15174.54
734.976	15275.56
735.317	15205.5
735.658	15232.62
735.999	15233.3
736.339	15220.42
736.68	15336.12
737.021	15301.77
737.361	15316.91
737.702	15371.15
738.042	15282.56
738.383	15264.71
738.723	15300.19
739.063	15271.27
739.404	15331.83
739.744	15324.6
740.084	15267.42
740.424	15341.77
740.764	15281.89
741.104	15365.73
741.444	15326.86
741.784	15297.93
742.124	15379.06
742.464	15379.74
742.804	15341.09
743.143	15367.08
743.483	15427.19
743.823	15308.1
744.162	15422.45
744.502	15474.2
744.841	15368.89
745.181	15511.26
745.52	15478.27
745.86	15552.84
746.199	15635.78
746.538	15681.42
746.877	15683.01
747.216	15718.94
747.556	15747.18
747.895	15797.13
748.234	15926.62
748.573	15859.27
748.911	15902.43
749.25	15995.31
749.589	16085.26
749.928	16133.39
750.267	16274.18
750.605	16283.67
750.944	16315.08
751.283	16327.28
751.621	16423.78
751.96	16539.25
752.298	16531.34
752.636	16667.84
752.975	16728.18
753.313	16733.15
753.651	17005
753.989	16908.28
754.327	17049.52
754.666	17147.15
755.004	17357.09
755.342	17358.89
755.679	17432.11
756.017	17536.29
756.355	17617.64
756.693	17662.39
757.031	17947.13
757.368	17982.83
757.706	18048.37
758.044	18085.88
758.381	18230.96
758.719	18350.05
759.056	18524.74
759.394	18494.46
759.731	18553.89
760.068	18683.38
760.405	18726.77
760.743	18813.32
761.08	19034.1
761.417	18949.36
761.754	19099.19
762.091	19231.39
762.428	19256.92
762.765	19328.56
763.102	19572.62
763.438	19559.06
763.775	19486.75
764.112	19738.49
764.449	19789.79
764.785	19910.01
765.122	19859.39
765.458	19885.61
765.795	19900.97
766.131	20068.43
766.467	19989.11
766.804	20101.19
767.14	20031.59
767.476	20208.31
767.812	20187.97
768.148	20221.42
768.485	20338.48
768.821	20214.41
769.157	20306.16
769.492	20325.14
769.828	20372.15
770.164	20205.37
770.5	20391.36
770.836	20417.34
771.171	20331.25
771.507	20423.9
771.842	20331.47
772.178	20375.76
772.513	20404.69
772.849	20404.92
773.184	20387.74
773.519	20408.31
773.855	20358.81
774.19	20362.88
774.525	20397.91
774.86	20290.12
775.195	20289.21
775.53	20299.61
775.865	20251.7
776.2	20157.92
776.535	20137.58
776.87	20170.12
777.205	20105.26
777.539	20065.49
777.874	20049.44
778.209	19982.33
778.543	20046.73
778.878	19999.05
779.212	20042.89
779.547	19800.86
779.881	19943.23
780.215	19841.54
780.55	19891.26
780.884	19798.83
781.218	19677.7
781.552	19813.74
781.886	19698.95
782.22	19577.37
782.554	19502.79
782.888	19360.2
783.222	19380.31
783.556	19210.6
783.889	19283.36
784.223	19209.69
784.557	19155
784.89	19162.69
785.224	19065.29
785.557	19010.15
785.891	18951.17
786.224	18912.3
786.558	19064.84
786.891	18910.72
787.224	18841.34
787.557	18799.76
787.891	18742.13
788.224	18749.59
788.557	18689.48
788.89	18583.72
789.223	18591.18
789.556	18450.16
789.888	18457.4
790.221	18424.18
790.554	18269.38
790.887	18306.21
791.219	18229.15
791.552	18219.44
791.884	18096.73
792.217	18175.82
792.549	18110.96
792.882	17877.75
793.214	17772.67
793.546	17865.55
793.879	17711.65
794.211	17721.37
794.543	17708.49
794.875	17677.08
795.207	17650.64
795.539	17630.75
795.871	17641.6
796.203	17393.7
796.535	17249.97
796.867	17366.13
797.198	17231.44
797.53	17357.99
797.862	17147.15
798.193	17271.21
798.525	17013.59
798.856	17086.81
799.188	16915.52
799.519	16929.3
799.85	16817.21
800.182	16783.54
800.513	16791.9
800.844	16671.23
801.175	16769.98
801.506	16716.2
801.837	16559.37
802.168	16546.26
802.499	16525.47
802.83	16514.4
803.161	16440.05
803.491	16357.34
803.822	16412.93
804.153	16334.29
804.483	16191.69
804.814	16187.17
805.145	16073.5
805.475	16165.03
805.805	16051.13
806.136	15997.57
806.466	16029.89
806.796	16077.12
807.126	15829.89
807.457	15846.39
807.787	15848.2
808.117	15798.03
808.447	15749.22
808.777	15754.42
809.107	15631.03
809.436	15607.75
809.766	15645.72
810.096	15557.36
810.426	15507.42
810.755	15502.9
811.085	15520.3
811.414	15446.85
811.744	15321.89
812.073	15345.39
812.403	15352.84
812.732	15297.71
813.061	15282.34
813.39	15174.32
813.719	15074.43
814.049	15146.07
814.378	15081.67
814.707	15087.54
815.036	15092.74
815.365	14924.16
815.693	14878.28
816.022	14831.5
816.351	14852.29
816.68	14770.26
817.008	14835.12
817.337	14680.32
817.665	14674.44
817.994	14692.98
818.322	14631.51
818.651	14515.35
818.979	14528.69
819.307	14540.21
819.636	14493.21
819.964	14392.64
820.292	14470.83
820.62	14487.78
820.948	14353.1
821.276	14497.05
821.604	14370.72
821.932	14403.27
822.259	14342.25
822.587	14396.71
822.915	14401.91
823.243	14302.03
823.57	14305.64
823.898	14370.72
824.225	14297.51
824.553	14298.18
824.88	14349.93
825.207	14300.44
825.535	14269.48
825.862	14283.95
826.189	14298.64
826.516	14392.87
826.843	14346.32
827.17	14302.93
827.497	14345.19
827.824	14321.91
828.151	14394
828.478	14367.56
828.805	14431.74
829.131	14334.11
829.458	14314
829.785	14318.97
830.111	14291.18
830.438	14312.42
830.764	14353.78
831.09	14345.87
831.417	14242.37
831.743	14324.85
832.069	14372.53
832.395	14219.09
832.722	14326.21
833.048	14249.15
833.374	14223.84
833.7	14141.13
834.026	14152.42
834.351	14197.4
834.677	14203.72
835.003	14138.87
835.329	14148.58
835.654	14165.76
835.98	14076.04
836.306	14097.06
836.631	14030.62
836.956	14138.64
837.282	14020.45
837.607	13974.12
837.932	13894.35
838.258	13898.87
838.583	13924.18
838.908	13888.93
839.233	13934.58
839.558	13845.31
839.883	13860.45
840.208	13766.45
840.533	13776.16
840.858	13832.66
841.182	13822.49
841.507	13751.31
841.832	13688.48
842.156	13785.88
842.481	13671.99
842.805	13608.26
843.13	13529.16
843.454	13576.62
843.778	13518.77
844.103	13501.37
844.427	13440.35
844.751	13384.54
845.075	13387.47
845.399	13380.92
845.723	13382.05
846.047	13254.82
846.371	13238.55
846.695	13219.34
847.019	13141.83
847.343	13027.93
847.666	12967.82
847.99	12917.43
848.313	12895.51
848.637	12820.48
848.96	12801.5
849.284	12723.31
849.607	12708.62
849.931	12559.92
850.254	12548.4
850.577	12480.6
850.9	12453.94
851.223	12442.41
851.546	12376.43
851.869	12235.64
852.192	12323.77
852.515	12184.34
852.838	12201.52
853.161	12178.92
853.483	12146.15
853.806	12099.6
854.129	12043.55
854.451	11962.65
854.774	11928.53
855.096	11924.91
855.419	11900.28
855.741	11831.58
856.063	11709.78
856.385	11785.48
856.708	11709.78
857.03	11647.86
857.352	11625.94
857.674	11627.07
857.996	11550.23
858.318	11519.05
858.64	11533.96
858.961	11481.76
859.283	11421.42
859.605	11432.5
859.926	11428.65
860.248	11411.93
860.57	11289.45
860.891	11345.49
861.212	11305.72
861.534	11142.33
861.855	11212.61
862.176	11229.79
862.498	11169
862.819	11204.03
863.14	11110.24
863.461	11061.88
863.782	11063.92
864.103	11056.01
864.424	11093.07
864.745	11072.28
865.065	11034.77
865.386	10973.53
865.707	10993.64
866.027	10920.19
866.348	10957.48
866.668	10930.59
866.989	10914.77
867.309	10845.84
867.63	10858.73
867.95	10872.51
868.27	10731.05
868.59	10747.54
868.91	10730.59
869.23	10659.63
869.55	10718.84
869.87	10796.13
870.19	10716.36
870.51	10733.76
870.83	10764.94
871.15	10614.44
871.469	10638.39
871.789	10613.31
872.109	10620.77
872.428	10600.2
872.748	10598.62
873.067	10528.79
873.386	10594.33
873.706	10531.05
874.025	10458.51
874.344	10478.4
874.663	10473.88
874.982	10435.23
875.301	10427.78
875.62	10377.61
875.939	10378.06
876.258	10414.67
876.577	10343.49
876.896	10335.12
877.214	10348.46
877.533	10296.71
877.852	10314.33
878.17	10260.78
878.489	10218.97
878.807	10348.46
879.125	10169.25
879.444	10221.45
879.762	10120.67
880.08	10128.8
880.398	10095.58
880.716	10229.14
881.034	10107.56
881.352	10117.95
881.67	10004.06
881.988	9982.36
882.306	9963.61
882.624	10059.42
882.941	9905.98
883.259	9977.62
883.577	9944.4
883.894	9866.44
884.212	9890.62
884.529	9851.75
884.846	9787.79
885.164	9804.97
885.481	9725.42
885.798	9795.7
886.115	9698.53
886.432	9714.8
886.75	9658.53
887.067	9726.1
887.383	9670.96
887.7	9667.57
888.017	9597.52
888.334	9671.41
888.651	9605.2
888.967	9598.87
889.284	9542.15
889.6	9478.42
889.917	9385.54
890.233	9470.51
890.55	9393
890.866	9369.95
891.182	9352.32
891.498	9324.98
891.815	9295.15
892.131	9227.58
892.447	9205.89
892.763	9182.84
893.079	9157.53
893.395	9152.1
893.71	9121.37
894.026	9120.24
894.342	9099
894.657	9016.74
894.973	9019.23
895.289	8996.4
895.604	8944.43
895.92	8924.54
896.235	8855.84
896.55	8876.41
896.865	8775.84
897.181	8809.97
897.496	8732.91
897.811	8715.96
898.126	8759.35
898.441	8683.87
898.756	8660.82
899.071	8582.85
899.386	8587.15
899.7	8511.67
900.015	8491.1
900.33	8465.79
900.644	8437.32
900.959	8488.17
901.273	8455.63
901.588	8380.6
901.902	8325.01
902.216	8349.64
902.531	8279.58
902.845	8231
903.159	8186.48
903.473	8174.05
903.787	8139.48
904.101	8110.32
904.415	8106.71
904.729	8042.08
905.042	8005.24
905.356	8058.35
905.67	7986.26
905.984	7951.68
906.297	7943.77
906.611	7918.01
906.924	7844.79
907.237	7855.41
907.551	7831.46
907.864	7806.15
908.177	7812.48
908.491	7765.02
908.804	7643.22
909.117	7647.06
909.43	7640.28
909.743	7570
910.056	7578.13
910.368	7559.38
910.681	7484.35
910.994	7483.45
911.307	7421.75
911.619	7394.41
911.932	7431.47
912.244	7324.58
912.557	7337.01
912.869	7205.94
913.181	7224.47
913.494	7248.65
913.806	7197.81
914.118	7112.84
914.43	7118.71
914.742	7121.87
915.054	7050.69
915.366	7046.17
915.678	7030.13
915.99	7003.23
916.302	6932.28
916.613	6927.76
916.925	6931.15
917.236	6919.17
917.548	6859.73
917.859	6820.41
918.171	6804.14
918.482	6775.44
918.794	6686.86
919.105	6705.84
919.416	6686.86
919.727	6626.75
920.038	6636.92
920.349	6574.54
920.66	6544.04
920.971	6612.74
921.282	6469.69
921.593	6427.43
921.903	6419.07
922.214	6404.61
922.525	6376.81
922.835	6294.1
923.146	6313.99
923.456	6321.9
923.767	6324.16
924.077	6277.83
924.387	6243.25
924.697	6229.92
925.008	6182.24
925.318	6115.35
925.628	6118.51
925.938	6206.64
926.248	6062.24
926.558	6019.76
926.867	6070.6
927.177	6027.21
927.487	5981.34
927.796	5917.39
928.106	5921.23
928.416	5857.95
928.725	5899.76
929.034	5790.61
929.344	5866.99
929.653	5814.79
929.962	5794
930.271	5751.06
930.581	5720.33
930.89	5746.32
931.199	5692.53
931.508	5646.21
931.817	5645.76
932.125	5649.15
932.434	5638.98
932.743	5533.89
933.051	5539.09
933.36	5528.7
933.669	5462.94
933.977	5500.67
934.286	5393.33
934.594	5425.87
934.902	5403.5
935.21	5378.87
935.519	5396.95
935.827	5405.54
936.135	5291.64
936.443	5289.38
936.751	5265.2
937.059	5261.58
937.367	5250.06
937.674	5220.91
937.982	5246.67
938.29	5168.25
938.597	5149.5
938.905	5101.82
939.213	5097.3
939.52	5081.25
939.827	5046.45
940.135	5033.57
940.442	5014.13
940.749	5018.65
941.056	4961.48
941.363	4939.56
941.67	4939.11
941.977	4871.31
942.284	4864.08
942.591	4851.65
942.898	4813.91
943.205	4823.4
943.511	4803.29
943.818	4779.79
944.125	4732.56
944.431	4734.37
944.738	4679.68
945.044	4625.9
945.35	4645.78
945.657	4642.84
945.963	4629.96
946.269	4600.59
946.575	4545.67
946.881	4557.65
947.187	4577.76
947.493	4500.02
947.799	4531.66
948.105	4509.74
948.41	4413.92
948.716	4433.13
949.022	4466.8
949.327	4406.01
949.633	4337.09
949.938	4339.35
950.244	4398.1
950.549	4324.66
950.854	4335.28
951.16	4300.25
951.465	4293.93
951.77	4251.67
952.075	4235.85
952.38	4201.27
952.685	4195.62
952.99	4173.48
953.294	4166.7
953.599	4152.69
953.904	4162.4
954.209	4100.26
954.513	4119.47
954.818	4098.23
955.122	4065.23
955.426	4059.58
955.731	4003.09
956.035	4012.35
956.339	3968.96
956.643	3992.24
956.948	3955.86
957.252	3994.27
957.556	3956.53
957.86	3889.42
958.163	3905.46
958.467	3928.96
958.771	3874.05
959.075	3867.05
959.378	3835.86
959.682	3808.74
959.985	3816.65
960.289	3745.01
960.592	3803.54
960.896	3738.24
961.199	3754.28
961.502	3706.15
961.805	3696.43
962.108	3689.65
962.411	3641.74
962.714	3679.03
963.017	3636.77
963.32	3640.16
963.623	3670.89
963.926	3631.12
964.228	3555.19
964.531	3541.63
964.833	3527.39
965.136	3513.61
965.438	3527.62
965.741	3517.22
966.043	3445.81
966.345	3429.32
966.648	3454.17
966.95	3435.87
967.252	3408.07
967.554	3384.12
967.856	3389.09
968.158	3337.57
968.46	3382.76
968.761	3307.06
969.063	3341.64
969.365	3295.99
969.666	3289.89
969.968	3269.32
970.269	3228.87
970.571	3300.96
970.872	3273.61
971.174	3248.3
971.475	3233.62
971.776	3238.36
972.077	3191.81
972.378	3156.78
972.679	3123.11
972.98	3182.54
973.281	3103.9
973.582	3112.26
973.883	3128.99
974.183	3061.19
974.484	3068.65
974.785	3047.18
975.085	3035.88
975.386	3067.29
975.686	3018.71
975.986	3007.41
976.287	3006.05
976.587	2975.77
976.887	2936.22
977.187	2936.67
977.487	2944.81
977.787	2916.11
978.087	2950.01
978.387	2905.26
978.687	2908.88
978.987	2881.31
979.286	2829.78
979.586	2838.15
979.885	2837.02
980.185	2824.36
980.484	2800.18
980.784	2811.93
981.083	2767.19
981.382	2780.52
981.682	2767.87
981.981	2752.05
982.28	2761.09
982.579	2737.58
982.878	2706.62
983.177	2659.85
983.475	2707.08
983.774	2654.65
984.073	2651.48
984.372	2633.41
984.67	2646.96
984.969	2636.57
985.267	2624.59
985.566	2612.84
985.864	2588.43
986.162	2573.29
986.461	2584.37
986.759	2536.46
987.057	2517.02
987.355	2517.7
987.653	2532.17
987.951	2511.37
988.249	2501.43
988.547	2510.92
988.844	2437.48
989.142	2482.22
989.44	2421.43
989.737	2427.54
990.035	2430.47
990.332	2415.78
990.63	2425.05
990.927	2405.39
991.224	2361.55
991.521	2393.64
991.819	2350.93
992.116	2332.4
992.413	2320.19
992.71	2354.99
993.006	2321.78
993.303	2322.68
993.6	2317.93
993.897	2297.59
994.193	2305.73
994.49	2267.77
994.787	2252.17
995.083	2263.92
995.379	2229.35
995.676	2261.44
995.972	2227.31
996.268	2222.34
996.565	2208.11
996.861	2189.58
997.157	2165.17
997.453	2128.56
997.749	2160.88
998.044	2147.99
998.34	2114.1
998.636	2103.7
998.932	2110.48
999.227	2085.85
999.523	2068.9
999.818	2108.67
1000.114	2048.79
1000.409	2054.89
1000.704	2026.87
1001	2035.23
1001.295	1987.55
1001.59	2028.22
1001.885	2013.99
1002.18	2017.38
1002.475	1962.91
1002.77	1975.8
1003.065	1962.91
1003.359	1941.45
1003.654	1962.69
1003.949	1920.88
1004.243	1917.94
1004.538	1896.93
1004.832	1909.58
1005.127	1896.25
1005.421	1878.4
1005.715	1857.83
1006.009	1852.18
1006.304	1826.87
1006.598	1831.39
1006.892	1822.35
1007.186	1808.34
1007.48	1781.22
1007.773	1792.98
1008.067	1787.1
1008.361	1764.05
1008.655	1790.72
1008.948	1709.59
1009.242	1768.34
1009.535	1731.73
1009.829	1707.78
1010.122	1710.27
1010.415	1685.41
1010.708	1680.89
1011.001	1675.24
1011.295	1651.06
1011.588	1650.61
1011.881	1657.84
1012.173	1663.94
1012.466	1612.87
1012.759	1605.41
1013.052	1611.96
1013.344	1628.01
1013.637	1577.39
1013.93	1584.17
1014.222	1607.22
1014.514	1559.76
1014.807	1553.89
1015.099	1576.03
1015.391	1531.97
1015.683	1574.9
1015.976	1516.6
1016.268	1526.77
1016.56	1516.15
1016.851	1497.16
1017.143	1498.07
1017.435	1476.37
1017.727	1458.97
1018.018	1461.23
1018.31	1439.76
1018.602	1436.6
1018.893	1410.39
1019.185	1436.37
1019.476	1422.36
1019.767	1420.78
1020.058	1379.88
1020.35	1369.71
1020.641	1405.19
1020.932	1343.27
1021.223	1352.31
1021.514	1338.75
1021.804	1327.68
1022.095	1348.92
1022.386	1312.76
1022.677	1327.22
1022.967	1311.18
1023.258	1301.24
1023.548	1270.73
1023.839	1276.38
1024.129	1286.1
1024.419	1275.7
1024.709	1247.91
1025	1257.17
1025.29	1243.16
1025.58	1271.18
1025.87	1223.27
1026.16	1208.58
1026.449	1214.46
1026.739	1202.93
1027.029	1201.13
1027.319	1184.18
1027.608	1174.46
1027.898	1167.91
1028.187	1185.31
1028.477	1165.87
1028.766	1163.16
1029.055	1160.68
1029.344	1120.68
1029.634	1138.3
1029.923	1125.42
1030.212	1123.16
1030.501	1129.26
1030.79	1103.28
1031.078	1115.48
1031.367	1087.46
1031.656	1091.07
1031.945	1082.26
1032.233	1074.35
1032.522	1087.23
1032.81	1058.76
1033.099	1046.33
1033.387	1023.5
1033.675	1021.92
1033.963	1028.25
1034.251	1010.4
1034.54	1003.62
1034.828	1004.3
1035.116	1001.81
1035.403	984.64
1035.691	1022.83
1035.979	981.7
1036.267	1000.68
1036.554	965.2
1036.842	958.2
1037.129	955.48
1037.417	938.76
1037.704	942.6
1037.992	944.18
1038.279	936.73
1038.566	924.75
1038.853	924.75
1039.14	924.75
