Data from hue_290_FLMS001491_00015.txt Node
Date: Tue Feb 07 15:52:23 GMT 2017
User: dcchb
Spectrometer: FLMS00149
Trigger mode: 0
Integration Time (sec): 2.000000E-2
Scans to average: 10
Electric dark correction enabled: true
Nonlinearity correction enabled: false
Boxcar width: 0
XAxis mode: Wavelengths
Number of Pixels in Spectrum: 2048
>>>>>Begin Spectral Data<<<<<
341.393	-5.85
341.776	-5.85
342.16	-5.85
342.543	-86.75
342.927	-52.85
343.31	-67.09
343.693	-64.83
344.077	-68.9
344.46	-54.21
344.843	-46.3
345.226	-35
345.61	-32.74
345.993	-9.91
346.376	-12.17
346.759	10.65
347.142	23.53
347.525	27.82
347.908	71.44
348.291	81.38
348.674	76.64
349.057	99.69
349.44	116.86
349.823	128.61
350.206	150.53
350.588	186.92
350.971	212.68
351.354	218.1
351.737	223.07
352.119	244.99
352.502	248.61
352.884	244.09
353.267	272.79
353.65	267.37
354.032	281.6
354.414	305.1
354.797	321.83
355.179	303.98
355.562	329.74
355.944	332.67
356.326	334.03
356.709	337.42
357.091	314.82
357.473	336.29
357.855	333.58
358.238	350.08
358.62	331.77
359.002	364.99
359.384	349.62
359.766	340.36
360.148	333.8
360.53	333.13
360.912	318.66
361.294	314.14
361.676	316.86
362.057	332.67
362.439	323.41
362.821	309.62
363.203	338.55
363.584	301.04
363.966	317.76
364.348	321.15
364.729	293.35
365.111	294.03
365.493	306.01
365.874	311.21
366.256	301.94
366.637	314.82
367.019	305.78
367.4	302.39
367.781	317.53
368.163	324.77
368.544	317.99
368.925	315.5
369.306	304.43
369.688	300.13
370.069	301.26
370.45	298.55
370.831	294.26
371.212	310.3
371.593	297.65
371.974	311.43
372.355	330.64
372.736	315.05
373.117	300.81
373.498	305.1
373.879	284.77
374.26	301.94
374.641	286.12
375.021	311.43
375.402	312.11
375.783	321.15
376.163	309.4
376.544	313.47
376.925	323.64
377.305	309.17
377.686	338.78
378.066	320.47
378.447	334.48
378.827	326.12
379.208	332
379.588	322.96
379.968	312.56
380.349	308.49
380.729	334.71
381.109	340.36
381.489	329.51
381.87	337.19
382.25	336.06
382.63	329.51
383.01	327.03
383.39	326.57
383.77	332.22
384.15	348.04
384.53	353.47
384.91	329.74
385.29	349.4
385.67	340.36
386.049	361.37
386.429	374.03
386.809	360.02
387.189	355.5
387.568	346.69
387.948	352.56
388.328	350.53
388.707	340.58
389.087	365.89
389.466	342.17
389.846	365.22
390.225	364.31
390.605	356.63
390.984	356.4
391.363	368.38
391.743	383.07
392.122	361.37
392.501	352.11
392.881	386.01
393.26	395.05
393.639	343.75
394.018	372.67
394.397	371.32
394.776	366.12
395.155	378.32
395.534	393.01
395.913	381.49
396.292	396.85
396.671	389.85
397.05	390.53
397.429	386.46
397.808	372.9
398.186	417.64
398.565	404.09
398.944	412.9
399.323	388.27
399.701	387.14
400.08	411.32
400.458	410.64
400.837	401.6
401.215	419.9
401.594	414.48
401.972	406.35
402.351	431.66
402.729	407.7
403.107	387.36
403.486	433.01
403.864	412.45
404.242	448.15
404.62	438.21
404.999	454.03
405.377	426.46
405.755	438.21
406.133	451.09
406.511	451.32
406.889	459
407.267	451.09
407.645	457.64
408.023	455.61
408.401	477.76
408.779	497.19
409.156	465.78
409.534	468.04
409.912	474.59
410.29	493.57
410.667	487.93
411.045	494.7
411.422	501.03
411.8	514.14
412.178	536.06
412.555	548.71
412.933	563.18
413.31	551.2
413.687	578.32
414.065	572.89
414.442	555.04
414.819	574.25
415.197	588.26
415.574	577.87
415.951	582.84
416.328	598.43
416.705	607.24
417.082	615.61
417.46	609.73
417.837	653.12
418.214	641.14
418.591	636.4
418.967	654.25
419.344	657.64
419.721	650.41
420.098	671.87
420.475	682.95
420.852	696.51
421.228	708.26
421.605	679.78
421.982	707.81
422.358	731.31
422.735	739.44
423.111	738.77
423.488	723.4
423.864	768.37
424.241	744.64
424.617	765.21
424.994	770.86
425.37	771.53
425.746	788.03
426.123	804.07
426.499	800.91
426.875	840.46
427.251	823.51
427.627	844.75
428.003	872.55
428.379	858.54
428.756	872.55
429.132	889.27
429.507	877.75
429.883	874.81
430.259	910.06
430.635	901.47
431.011	900.57
431.387	937.4
431.763	957.74
432.138	980.57
432.514	967.46
432.89	984.41
433.265	998.42
433.641	993
434.016	1004.75
434.392	1049.04
434.767	1031.64
435.143	1048.36
435.518	1081.36
435.894	1083.62
436.269	1086.33
436.644	1115.48
437.02	1139.43
437.395	1120.68
437.77	1131.3
438.145	1159.09
438.52	1160.9
438.895	1177.85
439.271	1182.14
439.646	1208.13
440.021	1201.8
440.395	1206.1
440.77	1218.53
441.145	1215.59
441.52	1237.96
441.895	1242.03
442.27	1270.28
442.645	1254.91
443.019	1275.47
443.394	1265.53
443.769	1281.8
444.143	1279.77
444.518	1297.4
444.892	1294.91
445.267	1303.95
445.641	1312.31
446.016	1318.64
446.39	1331.52
446.764	1310.95
447.139	1317.73
447.513	1327.22
447.887	1346.89
448.262	1329.03
448.636	1363.38
449.01	1372.87
449.384	1376.26
449.758	1390.27
450.132	1416.71
450.506	1366.55
450.88	1400.67
451.254	1407.67
451.628	1442.7
452.002	1439.09
452.376	1445.41
452.75	1454.45
453.123	1456.04
453.497	1469.37
453.871	1472.76
454.244	1512.3
454.618	1494.45
454.992	1526.09
455.365	1522.93
455.739	1530.84
456.112	1566.99
456.486	1556.82
456.859	1529.25
457.232	1585.52
457.606	1579.65
457.979	1580.1
458.352	1621.45
458.725	1630.72
459.099	1622.36
459.472	1662.58
459.845	1684.96
460.218	1658.52
460.591	1698.51
460.964	1692.41
461.337	1758.17
461.71	1752.98
462.083	1782.58
462.456	1767.67
462.829	1757.72
463.201	1799.08
463.574	1810.6
463.947	1793.43
464.32	1843.6
464.692	1830.26
465.065	1838.17
465.438	1839.75
465.81	1892.41
466.183	1936.25
466.555	1938.51
466.928	1933.31
467.3	1959.75
467.672	1983.03
468.045	2006.98
468.417	2009.24
468.789	2009.01
469.161	2041.56
469.534	2022.57
469.906	2068.67
470.278	2096.24
470.65	2088.33
471.022	2144.6
471.394	2166.75
471.766	2152.97
472.138	2178.73
472.51	2247.65
472.882	2240.87
473.253	2264.6
473.625	2290.14
473.997	2286.52
474.369	2332.4
474.74	2385.95
475.112	2378.27
475.484	2369.46
475.855	2398.61
476.227	2433.18
476.598	2507.53
476.97	2539.62
477.341	2523.8
477.713	2578.04
478.084	2569.23
478.455	2604.48
478.827	2634.08
479.198	2687.19
479.569	2699.39
479.94	2775.32
480.311	2739.84
480.682	2769.45
481.053	2872.72
481.424	2898.26
481.795	2925.38
482.166	2931.25
482.537	2966.05
482.908	3019.38
483.279	3032.49
483.65	3055.09
484.021	3077.24
484.391	3151.58
484.762	3127.18
485.133	3168.98
485.503	3185.48
485.874	3249.43
486.244	3245.59
486.615	3343.22
486.985	3303.22
487.356	3374.18
487.726	3404.46
488.097	3467.96
488.467	3452.14
488.837	3496.66
489.207	3548.86
489.578	3587.73
489.948	3569.88
490.318	3635.64
490.688	3647.62
491.058	3679.71
491.428	3709.99
491.798	3719.03
492.168	3819.81
492.538	3768.97
492.908	3832.7
493.278	3875.86
493.648	3820.27
494.017	3916.31
494.387	3940.72
494.757	3954.05
495.126	3975.29
495.496	3979.13
495.866	3975.52
496.235	3986.82
496.605	4027.04
496.974	4096.42
497.344	4072.92
497.713	4138.45
498.082	4136.19
498.452	4142.52
498.821	4189.3
499.19	4175.06
499.559	4217.32
499.928	4203.53
500.298	4245.11
500.667	4245.79
501.036	4295.51
501.405	4267.71
501.774	4273.81
502.143	4316.52
502.512	4365.56
502.88	4406.47
503.249	4342.06
503.618	4396.07
503.987	4353.81
504.356	4441.95
504.724	4395.17
505.093	4408.95
505.462	4469.97
505.83	4498.89
506.199	4487.37
506.567	4518.1
506.936	4553.58
507.304	4608.04
507.672	4587.93
508.041	4598.33
508.409	4639.23
508.777	4601.26
509.145	4606.91
509.514	4616.18
509.882	4660.47
510.25	4686.46
510.618	4711.32
510.986	4684.65
511.354	4709.06
511.722	4723.52
512.09	4785.44
512.458	4735.95
512.826	4808.26
513.193	4766.68
513.561	4787.47
513.929	4812.56
514.297	4910.18
514.664	4893.46
515.032	4831.77
515.4	4938.43
515.767	4899.79
516.135	4934.36
516.502	4848.04
516.869	4890.3
517.237	4970.52
517.604	4948.37
517.972	4975.94
518.339	4989.5
518.706	4997.41
519.073	4950.86
519.44	4990.41
519.808	5074.47
520.175	5032.89
520.542	5098.2
520.909	5095.94
521.276	5059.78
521.643	5119.67
522.009	5170.06
522.376	5191.76
522.743	5133.45
523.11	5271.3
523.477	5255.94
523.843	5261.13
524.21	5291.87
524.577	5323.5
524.943	5310.4
525.31	5352.43
525.676	5432.88
526.043	5395.59
526.409	5397.17
526.776	5484.18
527.142	5451.18
527.508	5427
527.874	5504.52
528.241	5493.22
528.607	5515.82
528.973	5592.65
529.339	5527.57
529.705	5606.21
530.071	5618.19
530.437	5646.66
530.803	5677.62
531.169	5731.18
531.535	5698.64
531.901	5717.84
532.267	5732.31
532.632	5785.64
532.998	5826.09
533.364	5805.75
533.73	5802.14
534.095	5811.85
534.461	5860.89
534.826	5872.87
535.192	5878.97
535.557	5940.44
535.923	5882.13
536.288	5952.19
536.653	5945.18
537.019	5891.17
537.384	5958.52
537.749	5982.92
538.114	6008.46
538.479	6006.65
538.845	6068.8
539.21	6056.59
539.575	6111.28
539.94	6062.02
540.305	6124.61
540.67	6048.68
541.034	6124.16
541.399	6158.51
541.764	6181.56
542.129	6191.96
542.494	6197.61
542.858	6214.55
543.223	6155.35
543.587	6262.24
543.952	6263.37
544.316	6304.72
544.681	6252.97
545.045	6297.04
545.41	6339.52
545.774	6349.24
546.138	6323.03
546.503	6336.13
546.867	6369.35
547.231	6397.15
547.595	6432.4
547.959	6445.73
548.324	6474.89
548.688	6445.06
549.052	6521.89
549.416	6427.66
549.779	6503.59
550.143	6501.33
550.507	6572.96
550.871	6524.83
551.235	6514.43
551.599	6583.58
551.962	6630.59
552.326	6572.06
552.689	6603.24
553.053	6622.68
553.417	6599.4
553.78	6639.63
554.143	6653.41
554.507	6622.23
554.87	6631.27
555.234	6796.46
555.597	6679.85
555.96	6714.65
556.323	6743.58
556.686	6767.99
557.05	6817.02
557.413	6760.98
557.776	6802.56
558.139	6856.35
558.502	6816.57
558.865	6858.83
559.228	6886.4
559.59	6867.19
559.953	6907.19
560.316	7012.27
560.679	7006.85
561.041	6991.48
561.404	7021.76
561.767	7066.51
562.129	7025.15
562.492	7080.97
562.854	7143.8
563.217	7074.19
563.579	7114.42
563.941	7138.82
564.304	7204.58
564.666	7174.75
565.028	7234.64
565.39	7192.16
565.753	7280.29
566.115	7273.28
566.477	7317.12
566.839	7260.4
567.201	7327.75
567.563	7429.21
567.925	7388.53
568.287	7441.19
568.648	7429.66
569.01	7480.06
569.372	7531.36
569.734	7472.6
570.095	7593.95
570.457	7613.16
570.819	7615.87
571.18	7602.99
571.542	7670.56
571.903	7637.57
572.265	7743.1
572.626	7745.36
572.987	7763.21
573.349	7782.87
573.71	7882.76
574.071	7878.69
574.432	7932.48
574.794	7957.11
575.155	8021.06
575.516	8010.89
575.877	8071.68
576.238	8101.74
576.599	8151.45
576.96	8226.7
577.32	8204.56
577.681	8283.43
578.042	8362.07
578.403	8403.2
578.763	8454.72
579.124	8473.25
579.485	8549.63
579.845	8659.01
580.206	8643.19
580.566	8732.91
580.927	8794.6
581.287	8885.44
581.648	8941.49
582.008	9065.1
582.368	9101.48
582.728	9199.33
583.089	9229.39
583.449	9326.79
583.809	9467.8
584.169	9521.59
584.529	9573.34
584.889	9814.69
585.249	9828.47
585.609	9860.33
585.969	10081.57
586.329	10143.49
586.688	10212.42
587.048	10354.33
587.408	10461.9
587.768	10601.11
588.127	10683.36
588.487	10849.46
588.846	11039.51
589.206	11028.21
589.565	11256.68
589.925	11365.61
590.284	11425.04
590.643	11639.5
591.003	11747.52
591.362	11993.39
591.721	11983.67
592.08	12191.8
592.44	12269.54
592.799	12473.37
593.158	12544.11
593.517	12681.95
593.876	12863.42
594.235	12983.42
594.593	13152.45
594.952	13233.13
595.311	13334.82
595.67	13569.16
596.029	13686.67
596.387	13834.24
596.746	14022.94
597.104	14127.79
597.463	14232.2
597.822	14433.55
598.18	14400.33
598.538	14530.04
598.897	14815.68
599.255	14708.34
599.613	15069.91
599.972	15052.06
600.33	15154.21
600.688	15330.25
601.046	15421.09
601.404	15614.98
601.762	15697.92
602.12	15873.74
602.478	16013.39
602.836	15913.06
603.194	16131.58
603.552	16166.16
603.91	16255.42
604.268	16426.04
604.625	16364.57
604.983	16621.29
605.341	16608.41
605.698	16860.6
606.056	16835.07
606.413	16964.33
606.771	17127.71
607.128	17181.05
607.485	17241.16
607.843	17278.44
608.2	17518.66
608.557	17644.08
608.914	17656.06
609.272	17838.2
609.629	17783.52
609.986	17802.95
610.343	17950.29
610.7	18070.29
611.057	18076.84
611.414	18190.06
611.771	18307.8
612.127	18509.82
612.484	18401.58
612.841	18503.04
613.198	18559.54
613.554	18582.14
613.911	18750.04
614.267	18781.46
614.624	18784.39
614.98	18914.79
615.337	19017.38
615.693	19077.49
616.05	19049.24
616.406	19202.24
616.762	19212.63
617.118	19195.68
617.475	19331.5
617.831	19413.98
618.187	19421.21
618.543	19514.54
618.899	19512.96
619.255	19534.43
619.611	19579.17
619.967	19741.2
620.323	19747.53
620.678	19723.58
621.034	19715.44
621.39	19772.62
621.746	19789.79
622.101	20051.7
622.457	19904.14
622.812	19901.43
623.168	19994.3
623.523	20057.81
623.879	20060.52
624.234	19967.64
624.589	20049.44
624.945	20074.3
625.3	20094.64
625.655	20192.49
626.01	20217.58
626.365	20168.76
626.72	20302.55
627.075	20348.87
627.43	20155.2
627.785	20269.55
628.14	20299.16
628.495	20226.84
628.85	20334.63
629.205	20193.4
629.559	20400.85
629.914	20280.85
630.269	20349.1
630.623	20214.86
630.978	20231.13
631.332	20435.88
631.687	20383.9
632.041	20350.45
632.396	20388.19
632.75	20238.14
633.104	20405.14
633.459	20355.2
633.813	20234.3
634.167	20232.49
634.521	20265.71
634.875	20259.83
635.229	20264.58
635.583	20183.68
635.937	20227.52
636.291	20171.7
636.645	20191.36
636.999	20066.17
637.352	20347.29
637.706	20110.01
638.06	20220.06
638.413	20167.18
638.767	20096
639.121	20098.26
639.474	20049.44
639.828	20028.2
640.181	20028.88
640.534	20113.4
640.888	20015.1
641.241	19997.47
641.594	19909.56
641.947	20025.49
642.301	19977.13
642.654	20012.61
643.007	20090.12
643.36	19981.42
643.713	19899.17
644.066	20096.67
644.419	20032.72
644.771	19885.38
645.124	19730.58
645.477	19634.99
645.83	19502.79
646.182	19435.9
646.535	19402.23
646.888	19445.84
647.24	19447.65
647.593	19444.71
647.945	19464.83
648.298	19362.68
648.65	19273.42
649.002	19288.11
649.355	19434.32
649.707	19380.54
650.059	19419.86
650.411	19714.99
650.763	19691.49
651.115	19852.16
651.467	19792.28
651.819	19940.29
652.171	19921.31
652.523	19675.44
652.875	19737.59
653.227	19766.06
653.578	19849
653.93	19832.05
654.282	19725.84
654.633	19719.96
654.985	19764.25
655.337	19793.18
655.688	19747.08
656.039	19914.31
656.391	19775.55
656.742	19799.96
657.094	19754.09
657.445	19853.29
657.796	19836.79
658.147	19794.54
658.498	19785.95
658.849	19878.38
659.2	19822.56
659.551	19753.63
659.902	19925.15
660.253	19879.73
660.604	19916.34
660.955	19858.04
661.306	19897.13
661.656	19793.63
662.007	19867.3
662.358	19865.27
662.708	19903.91
663.059	19877.25
663.409	19809.45
663.76	19961.31
664.11	19989.33
664.461	19945.04
664.811	19881.99
665.161	19970.8
665.511	19930.8
665.862	19888.77
666.212	19925.15
666.562	19932.39
666.912	20007.86
667.262	19947.98
667.612	19966.96
667.962	19952.5
668.312	19871.82
668.662	19928.09
669.011	19948.88
669.361	19915.44
669.711	19879.28
670.06	19947.98
670.41	19824.82
670.76	19752.5
671.109	20002.21
671.459	19865.04
671.808	19783.69
672.157	19800.86
672.507	19622.56
672.856	19811.71
673.205	19787.98
673.554	19822.11
673.904	19720.41
674.253	19886.51
674.602	19716.12
674.951	19520.87
675.3	19412.4
675.649	19712.05
675.998	19649.23
676.346	19718.15
676.695	19666.63
677.044	19563.36
677.393	19583.02
677.741	19599.74
678.09	19583.24
678.438	19519.97
678.787	19620.98
679.135	19465.51
679.484	19348.9
679.832	19486.07
680.181	19379.86
680.529	19417.6
680.877	19428.22
681.225	19270.93
681.573	19504.37
681.922	19295.11
682.27	19236.58
682.618	19206.3
682.966	19172.18
683.314	19149.13
683.661	19173.08
684.009	18992.98
684.357	19036.82
684.705	19055.12
685.053	19097.15
685.4	18971.96
685.748	18845.41
686.095	18863.71
686.443	18889.7
686.79	18735.35
687.138	18884.05
687.485	18809.48
687.832	18689.25
688.18	18719.76
688.527	18584.17
688.874	18604.51
689.221	18501.01
689.568	18548.69
689.915	18437.74
690.262	18385.08
690.609	18402.48
690.956	18234.58
691.303	18221.47
691.65	18212.43
691.997	18205.65
692.344	18081.13
692.69	17966.11
693.037	17982.38
693.383	17889.5
693.73	17850.86
694.077	17864.19
694.423	17865.32
694.769	17720.01
695.116	17732.44
695.462	17716.4
695.808	17531.77
696.155	17667.81
696.501	17529.06
696.847	17530.19
697.193	17275.51
697.539	17474.6
697.885	17353.24
698.231	17209.52
698.577	17187.82
698.923	17175.4
699.269	17073.48
699.614	16964.33
699.96	16900.83
700.306	16936.76
700.651	16751.9
700.997	16713.04
701.342	16683.66
701.688	16724.11
702.033	16585.35
702.379	16621.51
702.724	16464.68
703.069	16507.16
703.415	16355.76
703.76	16297.23
704.105	16294.29
704.45	16302.88
704.795	16148.98
705.14	16080.96
705.485	16134.29
705.83	16041.41
706.175	16010
706.52	15943.11
706.865	15892.72
707.209	15931.81
707.554	15879.38
707.899	15875.32
708.243	15778.37
708.588	15717.58
708.932	15647.3
709.277	15661.99
709.621	15615.89
709.966	15553.52
710.31	15523.01
710.654	15369.79
710.998	15403.69
711.342	15449.57
711.687	15419.06
712.031	15292.96
712.375	15211.15
712.719	15292.06
713.063	15206.63
713.407	15330.47
713.75	15166.41
714.094	15071.5
714.438	15061.55
714.782	15065.17
715.125	14986.07
715.469	15015.23
715.812	14993.08
716.156	14874.44
716.499	14873.76
716.843	14895.91
717.186	14780.43
717.53	14896.81
717.873	14831.28
718.216	14885.96
718.559	14778.85
718.902	14704.27
719.246	14706.31
719.589	14624.5
719.932	14551.51
720.275	14617.27
720.617	14626.76
720.96	14610.94
721.303	14555.35
721.646	14597.38
721.989	14511.96
722.331	14557.16
722.674	14576.14
723.016	14557.39
723.359	14515.35
723.701	14495.24
724.044	14456.82
724.386	14337.5
724.729	14469.03
725.071	14374.11
725.413	14451.85
725.755	14393.77
726.097	14317.17
726.439	14260.67
726.782	14319.65
727.124	14285.3
727.465	14314.45
727.807	14268.81
728.149	14269.26
728.491	14228.35
728.833	14325.75
729.175	14261.12
729.516	14196.94
729.858	14192.88
730.199	14197.4
730.541	14143.84
730.882	14124.4
731.224	14215.93
731.565	14076.95
731.906	14138.87
732.248	14122.82
732.589	14031.52
732.93	14115.59
733.271	14142.03
733.612	14143.61
733.953	14099.77
734.294	14062.71
734.635	14034.46
734.976	14092.54
735.317	14029.49
735.658	14064.74
735.999	14104.06
736.339	14007.57
736.68	14126.89
737.021	14086.89
737.361	14005.76
737.702	14045.99
738.042	14014.58
738.383	14043.95
738.723	14076.72
739.063	14029.72
739.404	14081.24
739.744	14053.22
740.084	14007.8
740.424	14078.75
740.764	14011.86
741.104	14136.83
741.444	14060.9
741.784	14059.32
742.124	14102.71
742.464	14119.66
742.804	14143.84
743.143	14191.52
743.483	14115.82
743.823	14104.06
744.162	14138.87
744.502	14161.69
744.841	14183.84
745.181	14216.83
745.52	14240.33
745.86	14342.25
746.199	14321.23
746.538	14306.54
746.877	14389.25
747.216	14461.79
747.556	14419.54
747.895	14549.25
748.234	14516.26
748.573	14625.18
748.911	14613.43
749.25	14734.78
749.589	14765.74
749.928	14781.79
750.267	14933.65
750.605	14905.4
750.944	14988.56
751.283	15019.97
751.621	15115.56
751.96	15208.22
752.298	15213.64
752.636	15271.94
752.975	15377.93
753.313	15531.37
753.651	15540.18
753.989	15593.29
754.327	15708.32
754.666	15760.74
755.004	15915.77
755.342	15977.24
755.679	16069.66
756.017	16124.58
756.355	16326.15
756.693	16373.38
757.031	16510.55
757.368	16501.74
757.706	16608.18
758.044	16757.78
758.381	16797.78
758.719	16952.58
759.056	17111.67
759.394	17142.4
759.731	17145.79
760.068	17380.14
760.405	17321.15
760.743	17417.65
761.08	17561.6
761.417	17670.98
761.754	17699.9
762.091	17763.85
762.428	17916.85
762.765	17948.71
763.102	18144.18
763.438	18073.45
763.775	18215.82
764.112	18294.91
764.449	18456.27
764.785	18478.64
765.122	18473.67
765.458	18443.61
765.795	18604.06
766.131	18712.08
766.467	18722.93
766.804	18702.81
767.14	18842.47
767.476	18834.56
767.812	18961.34
768.148	18896.25
768.485	18904.84
768.821	18913.2
769.157	18956.82
769.492	19006.53
769.828	19125.18
770.164	18950.94
770.5	19020.55
770.836	19103.71
771.171	19011.73
771.507	19127.66
771.842	19009.92
772.178	19074.78
772.513	19018.29
772.849	19094.44
773.184	19053.09
773.519	19091.05
773.855	19061.45
774.19	19042.24
774.525	19002.92
774.86	19088.57
775.195	19093.54
775.53	18954.78
775.865	18918.85
776.2	18978.96
776.535	18759.53
776.87	18813.32
777.205	18820.1
777.539	18791.62
777.874	18886.54
778.209	18722.25
778.543	18677.05
778.878	18566.09
779.212	18621.01
779.547	18592.53
779.881	18778.07
780.215	18491.97
780.55	18572.42
780.884	18533.1
781.218	18480.67
781.552	18395.25
781.886	18358.19
782.22	18256.05
782.554	18286.1
782.888	18137.86
783.222	18133.79
783.556	18143.28
783.889	18126.33
784.223	17953.45
784.557	18002.72
784.89	18007.01
785.224	17973.11
785.557	17774.93
785.891	17727.02
786.224	17783.74
786.558	17796.85
786.891	17696.96
787.224	17596.63
787.557	17644.31
787.891	17623.52
788.224	17532.45
788.557	17638.66
788.89	17363.41
789.223	17490.87
789.556	17356.18
789.888	17237.09
790.221	17213.59
790.554	17082.97
790.887	17047.04
791.219	16990.32
791.552	16993.71
791.884	16961.16
792.217	16925.91
792.549	16899.92
792.882	16825.57
793.214	16761.62
793.546	16733.83
793.879	16721.4
794.211	16540.61
794.543	16614.96
794.875	16547.39
795.207	16662.19
795.539	16436.88
795.871	16515.75
796.203	16345.81
796.535	16210.45
796.867	16226.72
797.198	16207.96
797.53	16217
797.862	16069.21
798.193	16046.61
798.525	16063.56
798.856	16103.56
799.188	15863.79
799.519	15814.75
799.85	15799.84
800.182	15757.13
800.513	15799.84
800.844	15622.67
801.175	15660.18
801.506	15741.31
801.837	15552.84
802.168	15585.83
802.499	15483.69
802.83	15394.65
803.161	15371.15
803.491	15333.18
803.822	15397.82
804.153	15299.06
804.483	15189.01
804.814	15084.83
805.145	15161.66
805.475	15181.78
805.805	15059.07
806.136	15035.34
806.466	14980.88
806.796	14947.43
807.126	14824.27
807.457	14824.72
807.787	14831.05
808.117	14668.8
808.447	14672.18
808.777	14763.03
809.107	14683.03
809.436	14577.72
809.766	14725.29
810.096	14647.55
810.426	14546.76
810.755	14570.72
811.085	14548.12
811.414	14519.87
811.744	14323.49
812.073	14375.24
812.403	14327.11
812.732	14234.46
813.061	14350.16
813.39	14215.25
813.719	14151.52
814.049	14334.34
814.378	14116.04
814.707	14088.7
815.036	14090.96
815.365	13970.96
815.693	13848.7
816.022	13940.45
816.351	13945.42
816.68	13814.58
817.008	13833.79
817.337	13721.7
817.665	13749.27
817.994	13758.99
818.322	13731.42
818.651	13631.76
818.979	13607.58
819.307	13747.01
819.636	13662.95
819.964	13505.44
820.292	13517.41
820.62	13560.35
820.948	13488.04
821.276	13551.99
821.604	13422.05
821.932	13486.91
822.259	13497.07
822.587	13534.36
822.915	13421.37
823.243	13476.06
823.57	13507.02
823.898	13448.26
824.225	13411.88
824.553	13476.96
824.88	13432.44
825.207	13521.48
825.535	13397.19
825.862	13447.58
826.189	13437.64
826.516	13479.45
826.843	13493.23
827.17	13500.92
827.497	13438.09
827.824	13511.76
828.151	13533.23
828.478	13472.22
828.805	13571.42
829.131	13475.83
829.458	13412.1
829.785	13425.21
830.111	13399.22
830.438	13504.76
830.764	13456.4
831.09	13463.63
831.417	13438.09
831.743	13490.3
832.069	13413.69
832.395	13387.7
832.722	13382.73
833.048	13346.57
833.374	13331.66
833.7	13383.41
834.026	13247.36
834.351	13343.63
834.677	13356.06
835.003	13313.35
835.329	13343.86
835.654	13264.31
835.98	13224.31
836.306	13245.1
836.631	13197.65
836.956	13226.35
837.282	13256.18
837.607	13161.49
837.932	13142.06
838.258	13168.95
838.583	13074.03
838.908	13068.39
839.233	13111.1
839.558	13033.81
839.883	12983.42
840.208	12933.47
840.533	12971.21
840.858	12888.73
841.182	12937.54
841.507	12854.38
841.832	12898.67
842.156	12812.57
842.481	12804.66
842.805	12827.94
843.13	12712.69
843.454	12759.47
843.778	12620.71
844.103	12636.53
844.427	12675.85
844.751	12592.92
845.075	12510.89
845.399	12487.61
845.723	12495.97
846.047	12432.92
846.371	12455.07
846.695	12358.8
847.019	12329.87
847.343	12206.03
847.666	12178.69
847.99	12183.21
848.313	12111.57
848.637	11943.22
848.96	11936.66
849.284	11975.31
849.607	11870.22
849.931	11810.79
850.254	11811.02
850.577	11681.75
850.9	11689.66
851.223	11665.26
851.546	11594.07
851.869	11567.18
852.192	11524.02
852.515	11509.33
852.838	11337.13
853.161	11447.41
853.483	11430.91
853.806	11338.94
854.129	11269.56
854.451	11282.67
854.774	11288.32
855.096	11155.89
855.419	11086.97
855.741	11126.74
856.063	11002.68
856.385	11059.62
856.708	10961.1
857.03	10985.05
857.352	10947.99
857.674	10907.09
857.996	10898.95
858.318	10813.76
858.64	10816.69
858.961	10796.81
859.283	10728.33
859.605	10702.12
859.926	10703.25
860.248	10711.61
860.57	10632.52
860.891	10642.69
861.212	10638.39
861.534	10588.9
861.855	10540.54
862.176	10518.17
862.498	10510.71
862.819	10524.05
863.14	10498.51
863.461	10515.46
863.782	10406.53
864.103	10436.14
864.424	10337.61
864.745	10377.16
865.065	10341.9
865.386	10303.26
865.707	10264.84
866.027	10322.24
866.348	10300.1
866.668	10242.47
866.989	10219.65
867.309	10135.13
867.63	10149.14
867.95	10225.07
868.27	10085.41
868.59	10134.45
868.91	10108.01
869.23	10112.08
869.55	9990.05
869.87	10105.07
870.19	10022.82
870.51	10034.11
870.83	10053.78
871.15	9963.83
871.469	9985.75
871.789	10017.17
872.109	9941.46
872.428	9888.81
872.748	9904.85
873.067	9874.57
873.386	9972.42
873.706	9870.05
874.025	9844.06
874.344	9861.24
874.663	9814.01
874.982	9816.49
875.301	9816.49
875.62	9766.55
875.939	9709.38
876.258	9760
876.577	9688.36
876.896	9686.1
877.214	9635.03
877.533	9687.46
877.852	9664.86
878.17	9656.27
878.489	9702.15
878.807	9645.65
879.125	9626.89
879.444	9610.62
879.762	9596.61
880.08	9528.14
880.398	9523.17
880.716	9546.67
881.034	9490.4
881.352	9511.42
881.67	9462.6
881.988	9501.47
882.306	9482.94
882.624	9401.14
882.941	9336.05
883.259	9356.39
883.577	9354.13
883.894	9338.99
884.212	9312.78
884.529	9317.07
884.846	9221.71
885.164	9175.15
885.481	9192.55
885.798	9171.76
886.115	9108.26
886.432	9167.7
886.75	9154.59
887.067	9052.45
887.383	9048.38
887.7	9045.21
888.017	8957.53
888.334	9002.96
888.651	8973.58
888.967	9005.89
889.284	8919.79
889.6	8888.61
889.917	8842.06
890.233	8868.72
890.55	8800.02
890.866	8793.92
891.182	8822.85
891.498	8787.82
891.815	8669.63
892.131	8658.78
892.447	8663.76
892.763	8686.81
893.079	8617.43
893.395	8624.21
893.71	8519.35
894.026	8490.2
894.342	8518
894.657	8443.87
894.973	8481.84
895.289	8374.05
895.604	8426.47
895.92	8356.64
896.235	8366.14
896.55	8331.33
896.865	8371.33
897.181	8291.11
897.496	8281.17
897.811	8170.21
898.126	8213.15
898.441	8185.8
898.756	8094.5
899.071	8087.27
899.386	8063.55
899.7	8041.17
900.015	8015.18
900.33	7930.22
900.644	7928.41
900.959	7928.86
901.273	7873.49
901.588	7875.75
901.902	7818.13
902.216	7760.73
902.531	7765.25
902.845	7735.64
903.159	7755.76
903.473	7672.59
903.787	7697
904.101	7606.38
904.415	7612.26
904.729	7586.5
905.042	7584.01
905.356	7515.54
905.67	7483.67
905.984	7509.44
906.297	7485.93
906.611	7384.92
906.924	7453.84
907.237	7370
907.551	7371.13
907.864	7261.98
908.177	7274.41
908.491	7282.1
908.804	7208.2
909.117	7156
909.43	7134.3
909.743	7119.84
910.056	7112.84
910.368	7106.06
910.681	7040.3
910.994	7006.4
911.307	6993.29
911.619	6953.97
911.932	6892.95
912.244	6880.07
912.557	6821.54
912.869	6827.65
913.181	6816.12
913.494	6789.45
913.806	6752.17
914.118	6657.93
914.43	6668.78
914.742	6672.4
915.054	6583.81
915.366	6622.9
915.678	6560.99
915.99	6615.67
916.302	6532.06
916.613	6537.26
916.925	6528.22
917.236	6431.95
917.548	6377.04
917.859	6420.2
918.171	6334.78
918.482	6327.77
918.794	6323.25
919.105	6249.81
919.416	6247.77
919.727	6219.53
920.038	6189.24
920.349	6156.02
920.66	6188.57
920.971	6182.69
921.282	6145.63
921.593	6088.91
921.903	6063.82
922.214	6034.67
922.525	6092.52
922.835	6015.69
923.146	5972.98
923.456	5967.78
923.767	5897.73
924.077	5880.1
924.387	5874.68
924.697	5853.66
925.008	5824.73
925.318	5821.57
925.628	5775.7
925.938	5742.02
926.248	5772.31
926.558	5658.18
926.867	5713.1
927.177	5677.85
927.487	5613.89
927.796	5567.79
928.106	5580.22
928.416	5564.18
928.725	5483.95
929.034	5473.33
929.344	5521.01
929.653	5434.46
929.962	5379.77
930.271	5384.97
930.581	5415.25
930.89	5375.25
931.199	5323.05
931.508	5325.54
931.817	5323.73
932.125	5351.75
932.434	5267.23
932.743	5225.88
933.051	5154.47
933.36	5183.85
933.669	5162.6
933.977	5166.22
934.286	5144.98
934.594	5079.22
934.902	5031.53
935.21	5067.69
935.519	5050.29
935.827	5004.19
936.135	4977.07
936.443	4985.21
936.751	4950.63
937.059	4941.59
937.367	4916.51
937.674	4904.08
937.982	4928.03
938.29	4887.13
938.597	4879.22
938.905	4804.42
939.213	4828.15
939.52	4761.94
939.827	4790.86
940.135	4738.43
940.442	4726.91
940.749	4668.61
941.056	4693.46
941.363	4695.95
941.67	4632
941.977	4602.17
942.284	4574.15
942.591	4580.7
942.898	4565.33
943.205	4572.79
943.511	4528.27
943.818	4489.4
944.125	4448.5
944.431	4468.39
944.738	4478.33
945.044	4419.12
945.35	4359.46
945.657	4362.4
945.963	4341.61
946.269	4372.79
946.575	4389.74
946.881	4304.55
947.187	4291.89
947.493	4254.83
947.799	4225.45
948.105	4216.87
948.41	4194.49
948.716	4240.14
949.022	4177.09
949.327	4194.27
949.633	4119.24
949.938	4136.64
950.244	4152.46
950.549	4095.97
950.854	4034.95
951.16	4021.62
951.465	4039.7
951.77	4059.36
952.075	3980.26
952.38	4019.36
952.685	3979.58
952.99	3947.5
953.294	3880.15
953.599	3884.9
953.904	3909.76
954.209	3876.99
954.513	3851.9
954.818	3870.43
955.122	3838.57
955.426	3821.85
955.731	3798.12
956.035	3796.54
956.339	3769.87
956.643	3761.29
956.948	3732.36
957.252	3711.12
957.556	3671.12
957.86	3639.71
958.163	3652.81
958.467	3649.42
958.771	3625.7
959.075	3608.29
959.378	3618.01
959.682	3590.44
959.985	3599.71
960.289	3557.9
960.592	3566.49
960.896	3536.88
961.199	3514.74
961.502	3451.46
961.805	3480.84
962.108	3434.06
962.411	3474.97
962.714	3431.12
963.017	3418.47
963.32	3412.82
963.623	3408.98
963.926	3417.57
964.228	3376.66
964.531	3347.51
964.833	3376.44
965.136	3281.98
965.438	3337.12
965.741	3304.8
966.043	3259.15
966.345	3282.43
966.648	3232.71
966.95	3269.77
967.252	3231.36
967.554	3201.53
967.856	3211.7
968.158	3152.49
968.46	3133.28
968.761	3196.78
969.063	3131.47
969.365	3134.64
969.666	3135.77
969.968	3145.26
970.269	3066.84
970.571	3067.29
970.872	3055.09
971.174	3037.46
971.475	3018.93
971.776	3034.07
972.077	2977.35
972.378	2991.59
972.679	2987.97
972.98	2987.75
973.281	2938.26
973.582	2946.39
973.883	2926.73
974.183	2893.29
974.484	2879.05
974.785	2883.57
975.085	2868.43
975.386	2861.2
975.686	2879.5
975.986	2819.62
976.287	2837.24
976.587	2825.26
976.887	2797.02
977.187	2808.09
977.487	2762.89
977.787	2735.1
978.087	2762.67
978.387	2755.21
978.687	2767.19
978.987	2695.1
979.286	2704.36
979.586	2694.42
979.885	2662.33
980.185	2682.67
980.484	2641.09
980.784	2609.23
981.083	2650.13
981.382	2651.26
981.682	2621.2
981.981	2602.45
982.28	2602.22
982.579	2585.05
982.878	2582.79
983.177	2550.7
983.475	2557.93
983.774	2509.34
984.073	2512.73
984.372	2514.99
984.67	2557.25
984.969	2483.35
985.267	2482.9
985.566	2489
985.864	2462.34
986.162	2439.51
986.461	2424.82
986.759	2443.58
987.057	2442.68
987.355	2420.76
987.653	2393.41
987.951	2380.08
988.249	2362
988.547	2375.56
988.844	2338.5
989.142	2323.36
989.44	2310.02
989.737	2315.22
990.035	2298.5
990.332	2280.19
990.63	2269.12
990.927	2238.39
991.224	2258.73
991.521	2269.12
991.819	2219.86
992.116	2216.69
992.413	2229.12
992.71	2200.87
993.006	2197.71
993.303	2188.9
993.6	2171.04
993.897	2151.61
994.193	2192.74
994.49	2196.13
994.787	2157.49
995.083	2140.99
995.379	2125.4
995.676	2113.42
995.972	2102.8
996.268	2095.34
996.565	2058.51
996.861	2076.13
997.157	2027.77
997.453	2061.22
997.749	2035.23
998.044	2051.73
998.34	2025.96
998.636	2003.37
998.932	2014.89
999.227	1979.41
999.523	1956.81
999.818	1946.42
1000.114	1956.81
1000.409	1935.12
1000.704	1935.8
1001	1907.32
1001.295	1926.08
1001.59	1914.1
1001.885	1888.79
1002.18	1870.71
1002.475	1891.05
1002.77	1863.03
1003.065	1835.91
1003.359	1851.05
1003.654	1850.83
1003.949	1838.85
1004.243	1803.82
1004.538	1789.59
1004.832	1792.75
1005.127	1792.07
1005.421	1782.58
1005.715	1795.46
1006.009	1756.59
1006.304	1772.64
1006.598	1739.42
1006.892	1747.1
1007.186	1703.49
1007.48	1703.03
1007.773	1705.07
1008.067	1696.48
1008.361	1709.59
1008.655	1657.84
1008.948	1656.26
1009.242	1628.69
1009.535	1609.7
1009.829	1643.83
1010.122	1611.06
1010.415	1610.83
1010.708	1606.77
1011.001	1583.72
1011.295	1572.64
1011.588	1589.82
1011.881	1539.42
1012.173	1541
1012.466	1563.83
1012.759	1539.2
1013.052	1550.04
1013.344	1532.87
1013.637	1536.49
1013.93	1513.21
1014.222	1494
1014.514	1523.15
1014.807	1488.35
1015.099	1464.4
1015.391	1471.4
1015.683	1462.36
1015.976	1449.93
1016.268	1418.3
1016.56	1441.12
1016.851	1416.94
1017.143	1444.74
1017.435	1421.91
1017.727	1398.86
1018.018	1406.54
1018.31	1385.53
1018.602	1384.62
1018.893	1359.99
1019.185	1377.17
1019.476	1338.52
1019.767	1383.49
1020.058	1342.59
1020.35	1323.84
1020.641	1314.57
1020.932	1305.76
1021.223	1318.19
1021.514	1283.16
1021.804	1256.94
1022.095	1286.32
1022.386	1237.74
1022.677	1259.66
1022.967	1263.5
1023.258	1248.58
1023.548	1233.44
1023.839	1225.76
1024.129	1211.52
1024.419	1221.24
1024.709	1209.94
1025	1167
1025.29	1166.33
1025.58	1172.88
1025.87	1183.95
1026.16	1197.96
1026.449	1140.34
1026.739	1133.56
1027.029	1129.49
1027.319	1115.48
1027.608	1111.86
1027.898	1119.55
1028.187	1109.38
1028.477	1098.76
1028.766	1093.78
1029.055	1120.22
1029.344	1094.24
1029.634	1075.93
1029.923	1066.44
1030.212	1046.33
1030.501	1064.18
1030.79	1039.32
1031.078	1048.36
1031.367	1039.55
1031.656	1034.13
1031.945	1023.5
1032.233	1005.2
1032.522	985.09
1032.81	1017.63
1033.099	1002.94
1033.387	1030.96
1033.675	1005.43
1033.963	988.7
1034.251	969.27
1034.54	965.88
1034.828	964.75
1035.116	937.63
1035.403	967.91
1035.691	943.51
1035.979	955.94
1036.267	928.59
1036.554	924.52
1036.842	920.46
1037.129	920.91
1037.417	932.43
1037.704	932.89
1037.992	887.24
1038.279	880.23
1038.566	880.68
1038.853	880.68
1039.14	880.68
