Data from hue_220_FLMS001491_00072.txt Node
Date: Tue Feb 07 16:39:55 GMT 2017
User: dcchb
Spectrometer: FLMS00149
Trigger mode: 0
Integration Time (sec): 2.000000E-2
Scans to average: 10
Electric dark correction enabled: true
Nonlinearity correction enabled: false
Boxcar width: 0
XAxis mode: Wavelengths
Number of Pixels in Spectrum: 2048
>>>>>Begin Spectral Data<<<<<
341.393	-7.68
341.776	-7.68
342.16	-7.68
342.543	-67.57
342.927	-69.83
343.31	-54.24
343.693	-42.48
344.077	-80.45
344.46	-54.46
344.843	-40.9
345.226	-45.42
345.61	-43.61
345.993	-27.12
346.376	-21.69
346.759	10.17
347.142	34.8
347.525	39.1
347.908	60.11
348.291	79.77
348.674	91.97
349.057	94.46
349.44	110.73
349.823	139.88
350.206	195.7
350.588	202.71
350.971	208.13
351.354	197.51
351.737	235.47
352.119	240.67
352.502	280.44
352.884	281.8
353.267	280.9
353.65	281.8
354.032	297.85
354.414	335.13
354.797	355.02
355.179	316.38
355.562	324.06
355.944	328.8
356.326	332.87
356.709	345.98
357.091	345.75
357.473	334
357.855	336.04
358.238	338.97
358.62	328.13
359.002	350.95
359.384	353.89
359.766	329.03
360.148	340.1
360.53	352.53
360.912	335.58
361.294	363.15
361.676	334.91
362.057	338.52
362.439	358.63
362.821	316.38
363.203	328.58
363.584	316.38
363.966	345.08
364.348	343.95
364.729	329.71
365.111	320.22
365.493	328.8
365.874	332.42
366.256	302.82
366.637	316.38
367.019	314.57
367.4	323.61
367.781	299.65
368.163	302.36
368.544	313.21
368.925	291.07
369.306	328.35
369.688	345.75
370.069	310.05
370.45	303.49
370.831	327.22
371.212	317.73
371.593	299.2
371.974	308.01
372.355	308.47
372.736	309.6
373.117	298.98
373.498	324.06
373.879	312.08
374.26	334.45
374.641	333.78
375.021	301.24
375.402	334.23
375.783	340.78
376.163	332.65
376.544	328.13
376.925	349.37
377.305	310.5
377.686	332.87
378.066	331.29
378.447	329.93
378.827	330.39
379.208	317.28
379.588	315.02
379.968	347.79
380.349	338.3
380.729	349.6
381.109	337.17
381.489	358.86
381.87	337.84
382.25	343.27
382.63	337.84
383.01	352.76
383.39	334.45
383.77	348.24
384.15	332.42
384.53	355.47
384.91	359.09
385.29	354.34
385.67	331.74
386.049	363.15
386.429	345.75
386.809	365.64
387.189	365.87
387.568	370.61
387.948	365.64
388.328	365.41
388.707	385.3
389.087	376.26
389.466	374.91
389.846	354.57
390.225	396.37
390.605	353.66
390.984	407.45
391.363	389.59
391.743	369.93
392.122	381.01
392.501	396.83
392.881	360.44
393.26	384.17
393.639	368.58
394.018	381.68
394.397	390.95
394.776	398.63
395.155	389.59
395.534	382.81
395.913	385.53
396.292	399.99
396.671	402.7
397.05	393.44
397.429	388.92
397.808	402.7
398.186	404.51
398.565	410.16
398.944	392.76
399.323	409.48
399.701	421.68
400.08	410.38
400.458	400.22
400.837	426.66
401.215	414.45
401.594	430.27
401.972	430.95
402.351	431.18
402.729	422.59
403.107	431.4
403.486	416.03
403.864	440.21
404.242	442.93
404.62	432.98
404.999	456.94
405.377	463.49
405.755	466.65
406.133	479.99
406.511	465.75
406.889	470.5
407.267	480.44
407.645	505.3
408.023	479.76
408.401	498.97
408.779	508.24
409.156	518.4
409.534	502.59
409.912	515.92
410.29	526.31
410.667	523.83
411.045	536.94
411.422	521.57
411.8	548.46
412.178	550.95
412.555	572.87
412.933	579.65
413.31	574
413.687	571.06
414.065	618.97
414.442	606.54
414.819	602.02
415.197	623.94
415.574	657.61
415.951	629.36
416.328	647.89
416.705	644.95
417.082	669.59
417.46	667.78
417.837	686.99
418.214	689.25
418.591	686.76
418.967	694.67
419.344	697.16
419.721	714.78
420.098	713.43
420.475	741.22
420.852	735.12
421.228	758.85
421.605	778.28
421.982	776.93
422.358	791.84
422.735	800.88
423.111	802.92
423.488	834.33
423.864	855.12
424.241	846.76
424.617	885.4
424.994	865.51
425.37	909.81
425.746	908
426.123	917.04
426.499	924.95
426.875	928.34
427.251	959.52
427.627	971.95
428.003	991.61
428.379	992.74
428.756	1009.01
429.132	1030.03
429.507	1032.06
429.883	1049.01
430.259	1032.52
430.635	1052.63
431.011	1079.29
431.387	1119.74
431.763	1102.34
432.138	1129.46
432.514	1121.78
432.89	1143.02
433.265	1173.75
433.641	1206.07
434.016	1213.08
434.392	1230.7
434.767	1263.92
435.143	1255.56
435.518	1321.55
435.894	1310.7
436.269	1331.94
436.644	1375.11
437.02	1407.87
437.395	1380.3
437.77	1412.39
438.145	1439.74
438.52	1476.35
438.895	1476.35
439.271	1495.55
439.646	1552.5
440.021	1587.3
440.395	1576.91
440.77	1573.97
441.145	1592.27
441.52	1635.21
441.895	1630.92
442.27	1661.43
442.645	1658.71
443.019	1656.45
443.394	1707.98
443.769	1739.16
444.143	1738.94
444.518	1746.85
444.892	1749.78
445.267	1778.03
445.641	1781.65
446.016	1817.13
446.39	1785.49
446.764	1867.75
447.139	1818.94
447.513	1851.48
447.887	1880.4
448.262	1882.66
448.636	1900.06
449.01	1912.94
449.384	1918.14
449.758	1933.06
450.132	1966.5
450.506	1949.33
450.88	1971.02
451.254	1953.17
451.628	2009.89
452.002	2063.22
452.376	2073.39
452.75	2058.7
453.123	2077.01
453.497	2106.39
453.871	2106.16
454.244	2163.11
454.618	2165.59
454.992	2205.82
455.365	2182.09
455.739	2231.81
456.112	2259.83
456.486	2277.45
456.859	2314.74
457.232	2353.84
457.606	2318.81
457.979	2352.48
458.352	2393.38
458.725	2439.26
459.099	2437
459.472	2471.57
459.845	2515.19
460.218	2513.83
460.591	2546.83
460.964	2550.89
461.337	2620.27
461.71	2637.67
462.083	2665.69
462.456	2673.6
462.829	2705.92
463.201	2737.33
463.574	2777.33
463.947	2763.09
464.32	2856.65
464.692	2858.68
465.065	2844.9
465.438	2945.01
465.81	2944.78
466.183	2977.77
466.555	3050.99
466.928	3061.84
467.3	3081.95
467.672	3059.81
468.045	3161.05
468.417	3180.93
468.789	3164.44
469.161	3235.17
469.534	3317.65
469.906	3327.37
470.278	3311.55
470.65	3360.82
471.022	3439.91
471.394	3443.3
471.766	3516.97
472.138	3565.33
472.51	3607.59
472.882	3648.27
473.253	3714.7
473.625	3731.2
473.997	3780.92
474.369	3836.74
474.74	3842.38
475.112	3922.16
475.484	3958.54
475.855	4026.79
476.227	4089.61
476.598	4153.11
476.97	4205.31
477.341	4246.22
477.713	4307.01
478.084	4297.51
478.455	4475.81
478.827	4430.84
479.198	4611.4
479.569	4552.42
479.94	4674.45
480.311	4658.63
480.682	4838.97
481.053	4856.14
481.424	4940.66
481.795	4962.36
482.166	5059.98
482.537	5095.46
482.908	5197.15
483.279	5210.48
483.65	5317.15
484.021	5424.49
484.391	5420.2
484.762	5465.84
485.133	5481.89
485.503	5584.71
485.874	5675.11
486.244	5725.05
486.615	5819.96
486.985	5858.38
487.356	5958.04
487.726	6015.89
488.097	6108.77
488.467	6134.75
488.837	6244.81
489.207	6281.87
489.578	6368.19
489.948	6393.96
490.318	6460.85
490.688	6432.15
491.058	6573.61
491.428	6667.85
491.798	6648.64
492.168	6818.35
492.538	6746.49
492.908	6852.7
493.278	6978.35
493.648	6939.93
494.017	7004.56
494.387	7050.66
494.757	7132.24
495.126	7171.11
495.496	7194.16
495.866	7169.3
496.235	7256.76
496.605	7307.38
496.974	7350.54
497.344	7409.97
497.713	7481.16
498.082	7501.72
498.452	7561.84
498.821	7488.84
499.19	7555.73
499.559	7593.92
499.928	7710.08
500.298	7675.5
500.667	7802.73
501.036	7708.5
501.405	7793.24
501.774	7794.6
502.143	7834.37
502.512	7861.49
502.88	7871.21
503.249	7907.81
503.618	7977.42
503.987	7883.63
504.356	7967.93
504.724	8018.09
505.093	8019.68
505.462	8049.51
505.83	8071.88
506.199	8118.88
506.567	8165.21
506.936	8143.06
507.304	8269.84
507.672	8293.12
508.041	8197.98
508.409	8269.16
508.777	8348.26
509.145	8344.41
509.514	8309.61
509.882	8368.14
510.25	8356.62
510.618	8346.45
510.986	8375.6
511.354	8422.15
511.722	8455.14
512.09	8537.85
512.458	8514.13
512.826	8500.57
513.193	8500.57
513.561	8537.85
513.929	8581.92
514.297	8631.41
514.664	8608.14
515.032	8585.31
515.4	8674.57
515.767	8690.39
516.135	8656.72
516.502	8597.06
516.869	8671.86
517.237	8718.87
517.604	8622.37
517.972	8756.38
518.339	8698.98
518.706	8659.43
519.073	8666.66
519.44	8740.56
519.808	8741.24
520.175	8736.04
520.542	8769.71
520.909	8795.47
521.276	8774.23
521.643	8833.89
522.009	8844.06
522.376	8823.95
522.743	8872.31
523.11	8864.17
523.477	8921.57
523.843	8961.57
524.21	8961.57
524.577	9017.84
524.943	8980.1
525.31	8988.46
525.676	8981.01
526.043	9097.16
526.409	9069.14
526.776	9129.7
527.142	9096.94
527.508	9093.09
527.874	9073.21
528.241	9147.56
528.607	9045.41
528.973	9116.14
529.339	9113.21
529.705	9073.66
530.071	9091.06
530.437	9122.02
530.803	9134.22
531.169	9131.74
531.535	9152.3
531.901	9025.07
532.267	9076.15
532.632	9086.31
532.998	9160.89
533.364	9107.33
533.73	9098.74
534.095	9134.68
534.461	9172.87
534.826	9152.75
535.192	9099.2
535.557	9070.5
535.923	9071.85
536.288	9049.71
536.653	9049.48
537.019	9061.91
537.384	9024.4
537.749	9021.46
538.114	9026.88
538.479	8999.31
538.845	8964.28
539.21	8867.56
539.575	8943.95
539.94	8890.84
540.305	8957.5
540.67	8836.83
541.034	8865.08
541.399	8860.33
541.764	8845.19
542.129	8825.08
542.494	8797.96
542.858	8776.49
543.223	8733.1
543.587	8850.61
543.952	8699.88
544.316	8741.69
544.681	8721.35
545.045	8720.22
545.41	8709.83
545.774	8714.35
546.138	8771.07
546.503	8666.66
546.867	8602.03
547.231	8642.26
547.595	8667.12
547.959	8607.01
548.324	8584.63
548.688	8581.02
549.052	8562.94
549.416	8568.36
549.779	8540.57
550.143	8551.41
550.507	8524.97
550.871	8507.8
551.235	8514.35
551.599	8431.19
551.962	8508.93
552.326	8419.21
552.689	8427.35
553.053	8415.15
553.417	8394.13
553.78	8460.12
554.143	8409.95
554.507	8364.75
554.87	8378.76
555.234	8382.6
555.597	8338.76
555.96	8341.48
556.323	8388.25
556.686	8342.15
557.05	8315.04
557.413	8329.27
557.776	8341.25
558.139	8290.63
558.502	8302.15
558.865	8213.34
559.228	8361.36
559.59	8360.68
559.953	8267.58
560.316	8338.09
560.679	8321.82
561.041	8351.19
561.404	8349.84
561.767	8348.93
562.129	8361.59
562.492	8396.16
562.854	8319.78
563.217	8367.92
563.579	8294.7
563.941	8415.82
564.304	8433.9
564.666	8424.86
565.028	8480.45
565.39	8435.26
565.753	8520.91
566.115	8505.54
566.477	8458.99
566.839	8458.53
567.201	8474.58
567.563	8525.65
567.925	8549.38
568.287	8558.65
568.648	8520
569.01	8563.84
569.372	8619.43
569.734	8620.79
570.095	8620.34
570.457	8605.2
570.819	8606.1
571.18	8654.69
571.542	8639.55
571.903	8660.79
572.265	8698.08
572.626	8731.52
572.987	8699.88
573.349	8726.55
573.71	8813.1
574.071	8776.49
574.432	8749.37
574.794	8875.25
575.155	8793.67
575.516	8831.63
575.877	8852.65
576.238	8837.73
576.599	8912.08
576.96	8928.58
577.32	8908.01
577.681	8971.52
578.042	8934.45
578.403	8989.37
578.763	9008.35
579.124	9042.93
579.485	9041.12
579.845	9119.31
580.206	9056.94
580.566	9126.77
580.927	9104.62
581.287	9116.6
581.648	9128.12
582.008	9158.86
582.368	9190.04
582.728	9143.04
583.089	9173.54
583.449	9253.09
583.809	9230.04
584.169	9244.73
584.529	9282.92
584.889	9303.71
585.249	9270.49
585.609	9316.59
585.969	9367.44
586.329	9456.02
586.688	9364.95
587.048	9337.16
587.408	9324.27
587.768	9357.72
588.127	9417.15
588.487	9430.03
588.846	9453.54
589.206	9403.14
589.565	9444.72
589.925	9472.75
590.284	9536.7
590.643	9511.16
591.003	9472.52
591.362	9529.01
591.721	9590.03
592.08	9509.13
592.44	9539.64
592.799	9572.18
593.158	9581.67
593.517	9553.87
593.876	9601.1
594.235	9535.34
594.593	9623.7
594.952	9614.66
595.311	9591.39
595.67	9616.02
596.029	9684.72
596.387	9609.24
596.746	9673.42
597.104	9622.35
597.463	9601.33
597.822	9596.36
598.18	9690.82
598.538	9716.35
598.897	9702.12
599.255	9620.99
599.613	9808.33
599.972	9707.32
600.33	9774.43
600.688	9712.06
601.046	9790.7
601.404	9769.01
601.762	9714.09
602.12	9793.41
602.478	9775.34
602.836	9760.65
603.194	9771.04
603.552	9787.31
603.91	9707.32
604.268	9795.67
604.625	9730.82
604.983	9802.68
605.341	9777.6
605.698	9855.33
606.056	9810.14
606.413	9748.67
606.771	9884.03
607.128	9855.79
607.485	9773.53
607.843	9855.33
608.2	9896.46
608.557	9823.47
608.914	9847.2
609.272	9888.55
609.629	10004.48
609.986	9973.52
610.343	9916.58
610.7	9958.16
611.057	10034.76
611.414	9951.6
611.771	9934.2
612.127	9980.08
612.484	10000.64
612.841	10122.22
613.198	9989.79
613.554	10028.44
613.911	10013.97
614.267	10052.17
614.624	10134.2
614.98	10089.23
615.337	10076.12
615.693	10103.01
616.05	10105.5
616.406	10140.98
616.762	10070.7
617.118	10116.57
617.475	10132.39
617.831	10131.03
618.187	10105.95
618.543	10159.05
618.899	10225.04
619.255	10187.53
619.611	10242.89
619.967	10218.04
620.323	10296.9
620.678	10238.37
621.034	10174.42
621.39	10154.08
621.746	10131.94
622.101	10281.31
622.457	10208.55
622.812	10203.35
623.168	10256
623.523	10209.9
623.879	10291.71
624.234	10202.44
624.589	10244.48
624.945	10270.69
625.3	10138.04
625.655	10229.56
626.01	10163.57
626.365	10265.94
626.72	10256.45
627.075	10204.25
627.43	10249.9
627.785	10127.42
628.14	10202.22
628.495	10195.89
628.85	10216
629.205	10149.34
629.559	10220.97
629.914	10159.96
630.269	10154.99
630.623	10145.27
630.978	10129.45
631.332	10107.3
631.687	10144.14
632.041	10112.95
632.396	10108.43
632.75	10006.29
633.104	10075.89
633.459	9990.25
633.813	10039.51
634.167	10009.68
634.521	9966.97
634.875	10032.28
635.229	10024.82
635.583	9906.86
635.937	9958.83
636.291	9937.59
636.645	9952.28
636.999	9981.66
637.352	9904.15
637.706	9887.65
638.06	9952.05
638.413	9966.52
638.767	9828.22
639.121	9884.71
639.474	9763.13
639.828	9815.11
640.181	9834.09
640.534	9793.64
640.888	9792.74
641.241	9691.27
641.594	9745.05
641.947	9800.19
642.301	9755.9
642.654	9771.49
643.007	9736.47
643.36	9721.33
643.713	9760.42
644.066	9760.65
644.419	9687.2
644.771	9616.7
645.124	9574.89
645.477	9611.95
645.83	9469.36
646.182	9518.39
646.535	9419.19
646.888	9431.16
647.24	9454.67
647.593	9443.37
647.945	9407.66
648.298	9425.97
648.65	9360.43
649.002	9393.65
649.355	9469.36
649.707	9418.28
650.059	9480.43
650.411	9646.53
650.763	9577.6
651.115	9636.13
651.467	9594.55
651.819	9669.58
652.171	9604.49
652.523	9628.22
652.875	9611.95
653.227	9562.46
653.578	9703.25
653.93	9658.96
654.282	9584.15
654.633	9562.01
654.985	9621.44
655.337	9548
655.688	9620.54
656.039	9686.3
656.391	9585.96
656.742	9591.16
657.094	9632.74
657.445	9668.9
657.796	9699.18
658.147	9651.72
658.498	9640.2
658.849	9644.72
659.2	9633.19
659.551	9570.6
659.902	9638.62
660.253	9670.93
660.604	9700.76
660.955	9616.02
661.306	9631.84
661.656	9655.79
662.007	9598.39
662.358	9694.89
662.708	9733.08
663.059	9596.13
663.409	9731.95
663.76	9739.63
664.11	9673.42
664.461	9716.35
664.811	9698.5
665.161	9646.98
665.511	9625.51
665.862	9749.8
666.212	9750.48
666.562	9655.57
666.912	9727.2
667.262	9664.83
667.612	9677.26
667.962	9668.67
668.312	9623.25
668.662	9668.45
669.011	9667.32
669.361	9660.99
669.711	9613.31
670.06	9642.91
670.41	9576.25
670.76	9617.37
671.109	9608.79
671.459	9608.56
671.808	9620.54
672.157	9596.36
672.507	9596.13
672.856	9540.31
673.205	9561.33
673.554	9625.74
673.904	9502.58
674.253	9603.14
674.602	9631.39
674.951	9468.45
675.3	9455.12
675.649	9529.92
675.998	9522.91
676.346	9536.7
676.695	9469.13
677.044	9482.46
677.393	9460.09
677.741	9508.45
678.09	9546.64
678.438	9429.36
678.787	9446.31
679.135	9548.45
679.484	9509.35
679.832	9377.61
680.181	9357.72
680.529	9421.45
680.877	9304.39
681.225	9374.44
681.573	9425.51
681.922	9285.41
682.27	9318.4
682.618	9309.36
682.966	9260.1
683.314	9279.53
683.661	9232.98
684.009	9233.43
684.357	9205.86
684.705	9184.62
685.053	9123.6
685.4	9166.76
685.748	9113.43
686.095	9083.15
686.443	9053.55
686.79	9091.29
687.138	9061
687.485	9071.85
687.832	8982.36
688.18	8978.07
688.527	8952.98
688.874	8896.49
689.221	8910.95
689.568	8951.63
689.915	8877.51
690.262	8834.57
690.609	8825.53
690.956	8778.07
691.303	8803.38
691.65	8721.58
691.997	8714.35
692.344	8690.84
692.69	8662.37
693.037	8631.41
693.383	8571.3
693.73	8613.78
694.077	8514.35
694.423	8494.69
694.769	8489.72
695.116	8420.34
695.462	8481.13
695.808	8447.01
696.155	8393.45
696.501	8386.67
696.847	8291.53
697.193	8294.47
697.539	8268.26
697.885	8186.9
698.231	8168.82
698.577	8190.52
698.923	8139.9
699.269	8094.7
699.614	8044.53
699.96	8062.16
700.306	8091.54
700.651	7967.93
700.997	7921.83
701.342	7946.23
701.688	7913.46
702.033	7910.98
702.379	7897.42
702.724	7905.33
703.069	7837.53
703.415	7793.47
703.76	7724.77
704.105	7763.41
704.45	7683.41
704.795	7649.06
705.14	7587.6
705.485	7620.36
705.83	7602.96
706.175	7574.04
706.52	7588.05
706.865	7546.47
707.209	7455.62
707.554	7532.46
707.899	7482.74
708.243	7398
708.588	7421.05
708.932	7401.16
709.277	7318.45
709.621	7371.56
709.966	7305.57
710.31	7313.25
710.654	7229.87
710.998	7305.57
711.342	7261.96
711.687	7226.02
712.031	7156.65
712.375	7181.51
712.719	7215.18
713.063	7231.67
713.407	7197.55
713.75	7110.77
714.094	7169.3
714.438	7099.47
714.782	7075.52
715.125	7101.28
715.469	7109.42
715.812	7064
716.156	7049.98
716.499	7050.89
716.843	7047.5
717.186	7031.91
717.53	7013.83
717.873	6925.69
718.216	6981.74
718.559	7028.06
718.902	6955.52
719.246	6983.55
719.589	6955.52
719.932	6953.94
720.275	6933.15
720.617	6898.8
720.96	6932.47
721.303	6916.43
721.646	6885.24
721.989	6836.88
722.331	6959.82
722.674	6885.02
723.016	6887.5
723.359	6878.24
723.701	6852.93
724.044	6815.41
724.386	6785.13
724.729	6794.85
725.071	6856.32
725.413	6815.87
725.755	6764.57
726.097	6778.35
726.439	6785.36
726.782	6767.28
727.124	6819.48
727.465	6809.54
727.807	6806.37
728.149	6762.08
728.491	6725.47
728.833	6769.09
729.175	6750.11
729.516	6730.9
729.858	6745.59
730.199	6746.72
730.541	6722.08
730.882	6679.82
731.224	6785.81
731.565	6726.83
731.906	6759.6
732.248	6799.14
732.589	6692.03
732.93	6681.86
733.271	6756.88
733.612	6787.84
733.953	6754.4
734.294	6771.8
734.635	6716.66
734.976	6750.33
735.317	6723.21
735.658	6718.47
735.999	6729.31
736.339	6774.74
736.68	6768.41
737.021	6769.09
737.361	6751.46
737.702	6814.06
738.042	6805.92
738.383	6782.87
738.723	6784.23
739.063	6807.28
739.404	6807.28
739.744	6806.83
740.084	6853.61
740.424	6802.08
740.764	6795.08
741.104	6855.41
741.444	6881.4
741.784	6841.85
742.124	6882.76
742.464	6852.25
742.804	6890.89
743.143	6899.71
743.483	6986.71
743.823	6944.45
744.162	7022.41
744.502	6982.42
744.841	7018.8
745.181	7071
745.52	7063.09
745.86	7137.67
746.199	7139.25
746.538	7135.18
746.877	7266.7
747.216	7296.08
747.556	7332.01
747.895	7374.95
748.234	7373.37
748.573	7427.15
748.911	7500.14
749.25	7583.3
749.589	7600.93
749.928	7641.61
750.267	7690.87
750.605	7783.07
750.944	7865.33
751.283	7908.72
751.621	8001.37
751.96	8087.24
752.298	8165.44
752.636	8258.99
752.975	8374.24
753.313	8440.91
753.651	8584.18
753.989	8652.65
754.327	8744.4
754.666	8791.63
755.004	9008.35
755.342	9021.46
755.679	9272.98
756.017	9228.01
756.355	9495.8
756.693	9525.4
757.031	9729.69
757.368	9836.58
757.706	9953.64
758.044	10119.06
758.381	10253.29
758.719	10486.05
759.056	10600.4
759.394	10733.28
759.731	10851.69
760.068	11053.27
760.405	11239.48
760.743	11244.22
761.08	11559.24
761.417	11639.02
761.754	11872
762.091	12020.93
762.428	12172.34
762.765	12330.98
763.102	12548.82
763.438	12666.79
763.775	12884.86
764.112	13085.08
764.449	13140.9
764.785	13333.89
765.122	13562.36
765.458	13618.85
765.795	13835.12
766.131	13988.33
766.467	14148.33
766.804	14287.53
767.14	14410.02
767.476	14554.65
767.812	14737.69
768.148	14858.59
768.485	14986.05
768.821	15151.69
769.157	15287.28
769.492	15448.86
769.828	15498.8
770.164	15650.44
770.5	15749.19
770.836	15885.68
771.171	15928.85
771.507	16081.61
771.842	16058.33
772.178	16305.33
772.513	16324.99
772.849	16416.07
773.184	16520.7
773.519	16613.12
773.855	16641.14
774.19	16723.63
774.525	16810.86
774.86	17034.13
775.195	17024.64
775.53	17184.86
775.865	17153.22
776.2	17143.96
776.535	17139.21
776.87	17320.22
777.205	17290.39
777.539	17415.81
777.874	17353.44
778.209	17371.75
778.543	17494.68
778.878	17404.97
779.212	17605.86
779.547	17589.59
779.881	17841.11
780.215	17675.69
780.55	17736.26
780.884	17795.46
781.218	17709.36
781.552	17716.6
781.886	17699.2
782.22	17757.95
782.554	17849.93
782.888	17704.17
783.222	17592.53
783.556	17680.44
783.889	17669.14
784.223	17628.24
784.557	17689.03
784.89	17776.26
785.224	17663.49
785.557	17751.85
785.891	17653.1
786.224	17691.74
786.558	17750.49
786.891	17590.05
787.224	17682.25
787.557	17556.83
787.891	17593.44
788.224	17630.27
788.557	17644.96
788.89	17658.97
789.223	17628.92
789.556	17533.32
789.888	17489.26
790.221	17499.65
790.554	17336.04
790.887	17487.9
791.219	17294.69
791.552	17349.6
791.884	17216.72
792.217	17210.85
792.549	17291.75
792.882	17174.24
793.214	17158.19
793.546	17178.08
793.879	17155.26
794.211	16995.49
794.543	17089.27
794.875	17135.59
795.207	17154.13
795.539	17032.32
795.871	17081.13
796.203	16984.86
796.535	16887.69
796.867	16959.55
797.198	16858.09
797.53	16844.75
797.862	16814.25
798.193	16854.25
798.525	16689.96
798.856	16764.3
799.188	16598.43
799.519	16575.16
799.85	16502.62
800.182	16583.07
800.513	16502.39
800.844	16426.01
801.175	16488.15
801.506	16497.19
801.837	16429.62
802.168	16318.44
802.499	16306.46
802.83	16179.46
803.161	16242.96
803.491	16264.21
803.822	16177.2
804.153	16162.74
804.483	16047.71
804.814	15935.4
805.145	16051.33
805.475	15976.76
805.805	15930.65
806.136	15814.95
806.466	15929.98
806.796	15889.3
807.126	15736.99
807.457	15736.08
807.787	15700.38
808.117	15766.14
808.447	15652.92
808.777	15673.49
809.107	15658.8
809.436	15552.36
809.766	15540.38
810.096	15431.23
810.426	15494.28
810.755	15455.19
811.085	15422.42
811.414	15388.75
811.744	15293.16
812.073	15368.64
812.403	15294.74
812.732	15126.83
813.061	15258.13
813.39	15097.46
813.719	15155.53
814.049	15282.08
814.378	15207.96
814.707	15159.38
815.036	15091.58
815.365	14972.04
815.693	14894.07
816.022	15018.59
816.351	14939.95
816.68	14796.67
817.008	14883.9
817.337	14690.46
817.665	14789.44
817.994	14677.35
818.322	14706.73
818.651	14690.91
818.979	14673.74
819.307	14702.44
819.636	14712.83
819.964	14623.8
820.292	14633.97
820.62	14639.39
820.948	14576.57
821.276	14631.48
821.604	14601.88
821.932	14603.68
822.259	14584.25
822.587	14586.28
822.915	14511.71
823.243	14601.42
823.57	14520.75
823.898	14489.79
824.225	14497.7
824.553	14523.01
824.88	14557.36
825.207	14609.79
825.535	14554.19
825.862	14606.62
826.189	14486.4
826.516	14597.81
826.843	14667.41
827.17	14628.54
827.497	14630.35
827.824	14611.37
828.151	14591.48
828.478	14597.81
828.805	14546.06
829.131	14566.4
829.458	14594.19
829.785	14460.41
830.111	14556.23
830.438	14584.48
830.764	14626.96
831.09	14539.05
831.417	14499.73
831.743	14606.17
832.069	14530.92
832.395	14488.21
832.722	14537.47
833.048	14454.76
833.374	14456.12
833.7	14478.04
834.026	14520.97
834.351	14501.99
834.677	14479.62
835.003	14551.93
835.329	14491.82
835.654	14467.42
835.98	14406.17
836.306	14384.93
836.631	14467.87
836.956	14440.07
837.282	14397.14
837.607	14339.28
837.932	14335.67
838.258	14399.62
838.583	14228.55
838.908	14243.24
839.233	14235.11
839.558	14201.89
839.883	14148.78
840.208	14174.32
840.533	14171.38
840.858	14101.55
841.182	14165.28
841.507	14178.38
841.832	14026.07
842.156	14048.67
842.481	13975.45
842.805	13987.43
843.13	13930.71
843.454	13972.29
843.778	13806.64
844.103	13833.31
844.427	13774.1
844.751	13838.05
845.075	13737.04
845.399	13648.23
845.723	13552.19
846.047	13695.23
846.371	13525.07
846.695	13522.81
847.019	13460.89
847.343	13444.39
847.666	13259.99
847.99	13174.57
848.313	13293.66
848.637	13213.44
848.96	13152.65
849.284	13077.62
849.607	13008.92
849.931	12992.88
850.254	12921.24
850.577	12884.63
850.9	12780.23
851.223	12781.36
851.546	12693.68
851.869	12604.19
852.192	12658.2
852.515	12547.69
852.838	12445.55
853.161	12595.6
853.483	12419.79
853.806	12416.4
854.129	12376.85
854.451	12331.65
854.774	12327.13
855.096	12203.29
855.419	12189.74
855.741	12163.3
856.063	12066.8
856.385	12066.58
856.708	11990.87
857.03	12036.07
857.352	11986.58
857.674	12006.01
857.996	11909.52
858.318	11865.68
858.64	11905.9
858.961	11788.39
859.283	11756.3
859.605	11663.42
859.926	11773.25
860.248	11636.98
860.57	11683.76
860.891	11690.77
861.212	11577.55
861.534	11549.98
861.855	11559.24
862.176	11542.3
862.498	11532.8
862.819	11551.11
863.14	11507.95
863.461	11383.43
863.782	11419.59
864.103	11389.53
864.424	11365.12
864.745	11411.45
865.065	11305.01
865.386	11358.57
865.707	11265.92
866.027	11329.42
866.348	11251.23
866.668	11250.55
866.989	11162.42
867.309	11114.74
867.63	11237.22
867.95	11136.2
868.27	11059.82
868.59	11157.67
868.91	11017.56
869.23	10972.82
869.55	11022.08
869.87	11056.43
870.19	11041.07
870.51	11003.78
870.83	10985.02
871.15	10908.64
871.469	10953.61
871.789	10947.96
872.109	10877.91
872.428	10863.67
872.748	10925.36
873.067	10819.15
873.386	10874.52
873.706	10878.81
874.025	10771.92
874.344	10760.4
874.663	10734.41
874.982	10758.59
875.301	10736.67
875.62	10695.31
875.939	10674.75
876.258	10634.07
876.577	10757.23
876.896	10633.39
877.214	10596.33
877.533	10608.31
877.852	10559.72
878.17	10594.07
878.489	10577.8
878.807	10494.19
879.125	10544.36
879.444	10546.16
879.762	10528.54
880.08	10469.78
880.398	10516.33
880.716	10421.87
881.034	10446.05
881.352	10359.73
881.67	10375.55
881.988	10323.12
882.306	10321.31
882.624	10302.78
882.941	10239.96
883.259	10242.89
883.577	10245.15
883.894	10231.37
884.212	10247.64
884.529	10142.33
884.846	10094.65
885.164	10185.49
885.481	10091.71
885.798	10007.42
886.115	9980.75
886.432	9955.44
886.75	9977.14
887.067	10119.51
887.383	9921.55
887.7	10032.28
888.017	9940.3
888.334	9845.84
888.651	9852.62
888.967	9904.37
889.284	9762
889.6	9707.32
889.917	9704.15
890.233	9797.93
890.55	9768.56
890.866	9729.01
891.182	9684.49
891.498	9632.97
891.815	9562.91
892.131	9587.77
892.447	9552.74
892.763	9413.54
893.079	9422.13
893.395	9402.01
893.71	9424.84
894.026	9388.68
894.342	9384.16
894.657	9272.52
894.973	9256.03
895.289	9346.87
895.604	9252.41
895.92	9206.31
896.235	9147.1
896.55	9086.54
896.865	9083.6
897.181	9104.17
897.496	9038.18
897.811	9084.96
898.126	9010.38
898.441	8974.23
898.756	8986.66
899.071	8917.28
899.386	8902.14
899.7	8799.09
900.015	8805.87
900.33	8763.84
900.644	8656.04
900.959	8686.78
901.273	8647.68
901.588	8672.77
901.902	8607.46
902.216	8567.68
902.531	8572.66
902.845	8532.21
903.159	8509.61
903.473	8430.96
903.787	8384.19
904.101	8277.3
904.415	8326.56
904.729	8317.52
905.042	8202.04
905.356	8222.38
905.67	8183.97
905.984	8158.88
906.297	8179.45
906.611	8063.52
906.924	8101.26
907.237	8135.38
907.551	8003.18
907.864	7975.61
908.177	7927.48
908.491	7934.25
908.804	7832.79
909.117	7823.98
909.43	7762.28
909.743	7803.86
910.056	7732.45
910.368	7716.63
910.681	7704.88
910.994	7609.29
911.307	7672.11
911.619	7548.95
911.932	7613.13
912.244	7515.06
912.557	7504.21
912.869	7482.52
913.181	7454.27
913.494	7425.12
913.806	7345.57
914.118	7382.63
914.43	7308.96
914.742	7288.85
915.054	7229.64
915.366	7235.29
915.678	7159.59
915.99	7183.99
916.302	7102.86
916.613	7092.69
916.925	7080.27
917.236	7044.79
917.548	7045.69
917.859	7005.24
918.171	6965.01
918.482	6910.55
918.794	6947.39
919.105	6954.62
919.416	6857.22
919.727	6785.81
920.038	6771.57
920.349	6737.45
920.66	6760.5
920.971	6701.07
921.282	6691.35
921.593	6707.85
921.903	6594.85
922.214	6583.33
922.525	6600.96
922.835	6562.54
923.146	6507.85
923.456	6493.39
923.767	6486.84
924.077	6507.17
924.387	6454.07
924.697	6388.98
925.008	6382.43
925.318	6360.96
925.628	6348.31
925.938	6278.25
926.248	6236.67
926.558	6227.41
926.867	6261.98
927.177	6228.08
927.487	6164.36
927.796	6109.67
928.106	6144.47
928.416	6102.21
928.725	6043.68
929.034	6064.93
929.344	6028.99
929.653	5995.55
929.962	5928.43
930.271	5935.66
930.581	5907.87
930.89	5879.39
931.199	5870.13
931.508	5831.49
931.817	5848.43
932.125	5818.6
932.434	5793.29
932.743	5742.9
933.051	5750.81
933.36	5711.26
933.669	5692.05
933.977	5657.25
934.286	5623.58
934.594	5641.43
934.902	5599.4
935.21	5583.81
935.519	5537.93
935.827	5518.95
936.135	5492.28
936.443	5513.3
936.751	5452.06
937.059	5455
937.367	5392.4
937.674	5403.47
937.982	5325.96
938.29	5363.02
938.597	5315.34
938.905	5280.77
939.213	5280.99
939.52	5270.6
939.827	5279.86
940.135	5208.22
940.442	5168
940.749	5143.82
941.056	5151.95
941.363	5133.42
941.67	5082.35
941.977	5052.97
942.284	5029.92
942.591	5028.57
942.898	5026.08
943.205	5037.38
943.511	4971.62
943.818	4932.53
944.125	4921.23
944.431	4909.48
944.738	4885.97
945.044	4894.79
945.35	4844.62
945.657	4769.59
945.963	4753.1
946.269	4771.4
946.575	4730.27
946.881	4688.24
947.187	4749.25
947.493	4708.12
947.799	4716.03
948.105	4664.51
948.41	4664.74
948.716	4650.27
949.022	4639.88
949.327	4585.19
949.633	4552.42
949.938	4562.37
950.244	4568.47
950.549	4544.51
950.854	4514.68
951.16	4493.67
951.465	4427.91
951.77	4438.98
952.075	4418.19
952.38	4363.05
952.685	4408.25
952.99	4371.41
953.294	4295.48
953.599	4316.95
953.904	4301.81
954.209	4251.19
954.513	4258.19
954.818	4237.4
955.122	4226.33
955.426	4237.4
955.731	4146.11
956.035	4223.62
956.339	4160.57
956.643	4181.81
956.948	4111.53
957.252	4126.67
957.556	4114.47
957.86	4070.18
958.163	4064.98
958.467	4018.65
958.771	4023.85
959.075	3988.37
959.378	3969.16
959.682	3992.89
959.985	3947.69
960.289	3948.37
960.592	3888.26
960.896	3881.48
961.199	3885.55
961.502	3897.52
961.805	3852.55
962.108	3856.62
962.411	3830.86
962.714	3796.51
963.017	3779.79
963.32	3794.7
963.623	3740.92
963.926	3725.1
964.228	3697.53
964.531	3662.5
964.833	3683.74
965.136	3650.53
965.438	3661.15
965.741	3637.64
966.043	3600.58
966.345	3620.02
966.648	3586.35
966.95	3605.33
967.252	3559
967.554	3559.45
967.856	3520.81
968.158	3535.5
968.46	3498.67
968.761	3482.85
969.063	3510.64
969.365	3483.3
969.666	3478.33
969.968	3418.67
970.269	3409.18
970.571	3407.82
970.872	3359.91
971.174	3318.56
971.475	3333.92
971.776	3320.14
972.077	3312
972.378	3319.69
972.679	3304.09
972.98	3303.42
973.281	3299.12
973.582	3256.19
973.883	3245.11
974.183	3233.59
974.484	3225.68
974.785	3215.73
975.085	3175.74
975.386	3179.13
975.686	3153.82
975.986	3141.16
976.287	3157.88
976.587	3111.1
976.887	3109.97
977.187	3104.1
977.487	3055.74
977.787	3055.06
978.087	3037.43
978.387	3007.83
978.687	3033.82
978.987	2969.64
979.286	2986.36
979.586	2935.52
979.885	2943.43
980.185	2941.39
980.484	2948.62
980.784	2920.15
981.083	2918.12
981.382	2866.37
981.682	2893.48
981.981	2865.91
982.28	2875.86
982.579	2881.51
982.878	2831.11
983.177	2850.77
983.475	2817.1
983.774	2780.94
984.073	2812.81
984.372	2734.62
984.67	2781.62
984.969	2758.35
985.267	2742.98
985.566	2736.2
985.864	2671.34
986.162	2699.36
986.461	2672.02
986.759	2648.29
987.057	2620.04
987.355	2606.26
987.653	2633.83
987.951	2600.61
988.249	2596.54
988.547	2586.37
988.844	2619.14
989.142	2574.62
989.44	2574.85
989.737	2552.93
990.035	2556.99
990.332	2493.49
990.63	2471.35
990.927	2529.88
991.224	2490.56
991.521	2465.7
991.819	2478.35
992.116	2484.23
992.413	2436.77
992.71	2425.92
993.006	2439.71
993.303	2415.76
993.6	2396.1
993.897	2405.13
994.193	2389.09
994.49	2392.71
994.787	2327.4
995.083	2342.99
995.379	2318.58
995.676	2289.43
995.972	2343.67
996.268	2294.85
996.565	2286.49
996.861	2275.19
997.157	2279.94
997.453	2262.54
997.749	2246.49
998.044	2233.84
998.34	2229.55
998.636	2196.55
998.932	2229.09
999.227	2185.25
999.523	2216.66
999.818	2140.73
1000.114	2154.52
1000.409	2158.81
1000.704	2108.87
1001	2104.13
1001.295	2105.26
1001.59	2101.19
1001.885	2073.17
1002.18	2075.43
1002.475	2044.47
1002.77	2045.82
1003.065	2003.34
1003.359	2044.47
1003.654	2022.55
1003.949	2050.57
1004.243	2022.77
1004.538	1997.69
1004.832	1974.19
1005.127	1960.4
1005.421	1924.7
1005.715	1939.38
1006.009	1949.1
1006.304	1946.39
1006.598	1903.68
1006.892	1923.11
1007.186	1884.47
1007.48	1870.91
1007.773	1871.36
1008.067	1851.25
1008.361	1845.15
1008.655	1867.07
1008.948	1827.07
1009.242	1822.1
1009.535	1790.46
1009.829	1809.22
1010.122	1771.48
1010.415	1769.67
1010.708	1768.54
1011.001	1748.2
1011.295	1763.12
1011.588	1725.6
1011.881	1724.47
1012.173	1712.5
1012.466	1719.73
1012.759	1703.46
1013.052	1689.45
1013.344	1669.79
1013.637	1652.84
1013.93	1632.27
1014.222	1630.92
1014.514	1633.63
1014.807	1629.34
1015.099	1611.03
1015.391	1618.26
1015.683	1582.78
1015.976	1595.66
1016.268	1592.95
1016.56	1562.44
1016.851	1562.9
1017.143	1570.13
1017.435	1550.47
1017.727	1530.13
1018.018	1530.81
1018.31	1508.43
1018.602	1520.41
1018.893	1475.22
1019.185	1469.57
1019.476	1453.07
1019.767	1451.94
1020.058	1470.24
1020.35	1441.54
1020.641	1431.83
1020.932	1419.85
1021.223	1390.47
1021.514	1376.69
1021.804	1382.11
1022.095	1349.57
1022.386	1387.53
1022.677	1357.25
1022.967	1333.75
1023.258	1354.77
1023.548	1336.24
1023.839	1344.37
1024.129	1334.88
1024.419	1321.1
1024.709	1317.48
1025	1300.53
1025.29	1276.35
1025.58	1276.8
1025.87	1265.5
1026.16	1261.66
1026.449	1245.84
1026.739	1246.75
1027.029	1231.83
1027.319	1252.62
1027.608	1232.96
1027.898	1237.48
1028.187	1190.7
1028.477	1206.07
1028.766	1178.73
1029.055	1179.63
1029.344	1190.03
1029.634	1159.07
1029.923	1173.53
1030.212	1124.72
1030.501	1130.37
1030.79	1127.43
1031.078	1140.08
1031.367	1119.97
1031.656	1136.24
1031.945	1139.41
1032.233	1114.32
1032.522	1111.16
1032.81	1079.52
1033.099	1079.97
1033.387	1073.87
1033.675	1081.55
1033.963	1034.78
1034.251	1048.33
1034.54	1081.55
1034.828	1039.29
1035.116	1048.56
1035.403	1044.27
1035.691	1030.26
1035.979	1038.84
1036.267	1016.7
1036.554	1006.3
1036.842	984.61
1037.129	1018.28
1037.417	987.09
1037.704	967.66
1037.992	990.03
1038.279	946.19
1038.566	963.82
1038.853	963.82
1039.14	963.82
