Data from hue_200_FLMS001491_00085.txt Node
Date: Tue Feb 07 16:44:03 GMT 2017
User: dcchb
Spectrometer: FLMS00149
Trigger mode: 0
Integration Time (sec): 2.000000E-2
Scans to average: 10
Electric dark correction enabled: true
Nonlinearity correction enabled: false
Boxcar width: 0
XAxis mode: Wavelengths
Number of Pixels in Spectrum: 2048
>>>>>Begin Spectral Data<<<<<
341.393	-25.76
341.776	-25.76
342.16	-25.76
342.543	-68.02
342.927	-93.78
343.31	-65.31
343.693	-51.3
344.077	-51.75
344.46	-66.44
344.843	-51.3
345.226	-42.26
345.61	-30.51
345.993	-23.28
346.376	1.13
346.759	6.1
347.142	7.23
347.525	42.48
347.908	69.38
348.291	75.48
348.674	79.32
349.057	101.01
349.44	99.43
349.823	162.48
350.206	151.41
350.588	155.7
350.971	217.85
351.354	217.4
351.737	256.04
352.119	232.08
352.502	251.97
352.884	291.52
353.267	279.99
353.65	306.21
354.032	304.62
354.414	317.05
354.797	328.35
355.179	308.01
355.562	311.4
355.944	313.21
356.326	326.09
356.709	324.29
357.091	326.32
357.473	332.87
357.855	330.16
358.238	338.75
358.62	346.66
359.002	318.64
359.384	343.49
359.766	346.43
360.148	338.3
360.53	325.42
360.912	339.88
361.294	321.8
361.676	327.9
362.057	336.49
362.439	345.53
362.821	343.27
363.203	324.29
363.584	331.74
363.966	347.11
364.348	314.12
364.729	337.84
365.111	328.13
365.493	331.97
365.874	318.41
366.256	312.08
366.637	327.67
367.019	303.72
367.4	307.34
367.781	316.83
368.163	301.46
368.544	329.48
368.925	336.04
369.306	329.93
369.688	302.36
370.069	294.68
370.45	310.05
370.831	324.96
371.212	309.82
371.593	319.31
371.974	302.82
372.355	318.64
372.736	322.25
373.117	333.55
373.498	295.36
373.879	319.99
374.26	303.04
374.641	305.53
375.021	315.47
375.402	318.18
375.783	335.81
376.163	355.02
376.544	345.53
376.925	321.57
377.305	304.17
377.686	306.21
378.066	323.38
378.447	324.06
378.827	359.09
379.208	336.49
379.588	348.01
379.968	351.63
380.349	342.82
380.729	330.84
381.109	334
381.489	342.82
381.87	327.67
382.25	336.49
382.63	348.47
383.01	346.66
383.39	337.39
383.77	342.59
384.15	337.39
384.53	363.38
384.91	357.96
385.29	337.17
385.67	343.49
386.049	368.58
386.429	363.61
386.809	348.24
387.189	363.15
387.568	353.21
387.948	352.31
388.328	362.02
388.707	361.8
389.087	356.83
389.466	381.68
389.846	372.65
390.225	364.06
390.605	388.69
390.984	353.89
391.363	366.32
391.743	379.43
392.122	355.92
392.501	369.71
392.881	389.59
393.26	397.5
393.639	394.11
394.018	375.81
394.397	380.1
394.776	397.73
395.155	394.11
395.534	407.45
395.913	386.66
396.292	406.99
396.671	412.64
397.05	406.54
397.429	391.63
397.808	431.18
398.186	408.8
398.565	406.99
398.944	395.47
399.323	414.45
399.701	432.31
400.08	430.27
400.458	417.16
400.837	429.82
401.215	427.11
401.594	436.82
401.972	418.75
402.351	417.16
402.729	428.92
403.107	439.99
403.486	462.36
403.864	435.69
404.242	440.67
404.62	429.37
404.999	461
405.377	462.59
405.755	478.86
406.133	485.18
406.511	487.9
406.889	480.21
407.267	483.83
407.645	477.73
408.023	504.17
408.401	495.58
408.779	515.01
409.156	541.45
409.534	520.89
409.912	541.45
410.29	538.29
410.667	542.58
411.045	544.62
411.422	566.99
411.8	568.8
412.178	589.14
412.555	591.17
412.933	582.36
413.31	600.44
413.687	621.9
414.065	645.41
414.442	660.32
414.819	656.03
415.197	675.01
415.574	669.13
415.951	675.24
416.328	662.36
416.705	684.05
417.082	689.7
417.46	699.19
417.837	704.84
418.214	733.54
418.591	760.88
418.967	734.22
419.344	764.95
419.721	797.72
420.098	787.55
420.475	807.21
420.852	815.35
421.228	820.54
421.605	841.79
421.982	831.84
422.358	860.54
422.735	868.68
423.111	895.8
423.488	915.23
423.864	904.83
424.241	926.98
424.617	932.18
424.994	964.72
425.37	986.41
425.746	990.26
426.123	1016.24
426.499	1001.78
426.875	1047.66
427.251	1044.27
427.627	1040.42
428.003	1075.23
428.379	1105.28
428.756	1092.4
429.132	1097.15
429.507	1145.51
429.883	1161.1
430.259	1163.36
430.635	1175.56
431.011	1184.6
431.387	1215.34
431.763	1244.94
432.138	1223.24
432.514	1228.67
432.89	1279.97
433.265	1328.78
433.641	1322.9
434.016	1355.9
434.392	1384.14
434.767	1426.18
435.143	1432.05
435.518	1474.54
435.894	1485.61
436.269	1507.08
436.644	1541.88
437.02	1573.97
437.395	1579.17
437.77	1635.89
438.145	1675.21
438.52	1677.24
438.895	1715.66
439.271	1695.55
439.646	1794.08
440.021	1801.08
440.395	1820.07
440.77	1837.24
441.145	1852.61
441.52	1908.65
441.895	1936.67
442.27	1939.16
442.645	1930.34
443.019	1956.11
443.394	1971.02
443.769	1964.02
444.143	1977.8
444.518	2073.39
444.892	2048.08
445.267	2091.7
445.641	2091.24
446.016	2133.5
446.39	2137.12
446.764	2171.92
447.139	2161.3
447.513	2180.51
447.887	2206.5
448.262	2238.36
448.636	2236.78
449.01	2268.41
449.384	2297.57
449.758	2317.45
450.132	2376.66
450.506	2363.78
450.88	2373.95
451.254	2385.7
451.628	2385.02
452.002	2426.6
452.376	2441.29
452.75	2496.21
453.123	2467.96
453.497	2538.46
453.871	2526.04
454.244	2605.81
454.618	2605.13
454.992	2631.34
455.365	2682.87
455.739	2735.07
456.112	2718.57
456.486	2754.28
456.859	2805.8
457.232	2827.27
457.606	2819.59
457.979	2910.66
458.352	2963.99
458.725	2987.04
459.099	2974.61
459.472	3064.1
459.845	3089.41
460.218	3139.8
460.591	3093.93
460.964	3145.45
461.337	3243.76
461.71	3262.06
462.083	3334.83
462.456	3304.55
462.829	3329.63
463.201	3404.43
463.574	3403.3
463.947	3449.85
464.32	3558.1
464.692	3543.18
465.065	3604.88
465.438	3604.88
465.81	3659.56
466.183	3750.18
466.555	3760.35
466.928	3815.94
467.3	3822.27
467.672	3901.82
468.045	4005.32
468.417	3966
468.789	3999.22
469.161	4068.37
469.534	4143.85
469.906	4184.97
470.278	4240.11
470.65	4276.05
471.022	4379.55
471.394	4385.65
471.766	4439.21
472.138	4495.02
472.51	4620.22
472.882	4657.96
473.253	4719.65
473.625	4754.23
473.997	4845.52
474.369	4903.37
474.74	4949.7
475.112	4970.94
475.484	5102.24
475.855	5181.56
476.227	5208.68
476.598	5391.27
476.97	5427.65
477.341	5474.66
477.713	5575.9
478.084	5571.6
478.455	5725.73
478.827	5752.62
479.198	5927.53
479.569	5970.69
479.94	6063.34
480.311	6100.18
480.682	6278.03
481.053	6354.41
481.424	6490.45
481.795	6550.79
482.166	6602.54
482.537	6685.93
482.908	6797.56
483.279	6839.14
483.65	6960.04
484.021	7081.62
484.391	7152.58
484.762	7258.57
485.133	7263.99
485.503	7390.99
485.874	7454.72
486.244	7543.3
486.615	7608.39
486.985	7753.24
487.356	7867.82
487.726	7979.23
488.097	8116.85
488.467	8136.51
488.837	8277.97
489.207	8364.75
489.578	8460.79
489.948	8574.69
490.318	8584.41
490.688	8609.49
491.058	8745.31
491.428	8836.38
491.798	8910.95
492.168	8996.83
492.538	9069.14
492.908	9108.46
493.278	9260.77
493.648	9222.81
494.017	9383.48
494.387	9441.79
494.757	9382.13
495.126	9638.16
495.496	9580.09
495.866	9606.98
496.235	9704.6
496.605	9731.27
496.974	9811.95
497.344	9869.57
497.713	9883.13
498.082	9977.14
498.452	10052.39
498.821	10142.78
499.19	10109.56
499.559	10148.89
499.928	10210.13
500.298	10287.64
500.667	10346.62
501.036	10321.31
501.405	10357.92
501.774	10324.02
502.143	10418.71
502.512	10435.43
502.88	10498.71
503.249	10521.31
503.618	10540.97
503.987	10543.45
504.356	10685.59
504.724	10642.88
505.093	10655.99
505.462	10633.17
505.83	10751.58
506.199	10755.88
506.567	10880.17
506.936	10849.88
507.304	10945.02
507.672	10910.45
508.041	10963.55
508.409	11007.39
508.777	11073.61
509.145	11095.98
509.514	11003.55
509.882	11129.42
510.25	11121.52
510.618	11118.35
510.986	11143.66
511.354	11228.41
511.722	11196.99
512.09	11282.64
512.458	11254.85
512.826	11267.95
513.193	11339.14
513.561	11368.06
513.929	11360.15
514.297	11457.55
514.664	11414.39
515.032	11422.52
515.4	11481.28
515.767	11459.81
516.135	11501.17
516.502	11351.79
516.869	11544.78
517.237	11533.03
517.604	11492.13
517.972	11523.76
518.339	11594.72
518.706	11539.36
519.073	11616.42
519.44	11598.79
519.808	11627.49
520.175	11585.68
520.542	11605.57
520.909	11617.1
521.276	11664.1
521.643	11666.13
522.009	11720.14
522.376	11714.72
522.743	11714.04
523.11	11732.35
523.477	11781.84
523.843	11779.13
524.21	11873.36
524.577	11904.32
524.943	11871.55
525.31	11897.99
525.676	11864.09
526.043	11931.89
526.409	11926.01
526.776	11976.18
527.142	11908.16
527.508	11987.26
527.874	12004.43
528.241	11882.4
528.607	11905.45
528.973	11910.42
529.339	11927.82
529.705	11944.32
530.071	12034.26
530.437	11969.18
530.803	11891.89
531.169	11958.33
531.535	11841.5
531.901	11863.42
532.267	11843.08
532.632	11752.23
532.998	11805.34
533.364	11839.24
533.73	11832.68
534.095	11797.66
534.461	11730.09
534.826	11758.11
535.192	11635.85
535.557	11678.34
535.923	11660.26
536.288	11541.62
536.653	11566.93
537.019	11482.41
537.384	11435.63
537.749	11405.12
538.114	11376.2
538.479	11389.98
538.845	11392.92
539.21	11234.28
539.575	11248.52
539.94	11187.73
540.305	11181.85
540.67	11131.46
541.034	11128.29
541.399	11116.09
541.764	10997.45
542.129	11053.49
542.494	10964.68
542.858	10972.59
543.223	10982.54
543.587	10941.18
543.952	10795.2
544.316	10793.39
544.681	10701.19
545.045	10681.75
545.41	10733.28
545.774	10674.3
546.138	10611.92
546.503	10583.9
546.867	10505.26
547.231	10520.63
547.595	10441.08
547.959	10415.32
548.324	10302.78
548.688	10391.82
549.052	10288.54
549.416	10269.56
549.779	10256.91
550.143	10195.44
550.507	10185.72
550.871	10140.98
551.235	10057.36
551.599	10091.26
551.962	10002
552.326	10015.56
552.689	10032.5
553.053	9914.99
553.417	9853.53
553.78	9897.59
554.143	9865.05
554.507	9797.26
554.87	9766.3
555.234	9893.75
555.597	9737.37
555.96	9740.99
556.323	9715.68
556.686	9670.93
557.05	9651.27
557.413	9675.23
557.776	9587.09
558.139	9637.03
558.502	9635
558.865	9520.2
559.228	9597.04
559.59	9548.45
559.953	9454.21
560.316	9586.19
560.679	9516.36
561.041	9592.97
561.404	9464.61
561.767	9604.27
562.129	9452.86
562.492	9549.13
562.854	9497.15
563.217	9478.62
563.579	9474.1
563.941	9425.51
564.304	9466.19
564.666	9472.07
565.028	9464.61
565.39	9500.32
565.753	9503.93
566.115	9473.2
566.477	9480.65
566.839	9525.85
567.201	9470.94
567.563	9480.43
567.925	9538.96
568.287	9478.85
568.648	9548.9
569.01	9507.32
569.372	9555.23
569.734	9520.2
570.095	9618.96
570.457	9530.82
570.819	9583.25
571.18	9588.22
571.542	9587.77
571.903	9563.14
572.265	9618.73
572.626	9590.26
572.987	9606.53
573.349	9544.16
573.71	9580.77
574.071	9577.38
574.432	9627.32
574.794	9631.39
575.155	9548.9
575.516	9592.52
575.877	9577.83
576.238	9592.06
576.599	9536.47
576.96	9618.05
577.32	9603.14
577.681	9649.46
578.042	9626.19
578.403	9652.85
578.763	9572.63
579.124	9613.53
579.485	9709.8
579.845	9648.56
580.206	9640.88
580.566	9625.51
580.927	9581.44
581.287	9703.02
581.648	9580.09
582.008	9597.49
582.368	9690.37
582.728	9584.61
583.089	9667.32
583.449	9609.46
583.809	9676.13
584.169	9677.49
584.529	9623.48
584.889	9644.72
585.249	9616.47
585.609	9531.27
585.969	9615.34
586.329	9573.31
586.688	9618.05
587.048	9615.79
587.408	9614.89
587.768	9569.24
588.127	9541.44
588.487	9569.01
588.846	9598.84
589.206	9550.48
589.565	9535.57
589.925	9566.3
590.284	9551.16
590.643	9594.55
591.003	9559.07
591.362	9529.01
591.721	9544.61
592.08	9541.44
592.44	9579.18
592.799	9536.02
593.158	9535.34
593.517	9596.81
593.876	9546.64
594.235	9512.07
594.593	9526.3
594.952	9448.11
595.311	9504.61
595.67	9514.1
596.029	9542.35
596.387	9539.18
596.746	9538.28
597.104	9460.32
597.463	9485.63
597.822	9486.08
598.18	9425.74
598.538	9487.66
598.897	9485.17
599.255	9416.02
599.613	9556.36
599.972	9424.16
600.33	9447.21
600.688	9435.01
601.046	9393.2
601.404	9531.27
601.762	9444.72
602.12	9541.44
602.478	9479.3
602.836	9557.49
603.194	9457.83
603.552	9455.8
603.91	9418.51
604.268	9479.98
604.625	9502.58
604.983	9453.31
605.341	9428.45
605.698	9438.4
606.056	9479.98
606.413	9414.89
606.771	9443.59
607.128	9500.32
607.485	9467.1
607.843	9392.97
608.2	9530.82
608.557	9487.66
608.914	9499.41
609.272	9516.81
609.629	9514.78
609.986	9533.53
610.343	9497.83
610.7	9580.77
611.057	9565.62
611.414	9570.14
611.771	9515.68
612.127	9554.78
612.484	9571.27
612.841	9546.19
613.198	9576.92
613.554	9550.26
613.911	9597.26
614.267	9592.29
614.624	9616.92
614.98	9618.05
615.337	9578.96
615.693	9580.09
616.05	9604.27
616.406	9625.51
616.762	9641.78
617.118	9663.25
617.475	9608.56
617.831	9751.61
618.187	9637.49
618.543	9647.43
618.899	9748.22
619.255	9657.37
619.611	9700.76
619.967	9726.07
620.323	9737.6
620.678	9654.89
621.034	9670.48
621.39	9663.47
621.746	9628.45
622.101	9682.23
622.457	9677.94
622.812	9685.4
623.168	9675.23
623.523	9698.73
623.879	9715
624.234	9631.16
624.589	9695.56
624.945	9640.42
625.3	9666.64
625.655	9647.88
626.01	9728.33
626.365	9625.74
626.72	9632.74
627.075	9686.75
627.43	9704.83
627.785	9598.62
628.14	9659.86
628.495	9667.54
628.85	9614.89
629.205	9614.44
629.559	9711.38
629.914	9611.27
630.269	9681.78
630.623	9621.67
630.978	9586.19
631.332	9557.04
631.687	9602.46
632.041	9585.28
632.396	9639.29
632.75	9558.39
633.104	9591.16
633.459	9486.3
633.813	9526.53
634.167	9525.17
634.521	9413.09
634.875	9542.12
635.229	9481.11
635.583	9361.11
635.937	9423.93
636.291	9437.94
636.645	9433.65
636.999	9385.52
637.352	9394.33
637.706	9340.55
638.06	9374.89
638.413	9378.74
638.767	9323.6
639.121	9338.29
639.474	9312.3
639.828	9286.31
640.181	9281.79
640.534	9327.21
640.888	9289.93
641.241	9256.71
641.594	9253.54
641.947	9269.59
642.301	9267.78
642.654	9359.3
643.007	9209.25
643.36	9218.97
643.713	9217.38
644.066	9267.1
644.419	9210.15
644.771	9094.22
645.124	9039.76
645.477	9051.74
645.83	8986.88
646.182	8966.09
646.535	8949.82
646.888	8917.96
647.24	8866.89
647.593	8946.66
647.945	8957.73
648.298	8931.52
648.65	8828.47
649.002	8832.76
649.355	8889.94
649.707	8870.95
650.059	8912.76
650.411	9061.23
650.763	9026.2
651.115	9192.75
651.467	9117.27
651.819	9121.79
652.171	9150.04
652.523	9078.63
652.875	9016.03
653.227	9037.5
653.578	9158.18
653.93	9072.53
654.282	9026.2
654.633	9034.34
654.985	9075.02
655.337	9100.55
655.688	9135.35
656.039	9133.09
656.391	9111.17
656.742	9112.53
657.094	9087.44
657.445	9169.25
657.796	9162.92
658.147	9070.27
658.498	9068.24
658.849	9120.21
659.2	9058.07
659.551	9028.92
659.902	9125.64
660.253	9054.68
660.604	9187.33
660.955	9092.42
661.306	9089.7
661.656	9147.56
662.007	9154.79
662.358	9155.24
662.708	9099.42
663.059	9120.21
663.409	9067.33
663.76	9178.06
664.11	9156.82
664.461	9113.43
664.811	9133.09
665.161	9164.96
665.511	9126.54
665.862	9169.7
666.212	9211.96
666.562	9224.16
666.912	9119.08
667.262	9169.7
667.612	9142.58
667.962	9171.28
668.312	9152.3
668.662	9192.98
669.011	9176.26
669.361	9141.68
669.711	9188.23
670.06	9098.29
670.41	9152.3
670.76	9138.74
671.109	9141
671.459	9137.16
671.808	9123.15
672.157	9124.05
672.507	9091.29
672.856	9065.75
673.205	9017.84
673.554	9055.81
673.904	9039.54
674.253	9140.32
674.602	9085.64
674.951	8916.38
675.3	8827.34
675.649	9060.55
675.998	8994.57
676.346	9007.22
676.695	9001.12
677.044	8888.81
677.393	9000.44
677.741	9031.63
678.09	8989.14
678.438	8899.2
678.787	8913.66
679.135	8978.29
679.484	8852.2
679.832	8853.55
680.181	8806.55
680.529	8886.32
680.877	8815.36
681.225	8833.21
681.573	8872.76
681.922	8808.13
682.27	8796.83
682.618	8797.96
682.966	8739.21
683.314	8739.66
683.661	8761.58
684.009	8696.04
684.357	8641.58
684.705	8728.58
685.053	8704.18
685.4	8687.23
685.748	8668.02
686.095	8644.07
686.443	8563.16
686.79	8529.27
687.138	8543.28
687.485	8557.29
687.832	8459.21
688.18	8552.09
688.527	8425.54
688.874	8437.97
689.221	8372.44
689.568	8385.99
689.915	8378.08
690.262	8340.12
690.609	8345.54
690.956	8269.61
691.303	8270.97
691.65	8279.56
691.997	8241.37
692.344	8201.14
692.69	8139.67
693.037	8161.37
693.383	8097.64
693.73	8093.12
694.077	8091.09
694.423	8051.54
694.769	8030.3
695.116	8032.56
695.462	7964.31
695.808	7952.79
696.155	7960.02
696.501	7866.23
696.847	7861.49
697.193	7793.24
697.539	7844.31
697.885	7791.89
698.231	7663.98
698.577	7723.86
698.923	7745.56
699.269	7697.65
699.614	7606.13
699.96	7593.02
700.306	7571.78
700.651	7566.58
700.997	7540.37
701.342	7534.94
701.688	7482.74
702.033	7393.48
702.379	7439.58
702.724	7350.77
703.069	7462.18
703.415	7379.69
703.76	7254.5
704.105	7317.55
704.45	7241.62
704.795	7233.03
705.14	7235.52
705.485	7226.7
705.83	7140.38
706.175	7184.44
706.52	7153.26
706.865	7127.04
707.209	7115.29
707.554	7052.47
707.899	7110.77
708.243	7052.92
708.588	7053.83
708.932	6939.03
709.277	6974.28
709.621	6982.64
709.966	6921.63
710.31	6967.27
710.654	6870.55
710.998	6924.11
711.342	6883.21
711.687	6823.55
712.031	6770.9
712.375	6804.79
712.719	6751.91
713.063	6834.4
713.407	6822.19
713.75	6738.13
714.094	6817.9
714.438	6680.5
714.782	6722.31
715.125	6697.9
715.469	6709.65
715.812	6679.82
716.156	6655.87
716.499	6682.08
716.843	6635.53
717.186	6589.66
717.53	6685.02
717.873	6641.18
718.216	6601.18
718.559	6597.79
718.902	6511.24
719.246	6527.51
719.589	6500.85
719.932	6511.47
720.275	6485.71
720.617	6520.51
720.96	6501.52
721.303	6519.15
721.646	6503.78
721.989	6440.06
722.331	6500.39
722.674	6477.12
723.016	6505.59
723.359	6510.79
723.701	6453.84
724.044	6408.65
724.386	6416.33
724.729	6474.41
725.071	6430.57
725.413	6478.93
725.755	6403
726.097	6409.55
726.439	6384.92
726.782	6396.89
727.124	6404.8
727.465	6415.65
727.807	6363.67
728.149	6341.53
728.491	6369.32
728.833	6342.21
729.175	6363
729.516	6330
729.858	6329.33
730.199	6387.85
730.541	6346.73
730.882	6336.78
731.224	6415.65
731.565	6373.62
731.906	6395.54
732.248	6354.64
732.589	6345.14
732.93	6323
733.271	6332.71
733.612	6329.78
733.953	6339.49
734.294	6308.53
734.635	6386.72
734.976	6399.15
735.317	6373.17
735.658	6372.04
735.999	6381.3
736.339	6345.6
736.68	6367.74
737.021	6357.12
737.361	6354.18
737.702	6383.33
738.042	6362.09
738.383	6436.89
738.723	6403.9
739.063	6417.91
739.404	6447.06
739.744	6444.8
740.084	6418.59
740.424	6446.38
740.764	6461.3
741.104	6546.04
741.444	6426.5
741.784	6419.72
742.124	6585.36
742.464	6472.82
742.804	6553.73
743.143	6568.87
743.483	6596.89
743.823	6598.02
744.162	6565.7
744.502	6601.86
744.841	6567.28
745.181	6644.8
745.52	6725.02
745.86	6719.6
746.199	6725.25
746.538	6741.52
746.877	6882.98
747.216	6831.01
747.556	6921.4
747.895	6948.07
748.234	7014.96
748.573	6969.08
748.911	7059.02
749.25	7099.25
749.589	7183.77
749.928	7273.03
750.267	7258.57
750.605	7433.48
750.944	7432.12
751.283	7540.37
751.621	7632.57
751.96	7629.86
752.298	7746.91
752.636	7868.95
752.975	7910.3
753.313	8011.31
753.651	8127.92
753.989	8262.38
754.327	8324.3
754.666	8465.09
755.004	8570.85
755.342	8693.33
755.679	8853.78
756.017	8921.8
756.355	9128.35
756.693	9211.06
757.031	9372.63
757.368	9444.27
757.706	9633.65
758.044	9726.3
758.381	9896.91
758.719	10072.96
759.056	10317.92
759.394	10506.39
759.731	10560.4
760.068	10694.63
760.405	10884.23
760.743	11100.05
761.08	11240.16
761.417	11351.34
761.754	11606.93
762.091	11761.27
762.428	11933.25
762.765	12118.1
763.102	12255.27
763.438	12477.86
763.775	12585.43
764.112	12934.8
764.449	13044.18
764.785	13156.94
765.122	13313.32
765.458	13467.67
765.795	13638.06
766.131	13749.47
766.467	13923.93
766.804	14097.26
767.14	14235.11
767.476	14501.31
767.812	14453.63
768.148	14795.32
768.485	14784.47
768.821	14984.46
769.157	15128.19
769.492	15301.52
769.828	15474.4
770.164	15414.96
770.5	15621.96
770.836	15759.36
771.171	15835.74
771.507	15947.6
771.842	15944.67
772.178	16136.98
772.513	16254.04
772.849	16337.88
773.184	16365.22
773.519	16571.99
773.855	16534.71
774.19	16674.14
774.525	16759.79
774.86	16979.89
775.195	17030.06
775.53	17027.8
775.865	17128.14
776.2	17050.85
776.535	17238.42
776.87	17245.87
777.205	17189.83
777.539	17320.67
777.874	17432.08
778.209	17445.42
778.543	17410.84
778.878	17444.06
779.212	17545.53
779.547	17461.24
779.881	17683.38
780.215	17638.63
780.55	17687.9
780.884	17690.83
781.218	17637.95
781.552	17717.95
781.886	17759.99
782.22	17764.28
782.554	17686.77
782.888	17629.59
783.222	17707.78
783.556	17630.04
783.889	17625.53
784.223	17595.02
784.557	17662.36
784.89	17744.84
785.224	17707.33
785.557	17696.71
785.891	17650.61
786.224	17657.84
786.558	17608.58
786.891	17530.84
787.224	17572.42
787.557	17611.51
787.891	17649.25
788.224	17582.81
788.557	17629.82
788.89	17679.08
789.223	17659.42
789.556	17466.21
789.888	17543.27
790.221	17559.76
790.554	17380.56
790.887	17467.56
791.219	17427.56
791.552	17423.72
791.884	17402.93
792.217	17301.47
792.549	17284.07
792.882	17237.74
793.214	17164.29
793.546	17238.42
793.879	17150.51
794.211	17101.7
794.543	17201.58
794.875	17144.41
795.207	17054.24
795.539	17103.05
795.871	17102.83
796.203	16855.83
796.535	16918.88
796.867	16834.13
797.198	16887.24
797.53	16872.32
797.862	16757.98
798.193	16833
798.525	16632.78
798.856	16742.16
799.188	16549.85
799.519	16439.12
799.85	16432.79
800.182	16456.97
800.513	16568.15
800.844	16487.48
801.175	16450.41
801.506	16464.2
801.837	16305.56
802.168	16335.84
802.499	16303.98
802.83	16192.79
803.161	16217.2
803.491	16199.57
803.822	16288.84
804.153	16055.62
804.483	16077.77
804.814	15964.55
805.145	15978.79
805.475	15997.09
805.805	15895.85
806.136	15983.53
806.466	15901.95
806.796	15879.81
807.126	15760.94
807.457	15821.96
807.787	15808.4
808.117	15720.04
808.447	15701.28
808.777	15756.65
809.107	15598.69
809.436	15551.23
809.766	15482.08
810.096	15514.62
810.426	15462.64
810.755	15529.76
811.085	15457.67
811.414	15484.34
811.744	15320.73
812.073	15316.66
812.403	15380.61
812.732	15237.57
813.061	15268.98
813.39	15183.33
813.719	15072.15
814.049	15200.05
814.378	15141.3
814.707	15125.7
815.036	15127.96
815.365	15039.15
815.693	14821.08
816.022	14964.58
816.351	14834.86
816.68	14772.27
817.008	14919.83
817.337	14804.81
817.665	14728.43
817.994	14768.43
818.322	14772.72
818.651	14739.73
818.979	14674.87
819.307	14773.62
819.636	14679.39
819.964	14578.83
820.292	14627.86
820.62	14588.54
820.948	14543.57
821.276	14615.21
821.604	14596
821.932	14669.44
822.259	14661.76
822.587	14594.64
822.915	14592.38
823.243	14596.68
823.57	14542.67
823.898	14568.43
824.225	14552.61
824.553	14526.62
824.88	14549
825.207	14655.21
825.535	14542.22
825.862	14602.78
826.189	14490.24
826.516	14645.72
826.843	14600.75
827.17	14677.58
827.497	14675.32
827.824	14648.43
828.151	14658.37
828.478	14715.77
828.805	14769.78
829.131	14662.67
829.458	14619.5
829.785	14608.66
830.111	14638.71
830.438	14738.82
830.764	14769.1
831.09	14721.19
831.417	14570.92
831.743	14628.77
832.069	14633.51
832.395	14578.37
832.722	14620.18
833.048	14622.67
833.374	14597.36
833.7	14516.45
834.026	14530.69
834.351	14516.68
834.677	14546.96
835.003	14473.74
835.329	14556.91
835.654	14535.21
835.98	14445.27
836.306	14550.13
836.631	14431.03
836.956	14460.18
837.282	14424.25
837.607	14326.63
837.932	14331.15
838.258	14347.19
838.583	14311.94
838.908	14206.63
839.233	14346.97
839.558	14203.47
839.883	14229
840.208	14195.11
840.533	14201.89
840.858	14132.51
841.182	14074.66
841.507	14078.27
841.832	14105.84
842.156	14044.15
842.481	14030.59
842.805	14029.24
843.13	13922.12
843.454	13926.19
843.778	13837.38
844.103	13807.32
844.427	13814.78
844.751	13808.22
845.075	13737.04
845.399	13689.58
845.723	13630.83
846.047	13792.18
846.371	13551.28
846.695	13571.85
847.019	13466.76
847.343	13463.37
847.666	13334.34
847.99	13370.95
848.313	13265.64
848.637	13203.72
848.96	13250.5
849.284	13129.6
849.607	13026.55
849.931	12992.2
850.254	12953.56
850.577	12929.6
850.9	12843.5
851.223	12815.26
851.546	12787.01
851.869	12669.5
852.192	12678.99
852.515	12581.14
852.838	12605.32
853.161	12581.14
853.483	12562.16
853.806	12437.19
854.129	12371.88
854.451	12372.1
854.774	12347.7
855.096	12260.69
855.419	12230.19
855.741	12262.5
856.063	12143.41
856.385	12143.18
856.708	12096.63
857.03	12016.41
857.352	12040.81
857.674	12001.49
857.996	11893.7
858.318	11889.63
858.64	11896.18
858.961	11895.96
859.283	11759.24
859.605	11818.9
859.926	11772.12
860.248	11720.82
860.57	11688.05
860.891	11699.35
861.212	11598.11
861.534	11584.33
861.855	11633.37
862.176	11597.21
862.498	11573.71
862.819	11556.76
863.14	11518.79
863.461	11439.25
863.782	11416.87
864.103	11466.14
864.424	11424.78
864.745	11480.38
865.065	11341.62
865.386	11297.33
865.707	11370.77
866.027	11401.51
866.348	11287.84
866.668	11279.48
866.989	11234.73
867.309	11150.22
867.63	11184.79
867.95	11180.5
868.27	11193.83
868.59	11129.2
868.91	11132.59
869.23	11181.4
869.55	11072.7
869.87	11110.67
870.19	11095.3
870.51	11083.55
870.83	11084
871.15	11008.52
871.469	11044
871.789	10988.19
872.109	11028.41
872.428	10925.59
872.748	10967.4
873.067	10949.32
873.386	10943.22
873.706	10850.56
874.025	10850.56
874.344	10812.37
874.663	10787.96
874.982	10765.59
875.301	10814.18
875.62	10748.87
875.939	10681.08
876.258	10732.83
876.577	10729.44
876.896	10695.31
877.214	10663.67
877.533	10604.24
877.852	10624.13
878.17	10670.23
878.489	10674.97
878.807	10655.31
879.125	10583.9
879.444	10522.44
879.762	10565.82
880.08	10503.9
880.398	10496.67
880.716	10480.63
881.034	10430.46
881.352	10547.52
881.67	10410.12
881.988	10444.25
882.306	10365.15
882.624	10294.42
882.941	10267.53
883.259	10267.98
883.577	10278.37
883.894	10299.84
884.212	10252.16
884.529	10250.8
884.846	10164.7
885.164	10124.03
885.481	10141.65
885.798	10165.83
886.115	10005.84
886.432	10024.6
886.75	10012.17
887.067	10100.75
887.383	10037.93
887.7	9998.83
888.017	9965.39
888.334	9933.75
888.651	9914.09
888.967	9874.54
889.284	9910.7
889.6	9754.09
889.917	9791.61
890.233	9773.53
890.55	9800.42
890.866	9785.05
891.182	9693.98
891.498	9597.26
891.815	9618.96
892.131	9625.96
892.447	9570.37
892.763	9566.75
893.079	9505.74
893.395	9453.99
893.71	9416.02
894.026	9428.68
894.342	9381
894.657	9412.18
894.973	9314.11
895.289	9305.07
895.604	9281.56
895.92	9159.31
896.235	9237.5
896.55	9191.85
896.865	9132.42
897.181	9142.36
897.496	9067.78
897.811	9056.03
898.126	9013.77
898.441	8929.93
898.756	8968.8
899.071	8953.89
899.386	8951.18
899.7	8837.28
900.015	8828.47
900.33	8758.64
900.644	8779.43
900.959	8742.82
901.273	8731.52
901.588	8686.33
901.902	8628.02
902.216	8563.62
902.531	8568.14
902.845	8540.34
903.159	8503.28
903.473	8459.44
903.787	8392.1
904.101	8400.68
904.415	8415.6
904.729	8376.95
905.042	8320.23
905.356	8259.44
905.67	8220.57
905.984	8251.08
906.297	8191.65
906.611	8146
906.924	8150.75
907.237	8135.15
907.551	8134.7
907.864	7989.39
908.177	7993.69
908.491	7986.91
908.804	7952.56
909.117	7833.92
909.43	7833.01
909.743	7825.56
910.056	7816.29
910.368	7721.83
910.681	7693.58
910.994	7680.48
911.307	7657.88
911.619	7618.33
911.932	7577.88
912.244	7533.81
912.557	7518.22
912.869	7521.84
913.181	7431.89
913.494	7425.12
913.806	7436.87
914.118	7403.42
914.43	7322.97
914.742	7303.08
915.054	7303.08
915.366	7280.03
915.678	7214.73
915.99	7198
916.302	7085.92
916.613	7102.41
916.925	7109.64
917.236	7100.15
917.548	7013.37
917.859	7019.02
918.171	6980.61
918.482	6932.7
918.794	6942.42
919.105	6947.16
919.416	6920.5
919.727	6913.49
920.038	6851.8
920.349	6791.01
920.66	6720.05
920.971	6708.75
921.282	6720.5
921.593	6694.74
921.903	6636.44
922.214	6644.57
922.525	6565.25
922.835	6670.56
923.146	6548.53
923.456	6548.08
923.767	6532.26
924.077	6481.19
924.387	6518.92
924.697	6419.27
925.008	6408.87
925.318	6401.19
925.628	6396.22
925.938	6326.39
926.248	6259.04
926.558	6276.22
926.867	6292.49
927.177	6234.41
927.487	6184.02
927.796	6162.55
928.106	6141.08
928.416	6137.01
928.725	6110.8
929.034	6094.98
929.344	6085.26
929.653	6061.76
929.962	5984.93
930.271	5971.14
930.581	5966.62
930.89	5930.47
931.199	5885.04
931.508	5859.05
931.817	5906.96
932.125	5858.38
932.434	5873.97
932.743	5769.79
933.051	5748.1
933.36	5716.91
933.669	5657.03
933.977	5681.66
934.286	5673.75
934.594	5656.35
934.902	5629.68
935.21	5598.72
935.519	5593.53
935.827	5536.8
936.135	5505.84
936.443	5440.31
936.751	5495
937.059	5464.26
937.367	5439.86
937.674	5422.23
937.982	5431.27
938.29	5407.99
938.597	5347.88
938.905	5283.7
939.213	5304.49
939.52	5267.66
939.827	5297.71
940.135	5195.34
940.442	5240.09
940.749	5233.99
941.056	5181.78
941.363	5136.14
941.67	5137.72
941.977	5068.12
942.284	5079.41
942.591	5033.99
942.898	5027.21
943.205	4995.8
943.511	5027.21
943.818	5012.07
944.125	4943.37
944.431	4919.42
944.738	4918.51
945.044	4874
945.35	4840.55
945.657	4803.94
945.963	4811.4
946.269	4774.56
946.575	4774.79
946.881	4800.78
947.187	4738.63
947.493	4700.67
947.799	4678.07
948.105	4734.56
948.41	4614.34
948.716	4654.34
949.022	4609.14
949.327	4590.16
949.633	4570.28
949.938	4579.54
950.244	4544.74
950.549	4495.25
950.854	4529.37
951.16	4479.43
951.465	4485.53
951.77	4454.57
952.075	4442.82
952.38	4425.19
952.685	4398.53
952.99	4330.96
953.294	4370.51
953.599	4369.6
953.904	4312.2
954.209	4266.33
954.513	4273.79
954.818	4249.15
955.122	4236.95
955.426	4245.31
955.731	4185.2
956.035	4153.56
956.339	4149.27
956.643	4178.87
956.948	4102.49
957.252	4126.67
957.556	4095.49
957.86	4068.59
958.163	4072.21
958.467	4054.13
958.771	4022.27
959.075	4004.41
959.378	3984.3
959.682	4003.96
959.985	3943.63
960.289	3940.46
960.592	3940.24
960.896	3872.44
961.199	3877.19
961.502	3913.57
961.805	3874.93
962.108	3835.15
962.411	3887.36
962.714	3802.39
963.017	3824.98
963.32	3802.16
963.623	3770.07
963.926	3751.99
964.228	3693.46
964.531	3679.23
964.833	3716.96
965.136	3732.33
965.438	3633.35
965.741	3643.07
966.043	3640.58
966.345	3614.37
966.648	3625.22
966.95	3564.43
967.252	3554.03
967.554	3533.92
967.856	3537.31
968.158	3540.47
968.46	3537.08
968.761	3508.83
969.063	3492.11
969.365	3474.26
969.666	3486.46
969.968	3429.97
970.269	3414.15
970.571	3406.46
970.872	3415.05
971.174	3365.11
971.475	3396.52
971.776	3361.49
972.077	3350.87
972.378	3340.93
972.679	3297.31
972.98	3287.82
973.281	3247.82
973.582	3235.62
973.883	3240.59
974.183	3252.12
974.484	3242.17
974.785	3203.31
975.085	3207.37
975.386	3205.11
975.686	3188.84
975.986	3161.27
976.287	3173.7
976.587	3135.74
976.887	3083.08
977.187	3112.01
977.487	3109.75
977.787	3113.14
978.087	3036.08
978.387	3070.2
978.687	3015.51
978.987	3004.44
979.286	2974.16
979.586	2987.49
979.885	2974.16
980.185	2984.33
980.484	2965.8
980.784	2969.41
981.083	2897.1
981.382	2904.78
981.682	2904.1
981.981	2865.69
982.28	2836.31
982.579	2862.07
982.878	2842.86
983.177	2831.11
983.475	2828.63
983.774	2781.85
984.073	2798.12
984.372	2771.45
984.67	2740.94
984.969	2769.19
985.267	2729.65
985.566	2722.87
985.864	2724.45
986.162	2686.71
986.461	2715.18
986.759	2680.61
987.057	2618.91
987.355	2673.83
987.653	2614.85
987.951	2628.41
988.249	2606.49
988.547	2607.84
988.844	2568.52
989.142	2565.58
989.44	2577.11
989.737	2529.2
990.035	2552.02
990.332	2497.34
990.63	2507.73
990.927	2492.14
991.224	2499.82
991.521	2464.34
991.819	2470.44
992.116	2470.22
992.413	2462.99
992.71	2449.88
993.006	2434.06
993.303	2429.99
993.6	2375.76
993.897	2418.92
994.193	2387.73
994.49	2393.38
994.787	2359.94
995.083	2328.98
995.379	2338.92
995.676	2339.37
995.972	2334.63
996.268	2310.67
996.565	2280.39
996.861	2286.95
997.157	2272.03
997.453	2248.98
997.749	2268.41
998.044	2249.21
998.34	2220.28
998.636	2215.08
998.932	2240.17
999.227	2176.67
999.523	2205.82
999.818	2149.77
1000.114	2169.21
1000.409	2122.43
1000.704	2146.84
1001	2141.19
1001.295	2098.48
1001.59	2093.73
1001.885	2073.17
1002.18	2087.18
1002.475	2069.1
1002.77	2069.55
1003.065	2041.98
1003.359	2031.13
1003.654	2025.26
1003.949	2006.27
1004.243	2012.38
1004.538	2021.19
1004.832	1985.03
1005.127	1958.59
1005.421	1973.51
1005.715	1939.38
1006.009	1932.15
1006.304	1931.93
1006.598	1881.53
1006.892	1918.59
1007.186	1886.96
1007.48	1853.28
1007.773	1874.98
1008.067	1851.7
1008.361	1851.25
1008.655	1831.59
1008.948	1800.18
1009.242	1797.24
1009.535	1791.82
1009.829	1808.99
1010.122	1772.38
1010.415	1797.24
1010.708	1772.16
1011.001	1755.21
1011.295	1754.3
1011.588	1709.56
1011.881	1725.6
1012.173	1718.15
1012.466	1724.7
1012.759	1676.57
1013.052	1677.92
1013.344	1689.22
1013.637	1653.74
1013.93	1638.37
1014.222	1654.65
1014.514	1625.49
1014.807	1627.08
1015.099	1637.7
1015.391	1597.92
1015.683	1604.93
1015.976	1606.51
1016.268	1600.86
1016.56	1543.24
1016.851	1566.74
1017.143	1556.12
1017.435	1543.69
1017.727	1530.58
1018.018	1571.48
1018.31	1480.64
1018.602	1502.11
1018.893	1502.33
1019.185	1456.68
1019.476	1475.44
1019.767	1483.8
1020.058	1449.91
1020.35	1444.93
1020.641	1453.52
1020.932	1424.6
1021.223	1440.19
1021.514	1411.04
1021.804	1397.25
1022.095	1377.82
1022.386	1390.02
1022.677	1389.34
1022.967	1392.96
1023.258	1339.85
1023.548	1343.47
1023.839	1319.97
1024.129	1301.89
1024.419	1315.9
1024.709	1310.7
1025	1310.02
1025.29	1294.2
1025.58	1305.05
1025.87	1298.27
1026.16	1284.26
1026.449	1271.6
1026.739	1265.96
1027.029	1274.32
1027.319	1238.61
1027.608	1234.77
1027.898	1223.7
1028.187	1197.26
1028.477	1213.3
1028.766	1190.93
1029.055	1169.23
1029.344	1190.93
1029.634	1194.77
1029.923	1192.29
1030.212	1171.49
1030.501	1129.69
1030.79	1141.89
1031.078	1123.59
1031.367	1129.69
1031.656	1107.54
1031.945	1125.85
1032.233	1098.95
1032.522	1102.57
1032.81	1088.56
1033.099	1097.82
1033.387	1075.9
1033.675	1065.51
1033.963	1068.67
1034.251	1080.88
1034.54	1061.22
1034.828	1052.18
1035.116	1063.47
1035.403	1028.9
1035.691	1030.48
1035.979	1008.34
1036.267	991.39
1036.554	1013.53
1036.842	1008.11
1037.129	1013.31
1037.417	1004.49
1037.704	984.15
1037.992	975.12
1038.279	966.98
1038.566	959.3
1038.853	959.3
1039.14	959.3
