Data from hue_200_FLMS001491_00065.txt Node
Date: Tue Feb 07 16:43:46 GMT 2017
User: dcchb
Spectrometer: FLMS00149
Trigger mode: 0
Integration Time (sec): 2.000000E-2
Scans to average: 10
Electric dark correction enabled: true
Nonlinearity correction enabled: false
Boxcar width: 0
XAxis mode: Wavelengths
Number of Pixels in Spectrum: 2048
>>>>>Begin Spectral Data<<<<<
341.393	-9
341.776	-9
342.16	-9
342.543	-61.42
342.927	-70.24
343.31	-72.5
343.693	-61.42
344.077	-81.09
344.46	-61.2
344.843	-30.69
345.226	-21.65
345.61	-12.84
345.993	-18.49
346.376	-23.23
346.759	2.53
347.142	27.16
347.525	31.45
347.908	57.22
348.291	83.2
348.674	87.05
349.057	94.5
349.44	117.78
349.823	149.42
350.206	162.75
350.588	207.04
350.971	202.07
351.354	216.99
351.737	229.41
352.119	252.24
352.502	266.7
352.884	260.83
353.267	259.47
353.65	305.8
354.032	308.28
354.414	303.31
354.797	308.06
355.179	322.75
355.562	322.29
355.944	348.06
356.326	354.38
356.709	325.46
357.091	333.59
357.473	325.68
357.855	339.69
358.238	347.6
358.62	329.53
359.002	343.76
359.384	343.76
359.766	327.27
360.148	328.4
360.53	353.03
360.912	331.33
361.294	355.51
361.676	339.92
362.057	313.03
362.439	321.84
362.821	329.07
363.203	318.23
363.584	313.71
363.966	319.58
364.348	322.97
364.729	328.17
365.111	304.22
365.493	338.56
365.874	339.24
366.256	319.81
366.637	319.58
367.019	293.59
367.4	342.18
367.781	308.96
368.163	320.03
368.544	315.06
368.925	333.37
369.306	312.35
369.688	302.41
370.069	336.3
370.45	294.05
370.831	298.11
371.212	314.61
371.593	337.43
371.974	348.96
372.355	320.03
372.736	344.67
373.117	329.07
373.498	339.92
373.879	324.78
374.26	303.54
374.641	309.41
375.021	322.75
375.402	343.99
375.783	332.01
376.163	332.91
376.544	345.57
376.925	321.39
377.305	330.88
377.686	340.37
378.066	339.02
378.447	327.49
378.827	327.04
379.208	348.28
379.588	347.15
379.968	354.84
380.349	324.78
380.729	331.33
381.109	356.19
381.489	340.37
381.87	367.49
382.25	333.14
382.63	338.79
383.01	351.9
383.39	326.59
383.77	348.73
384.15	340.82
384.53	356.42
384.91	349.64
385.29	332.01
385.67	356.87
386.049	363.2
386.429	354.38
386.809	369.98
387.189	362.29
387.568	363.2
387.948	356.87
388.328	374.95
388.707	359.81
389.087	377.43
389.466	390.99
389.846	388.51
390.225	373.37
390.605	381.5
390.984	393.48
391.363	382.18
391.743	368.17
392.122	381.95
392.501	385.34
392.881	400.03
393.26	419.92
393.639	405.68
394.018	414.95
394.397	414.95
394.776	391.22
395.155	400.03
395.534	390.09
395.913	396.64
396.292	427.6
396.671	414.95
397.05	424.66
397.429	428.28
397.808	429.18
398.186	442.74
398.565	422.63
398.944	417.21
399.323	437.54
399.701	444.1
400.08	438.67
400.458	448.17
400.837	452.46
401.215	457.66
401.594	423.53
401.972	464.66
402.351	455.17
402.729	457.43
403.107	463.76
403.486	459.69
403.864	459.69
404.242	487.71
404.62	475.96
404.999	475.51
405.377	478.22
405.755	476.19
406.133	490.2
406.511	499.46
406.889	506.47
407.267	515.06
407.645	510.09
408.023	537.66
408.401	548.5
408.779	550.76
409.156	571.1
409.534	543.3
409.912	560.71
410.29	592.57
410.667	595.96
411.045	612
411.422	589.41
411.8	617.88
412.178	636.41
412.555	648.61
412.933	651.78
413.31	652.68
413.687	659.01
414.065	672.79
414.442	669.18
414.819	708.72
415.197	693.81
415.574	710.98
415.951	730.19
416.328	739.01
416.705	719.57
417.082	757.08
417.46	727.25
417.837	756.41
418.214	787.82
418.591	800.7
418.967	807.93
419.344	807.48
419.721	843.86
420.098	856.74
420.475	835.73
420.852	869.62
421.228	860.13
421.605	901.26
421.982	909.85
422.358	929.51
422.735	951.66
423.111	954.59
423.488	974.71
423.864	1004.54
424.241	1027.13
424.617	1027.36
424.994	1028.72
425.37	1067.36
425.746	1095.61
426.123	1090.41
426.499	1070.3
426.875	1130.63
427.251	1130.86
427.627	1165.89
428.003	1127.47
428.379	1169.28
428.756	1192.1
429.132	1231.2
429.507	1245.89
429.883	1247.47
430.259	1254.25
430.635	1285.21
431.011	1279.78
431.387	1307.58
431.763	1326.56
432.138	1343.74
432.514	1368.82
432.89	1357.97
433.265	1415.37
433.641	1437.74
434.016	1467.12
434.392	1496.27
434.767	1535.14
435.143	1527.91
435.518	1559.1
435.894	1618.3
436.269	1639.77
436.644	1643.39
437.02	1649.26
437.395	1663.5
437.77	1740.79
438.145	1748.02
438.52	1784.4
438.895	1818.75
439.271	1863.72
439.646	1905.98
440.021	1911.18
440.395	1942.36
440.77	1950.5
441.145	1969.48
441.52	2005.64
441.895	1993.89
442.27	2024.62
442.645	2053.32
443.019	2115.92
443.394	2086.09
443.769	2123.38
444.143	2142.36
444.518	2199.08
444.892	2185.52
445.267	2218.06
445.641	2242.02
446.016	2236.14
446.39	2307.55
446.764	2322.92
447.139	2297.61
447.513	2338.06
447.887	2321.79
448.262	2362.69
448.636	2375.12
449.01	2401.56
449.384	2452.41
449.758	2468.23
450.132	2465.97
450.506	2492.63
450.88	2506.42
451.254	2503.03
451.628	2576.7
452.002	2605.17
452.376	2632.06
452.75	2630.48
453.123	2650.59
453.497	2696.69
453.871	2711.38
454.244	2776.92
454.618	2803.13
454.992	2861.89
455.365	2816.69
455.739	2905.05
456.112	2950.7
456.486	2952.73
456.859	3014.2
457.232	3026.63
457.606	3047.87
457.979	3058.04
458.352	3152.73
458.725	3211.71
459.099	3204.7
459.472	3244.25
459.845	3334.64
460.218	3304.59
460.591	3328.99
460.964	3368.99
461.337	3421.65
461.71	3467.97
462.083	3512.72
462.456	3579.38
462.829	3599.72
463.201	3628.42
463.574	3606.28
463.947	3714.07
464.32	3745.71
464.692	3783.9
465.065	3856.44
465.438	3854.86
465.81	3964.91
466.183	3986.83
466.555	4092.59
466.928	4109.09
467.3	4086.04
467.672	4175.53
468.045	4288.74
468.417	4247.16
468.789	4302.98
469.161	4399.47
469.534	4485.8
469.906	4511.34
470.278	4557.66
470.65	4567.15
471.022	4660.03
471.394	4764.21
471.766	4775.28
472.138	4823.42
472.51	4930.31
472.882	5021.83
473.253	5044.43
473.625	5128.27
473.997	5272.9
474.369	5274.71
474.74	5294.82
475.112	5440.35
475.484	5548.6
475.855	5604.64
476.227	5623.17
476.598	5766.9
476.97	5816.39
477.341	5965.54
477.713	6009.38
478.084	6028.36
478.455	6175.7
478.827	6235.36
479.198	6417.05
479.569	6428.8
479.94	6606.65
480.311	6687.55
480.682	6778.85
481.053	6915.79
481.424	7023.13
481.795	7120.76
482.166	7137.71
482.537	7261.09
482.908	7388.55
483.279	7484.37
483.65	7584.48
484.021	7761.87
484.391	7767.75
484.762	7877.8
485.133	7930
485.503	8008.65
485.874	8233.27
486.244	8265.14
486.615	8338.81
486.985	8499.25
487.356	8579.7
487.726	8602.75
488.097	8825.35
488.467	8865.12
488.837	9054.95
489.207	9132.91
489.578	9225.34
489.948	9305.33
490.318	9409.96
490.688	9470.3
491.058	9538.1
491.428	9731.31
491.798	9740.58
492.168	9905.77
492.538	9938.76
492.908	10108.7
493.278	10134.01
493.648	10162.49
494.017	10273.44
494.387	10385.98
494.757	10428.47
495.126	10498.52
495.496	10603.15
495.866	10630.27
496.235	10729.48
496.605	10754.34
496.974	10842.92
497.344	10924.27
497.713	10884.73
498.082	10972.41
498.452	11037.49
498.821	11119.3
499.19	11108.9
499.559	11129.24
499.928	11215.11
500.298	11218.96
500.667	11425.28
501.036	11345.51
501.405	11509.8
501.774	11380.08
502.143	11560.19
502.512	11574.2
502.88	11625.27
503.249	11592.96
503.618	11668.66
503.987	11682.67
504.356	11780.52
504.724	11780.75
505.093	11815.55
505.462	11801.77
505.83	11937.58
506.199	12030.69
506.567	12096.67
506.936	12105.94
507.304	12070.23
507.672	12206.73
508.041	12190.46
508.409	12168.99
508.777	12323.33
509.145	12447.4
509.514	12339.83
509.882	12429.55
510.25	12409.21
510.618	12404.91
510.986	12462.77
511.354	12533.27
511.722	12566.49
512.09	12662.31
512.458	12598.58
512.826	12670.9
513.193	12754.51
513.561	12647.85
513.929	12708.41
514.297	12899.59
514.664	12824.34
515.032	12864.56
515.4	12890.78
515.767	12921.51
516.135	12886.03
516.502	12811.23
516.869	12933.94
517.237	12954.5
517.604	12909.53
517.972	13026.14
518.339	13072.92
518.706	12981.85
519.073	13012.36
519.44	13166.93
519.808	13151.11
520.175	13133.03
520.542	13174.61
520.909	13275.63
521.276	13277.89
521.643	13187.94
522.009	13255.29
522.376	13369.63
522.743	13383.87
523.11	13374.83
523.477	13466.13
523.843	13432.01
524.21	13501.38
524.577	13525.11
524.943	13599.46
525.31	13590.87
525.676	13592.68
526.043	13628.16
526.409	13681.04
526.776	13676.52
527.142	13732.34
527.508	13641.27
527.874	13697.08
528.241	13716.74
528.607	13661.6
528.973	13699.8
529.339	13641.04
529.705	13727.37
530.071	13808.04
530.437	13689.17
530.803	13700.25
531.169	13784.76
531.535	13670.87
531.901	13648.72
532.267	13646.69
532.632	13556.07
532.998	13599.01
533.364	13701.38
533.73	13607.14
534.095	13708.83
534.461	13650.98
534.826	13585
535.192	13574.15
535.557	13621.83
535.923	13594.94
536.288	13479.69
536.653	13510.65
537.019	13375.51
537.384	13366.24
537.749	13376.64
538.114	13378.45
538.479	13220.71
538.845	13355.17
539.21	13215.74
539.575	13173.71
539.94	13172.58
540.305	13197.66
540.67	13146.82
541.034	13105.23
541.399	13064.56
541.764	12999.47
542.129	13034.28
542.494	12956.31
542.858	12920.38
543.223	12872.02
543.587	12818.46
543.952	12777.11
544.316	12780.27
544.681	12696.66
545.045	12707.73
545.41	12663.21
545.774	12695.53
546.138	12651.24
546.503	12640.16
546.867	12490.34
547.231	12484.69
547.595	12530.33
547.959	12488.3
548.324	12367.63
548.688	12244.01
549.052	12311.58
549.416	12275.2
549.779	12330.11
550.143	12198.14
550.507	12200.17
550.871	12140.29
551.235	12059.39
551.599	12198.14
551.962	12087.86
552.326	12082.44
552.689	12001.31
553.053	11899.16
553.417	11891.71
553.78	11928.09
554.143	11837.92
554.507	11888.54
554.87	11928.77
555.234	11902.78
555.597	11770.13
555.96	11770.81
556.323	11733.07
556.686	11766.74
557.05	11802.67
557.413	11707.98
557.776	11727.42
558.139	11773.74
558.502	11746.17
558.865	11687.87
559.228	11708.66
559.59	11686.29
559.953	11686.97
560.316	11708.21
560.679	11649.23
561.041	11679.51
561.404	11648.1
561.767	11750.24
562.129	11618.04
562.492	11678.83
562.854	11673.18
563.217	11595.9
563.579	11658.94
563.941	11665.05
564.304	11651.49
564.666	11721.09
565.028	11704.37
565.39	11644.71
565.753	11747.53
566.115	11733.07
566.477	11682.22
566.839	11787.98
567.201	11786.4
567.563	11731.49
567.925	11858.26
568.287	11751.15
568.648	11731.71
569.01	11715.67
569.372	11893.51
569.734	11792.95
570.095	11818.94
570.457	11862.78
570.819	11824.14
571.18	11772.39
571.542	11901.65
571.903	11867.3
572.265	11855.55
572.626	11854.87
572.987	11864.59
573.349	11870.46
573.71	11959.28
574.071	11893.74
574.432	11946.39
574.794	11976
575.155	11917.02
575.516	11929.22
575.877	11918.15
576.238	12010.12
576.599	12002.66
576.96	12055.09
577.32	12006.51
577.681	11952.04
578.042	12023
578.403	12032.27
578.763	11962.21
579.124	12025.04
579.485	12029.1
579.845	12023
580.206	12048.09
580.566	12004.92
580.927	12062.1
581.287	12062.1
581.648	12023.23
582.008	12035.66
582.368	11949.56
582.728	12069.33
583.089	12027.07
583.449	11992.5
583.809	11987.52
584.169	12005.15
584.529	11968.77
584.889	12101.42
585.249	12059.84
585.609	11925.6
585.969	11998.37
586.329	11954.08
586.688	11944.36
587.048	11908.2
587.408	11914.31
587.768	11920.41
588.127	12026.84
588.487	11864.36
588.846	11957.02
589.206	11865.04
589.565	11927.64
589.925	11920.41
590.284	11836.57
590.643	11979.84
591.003	11802.67
591.362	11936.45
591.721	11856.45
592.08	11897.81
592.44	11875.66
592.799	11823.46
593.158	11867.75
593.517	11885.15
593.876	11878.15
594.235	11874.08
594.593	11826.4
594.952	11854.42
595.311	11770.58
595.67	11862.78
596.029	12007.18
596.387	11829.56
596.746	11862.33
597.104	11810.81
597.463	11760.64
597.822	11767.87
598.18	11738.49
598.538	11750.02
598.897	11821.43
599.255	11745.72
599.613	11864.59
599.972	11780.3
600.33	11874.76
600.688	11833.86
601.046	11783.91
601.404	11813.97
601.762	11768.32
602.12	11843.35
602.478	11866.85
602.836	11853.97
603.194	11769.22
603.552	11794.31
603.91	11714.99
604.268	11827.75
604.625	11797.25
604.983	11775.33
605.341	11726.97
605.698	11794.53
606.056	11831.14
606.413	11865.72
606.771	11881.99
607.128	11847.41
607.485	11858.94
607.843	11783.69
608.2	11771.26
608.557	11824.82
608.914	11862.78
609.272	11839.96
609.629	11863.23
609.986	11941.2
610.343	11881.31
610.7	11898.71
611.057	11928.32
611.414	11871.14
611.771	11946.62
612.127	11909.56
612.484	11941.2
612.841	11963.34
613.198	11910.69
613.554	11927.86
613.911	12058.71
614.267	11961.76
614.624	11952.95
614.98	11915.21
615.337	12024.58
615.693	11985.04
616.05	11957.92
616.406	12105.26
616.762	11973.06
617.118	12021.42
617.475	11945.94
617.831	12062.78
618.187	12021.65
618.543	12133.73
618.899	12055.54
619.255	12107.97
619.611	12070.69
619.967	12087.63
620.323	12124.02
620.678	12023.68
621.034	12134.64
621.39	12120.18
621.746	12072.49
622.101	12115.88
622.457	12050.12
622.812	12070.46
623.168	12089.67
623.523	12102.77
623.879	12161.3
624.234	12046.51
624.589	12135.09
624.945	12073.62
625.3	12116.56
625.655	12148.2
626.01	12078.59
626.365	12059.61
626.72	12096
627.075	12022.33
627.43	11999.5
627.785	11965.38
628.14	12025.71
628.495	12062.1
628.85	12031.82
629.205	11959.73
629.559	12023.68
629.914	11878.83
630.269	11942.78
630.623	11993.17
630.978	11940.97
631.332	11988.2
631.687	11965.38
632.041	11880.63
632.396	11960.63
632.75	11870.46
633.104	11870.92
633.459	11819.84
633.813	11860.97
634.167	11739.85
634.521	11750.02
634.875	11834.53
635.229	11746.17
635.583	11706.85
635.937	11733.75
636.291	11733.75
636.645	11676.12
636.999	11698.27
637.352	11673.41
637.706	11626.63
638.06	11666.85
638.413	11673.18
638.767	11637.02
639.121	11598.61
639.474	11562
639.828	11577.82
640.181	11608.78
640.534	11592.96
640.888	11501.43
641.241	11462.11
641.594	11490.36
641.947	11599.74
642.301	11558.38
642.654	11514.54
643.007	11433.87
643.36	11524.03
643.713	11568.1
644.066	11518.61
644.419	11413.08
644.771	11298.5
645.124	11275
645.477	11271.38
645.83	11143.03
646.182	11101.45
646.535	11103.03
646.888	11137.83
647.24	10991.84
647.593	11056.02
647.945	11104.61
648.298	11076.59
648.65	11035.68
649.002	11003.37
649.355	11027.55
649.707	11022.8
650.059	11130.15
650.411	11265.06
650.763	11211.5
651.115	11355.68
651.467	11294.43
651.819	11333.76
652.171	11290.37
652.523	11226.19
652.875	11306.41
653.227	11207.66
653.578	11268.45
653.93	11317.26
654.282	11216.24
654.633	11226.64
654.985	11240.65
655.337	11240.88
655.688	11307.09
656.039	11303.02
656.391	11220.99
656.742	11306.41
657.094	11283.59
657.445	11297.6
657.796	11277.71
658.147	11310.25
658.498	11317.03
658.849	11333.08
659.2	11274.77
659.551	11158.39
659.902	11246.07
660.253	11331.27
660.604	11380.31
660.955	11240.88
661.306	11314.77
661.656	11232.29
662.007	11370.59
662.358	11253.31
662.708	11342.34
663.059	11397.03
663.409	11203.36
663.76	11363.36
664.11	11310.93
664.461	11316.58
664.811	11312.29
665.161	11402
665.511	11300.31
665.862	11295.11
666.212	11309.58
666.562	11319.74
666.912	11303.47
667.262	11311.38
667.612	11304.38
667.962	11273.87
668.312	11249.01
668.662	11354.55
669.011	11306.19
669.361	11251.95
669.711	11245.4
670.06	11280.2
670.41	11193.19
670.76	11301.67
671.109	11233.87
671.459	11270.03
671.808	11201.33
672.157	11262.8
672.507	11171.73
672.856	11136.7
673.205	11159.07
673.554	11277.94
673.904	11195.91
674.253	11209.69
674.602	11133.53
674.951	11001.79
675.3	10954.33
675.649	11190.93
675.998	11121.11
676.346	11112.97
676.695	11141.67
677.044	11041.79
677.393	11112.29
677.741	11030.03
678.09	11058.73
678.438	10991.17
678.787	11071.62
679.135	10976.48
679.484	10958.4
679.832	10979.64
680.181	10946.42
680.529	10935.35
680.877	10899.42
681.225	10890.6
681.573	10944.84
681.922	10864.39
682.27	10861
682.618	10836.59
682.966	10861.23
683.314	10836.37
683.661	10786.2
684.009	10801.57
684.357	10723.83
684.705	10740.32
685.053	10706.88
685.4	10681.8
685.748	10603.38
686.095	10625.75
686.443	10534.91
686.79	10565.19
687.138	10512.99
687.485	10450.16
687.832	10476.83
688.18	10520.9
688.527	10441.12
688.874	10425.3
689.221	10352.76
689.568	10383.27
689.915	10296.95
690.262	10326.78
690.609	10269.6
690.956	10187.57
691.303	10206.1
691.65	10153
691.997	10116.39
692.344	10171.3
692.69	10028.03
693.037	10053.56
693.383	10008.37
693.73	10080
694.077	9869.16
694.423	9915.04
694.769	9872.55
695.116	9885.66
695.462	9800.69
695.808	9788.94
696.155	9761.14
696.501	9704.19
696.847	9677.98
697.193	9624.65
697.539	9639.11
697.885	9575.61
698.231	9570.64
698.577	9582.16
698.923	9532.45
699.269	9425.78
699.614	9361.38
699.96	9320.93
700.306	9369.97
700.651	9287.48
700.997	9295.39
701.342	9327.71
701.688	9223.75
702.033	9186.47
702.379	9201.61
702.724	9164.77
703.069	9145.56
703.415	9019.92
703.76	9037.32
704.105	9017.43
704.45	9024.66
704.795	8920.49
705.14	8865.8
705.485	8860.6
705.83	8833.93
706.175	8890.2
706.52	8861.96
706.865	8809.08
707.209	8786.48
707.554	8701.28
707.899	8744.9
708.243	8685.24
708.588	8638.23
708.932	8642.75
709.277	8625.8
709.621	8606.82
709.966	8509.65
710.31	8582.19
710.654	8484.57
710.998	8517.33
711.342	8492.93
711.687	8435.3
712.031	8427.62
712.375	8406.38
712.719	8426.71
713.063	8402.99
713.407	8372.03
713.75	8324.34
714.094	8360.5
714.438	8309.43
714.782	8304.68
715.125	8363.89
715.469	8289.54
715.812	8206.83
716.156	8163.22
716.499	8176.55
716.843	8198.02
717.186	8194.86
717.53	8130.22
717.873	8107.63
718.216	8187.17
718.559	8143.11
718.902	8134.29
719.246	8087.06
719.589	8032.15
719.932	8035.76
720.275	8079.38
720.617	8013.62
720.96	8002.09
721.303	8124.35
721.646	8078.93
721.989	7988.31
722.331	8001.87
722.674	7995.54
723.016	8021.98
723.359	8014.97
723.701	8046.38
724.044	8008.42
724.386	7930
724.729	7937.91
725.071	7961.64
725.413	7932.49
725.755	7896.78
726.097	7868.99
726.439	7867.86
726.782	7915.09
727.124	7916.44
727.465	7844.81
727.807	7871.93
728.149	7864.69
728.491	7899.72
728.833	7873.96
729.175	7804.36
729.516	7891.59
729.858	7825.83
730.199	7842.77
730.541	7850.01
730.882	7800.06
731.224	7842.32
731.565	7792.38
731.906	7837.58
732.248	7838.48
732.589	7753.28
732.93	7793.06
733.271	7762.55
733.612	7751.7
733.953	7843.9
734.294	7788.99
734.635	7804.13
734.976	7799.61
735.317	7803.45
735.658	7768.2
735.999	7774.53
736.339	7779.05
736.68	7804.81
737.021	7863.34
737.361	7757.35
737.702	7910.34
738.042	7837.12
738.383	7854.3
738.723	7845.26
739.063	7879.38
739.404	7861.08
739.744	7886.16
740.084	7863.11
740.424	7874.86
740.764	7868.76
741.104	7938.14
741.444	7877.58
741.784	7878.03
742.124	7922.09
742.464	7935.2
742.804	7936.1
743.143	7972.04
743.483	7993.28
743.823	8000.74
744.162	8010.68
744.502	8048.87
744.841	8024.24
745.181	8153.27
745.52	8130
745.86	8165.93
746.199	8252.48
746.538	8247.74
746.877	8302.65
747.216	8325.02
747.556	8361.4
747.895	8423.55
748.234	8426.71
748.573	8466.26
748.911	8563.43
749.25	8610.66
749.589	8670.32
749.928	8755.29
750.267	8865.12
750.605	8854.72
750.944	8925.23
751.283	9015.85
751.621	9110.54
751.96	9137.88
752.298	9292.45
752.636	9331.55
752.975	9435.5
753.313	9501.04
753.651	9723.4
753.989	9783.51
754.327	9899.22
754.666	10027.12
755.004	10081.36
755.342	10257.63
755.679	10321.13
756.017	10443.61
756.355	10672.98
756.693	10844.05
757.031	10996.14
757.368	10973.99
757.706	11214.21
758.044	11395.45
758.381	11513.41
758.719	11696.68
759.056	11912.95
759.394	11997.69
759.731	12094.19
760.068	12410.11
760.405	12494.4
760.743	12646.26
761.08	12813.72
761.417	13069.53
761.754	13203.31
762.091	13394.04
762.428	13534.15
762.765	13644.43
763.102	13909.51
763.438	14021.59
763.775	14326.9
764.112	14500.45
764.449	14680.56
764.785	14813.21
765.122	14962.81
765.458	15123.94
765.795	15275.35
766.131	15514.44
766.467	15677.82
766.804	15823.58
767.14	15812.28
767.476	16105.83
767.812	16144.25
768.148	16354.19
768.485	16508.99
768.821	16521.42
769.157	16805.7
769.492	16906.72
769.828	17107.39
770.164	17131.8
770.5	17228.74
770.836	17348.51
771.171	17419.7
771.507	17616.98
771.842	17610.43
772.178	17784.43
772.513	17914.15
772.849	17957.99
773.184	18092.9
773.519	18232.56
773.855	18300.8
774.19	18404.08
774.525	18316.85
774.86	18512.1
775.195	18609.5
775.53	18658.99
775.865	18706.9
776.2	18714.35
776.535	18698.31
776.87	18793.67
777.205	18792.09
777.539	18910.51
777.874	19031.63
778.209	18919.09
778.543	19002.93
778.878	19026.89
779.212	19108.92
779.547	19020.56
779.881	19211.97
780.215	19075.25
780.55	19236.82
780.884	19169.48
781.218	19272.08
781.552	19334
781.886	19198.86
782.22	19184.85
782.554	19249.03
782.888	19152.99
783.222	19205.41
783.556	19184.17
783.889	19168.8
784.223	19162.02
784.557	19054.91
784.89	19182.59
785.224	19089.48
785.557	19175.13
785.891	19128.35
786.224	19104.4
786.558	19157.96
786.891	19002.93
787.224	19004.97
787.557	19040.22
787.891	19030.28
788.224	19021.92
788.557	19075.47
788.89	19085.64
789.223	19110.05
789.556	18998.41
789.888	18997.51
790.221	18868.92
790.554	18722.94
790.887	18922.71
791.219	18814.46
791.552	18794.12
791.884	18726.78
792.217	18716.16
792.549	18764.07
792.882	18611.08
793.214	18567.69
793.546	18681.59
793.879	18459.67
794.211	18552.1
794.543	18555.49
794.875	18458.09
795.207	18518.2
795.539	18429.16
795.871	18445.21
796.203	18298.54
796.535	18221.03
796.867	18246.57
797.198	18122.05
797.53	18222.16
797.862	18094.26
798.193	18079.34
798.525	17993.47
798.856	18075.27
799.188	17903.07
799.519	17859.23
799.85	17798.22
800.182	17748.28
800.513	17748.05
800.844	17713.25
801.175	17795.28
801.506	17819.01
801.837	17638
802.168	17659.92
802.499	17583.31
802.83	17476.87
803.161	17512.58
803.491	17435.52
803.822	17405.91
804.153	17419.02
804.483	17338.12
804.814	17283.88
805.145	17243.43
805.475	17268.97
805.805	17149.87
806.136	17174.28
806.466	17129.08
806.796	17196.88
807.126	17012.02
807.457	17000.95
807.787	16951.46
808.117	16913.5
808.447	16934.29
808.777	16869.2
809.107	16869.43
809.436	16806.15
809.766	16706.72
810.096	16672.82
810.426	16607.06
810.755	16624.24
811.085	16714.63
811.414	16629.66
811.744	16485.71
812.073	16531.13
812.403	16544.01
812.732	16390.57
813.061	16397.58
813.39	16356.22
813.719	16268.77
814.049	16418.59
814.378	16283.46
814.707	16255.21
815.036	16250.01
815.365	16152.84
815.693	16072.16
816.022	16094.08
816.351	16121.88
816.68	15959.62
817.008	16115.1
817.337	15895.22
817.665	15864.71
817.994	15902.22
818.322	15866.52
818.651	15743.36
818.979	15789.68
819.307	15819.29
819.636	15803.24
819.964	15702.91
820.292	15793.75
820.62	15730.93
820.948	15756.24
821.276	15752.17
821.604	15668.33
821.932	15792.17
822.259	15778.61
822.587	15735.67
822.915	15608.67
823.243	15699.06
823.57	15687.99
823.898	15675.11
824.225	15672.62
824.553	15667.2
824.88	15677.82
825.207	15819.74
825.535	15774.77
825.862	15767.54
826.189	15660.2
826.516	15759.4
826.843	15726.41
827.17	15787.2
827.497	15767.54
827.824	15818.38
828.151	15801.21
828.478	15789.01
828.805	15753.53
829.131	15742.23
829.458	15699.74
829.785	15659.74
830.111	15727.99
830.438	15845.95
830.764	15705.62
831.09	15846.41
831.417	15696.13
831.743	15685.51
832.069	15759.18
832.395	15696.58
832.722	15746.07
833.048	15627.43
833.374	15755.56
833.7	15621.78
834.026	15635.34
834.351	15570.25
834.677	15574.32
835.003	15620.65
835.329	15573.42
835.654	15586.75
835.98	15505.85
836.306	15493.65
836.631	15476.02
836.956	15534.32
837.282	15557.83
837.607	15432.63
837.932	15487.32
838.258	15449.58
838.583	15457.04
838.908	15275.8
839.233	15374.1
839.558	15303.59
839.883	15285.52
840.208	15263.14
840.533	15190.83
840.858	15216.82
841.182	15207.1
841.507	15128.23
841.832	15145.86
842.156	15132.53
842.481	15068.12
842.805	15087.33
843.13	15054.56
843.454	14950.84
843.778	14961.91
844.103	14846.66
844.427	14882.36
844.751	14889.14
845.075	14822.25
845.399	14769.6
845.723	14577.74
846.047	14586.33
846.371	14606.66
846.695	14624.06
847.019	14485.76
847.343	14450.51
847.666	14390.4
847.99	14323.28
848.313	14338.2
848.637	14138.65
848.96	14145.21
849.284	14130.29
849.607	14011.88
849.931	13994.48
850.254	13866.57
850.577	13807.81
850.9	13728.72
851.223	13777.76
851.546	13589.97
851.869	13566.24
852.192	13624.09
852.515	13549.74
852.838	13511.1
853.161	13455.96
853.483	13371.67
853.806	13325.57
854.129	13296.64
854.451	13189.07
854.774	13273.82
855.096	13135.29
855.419	13181.39
855.741	13086.25
856.063	12997.21
856.385	12996.76
856.708	12997.44
857.03	12901.17
857.352	12901.17
857.674	12784.56
857.996	12785.24
858.318	12706.37
858.64	12811.91
858.961	12667.05
859.283	12698.47
859.605	12589.99
859.926	12684.45
860.248	12623.44
860.57	12550.22
860.891	12524.68
861.212	12465.03
861.534	12434.52
861.855	12448.75
862.176	12360.85
862.498	12471.58
862.819	12377.12
863.14	12283.34
863.461	12282.43
863.782	12296.44
864.103	12327.63
864.424	12231.36
864.745	12253.73
865.065	12121.53
865.386	12155.2
865.707	12032.04
866.027	12199.27
866.348	12130.12
866.668	12101.87
866.989	12089.44
867.309	11987.98
867.63	11993.4
867.95	11968.77
868.27	11979.16
868.59	11893.51
868.91	11941.88
869.23	11854.42
869.55	11850.13
869.87	11876.57
870.19	11891.93
870.51	11830.47
870.83	11859.39
871.15	11753.86
871.469	11818.49
871.789	11870.24
872.109	11772.84
872.428	11737.36
872.748	11743.69
873.067	11740.75
873.386	11769.45
873.706	11647.87
874.025	11611.94
874.344	11587.31
874.663	11557.7
874.982	11601.09
875.301	11617.59
875.62	11577.14
875.939	11497.37
876.258	11517.93
876.577	11470.02
876.896	11519.97
877.214	11464.6
877.533	11423.24
877.852	11409.91
878.17	11462.11
878.489	11405.62
878.807	11381.44
879.125	11354.77
879.444	11316.58
879.762	11282.01
880.08	11345.28
880.398	11254.89
880.716	11202.91
881.034	11186.64
881.352	11186.19
881.67	11146.64
881.988	11146.87
882.306	11085.4
882.624	11101.67
882.941	11059.86
883.259	10912.98
883.577	11020.77
883.894	10937.16
884.212	10929.92
884.529	11009.7
884.846	10897.16
885.164	10907.1
885.481	10827.33
885.798	10823.26
886.115	10753.43
886.432	10839.53
886.75	10761.34
887.067	10774.9
887.383	10691.51
887.7	10666.88
888.017	10544.85
888.334	10669.14
888.651	10622.36
888.967	10591.85
889.284	10497.39
889.6	10541.91
889.917	10438.41
890.233	10525.19
890.55	10436.83
890.866	10494.46
891.182	10355.25
891.498	10339.88
891.815	10290.62
892.131	10270.73
892.447	10249.49
892.763	10144.63
893.079	10146.67
893.395	10157.97
893.71	10166.1
894.026	10127.46
894.342	10104.86
894.657	9986.22
894.973	10015.6
895.289	9942.15
895.604	9978.31
895.92	9883.17
896.235	9748.49
896.55	9803.17
896.865	9760.01
897.181	9720.24
897.496	9833.68
897.811	9764.31
898.126	9658.09
898.441	9638.43
898.756	9593.46
899.071	9447.03
899.386	9531.09
899.7	9434.82
900.015	9447.25
900.33	9393.47
900.644	9307.59
900.959	9346.92
901.273	9302.62
901.588	9296.52
901.902	9210.87
902.216	9207.48
902.531	9143.08
902.845	9150.99
903.159	9143.53
903.473	9111.44
903.787	9033.25
904.101	8983.53
904.415	8977.66
904.729	8846.59
905.042	8924.78
905.356	8821.51
905.67	8832.8
905.984	8735.63
906.297	8769.76
906.611	8703.54
906.924	8729.98
907.237	8698.34
907.551	8638.23
907.864	8584.22
908.177	8604.56
908.491	8581.74
908.804	8515.52
909.117	8472.81
909.43	8438.46
909.743	8360.73
910.056	8330.9
910.368	8306.26
910.681	8286.6
910.994	8202.76
911.307	8232.59
911.619	8167.06
911.932	8107.4
912.244	8126.16
912.557	8099.49
912.869	8071.92
913.181	8043.9
913.494	8028.76
913.806	7956.67
914.118	7914.41
914.43	7874.86
914.742	7909.21
915.054	7740.18
915.366	7783.34
915.678	7755.77
915.99	7719.39
916.302	7638.71
916.613	7602.33
916.925	7677.58
917.236	7677.35
917.548	7513.52
917.859	7527.75
918.171	7519.39
918.482	7452.28
918.794	7332.28
919.105	7393.97
919.416	7292.73
919.727	7290.02
920.038	7346.29
920.349	7307.19
920.66	7296.57
920.971	7264.26
921.282	7232.62
921.593	7155.11
921.903	7108.78
922.214	7174.77
922.525	7098.39
922.835	7067.88
923.146	7035.34
923.456	6960.99
923.767	6946.07
924.077	6886.87
924.387	6903.14
924.697	6896.81
925.008	6866.08
925.318	6794.67
925.628	6763.93
925.938	6740.88
926.248	6698.17
926.558	6715.57
926.867	6669.47
927.177	6616.37
927.487	6583.6
927.796	6554.22
928.106	6572.07
928.416	6582.47
928.725	6498.85
929.034	6439.65
929.344	6454.34
929.653	6472.87
929.962	6373.89
930.271	6353.77
930.581	6339.08
930.89	6313.77
931.199	6312.64
931.508	6243.04
931.817	6274.23
932.125	6276.49
932.434	6205.08
932.743	6166.21
933.051	6175.93
933.36	6108.36
933.669	6070.39
933.977	6007.57
934.286	5987.23
934.594	5960.11
934.902	6007.57
935.21	5970.28
935.519	5941.81
935.827	5933.9
936.135	5875.82
936.443	5823.39
936.751	5837.4
937.059	5849.15
937.367	5844.41
937.674	5786.56
937.982	5719.67
938.29	5724.86
938.597	5724.86
938.905	5672.66
939.213	5661.36
939.52	5635.6
939.827	5598.31
940.135	5611.19
940.442	5592.66
940.749	5498.43
941.056	5490.97
941.363	5476.96
941.67	5456.17
941.977	5423.4
942.284	5420.69
942.591	5369.39
942.898	5333.69
943.205	5325.55
943.511	5295.95
943.818	5363.07
944.125	5275.16
944.431	5245.78
944.738	5210.53
945.044	5198.78
945.35	5168.95
945.657	5145.22
945.963	5160.36
946.269	5047.82
946.575	5081.72
946.881	5096.86
947.187	5087.37
947.493	5069.29
947.799	5021.83
948.105	4980.25
948.41	4913.13
948.716	4973.7
949.022	4919.01
949.327	4937.31
949.633	4888.28
949.938	4886.02
950.244	4868.39
950.549	4810.31
950.854	4796.53
951.16	4745.68
951.465	4746.36
951.77	4708.62
952.075	4728.05
952.38	4705.68
952.685	4702.29
952.99	4637.66
953.294	4619.36
953.599	4651.9
953.904	4607.15
954.209	4585.01
954.513	4578.91
954.818	4530.54
955.122	4525.8
955.426	4519.92
955.731	4496.42
956.035	4477.44
956.339	4473.15
956.643	4447.84
956.948	4392.92
957.252	4385.69
957.556	4317.22
957.86	4300.27
958.163	4342.3
958.467	4331.91
958.771	4332.13
959.075	4287.39
959.378	4241.74
959.682	4228.63
959.985	4241.74
960.289	4208.97
960.592	4175.07
960.896	4209.2
961.199	4152.48
961.502	4144.34
961.805	4075.87
962.108	4038.58
962.411	4085.13
962.714	4065.92
963.017	4049.88
963.32	4034.96
963.623	4027.51
963.926	3988.86
964.228	3961.07
964.531	3957.45
964.833	3945.25
965.136	3937.79
965.438	3901.18
965.741	3873.16
966.043	3879.94
966.345	3836.78
966.648	3816.89
966.95	3821.64
967.252	3796.78
967.554	3801.52
967.856	3764.92
968.158	3773.5
968.46	3730.57
968.761	3687.18
969.063	3703.45
969.365	3688.08
969.666	3679.49
969.968	3619.38
970.269	3646.05
970.571	3629.78
970.872	3594.75
971.174	3552.49
971.475	3547.75
971.776	3586.61
972.077	3581.64
972.378	3511.14
972.679	3544.81
972.98	3508.88
973.281	3498.48
973.582	3503.23
973.883	3487.63
974.183	3415.55
974.484	3461.42
974.785	3361.99
975.085	3406.51
975.386	3381.2
975.686	3356.34
975.986	3373.96
976.287	3377.13
976.587	3330.12
976.887	3302.55
977.187	3345.49
977.487	3294.65
977.787	3252.39
978.087	3259.39
978.387	3231.14
978.687	3213.74
978.987	3218.04
979.286	3170.81
979.586	3176.91
979.885	3156.57
980.185	3140.75
980.484	3132.16
980.784	3145.95
981.083	3111.15
981.382	3103.69
981.682	3068.89
981.981	3065.5
982.28	3045.16
982.579	3007.42
982.878	2991.6
983.177	3018.72
983.475	3008.78
983.774	2958.61
984.073	2965.61
984.372	2959.06
984.67	2946.18
984.969	2908.21
985.267	2896.01
985.566	2900.98
985.864	2863.02
986.162	2890.14
986.461	2836.13
986.759	2845.39
987.057	2806.3
987.355	2802.91
987.653	2828.67
987.951	2809.01
988.249	2777.6
988.547	2771.04
988.844	2786.18
989.142	2761.1
989.44	2699.41
989.737	2733.76
990.035	2705.51
990.332	2689.24
990.63	2677.26
990.927	2678.39
991.224	2621.67
991.521	2622.35
991.819	2641.1
992.116	2629.58
992.413	2598.84
992.71	2606.98
993.006	2559.75
993.303	2566.75
993.6	2534.44
993.897	2543.48
994.193	2498.06
994.49	2503.48
994.787	2503.48
995.083	2477.49
995.379	2499.64
995.676	2506.42
995.972	2473.42
996.268	2443.37
996.565	2452.86
996.861	2421.9
997.157	2401.79
997.453	2405.4
997.749	2382.58
998.044	2385.74
998.34	2373.54
998.636	2342.81
998.932	2339.87
999.227	2311.17
999.523	2308.46
999.818	2276.14
1000.114	2293.99
1000.409	2249.02
1000.704	2258.51
1001	2258.29
1001.295	2196.37
1001.59	2238.4
1001.885	2204.96
1002.18	2209.93
1002.475	2237.27
1002.77	2200.89
1003.065	2189.14
1003.359	2162.25
1003.654	2173.09
1003.949	2162.25
1004.243	2112.08
1004.538	2108.24
1004.832	2068.46
1005.127	2075.47
1005.421	2051.29
1005.715	2051.51
1006.009	2074.56
1006.304	2027.11
1006.598	1997.28
1006.892	2004.74
1007.186	1980.56
1007.48	1979.65
1007.773	1963.61
1008.067	1981.69
1008.361	1941.23
1008.655	1948.01
1008.948	1954.12
1009.242	1919.99
1009.535	1894.68
1009.829	1858.52
1010.122	1905.75
1010.415	1870.5
1010.708	1862.59
1011.001	1846.55
1011.295	1844.74
1011.588	1829.6
1011.881	1833.21
1012.173	1806.32
1012.466	1812.42
1012.759	1784.18
1013.052	1772.65
1013.344	1787.34
1013.637	1766.32
1013.93	1752.31
1014.222	1736.04
1014.514	1745.31
1014.807	1709.83
1015.099	1739.88
1015.391	1711.64
1015.683	1692.2
1015.976	1693.11
1016.268	1649.04
1016.56	1668.93
1016.851	1639.55
1017.143	1643.84
1017.435	1645.65
1017.727	1621.69
1018.018	1628.93
1018.31	1621.47
1018.602	1588.7
1018.893	1565.2
1019.185	1550.06
1019.476	1558.65
1019.767	1548.25
1020.058	1522.04
1020.35	1514.58
1020.641	1500.34
1020.932	1511.19
1021.223	1463.96
1021.514	1489.49
1021.804	1459.67
1022.095	1466.22
1022.386	1474.58
1022.677	1462.38
1022.967	1428.03
1023.258	1419.89
1023.548	1414.92
1023.839	1395.03
1024.129	1412.21
1024.419	1387.58
1024.709	1400.01
1025	1364.07
1025.29	1375.83
1025.58	1354.58
1025.87	1331.76
1026.16	1332.21
1026.449	1334.7
1026.739	1336.73
1027.029	1304.41
1027.319	1304.87
1027.608	1309.84
1027.898	1307.58
1028.187	1275.94
1028.477	1281.82
1028.766	1262.38
1029.055	1222.16
1029.344	1243.17
1029.634	1245.66
1029.923	1251.53
1030.212	1228.94
1030.501	1223.96
1030.79	1202.95
1031.078	1216.73
1031.367	1191.65
1031.656	1175.15
1031.945	1177.19
1032.233	1174.02
1032.522	1158.2
1032.81	1162.95
1033.099	1153.01
1033.387	1134.7
1033.675	1121.37
1033.963	1131.54
1034.251	1130.41
1034.54	1103.74
1034.828	1089.73
1035.116	1091.54
1035.403	1092.89
1035.691	1074.59
1035.979	1057.19
1036.267	1075.72
1036.554	1065.55
1036.842	1060.35
1037.129	1037.08
1037.417	1015.61
1037.704	1038.89
1037.992	1023.97
1038.279	1015.38
1038.566	1007.02
1038.853	1007.02
1039.14	1007.02
