Data from hue_350_FLMS001491_51.txt Node
Date: Mon Feb 06 15:38:12 GMT 2017
User: dcchb
Spectrometer: FLMS00149
Trigger mode: 0
Integration Time (sec): 2.000000E-2
Scans to average: 10
Electric dark correction enabled: true
Nonlinearity correction enabled: false
Boxcar width: 0
XAxis mode: Wavelengths
Number of Pixels in Spectrum: 2048
>>>>>Begin Spectral Data<<<<<
341.393	1.13
341.776	1.13
342.16	1.13
342.543	-84.97
342.927	-82.48
343.31	-57.17
343.693	-72.77
344.077	-64.18
344.46	-72.31
344.843	-42.26
345.226	-35.93
345.61	-47
345.993	-14.01
346.376	-13.56
346.759	13.56
347.142	23.05
347.525	33.67
347.908	62.6
348.291	70.73
348.674	84.29
349.057	131.3
349.44	130.84
349.823	138.53
350.206	162.93
350.588	183.27
350.971	217.85
351.354	198.86
351.737	240.22
352.119	247.9
352.502	244.97
352.884	271.18
353.267	257.62
353.65	268.02
354.032	291.74
354.414	302.36
354.797	299.2
355.179	314.34
355.562	337.84
355.944	335.36
356.326	340.78
356.709	331.74
357.091	324.74
357.473	345.08
357.855	339.2
358.238	348.69
358.62	328.8
359.002	313.44
359.384	335.81
359.766	338.52
360.148	311.63
360.53	319.54
360.912	330.16
361.294	316.83
361.676	309.14
362.057	324.29
362.439	335.36
362.821	311.63
363.203	322.03
363.584	321.12
363.966	312.76
364.348	304.4
364.729	306.43
365.111	328.13
365.493	289.26
365.874	318.64
366.256	303.27
366.637	315.7
367.019	296.72
367.4	317.51
367.781	299.2
368.163	308.24
368.544	320.22
368.925	308.92
369.306	305.08
369.688	312.31
370.069	302.14
370.45	296.72
370.831	298.07
371.212	284.29
371.593	307.56
371.974	300.56
372.355	293.33
372.736	322.03
373.117	291.07
373.498	317.05
373.879	321.35
374.26	324.74
374.641	326.09
375.021	314.57
375.402	313.21
375.783	316.83
376.163	327.22
376.544	299.65
376.925	324.29
377.305	325.87
377.686	326.55
378.066	317.28
378.447	326.09
378.827	316.83
379.208	333.1
379.588	313.21
379.968	309.82
380.349	333.1
380.729	326.55
381.109	315.25
381.489	332.87
381.87	318.64
382.25	333.1
382.63	332.19
383.01	321.57
383.39	332.87
383.77	329.48
384.15	327.67
384.53	324.74
384.91	341.01
385.29	332.65
385.67	321.12
386.049	336.71
386.429	338.52
386.809	338.97
387.189	340.78
387.568	351.4
387.948	352.53
388.328	356.6
388.707	342.36
389.087	359.31
389.466	342.36
389.846	330.39
390.225	339.88
390.605	351.18
390.984	342.59
391.363	346.66
391.743	343.95
392.122	363.15
392.501	358.41
392.881	331.06
393.26	352.53
393.639	357.28
394.018	344.62
394.397	346.21
394.776	346.88
395.155	381.01
395.534	361.8
395.913	362.48
396.292	366.77
396.671	374.45
397.05	390.27
397.429	349.6
397.808	348.01
398.186	362.48
398.565	371.29
398.944	372.42
399.323	372.65
399.701	381.23
400.08	375.81
400.458	376.49
400.837	376.71
401.215	387.79
401.594	364.28
401.972	404.51
402.351	383.49
402.729	379.43
403.107	371.29
403.486	370.61
403.864	383.72
404.242	379.65
404.62	396.37
404.999	396.6
405.377	406.32
405.755	402.02
406.133	383.27
406.511	415.36
406.889	412.87
407.267	373.55
407.645	395.47
408.023	409.25
408.401	394.11
408.779	408.58
409.156	413.77
409.534	425.75
409.912	411.97
410.29	418.07
410.667	439.76
411.045	409.03
411.422	444.73
411.8	435.69
412.178	432.98
412.555	446.09
412.933	443.6
413.31	453.77
413.687	445.86
414.065	447.45
414.442	465.98
414.819	448.58
415.197	467.11
415.574	480.44
415.951	474.79
416.328	462.59
416.705	460.1
417.082	480.67
417.46	469.82
417.837	498.29
418.214	470.95
418.591	478.63
418.967	490.61
419.344	485.41
419.721	501.91
420.098	478.41
420.475	514.11
420.852	507.78
421.228	504.85
421.605	511.85
421.982	503.94
422.358	521.57
422.735	526.77
423.111	543.94
423.488	549.14
423.864	558.86
424.241	543.94
424.617	547.1
424.994	546.65
425.37	562.47
425.746	544.39
426.123	550.49
426.499	562.25
426.875	569.48
427.251	548.46
427.627	567.89
428.003	567.22
428.379	578.29
428.756	586.65
429.132	595.46
429.507	562.25
429.883	604.05
430.259	617.84
430.635	616.25
431.011	592.75
431.387	605.18
431.763	642.92
432.138	612.64
432.514	650.15
432.89	625.97
433.265	628.91
433.641	630.72
434.016	664.62
434.392	653.54
434.767	661.68
435.143	653.99
435.518	663.49
435.894	696.48
436.269	673.65
436.644	676.82
437.02	697.83
437.395	682.47
437.77	694.67
438.145	707.78
438.52	699.19
438.895	699.64
439.271	708
439.646	710.72
440.021	715.69
440.395	726.53
440.77	724.5
441.145	739.42
441.52	726.53
441.895	723.37
442.27	754.33
442.645	760.66
443.019	769.25
443.394	766.08
443.769	762.24
444.143	732.41
444.518	780.09
444.892	768.79
445.267	769.92
445.641	792.75
446.016	779.64
446.39	789.81
446.764	796.59
447.139	806.08
447.513	794.1
447.887	782.35
448.262	809.92
448.636	801.56
449.01	779.64
449.384	806.31
449.758	798.4
450.132	804.05
450.506	802.92
450.88	840.2
451.254	807.21
451.628	825.06
452.002	841.56
452.376	828.45
452.75	842.24
453.123	845.63
453.497	858.96
453.871	886.98
454.244	906.87
454.618	900.99
454.992	897.6
455.365	911.61
455.739	905.29
456.112	937.83
456.486	913.42
456.859	905.74
457.232	936.25
457.606	926.3
457.979	940.77
458.352	959.3
458.725	964.49
459.099	976.7
459.472	984.15
459.845	1013.53
460.218	995
460.591	984.15
460.964	968.79
461.337	1022.12
461.71	1002.46
462.083	1044.27
462.456	1057.6
462.829	1054.21
463.201	1072.51
463.574	1069.35
463.947	1090.59
464.32	1083.59
464.692	1092.63
465.065	1089.91
465.438	1105.96
465.81	1118.16
466.183	1157.94
466.555	1177.14
466.928	1172.4
467.3	1176.01
467.672	1173.08
468.045	1204.94
468.417	1229.35
468.789	1210.59
469.161	1256.24
469.534	1249.91
469.906	1260.53
470.278	1276.58
470.65	1281.32
471.022	1338.27
471.394	1300.76
471.766	1319.51
472.138	1382.11
472.51	1360.87
472.882	1425.05
473.253	1410.13
473.625	1416.91
473.997	1472.05
474.369	1442.67
474.74	1485.16
475.112	1520.19
475.484	1545.95
475.855	1538.72
476.227	1562.67
476.598	1605.16
476.97	1620.52
477.341	1668.66
477.713	1661.88
478.084	1684.02
478.455	1720.41
478.827	1766.73
479.198	1799.95
479.569	1809.22
479.94	1797.92
480.311	1868.2
480.682	1931.47
481.053	1934.86
481.424	1967.63
481.795	1960.4
482.166	2008.76
482.537	2009.66
482.908	2078.36
483.279	2090.79
483.65	2174.41
484.021	2188.42
484.391	2210.34
484.762	2210.34
485.133	2256.89
485.503	2282.88
485.874	2316.78
486.244	2365.14
486.615	2392.71
486.985	2414.63
487.356	2512.93
487.726	2523.32
488.097	2561.06
488.467	2547.96
488.837	2599.25
489.207	2658.24
489.578	2667.73
489.948	2753.6
490.318	2745.24
490.688	2752.7
491.058	2795.18
491.428	2845.57
491.798	2824.78
492.168	2902.07
492.538	2940.94
492.908	2980.26
493.278	2997.44
493.648	2994.27
494.017	3061.61
494.387	3110.43
494.757	3084.44
495.126	3162.85
495.496	3163.08
495.866	3154.49
496.235	3235.4
496.605	3229.75
496.974	3247.6
497.344	3258.45
497.713	3297.77
498.082	3334.15
498.452	3335.96
498.821	3378.67
499.19	3402.17
499.559	3397.2
499.928	3473.81
500.298	3417.76
500.667	3472.23
501.036	3477.65
501.405	3546.8
501.774	3514.71
502.143	3580.7
502.512	3543.64
502.88	3564.65
503.249	3612.79
503.618	3642.84
503.987	3656.18
504.356	3641.49
504.724	3660.47
505.093	3697.3
505.462	3685.1
505.83	3726.91
506.199	3750.41
506.567	3801.03
506.936	3737.08
507.304	3794.7
507.672	3829.96
508.041	3825.44
508.409	3859.33
508.777	3861.37
509.145	3880.12
509.514	3882.38
509.882	3935.94
510.25	3935.94
510.618	3954.47
510.986	3955.6
511.354	3947.69
511.722	4023.4
512.09	4012.1
512.458	4017.97
512.826	4019.56
513.193	4055.26
513.561	4046
513.929	4102.27
514.297	4130.51
514.664	4116.5
515.032	4136.39
515.4	4185.43
515.767	4156.5
516.135	4149.04
516.502	4151.98
516.869	4224.52
517.237	4208.93
517.604	4187.23
517.972	4243.73
518.339	4262.94
518.706	4243.05
519.073	4269.27
519.44	4262.71
519.808	4314.91
520.175	4293.9
520.542	4345.65
520.909	4348.81
521.276	4353.78
521.643	4389.26
522.009	4403.27
522.376	4380.9
522.743	4441.69
523.11	4463.61
523.477	4497.96
523.843	4535.02
524.21	4538.86
524.577	4573.21
524.943	4546.32
525.31	4576.6
525.676	4652.76
526.043	4648.47
526.409	4657.96
526.776	4728.46
527.142	4732.98
527.508	4684.17
527.874	4783.83
528.241	4788.12
528.607	4747.9
528.973	4840.78
529.339	4869.93
529.705	4865.41
530.071	4906.09
530.437	4950.15
530.803	4944.73
531.169	4993.77
531.535	4953.32
531.901	4965.75
532.267	5040.32
532.632	5062.47
532.998	5027.89
533.364	5038.96
533.73	5083.03
534.095	5115.12
534.461	5102.46
534.826	5181.78
535.192	5181.56
535.557	5216.81
535.923	5193.54
536.288	5213.2
536.653	5246.64
537.019	5299.97
537.384	5274.21
537.749	5341.55
538.114	5251.84
538.479	5336.81
538.845	5349.01
539.21	5396.69
539.575	5397.6
539.94	5465.62
540.305	5431.5
540.67	5453.42
541.034	5475.11
541.399	5518.27
541.764	5504.49
542.129	5547.2
542.494	5563.24
542.858	5577.25
543.223	5609.57
543.587	5636.69
543.952	5708.55
544.316	5674.2
544.681	5684.14
545.045	5674.43
545.41	5678.27
545.774	5773.18
546.138	5721.88
546.503	5807.76
546.867	5806.4
547.231	5819.96
547.595	5890.47
547.959	5878.49
548.324	5908.32
548.688	5927.98
549.052	5906.06
549.416	5931.37
549.779	5967.53
550.143	6033.29
550.507	6044.59
550.871	6058.82
551.235	6050.24
551.599	6137.24
551.962	6112.38
552.326	6118.94
552.689	6190.35
553.053	6164.36
553.417	6187.63
553.78	6235.99
554.143	6150.12
554.507	6204.13
554.87	6315.31
555.234	6305.14
555.597	6269.44
555.96	6349.66
556.323	6366.84
556.686	6345.37
557.05	6399.61
557.413	6353.05
557.776	6422.43
558.139	6398.48
558.502	6445.93
558.865	6494.07
559.228	6479.38
559.59	6501.75
559.953	6556.66
560.316	6566.83
560.679	6614.97
561.041	6576.78
561.404	6642.76
561.767	6680.73
562.129	6675.08
562.492	6695.87
562.854	6652.48
563.217	6748.98
563.579	6742.42
563.941	6803.66
564.304	6833.72
564.666	6886.37
565.028	6863.1
565.39	6890.21
565.753	6891.57
566.115	6938.12
566.477	6953.04
566.839	6976.09
567.201	6997.1
567.563	7016.31
567.925	7061.51
568.287	7052.92
568.648	7129.3
569.01	7057.44
569.372	7162.07
569.734	7127.04
570.095	7212.01
570.457	7256.76
570.819	7323.65
571.18	7257.66
571.542	7308.96
571.903	7355.74
572.265	7430.77
572.626	7506.24
572.987	7415.4
573.349	7478.45
573.71	7527.49
574.071	7605
574.432	7721.15
574.794	7698.55
575.155	7745.79
575.516	7805.22
575.877	7910.07
576.238	7925.67
576.599	7962.5
576.96	8069.17
577.32	8097.41
577.681	8175.83
578.042	8251.76
578.403	8347.35
578.763	8392.32
579.124	8511.64
579.485	8657.4
579.845	8669.38
580.206	8803.16
580.566	8879.77
580.927	9006.54
581.287	9123.83
581.648	9196.37
582.008	9407.66
582.368	9426.87
582.728	9610.14
583.089	9816.69
583.449	9902.79
583.809	10129.23
584.169	10263.91
584.529	10401.76
584.889	10684.24
585.249	10766.04
585.609	10931.01
585.969	11174.62
586.329	11303.88
586.688	11591.33
587.048	11703.87
587.408	11913.59
587.768	12126.91
588.127	12421.59
588.487	12543.17
588.846	12860.9
589.206	13068.13
589.565	13290.5
589.925	13640.77
590.284	13819.75
590.643	14062.91
591.003	14313.97
591.362	14662.44
591.721	14904.92
592.08	15191.01
592.44	15477.79
592.799	15834.84
593.158	16006.58
593.517	16370.42
593.876	16618.09
594.235	16811.08
594.593	17127.01
594.952	17495.36
595.311	17738.06
595.67	18107.32
596.029	18432.28
596.387	18821.43
596.746	19129.67
597.104	19270.45
597.463	19564.68
597.822	20068.62
598.18	20139.81
598.538	20414.15
598.897	20838.32
599.255	20893.91
599.613	21593.78
599.972	21688.92
600.33	22085.97
600.688	22283.26
601.046	22668.33
601.404	23004.37
601.762	23155.78
602.12	23563.9
602.478	23789.88
602.836	24099.93
603.194	24290.66
603.552	24616.98
603.91	24846.13
604.268	25115.05
604.625	25316.62
604.983	25687.91
605.341	25958.64
605.698	26270.95
606.056	26632.07
606.413	26697.15
606.771	27099.17
607.128	27338.04
607.485	27446.28
607.843	27658.26
608.2	28048.53
608.557	28422.76
608.914	28382.3
609.272	28796.3
609.629	29032
609.986	29494.37
610.343	29387.02
610.7	29700.24
611.057	29908.59
611.414	30107
611.771	30298.64
612.127	30637.61
612.484	30707.67
612.841	31023.82
613.198	31230.82
613.554	31321.21
613.911	31649.11
614.267	31724.14
614.624	31853.17
614.98	32122.77
615.337	32271.69
615.693	32466.72
616.05	32492.93
616.406	32900.83
616.762	33008.62
617.118	33062.18
617.475	33263.53
617.831	33550.76
618.187	33528.84
618.543	33915.04
618.899	34102.61
619.255	34117.3
619.611	34126.79
619.967	34491.07
620.323	34480.68
620.678	34508.47
621.034	34607
621.39	34672.99
621.746	34767.45
622.101	35352.74
622.457	35147.32
622.812	35267.55
623.168	35362.69
623.523	35481.55
623.879	35668.89
624.234	35550.93
624.589	35659.85
624.945	35875.21
625.3	35991.82
625.655	36003.12
626.01	36044.25
626.365	36230.91
626.72	36243.79
627.075	36297.58
627.43	36265.26
627.785	36410.79
628.14	36426.39
628.495	36647.17
628.85	36550.45
629.205	36493.96
629.559	36819.6
629.914	36571.92
630.269	36830.67
630.623	36744.8
630.978	36724.68
631.332	37008.74
631.687	36998.58
632.041	36839.26
632.396	36977.11
632.75	37008.74
633.104	36979.37
633.459	36859.6
633.813	36919.48
634.167	36896.88
634.521	36926.49
634.875	36987.5
635.229	36879.71
635.583	36804.91
635.937	36933.04
636.291	36900.95
636.645	36994.51
636.999	36816.66
637.352	37157.89
637.706	36954.06
638.06	37095.75
638.413	37022.76
638.767	36938.46
639.121	36961.51
639.474	36940.95
639.828	36902.53
640.181	37073.6
640.534	36940.05
640.888	36867.51
641.241	36890.56
641.594	36867.73
641.947	37062.08
642.301	36926.71
642.654	36948.63
643.007	36895.98
643.36	36932.14
643.713	36839.26
644.066	36854.85
644.419	36716.32
644.771	36508.42
645.124	36178.94
645.477	36277.46
645.83	35903.24
646.182	35885.84
646.535	35791.15
646.888	35861.43
647.24	35548.22
647.593	35781.66
647.945	35800.87
648.298	35591.61
648.65	35661.44
649.002	35620.98
649.355	35638.61
649.707	35726.52
650.059	35668.44
650.411	36105.49
650.763	36208.31
651.115	36617.57
651.467	36432.71
651.819	36510
652.171	36374.18
652.523	36487.85
652.875	36425.26
653.227	36238.37
653.578	36436.33
653.93	36329.89
654.282	36306.16
654.633	36164.02
654.985	36219.39
655.337	36197.24
655.688	36254.64
656.039	36385.26
656.391	36088.32
656.742	36083.8
657.094	36114.53
657.445	36295.32
657.796	36175.09
658.147	36090.58
658.498	36180.07
658.849	36237.01
659.2	36164.7
659.551	35973.29
659.902	36185.26
660.253	36226.62
660.604	36160.86
660.955	36128.32
661.306	36078.37
661.656	36109.11
662.007	36003.35
662.358	35959.73
662.708	36011.26
663.059	36046.28
663.409	35865.72
663.76	36065.72
664.11	36081.99
664.461	36014.19
664.811	36045.38
665.161	35974.87
665.511	35909.34
665.862	35969.9
666.212	36016.45
666.562	36116.34
666.912	36130.35
667.262	35971.48
667.612	36011.71
667.962	35909.34
668.312	35987.08
668.662	36106.4
669.011	35940.07
669.361	35933.97
669.711	35942.11
670.06	35837.25
670.41	35796.12
670.76	35884.93
671.109	35921.54
671.459	35839.51
671.808	35832.05
672.157	35911.82
672.507	35705.5
672.856	35736.24
673.205	35750.25
673.554	35822.11
673.904	35725.84
674.253	35837.02
674.602	35753.86
674.951	35309.35
675.3	35122.24
675.649	35540.53
675.998	35604.04
676.346	35651.04
676.695	35822.11
677.044	35509.57
677.393	35426.87
677.741	35506.41
678.09	35455.11
678.438	35373.53
678.787	35524.04
679.135	35423.48
679.484	35205.18
679.832	35431.84
680.181	35197.72
680.529	35353.42
680.877	35318.85
681.225	35210.15
681.573	35245.85
681.922	34995.92
682.27	35009.02
682.618	35004.73
682.966	34921.57
683.314	34938.06
683.661	34886.99
684.009	34681.35
684.357	34544.85
684.705	34562.93
685.053	34742.82
685.4	34632.76
685.748	34405.42
686.095	34452.2
686.443	34252.88
686.79	34186.9
687.138	34384.18
687.485	34307.12
687.832	34235.48
688.18	34173.79
688.527	34040.01
688.874	34037.07
689.221	33909.84
689.568	33854.48
689.915	33837.98
690.262	33823.29
690.609	33693.58
690.956	33613.81
691.303	33538.55
691.65	33483.87
691.997	33431.66
692.344	33204.78
692.69	33215.62
693.037	33248.39
693.383	33057.66
693.73	33031.67
694.077	32881.4
694.423	32902.64
694.769	32903.99
695.116	32684.56
695.462	32570.44
695.808	32465.14
696.155	32538.13
696.501	32380.84
696.847	32175.65
697.193	32190.34
697.539	32176.33
697.885	31961.65
698.231	31831.71
698.577	31898.14
698.923	31830.8
699.269	31694.31
699.614	31567.31
699.96	31530.92
700.306	31596.01
700.651	31365.5
700.997	31230.82
701.342	31201.67
701.688	31176.81
702.033	31142.01
702.379	31049.58
702.724	30984.04
703.069	31068.34
703.415	30528.69
703.76	30658.85
704.105	30705.63
704.45	30652.3
704.795	30514.45
705.14	30514.45
705.485	30304.74
705.83	30372.08
706.175	30272.2
706.52	30170.51
706.865	30092.09
707.209	30145.87
707.554	29889.38
707.899	30047.12
708.243	29887.58
708.588	29761.7
708.932	29653.01
709.277	29576.17
709.621	29618.66
709.966	29517.87
710.31	29577.08
710.654	29281.26
710.998	29364.65
711.342	29345.22
711.687	29180.25
712.031	29088.95
712.375	28946.13
712.719	29059.8
713.063	28976.19
713.407	29194.03
713.75	28875.85
714.094	28831.11
714.438	28690.77
714.782	28794.72
715.125	28581.62
715.469	28629.76
715.812	28463.43
716.156	28376.2
716.499	28393.6
716.843	28391.8
717.186	28216.66
717.53	28398.58
717.873	28248.07
718.216	28137.57
718.559	28149.99
718.902	27962.43
719.246	27983.44
719.589	27992.71
719.932	27856.22
720.275	27746.16
720.617	27846.5
720.96	27764.69
721.303	27681.31
721.646	27608.09
721.989	27488.99
722.331	27620.06
722.674	27563.8
723.016	27509.56
723.359	27551.59
723.701	27513.85
724.044	27325.84
724.386	27130.13
724.729	27312.95
725.071	27231.6
725.413	27218.95
725.755	27215.33
726.097	27042.68
726.439	26919.29
726.782	27058.5
727.124	27027.31
727.465	26834.32
727.807	26875
728.149	26838.62
728.491	26738.28
728.833	26743.25
729.175	26727.43
729.516	26568.57
729.858	26583.71
730.199	26591.17
730.541	26545.29
730.882	26579.64
731.224	26635.68
731.565	26443.15
731.906	26432.3
732.248	26416.93
732.589	26244.28
732.93	26223.49
733.271	26191.18
733.612	26235.92
733.953	26294.22
734.294	26117.96
734.635	25962.48
734.976	26053.78
735.317	26004.97
735.658	25971.75
735.999	25887.68
736.339	25906.66
736.68	26002.71
737.021	25832.54
737.361	25786.21
737.702	25853.33
738.042	25878.64
738.383	25700.34
738.723	25787.8
739.063	25710.74
739.404	25687.69
739.744	25609.95
740.084	25553.9
740.424	25527.69
740.764	25530.18
741.104	25615.15
741.444	25415.38
741.784	25397.07
742.124	25367.24
742.464	25189.62
742.804	25178.32
743.143	25193.91
743.483	25212.9
743.823	25204.76
744.162	25031.66
744.502	25131.32
744.841	25022.17
745.181	25163.63
745.52	24897.2
745.86	24931.1
746.199	25003.86
746.538	24888.84
746.877	24901.72
747.216	24881.15
747.556	24756.64
747.895	24716.86
748.234	24719.8
748.573	24591.44
748.911	24675.06
749.25	24671.89
749.589	24599.13
749.928	24468.06
750.267	24465.12
750.605	24355.07
750.944	24401.62
751.283	24302.19
751.621	24392.35
751.96	24264.22
752.298	24231.91
752.636	24081.4
752.975	24150.55
753.313	23967.28
753.651	24100.61
753.989	24005.7
754.327	23861.29
754.666	23701.98
755.004	23873.27
755.342	23834.63
755.679	23736.55
756.017	23679.38
756.355	23720.51
756.693	23626.27
757.031	23675.54
757.368	23475.77
757.706	23461.08
758.044	23416.56
758.381	23381.31
758.719	23271.25
759.056	23339.05
759.394	23266.51
759.731	23126.17
760.068	23117.36
760.405	22989.23
760.743	23014.99
761.08	22912.84
761.417	22763.24
761.754	22681.89
762.091	22748.55
762.428	22615.22
762.765	22468.34
763.102	22512.85
763.438	22363.48
763.775	22334.78
764.112	22427.66
764.449	22462.69
764.785	22219.53
765.122	22083.49
765.458	22072.41
765.795	21980.66
766.131	21967.56
766.467	21946.54
766.804	21788.13
767.14	21702.25
767.476	21624.29
767.812	21562.37
768.148	21657.96
768.485	21515.37
768.821	21338.87
769.157	21356.05
769.492	21392.88
769.828	21403.28
770.164	21020.46
770.5	21124.42
770.836	20968.71
771.171	20841.94
771.507	20954.93
771.842	20689.63
772.178	20709.29
772.513	20681.94
772.849	20605.11
773.184	20467.26
773.519	20400.37
773.855	20467.26
774.19	20308.39
774.525	20168.74
774.86	20230.2
775.195	20233.59
775.53	20128.96
775.865	20005.58
776.2	19711.12
776.535	19681.52
776.87	19692.82
777.205	19622.53
777.539	19514.06
777.874	19587.06
778.209	19350.45
778.543	19279.72
778.878	19176.22
779.212	19275.43
779.547	19058.48
779.881	19126.05
780.215	18949.33
780.55	19001.53
780.884	18903.23
781.218	18824.14
781.552	18808.09
781.886	18740.3
782.22	18617.82
782.554	18499.85
782.888	18438.61
783.222	18323.81
783.556	18356.81
783.889	18236.58
784.223	18084.72
784.557	18021
784.89	17999.07
785.224	17971.28
785.557	17905.74
785.891	17853.54
786.224	17809.02
786.558	17885.86
786.891	17668.24
787.224	17538.75
787.557	17538.07
787.891	17504.4
788.224	17423.04
788.557	17456.04
788.89	17384.63
789.223	17370.84
789.556	17231.64
789.888	17230.96
790.221	17062.6
790.554	16944.64
790.887	16985.32
791.219	16916.84
791.552	16851.76
791.884	16816.06
792.217	16762.05
792.549	16736.06
792.882	16626.68
793.214	16495.61
793.546	16633.46
793.879	16489.28
794.211	16363.19
794.543	16432.34
794.875	16309.63
795.207	16349.85
795.539	16244.32
795.871	16196.64
796.203	16087.94
796.535	16069.18
796.867	16012.23
797.198	15878.23
797.53	15875.97
797.862	15795.52
798.193	15823.31
798.525	15719.81
798.856	15778.57
799.188	15527.28
799.519	15503.77
799.85	15402.31
800.182	15450.67
800.513	15443.66
800.844	15287.06
801.175	15354.85
801.506	15271.69
801.837	15240.05
802.168	15167.51
802.499	15243.89
802.83	15100.85
803.161	14965.26
803.491	14918.48
803.822	15030.57
804.153	14878.93
804.483	14838.71
804.814	14770.69
805.145	14740.86
805.475	14714.64
805.805	14674.87
806.136	14654.53
806.466	14673.29
806.796	14588.32
807.126	14542.44
807.457	14391.03
807.787	14348.78
808.117	14325.73
808.447	14320.75
808.777	14281.21
809.107	14309.91
809.436	14323.24
809.766	14186.29
810.096	14226.74
810.426	14131.15
810.755	14118.27
811.085	14048.9
811.414	14061.33
811.744	13959.41
812.073	13913.08
812.403	13908.33
812.732	13815.23
813.061	13826.3
813.39	13687.1
813.719	13769.58
814.049	13758.73
814.378	13704.72
814.707	13592.41
815.036	13634.67
815.365	13605.07
815.693	13463.6
816.022	13463.15
816.351	13437.16
816.68	13328.92
817.008	13473.77
817.337	13350.84
817.665	13215.25
817.994	13257.05
818.322	13302.25
818.651	13171.63
818.979	13133.21
819.307	13158.52
819.636	13137.73
819.964	13097.28
820.292	13134.34
820.62	13092.54
820.948	13001.47
821.276	13107.9
821.604	12962.15
821.932	13027.23
822.259	13009.38
822.587	13019.32
822.915	12921.92
823.243	13052.76
823.57	13022.93
823.898	13054.35
824.225	12942.03
824.553	12925.08
824.88	12965.53
825.207	13027
825.535	12948.36
825.862	12952.88
826.189	12891.19
826.516	12909.27
826.843	13027.23
827.17	12994.01
827.497	12977.74
827.824	12987.91
828.151	13034.01
828.478	12931.64
828.805	12887.34
829.131	13027.23
829.458	12936.83
829.785	12795.6
830.111	12825.2
830.438	12931.86
830.764	12914.24
831.09	12905.2
831.417	12808.48
831.743	12974.12
832.069	12929.38
832.395	12798.99
832.722	12879.66
833.048	12860.45
833.374	12861.13
833.7	12691.19
834.026	12833.11
834.351	12756.27
834.677	12834.01
835.003	12868.59
835.329	12751.76
835.654	12767.35
835.98	12668.14
836.306	12728.03
836.631	12646.9
836.956	12770.06
837.282	12728.93
837.607	12635.37
837.932	12539.78
838.258	12614.13
838.583	12556.28
838.908	12600.8
839.233	12565.55
839.558	12541.37
839.883	12486.68
840.208	12428.6
840.533	12493.23
840.858	12406.68
841.182	12457.07
841.507	12395.83
841.832	12308.6
842.156	12308.38
842.481	12329.39
842.805	12297.08
843.13	12253.69
843.454	12261.82
843.778	12164.65
844.103	12136.18
844.427	12158.55
844.751	12118.1
845.075	12058.44
845.399	12020.25
845.723	11892.79
846.047	12002.62
846.371	11864.55
846.695	11812.8
847.019	11753.36
847.343	11726.92
847.666	11700.94
847.99	11694.38
848.313	11643.76
848.637	11517.44
848.96	11491
849.284	11389.76
849.607	11378.01
849.931	11325.8
850.254	11312.02
850.577	11260.72
850.9	11212.13
851.223	11132.59
851.546	11126.94
851.869	11097.34
852.192	11104.57
852.515	11027.28
852.838	10896.89
853.161	10916.32
853.483	10869.77
853.806	10797.68
854.129	10811.02
854.451	10755.42
854.774	10794.74
855.096	10723.33
855.419	10632.71
855.741	10682.43
856.063	10510.68
856.385	10542.32
856.708	10501.42
857.03	10514.53
857.352	10465.04
857.674	10451.7
857.996	10412.38
858.318	10339.84
858.64	10464.58
858.961	10386.39
859.283	10297.36
859.605	10260.52
859.926	10250.58
860.248	10220.3
860.57	10143.46
860.891	10152.95
861.212	10180.75
861.534	10129.23
861.855	10127.19
862.176	10166.74
862.498	10062.11
862.819	10057.14
863.14	10024.14
863.461	10006.74
863.782	9976.69
864.103	9954.09
864.424	9947.54
864.745	9948.89
865.065	9833.64
865.386	9835
865.707	9876.8
866.027	9867.76
866.348	9772.17
866.668	9904.82
866.989	9795.9
867.309	9682.46
867.63	9712.96
867.95	9703.93
868.27	9728.11
868.59	9658.05
868.91	9661.89
869.23	9601.78
869.55	9587.54
869.87	9675.9
870.19	9639.52
870.51	9689.69
870.83	9632.97
871.15	9540.31
871.469	9568.79
871.789	9589.35
872.109	9536.02
872.428	9490.6
872.748	9467.32
873.067	9539.64
873.386	9411.05
873.706	9476.59
874.025	9433.65
874.344	9316.37
874.663	9422.13
874.982	9354.78
875.301	9365.86
875.62	9328.57
875.939	9231.17
876.258	9311.39
876.577	9275.46
876.896	9237.95
877.214	9269.81
877.533	9292.19
877.852	9265.52
878.17	9272.07
878.489	9197.5
878.807	9185.3
879.125	9113.88
879.444	9263.26
879.762	9134
880.08	9122.7
880.398	9129.03
880.716	9096.71
881.034	9071.4
881.352	9047.45
881.67	9023.49
881.988	8967.9
882.306	9022.14
882.624	8939.65
882.941	8943.04
883.259	8963.38
883.577	8951.18
883.894	8932.87
884.212	8898.98
884.529	8848.81
884.846	8829.82
885.164	8833.89
885.481	8777.17
885.798	8760.45
886.115	8715.48
886.432	8737.85
886.75	8661.47
887.067	8698.98
887.383	8636.84
887.7	8674.57
888.017	8634.8
888.334	8674.12
888.651	8580.34
888.967	8584.86
889.284	8498.99
889.6	8500.57
889.917	8422.6
890.233	8441.59
890.55	8430.51
890.866	8430.06
891.182	8380.34
891.498	8384.86
891.815	8313.23
892.131	8335.83
892.447	8256.96
892.763	8330.18
893.079	8257.64
893.395	8245.43
893.71	8181.71
894.026	8177.41
894.342	8146.23
894.657	8087.7
894.973	8124.76
895.289	8153.46
895.604	8143.06
895.92	8017.87
896.235	7984.42
896.55	8009.73
896.865	7929.96
897.181	7846.35
897.496	7905.55
897.811	7924.76
898.126	7886.8
898.441	7801.6
898.756	7830.3
899.071	7776.97
899.386	7736.07
899.7	7684.77
900.015	7611.33
900.33	7593.92
900.644	7564.55
900.959	7559.58
901.273	7579.46
901.588	7558.9
901.902	7469.63
902.216	7452.69
902.531	7447.49
902.845	7433.02
903.159	7387.15
903.473	7349.64
903.787	7302.86
904.101	7300.6
904.415	7302.41
904.729	7283.42
905.042	7196.65
905.356	7201.39
905.67	7197.32
905.984	7161.62
906.297	7149.87
906.611	7060.83
906.924	6999.59
907.237	7105.35
907.551	7025.58
907.864	7013.6
908.177	7037.33
908.491	6940.83
908.804	6849.76
909.117	6912.81
909.43	6860.38
909.743	6846.6
910.056	6840.72
910.368	6768.18
910.681	6794.62
910.994	6707.62
911.307	6722.54
911.619	6666.27
911.932	6606.15
912.244	6564.35
912.557	6620.84
912.869	6531.81
913.181	6551.01
913.494	6508.98
913.806	6452.71
914.118	6449.1
914.43	6395.54
914.742	6416.33
915.054	6431.02
915.366	6355.09
915.678	6367.74
915.99	6278.7
916.302	6259.5
916.613	6257.69
916.925	6254.3
917.236	6254.07
917.548	6170.01
917.859	6174.75
918.171	6076
918.482	6104.47
918.794	6099.73
919.105	6067.41
919.416	6020.63
919.727	5980.41
920.038	6017.47
920.349	5899.51
920.66	5966.62
920.971	5842.56
921.282	5881.2
921.593	5868.32
921.903	5804.82
922.214	5823.58
922.525	5736.35
922.835	5750.58
923.146	5738.61
923.456	5705.16
923.767	5712.62
924.077	5665.16
924.387	5658.83
924.697	5657.93
925.008	5581.1
925.318	5565.28
925.628	5553.98
925.938	5491.61
926.248	5442.57
926.558	5471.27
926.867	5450.7
927.177	5463.13
927.487	5462.46
927.796	5350.59
928.106	5364.38
928.416	5368.45
928.725	5367.54
929.034	5308.33
929.344	5266.98
929.653	5233.53
929.962	5240.77
930.271	5172.97
930.581	5167.1
930.89	5160.09
931.199	5153.76
931.508	5126.87
931.817	5091.62
932.125	5105.63
932.434	5040.09
932.743	5008.91
933.051	4997.83
933.36	4961.9
933.669	5017.72
933.977	4907.44
934.286	4933.66
934.594	4907.89
934.902	4845.52
935.21	4876.93
935.519	4866.31
935.827	4831.29
936.135	4824.28
936.443	4760.55
936.751	4717.62
937.059	4768.91
937.367	4681.23
937.674	4713.55
937.982	4709.48
938.29	4633.78
938.597	4646.21
938.905	4613.21
939.213	4635.13
939.52	4580.44
939.827	4619.99
940.135	4552.42
940.442	4553.55
940.749	4514.91
941.056	4504.74
941.363	4453.44
941.67	4438.08
941.977	4431.52
942.284	4424.52
942.591	4395.36
942.898	4379.55
943.205	4381.13
943.511	4327.12
943.818	4303.16
944.125	4296.38
944.431	4252.32
944.738	4255.26
945.044	4259.1
945.35	4193.11
945.657	4236.95
945.963	4213.9
946.269	4190.62
946.575	4166.44
946.881	4121.7
947.187	4138.2
947.493	4098.88
947.799	4057.75
948.105	4056.39
948.41	4038.09
948.716	4040.8
949.022	4094.58
949.327	3988.6
949.633	3978.43
949.938	3958.09
950.244	3969.84
950.549	3909.28
950.854	3907.69
951.16	3862.5
951.465	3873.57
951.77	3874.25
952.075	3835.61
952.38	3822.27
952.685	3837.41
952.99	3820.46
953.294	3806.23
953.599	3770.07
953.904	3751.99
954.209	3694.82
954.513	3724.2
954.818	3643.52
955.122	3685.78
955.426	3686.23
955.731	3639.68
956.035	3650.07
956.339	3616.85
956.643	3652.11
956.948	3569.62
957.252	3570.75
957.556	3587.7
957.86	3533.01
958.163	3533.24
958.467	3535.05
958.771	3502.28
959.075	3513.58
959.378	3441.72
959.682	3492.79
959.985	3418.67
960.289	3416.63
960.592	3428.61
960.896	3392
961.199	3401.49
961.502	3380.02
961.805	3352
962.108	3370.53
962.411	3319.23
962.714	3287.37
963.017	3262.29
963.32	3291.66
963.623	3267.94
963.926	3233.59
964.228	3217.99
964.531	3226.36
964.833	3222.29
965.136	3206.7
965.438	3193.81
965.741	3166.02
966.043	3166.47
966.345	3126.02
966.648	3123.76
966.95	3116.3
967.252	3117.88
967.554	3088.51
967.856	3053.93
968.158	3050.77
968.46	3081.95
968.761	3007.83
969.063	3001.05
969.365	3005.8
969.666	2987.94
969.968	2958.34
970.269	2928.51
970.571	2950.43
970.872	2926.25
971.174	2940.26
971.475	2912.69
971.776	2885.57
972.077	2886.93
972.378	2889.87
972.679	2882.41
972.98	2865.24
973.281	2848.74
973.582	2836.31
973.883	2819.59
974.183	2814.16
974.484	2826.82
974.785	2803.54
975.085	2803.54
975.386	2755.86
975.686	2740.49
975.986	2791.79
976.287	2741.85
976.587	2691.91
976.887	2694.39
977.187	2698.46
977.487	2698.46
977.787	2680.38
978.087	2647.61
978.387	2646.48
978.687	2626.6
978.987	2589.31
979.286	2606.71
979.586	2576.88
979.885	2579.59
980.185	2576.88
980.484	2555.19
980.784	2564
981.083	2536.66
981.382	2523.32
981.682	2516.54
981.981	2524.45
982.28	2474.96
982.579	2466.15
982.878	2488.3
983.177	2446.04
983.475	2472.25
983.774	2474.74
984.073	2438.35
984.372	2412.37
984.67	2408.98
984.969	2383.89
985.267	2376.66
985.566	2362.65
985.864	2384.8
986.162	2345.93
986.461	2363.78
986.759	2381.63
987.057	2332.37
987.355	2300.05
987.653	2293.05
987.951	2321.29
988.249	2307.96
988.547	2321.97
988.844	2259.15
989.142	2276.55
989.44	2231.13
989.737	2222.99
990.035	2233.16
990.332	2207.63
990.63	2211.69
990.927	2192.03
991.224	2177.12
991.521	2131.02
991.819	2135.76
992.116	2187.06
992.413	2191.81
992.71	2157.91
993.006	2112.49
993.303	2117.68
993.6	2114.97
993.897	2105.03
994.193	2107.74
994.49	2093.96
994.787	2074.97
995.083	2051.7
995.379	2036.56
995.676	2065.93
995.972	2025.03
996.268	2040.4
996.565	2015.99
996.861	2003.34
997.157	1983.45
997.453	2002.43
997.749	1972.83
998.044	1957.91
998.34	1947.07
998.636	1914.75
998.932	1933.51
999.227	1927.86
999.523	1936.45
999.818	1885.37
1000.114	1888.99
1000.409	1858.03
1000.704	1853.74
1001	1842.66
1001.295	1876.11
1001.59	1851.02
1001.885	1849.67
1002.18	1841.53
1002.475	1814.87
1002.77	1809.22
1003.065	1844.92
1003.359	1787.75
1003.654	1779.16
1003.949	1762.89
1004.243	1760.41
1004.538	1754.08
1004.832	1746.39
1005.127	1738.71
1005.421	1719.95
1005.715	1721.54
1006.009	1692.38
1006.304	1696.23
1006.598	1677.92
1006.892	1666.4
1007.186	1658.49
1007.48	1628.88
1007.773	1651.26
1008.067	1620.52
1008.361	1620.3
1008.655	1623.91
1008.948	1588.88
1009.242	1583.69
1009.535	1607.64
1009.829	1586.62
1010.122	1555.21
1010.415	1554.31
1010.708	1549.79
1011.001	1543.46
1011.295	1569.22
1011.588	1520.64
1011.881	1531.26
1012.173	1511.15
1012.466	1524.93
1012.759	1511.82
1013.052	1511.82
1013.344	1499.62
1013.637	1457.59
1013.93	1469.34
1014.222	1453.52
1014.514	1446.52
1014.807	1469.57
1015.099	1462.56
1015.391	1434.31
1015.683	1407.19
1015.976	1410.81
1016.268	1406.29
1016.56	1366.97
1016.851	1398.16
1017.143	1406.52
1017.435	1400.42
1017.727	1371.04
1018.018	1328.78
1018.31	1364.26
1018.602	1369.91
1018.893	1326.52
1019.185	1338.04
1019.476	1332.85
1019.767	1307.31
1020.058	1273.41
1020.35	1307.31
1020.641	1280.19
1020.932	1298.04
1021.223	1256.01
1021.514	1267.54
1021.804	1246.75
1022.095	1241.32
1022.386	1253.3
1022.677	1206.07
1022.967	1211.04
1023.258	1222.34
1023.548	1212.62
1023.839	1204.71
1024.129	1170.82
1024.419	1192.06
1024.709	1177.14
1025	1170.14
1025.29	1153.64
1025.58	1146.86
1025.87	1163.13
1026.16	1124.94
1026.449	1123.36
1026.739	1136.69
1027.029	1121.55
1027.319	1118.16
1027.608	1104.15
1027.898	1109.8
1028.187	1087.88
1028.477	1078.84
1028.766	1053.53
1029.055	1066.41
1029.344	1051.95
1029.634	1051.72
1029.923	1059.86
1030.212	1042.46
1030.501	1034.32
1030.79	995.68
1031.078	1019.86
1031.367	996.58
1031.656	997.26
1031.945	1011.72
1032.233	981.67
1032.522	981.22
1032.81	982.35
1033.099	991.16
1033.387	969.01
1033.675	967.66
1033.963	944.38
1034.251	973.31
1034.54	914.55
1034.828	938.51
1035.116	935.57
1035.403	920.2
1035.691	910.71
1035.979	948.45
1036.267	898.51
1036.554	917.72
1036.842	899.86
1037.129	914.55
1037.417	905.51
1037.704	880.88
1037.992	867.32
1038.279	896.93
1038.566	877.04
1038.853	877.04
1039.14	877.04
