Data from hue_10_FLMS001491_46.txt Node
Date: Mon Feb 06 15:31:58 GMT 2017
User: dcchb
Spectrometer: FLMS00149
Trigger mode: 0
Integration Time (sec): 2.000000E-2
Scans to average: 10
Electric dark correction enabled: true
Nonlinearity correction enabled: false
Boxcar width: 0
XAxis mode: Wavelengths
Number of Pixels in Spectrum: 2048
>>>>>Begin Spectral Data<<<<<
341.393	-19.7
341.776	-19.7
342.16	-19.7
342.543	-67.39
342.927	-71
343.31	-70.1
343.693	-71.9
344.077	-65.13
344.46	-44.79
344.843	-39.82
345.226	-41.85
345.61	-38.01
345.993	-16.77
346.376	-8.63
346.759	13.29
347.142	24.59
347.525	29.56
347.908	56
348.291	73.18
348.674	84.48
349.057	115.89
349.44	154.53
349.823	155.66
350.206	180.29
350.588	204.7
350.971	208.99
351.354	220.97
351.737	230.91
352.119	253.51
352.502	271.14
352.884	276.11
353.267	264.81
353.65	278.59
354.032	298.71
354.414	318.14
354.797	317.01
355.179	328.31
355.562	335.54
355.944	332.83
356.326	327.86
356.709	343.23
357.091	340.06
357.473	345.03
357.855	330.34
358.238	343.68
358.62	337.35
359.002	351.59
359.384	366.95
359.766	359.72
360.148	338.93
360.53	328.31
360.912	340.29
361.294	344.81
361.676	349.78
362.057	335.54
362.439	319.05
362.821	340.29
363.203	332.6
363.584	305.71
363.966	327.41
364.348	321.31
364.729	330.8
365.111	335.32
365.493	328.08
365.874	302.32
366.256	317.92
366.637	329.89
367.019	301.87
367.4	326.28
367.781	292.15
368.163	303.45
368.544	320.4
368.925	307.52
369.306	336.22
369.688	291.48
370.069	326.05
370.45	316.11
370.831	306.84
371.212	310.01
371.593	322.44
371.974	303.9
372.355	304.81
372.736	330.34
373.117	327.41
373.498	327.86
373.879	328.99
374.26	320.4
374.641	335.54
375.021	326.73
375.402	321.76
375.783	320.18
376.163	339.61
376.544	341.42
376.925	328.99
377.305	332.15
377.686	325.15
378.066	351.59
378.447	323.11
378.827	317.92
379.208	333.96
379.588	321.98
379.968	339.84
380.349	324.24
380.729	349.55
381.109	355.88
381.489	343
381.87	325.37
382.25	328.99
382.63	351.36
383.01	326.28
383.39	359.27
383.77	352.49
384.15	336.22
384.53	331.02
384.91	335.99
385.29	342.77
385.67	329.67
386.049	352.04
386.429	347.97
386.809	364.24
387.189	368.31
387.568	338.48
387.948	343.68
388.328	333.28
388.707	352.72
389.087	351.13
389.466	375.77
389.846	366.73
390.225	356.78
390.605	336.9
390.984	391.13
391.363	347.52
391.743	367.41
392.122	343.23
392.501	372.83
392.881	375.77
393.26	368.99
393.639	374.41
394.018	364.24
394.397	376.67
394.776	355.43
395.155	376.67
395.534	384.13
395.913	381.42
396.292	395.2
396.671	385.26
397.05	372.6
397.429	352.72
397.808	380.51
398.186	388.2
398.565	382.09
398.944	379.61
399.323	368.76
399.701	371.7
400.08	374.86
400.458	377.8
400.837	384.13
401.215	423.68
401.594	384.58
401.972	392.04
402.351	397.91
402.729	403.56
403.107	390.46
403.486	395.65
403.864	405.14
404.242	384.81
404.62	400.4
404.999	397.46
405.377	374.86
405.755	390.91
406.133	400.63
406.511	398.82
406.889	409.89
407.267	422.09
407.645	418.48
408.023	418.93
408.401	419.61
408.779	429.78
409.156	425.03
409.534	427.52
409.912	403.11
410.29	403.79
410.667	412.6
411.045	434.75
411.422	441.75
411.8	427.52
412.178	440.4
412.555	453.96
412.933	467.52
413.31	436.1
413.687	462.32
414.065	457.35
414.442	450.57
414.819	457.35
415.197	449.66
415.574	464.35
415.951	464.8
416.328	486.27
416.705	463
417.082	476.78
417.46	481.98
417.837	457.57
418.214	494.41
418.591	488.08
418.967	494.41
419.344	479.49
419.721	488.53
420.098	509.77
420.475	468.87
420.852	473.17
421.228	493.28
421.605	507.29
421.982	506.38
422.358	497.8
422.735	499.38
423.111	513.39
423.488	517.01
423.864	510.45
424.241	511.36
424.617	535.54
424.994	531.02
425.37	515.88
425.746	527.63
426.123	540.96
426.499	539.15
426.875	517.68
427.251	533.5
427.627	522.43
428.003	540.06
428.379	534.63
428.756	533.95
429.132	571.69
429.507	578.7
429.883	555.88
430.259	587.29
430.635	574.86
431.011	572.82
431.387	591.35
431.763	579.6
432.138	588.64
432.514	572.37
432.89	585.7
433.265	607.63
433.641	596.55
434.016	592.26
434.392	632.26
434.767	629.32
435.143	609.66
435.518	634.29
435.894	643.1
436.269	633.84
436.644	627.96
437.02	638.81
437.395	622.77
437.77	653.73
438.145	647.85
438.52	662.77
438.895	661.41
439.271	690.33
439.646	676.1
440.021	677.68
440.395	659.38
440.77	677.91
441.145	698.02
441.52	697.79
441.895	682.65
442.27	722.88
442.645	694.4
443.019	704.8
443.394	721.52
443.769	711.58
444.143	727.85
444.518	721.52
444.892	723.1
445.267	725.59
445.641	716.1
446.016	744.8
446.39	733.95
446.764	757.23
447.139	727.62
447.513	760.62
447.887	730.11
448.262	745.7
448.636	745.02
449.01	767.85
449.384	765.59
449.758	756.55
450.132	768.52
450.506	779.6
450.88	796.09
451.254	770.11
451.628	782.31
452.002	793.16
452.376	816.21
452.75	809.43
453.123	824.57
453.497	807.62
453.871	802.2
454.244	826.15
454.618	808.3
454.992	832.03
455.365	844.23
455.739	869.99
456.112	865.02
456.486	848.75
456.859	863.44
457.232	876.09
457.606	880.39
457.979	874.74
458.352	898.24
458.725	920.16
459.099	915.87
459.472	933.04
459.845	935.53
460.218	946.6
460.591	948.18
460.964	944.11
461.337	977.33
461.71	959.93
462.083	1001.06
462.456	977.33
462.829	983.21
463.201	992.93
463.574	1028.63
463.947	1025.69
464.32	1034.51
464.692	1044
465.065	1071.79
465.438	1057.78
465.81	1098.23
466.183	1103.66
466.555	1113.6
466.928	1117.67
467.3	1117.22
467.672	1142.98
468.045	1162.86
468.417	1165.12
468.789	1158.57
469.161	1195.86
469.534	1209.87
469.906	1197.21
470.278	1217.1
470.65	1251
471.022	1282.86
471.394	1288.51
471.766	1279.7
472.138	1324.67
472.51	1303.88
472.882	1338.68
473.253	1361.28
473.625	1380.03
473.997	1427.26
474.369	1403.54
474.74	1453.7
475.112	1464.78
475.484	1501.39
475.855	1523.99
476.227	1541.61
476.598	1573.7
476.97	1573.93
477.341	1632.01
477.713	1655.96
478.084	1662.06
478.455	1715.17
478.827	1748.16
479.198	1773.24
479.569	1797.88
479.94	1821.15
480.311	1838.33
480.682	1908.61
481.053	1960.36
481.424	1968.27
481.795	2044.42
482.166	2029.28
482.537	2056.63
482.908	2086.68
483.279	2134.14
483.65	2170.07
484.021	2222.5
484.391	2265.66
484.762	2286
485.133	2313.8
485.503	2349.27
485.874	2403.51
486.244	2450.97
486.615	2488.93
486.985	2516.5
487.356	2576.16
487.726	2600.12
488.097	2640.11
488.467	2687.34
488.837	2728.02
489.207	2774.12
489.578	2794.23
489.948	2829.49
490.318	2878.3
490.688	2894.57
491.058	3004.4
491.428	3007.34
491.798	3031.29
492.168	3078.97
492.538	3103.15
492.908	3157.61
493.278	3193.55
493.648	3184.05
494.017	3271.28
494.387	3312.19
494.757	3363.49
495.126	3386.99
495.496	3375.69
495.866	3458.85
496.235	3460.88
496.605	3522.58
496.974	3481.45
497.344	3546.31
497.713	3587.43
498.082	3576.59
498.452	3641.67
498.821	3644.16
499.19	3682.12
499.559	3704.94
499.928	3780.88
500.298	3772.97
500.667	3773.87
501.036	3775.45
501.405	3837.37
501.774	3827.65
502.143	3869.01
502.512	3920.98
502.88	3889.12
503.249	3930.25
503.618	3956.24
503.987	4043.24
504.356	3996.01
504.724	4045.05
505.093	4048.21
505.462	4032.85
505.83	4075.1
506.199	4174.09
506.567	4138.61
506.936	4152.39
507.304	4158.27
507.672	4205.95
508.041	4209.34
508.409	4204.14
508.777	4301.99
509.145	4302.67
509.514	4305.16
509.882	4313.97
510.25	4299.96
510.618	4338.83
510.986	4339.28
511.354	4390.12
511.722	4403.46
512.09	4489.78
512.458	4449.33
512.826	4425.38
513.193	4507.41
513.561	4506.73
513.929	4493.17
514.297	4507.18
514.664	4588.76
515.032	4591.48
515.4	4592.83
515.767	4612.27
516.135	4647.97
516.502	4634.64
516.869	4671.7
517.237	4639.61
517.604	4633.73
517.972	4683
518.339	4733.84
518.706	4725.48
519.073	4771.81
519.44	4735.43
519.808	4738.36
520.175	4766.84
520.542	4803
520.909	4839.38
521.276	4831.47
521.643	4878.02
522.009	4896.55
522.376	4931.13
522.743	4951.01
523.11	5004.8
523.477	4968.19
523.843	4999.15
524.21	5065.14
524.577	5076.66
524.943	5094.29
525.31	5123.21
525.676	5162.31
526.043	5146.49
526.409	5160.73
526.776	5249.54
527.142	5233.94
527.508	5294.96
527.874	5305.81
528.241	5339.93
528.607	5348.29
528.973	5372.7
529.339	5362.08
529.705	5445.69
530.071	5468.06
530.437	5473.49
530.803	5474.84
531.169	5562.52
531.535	5600.71
531.901	5600.49
532.267	5593.71
532.632	5615.18
532.998	5648.4
533.364	5642.97
533.73	5633.93
534.095	5736.08
534.461	5745.34
534.826	5758.45
535.192	5840.48
535.557	5848.39
535.923	5820.14
536.288	5881.61
536.653	5854.27
537.019	5894.49
537.384	5928.39
537.749	5929.52
538.114	5937.88
538.479	5977.88
538.845	5985.56
539.21	5955.96
539.575	6042.96
539.94	5996.64
540.305	6056.3
540.67	6045.9
541.034	6117.76
541.399	6176.97
541.764	6196.63
542.129	6170.64
542.494	6230.98
542.858	6228.27
543.223	6269.17
543.587	6303.52
543.952	6339
544.316	6352.33
544.681	6343.75
545.045	6419
545.41	6418.09
545.774	6474.59
546.138	6434.59
546.503	6510.75
546.867	6534.48
547.231	6541.71
547.595	6578.77
547.959	6563.63
548.324	6652.89
548.688	6623.29
549.052	6631.65
549.416	6656.96
549.779	6713.23
550.143	6717.97
550.507	6764.75
550.871	6829.61
551.235	6742.83
551.599	6823.51
551.962	6873
552.326	6869.38
552.689	6846.33
553.053	6860.34
553.417	6949.61
553.78	7008.36
554.143	6988.93
554.507	6976.05
554.87	7009.72
555.234	7122.03
555.597	7002.49
555.96	7086.1
556.323	7023.05
556.686	7128.58
557.05	7149.83
557.413	7154.57
557.776	7197.96
558.139	7240.45
558.502	7244.29
558.865	7227.56
559.228	7267.11
559.59	7334.45
559.953	7305.98
560.316	7363.83
560.679	7326.54
561.041	7445.19
561.404	7442.7
561.767	7394.79
562.129	7445.86
562.492	7569.25
562.854	7485.41
563.217	7570.61
563.579	7498.29
563.941	7617.38
564.304	7648.12
564.666	7644.95
565.028	7656.25
565.39	7727.66
565.753	7732.86
566.115	7826.42
566.477	7769.02
566.839	7811.05
567.201	7832.52
567.563	7815.12
567.925	7919.52
568.287	7985.28
568.648	7951.61
569.01	8040.42
569.372	8063.25
569.734	8008.33
570.095	8151.83
570.457	8154.32
570.819	8169.91
571.18	8180.53
571.542	8269.57
571.903	8259.63
572.265	8295.56
572.626	8371.04
572.987	8355.9
573.349	8442.22
573.71	8410.36
574.071	8537.81
574.432	8630.01
574.794	8749.56
575.155	8774.19
575.516	8736
575.877	8844.92
576.238	8889.67
576.599	8975.54
576.96	9048.53
577.32	9085.59
577.681	9105.03
578.042	9263.67
578.403	9318.81
578.763	9384.34
579.124	9491.01
579.485	9639.48
579.845	9723.77
580.206	9801.06
580.566	9939.81
580.927	10114.49
581.287	10249.86
581.648	10339.57
582.008	10492.11
582.368	10605.1
582.728	10805.32
583.089	10904.98
583.449	10965.32
583.809	11270.62
584.169	11332.77
584.529	11529.15
584.889	11714.23
585.249	11914.9
585.609	12181.11
585.969	12447.09
586.329	12626.97
586.688	12822.22
587.048	13134.08
587.408	13250.46
587.768	13503.78
588.127	13722.99
588.487	14059.93
588.846	14376.3
589.206	14548.73
589.565	14835.95
589.925	15159.56
590.284	15341.02
590.643	15737.62
591.003	15961.35
591.362	16242.24
591.721	16567.43
592.08	16876.58
592.44	17135.1
592.799	17618.25
593.158	17827.29
593.517	18102.31
593.876	18447.61
594.235	18723.31
594.593	19075.84
594.952	19397.87
595.311	19769.61
595.67	20118.3
596.029	20498.4
596.387	20886.19
596.746	21130.48
597.104	21500.86
597.463	21758.03
597.822	22192.82
598.18	22425.13
598.538	22828.74
598.897	23230.08
599.255	23486.8
599.613	24089.72
599.972	24151.64
600.33	24478.18
600.688	24788.46
601.046	25240.65
601.404	25669.79
601.762	25910.24
602.12	26314.52
602.478	26690.33
602.836	27026.82
603.194	27118.34
603.552	27511.32
603.91	27674.71
604.268	28131.42
604.625	28368.7
604.983	28696.6
605.341	28932.08
605.698	29370.71
606.056	29639.4
606.413	29878.49
606.771	30225.6
607.128	30474.18
607.485	30672.15
607.843	30976.32
608.2	31382.86
608.557	31779.46
608.914	31892.68
609.272	32277.3
609.629	32665.77
609.986	32898.98
610.343	32988.02
610.7	33345.75
611.057	33572.63
611.414	33728.56
611.771	33851.5
612.127	34216.23
612.484	34592.49
612.841	34765.6
613.198	34856.67
613.554	35038.58
613.911	35385.24
614.267	35556.08
614.624	35700.49
614.98	36065.45
615.337	36378.21
615.693	36485.78
616.05	36520.35
616.406	36967.57
616.762	36834.92
617.118	37159.21
617.475	37221.58
617.831	37651.62
618.187	37777.72
618.543	37919.64
618.899	38215.22
619.255	38315.56
619.611	38367.76
619.967	38604.14
620.323	38816.34
620.678	38793.29
621.034	38811.59
621.39	38935.43
621.746	38995.54
622.101	39636.2
622.457	39321.18
622.812	39584
623.168	39725.47
623.523	39817.44
623.879	40047.94
624.234	39869.19
624.589	40085.46
624.945	40153.7
625.3	40392.12
625.655	40561.6
626.01	40431.21
626.365	40727.7
626.72	40591.43
627.075	40676.4
627.43	40795.04
627.785	40812.22
628.14	40849.51
628.495	41096.5
628.85	41117.07
629.205	40958.65
629.559	41306.22
629.914	41161.14
630.269	41277.29
630.623	41279.32
630.978	41185.54
631.332	41433.9
631.687	41570.62
632.041	41305.09
632.396	41537.4
632.75	41474.57
633.104	41501.24
633.459	41477.51
633.813	41483.61
634.167	41445.42
634.521	41531.07
634.875	41690.84
635.229	41624.63
635.583	41430.51
635.937	41494.46
636.291	41531.52
636.645	41665.53
636.999	41536.72
637.352	41738.07
637.706	41514.57
638.06	41672.99
638.413	41721.57
638.767	41590.73
639.121	41689.93
639.474	41549.83
639.828	41580.56
640.181	41497.17
640.534	41609.94
640.888	41575.81
641.241	41197.29
641.594	41433.44
641.947	41675.47
642.301	41522.71
642.654	41510.05
643.007	41507.79
643.36	41477.06
643.713	41406.1
644.066	41670.27
644.419	41303.73
644.771	41035.94
645.124	40724.76
645.477	40716.63
645.83	40594.82
646.182	40424.43
646.535	40273.93
646.888	40372.46
647.24	40182.4
647.593	40333.59
647.945	40434.83
648.298	40188.73
648.65	40059.24
649.002	40161.39
649.355	40116.19
649.707	40117.55
650.059	40242.06
650.411	40701.94
650.763	40850.41
651.115	41135.6
651.467	41070.97
651.819	40909.84
652.171	40931.99
652.523	40987.81
652.875	41094.92
653.227	40821.03
653.578	41189.84
653.93	41036.84
654.282	40879.56
654.633	40779.45
654.985	40734.93
655.337	40878.88
655.688	40828.71
656.039	40986.9
656.391	40584.65
656.742	40714.82
657.094	40640.02
657.445	40910.07
657.796	40902.16
658.147	40681.83
658.498	40656.29
658.849	40727.47
659.2	40697.87
659.551	40574.48
659.902	40794.59
660.253	40717.98
660.604	40760.24
660.955	40629.62
661.306	40943.97
661.656	40682.5
662.007	40841.14
662.358	40633.92
662.708	40612.22
663.059	40691.09
663.409	40584.2
663.76	40632.34
664.11	40622.62
664.461	40686.35
664.811	40684.31
665.161	40681.37
665.511	40444.32
665.862	40661.71
666.212	40720.92
666.562	40621.04
666.912	40675.27
667.262	40583.3
667.612	40597.53
667.962	40554.15
668.312	40522.73
668.662	40671.88
669.011	40553.47
669.361	40514.6
669.711	40433.7
670.06	40425.56
670.41	40365.68
670.76	40326.13
671.109	40513.24
671.459	40404.54
671.808	40372.46
672.157	40304.43
672.507	40317.54
672.856	40175.62
673.205	40274.38
673.554	40430.08
673.904	40352.12
674.253	40500.14
674.602	40232.57
674.951	39804.33
675.3	39572.7
675.649	40200.48
675.998	40060.37
676.346	40239.13
676.695	40291.1
677.044	40173.82
677.393	39972.69
677.741	40134.95
678.09	40016.31
678.438	39847.5
678.787	39983.09
679.135	40013.82
679.484	39622.19
679.832	39948.74
680.181	39785.35
680.529	40012.69
680.877	39621.29
681.225	39704.22
681.573	39974.27
681.922	39532.25
682.27	39599.82
682.618	39495.42
682.966	39282.99
683.314	39447.06
683.661	39425.59
684.009	39201.86
684.357	39231.69
684.705	39037.12
685.053	39229.43
685.4	39127.29
685.748	38843.46
686.095	38912.38
686.443	38722.1
686.79	38720.07
687.138	38719.62
687.485	38911.02
687.832	38505.84
688.18	38686.85
688.527	38490.02
688.874	38477.82
689.221	38487.99
689.568	38327.09
689.915	38196.92
690.262	38246.86
690.609	38100.42
690.956	37898.62
691.303	38119.86
691.65	37765.52
691.997	37757.83
692.344	37609.59
692.69	37517.62
693.037	37518.07
693.383	37204.63
693.73	37256.61
694.077	37087.57
694.423	37184.97
694.769	36994.01
695.116	36868.59
695.462	36803.51
695.808	36864.75
696.155	36793.79
696.501	36468.15
696.847	36549.51
697.193	36222.51
697.539	36358.1
697.885	36087.37
698.231	36144.77
698.577	36159.01
698.923	36012.57
699.269	35964.66
699.614	35684.22
699.96	35630.21
700.306	35678.79
700.651	35519.25
700.997	35343.21
701.342	35329.42
701.688	35249.43
702.033	35206.04
702.379	35155.19
702.724	35032.48
703.069	35184.57
703.415	34624.13
703.76	34844.47
704.105	34799.49
704.45	34651.93
704.795	34425.27
705.14	34384.82
705.485	34326.51
705.83	34173.07
706.175	34173.3
706.52	34270.02
706.865	34016.01
707.209	34001.1
707.554	33981.89
707.899	33842.01
708.243	33700.77
708.588	33722.91
708.932	33466.65
709.277	33467.1
709.621	33512.97
709.966	33262.59
710.31	33299.87
710.654	33002.25
710.998	33064.85
711.342	33223.94
711.687	33014.68
712.031	32821.47
712.375	32824.63
712.719	32846.33
713.063	32719.55
713.407	32807.68
713.75	32688.36
714.094	32508.03
714.438	32511.87
714.782	32472.32
715.125	32254.25
715.469	32357.52
715.812	32146.68
716.156	32028.04
716.499	32143.07
716.843	32189.39
717.186	31928.38
717.53	32007.03
717.873	32156.4
718.216	31934.03
718.559	31745.34
718.902	31642.52
719.246	31696.98
719.589	31615.17
719.932	31505.8
720.275	31496.3
720.617	31447.49
720.96	31427.15
721.303	31394.16
721.646	31426.02
721.989	31155.97
722.331	31283.2
722.674	31150.55
723.016	31240.94
723.359	31147.39
723.701	31047.05
724.044	30803.89
724.386	30846.38
724.729	30824.68
725.071	30764.8
725.413	30712.37
725.755	30598.25
726.097	30629.21
726.439	30320.06
726.782	30373.17
727.124	30603.45
727.465	30397.12
727.807	30291.14
728.149	30377.01
728.491	30249.56
728.833	30372.04
729.175	30163.46
729.516	30061.99
729.858	30097.92
730.199	30113.29
730.541	30067.87
730.882	29982.67
731.224	30182.67
731.565	29894.31
731.906	29858.16
732.248	29843.24
732.589	29621.1
732.93	29654.55
733.271	29579.74
733.612	29619.07
733.953	29784.49
734.294	29496.58
734.635	29463.59
734.976	29638.73
735.317	29407.77
735.658	29402.57
735.999	29433.99
736.339	29279.64
736.68	29402.8
737.021	29263.37
737.361	29212.07
737.702	29290.94
738.042	29148.12
738.383	29018.4
738.723	29174.11
739.063	29044.62
739.404	29099.98
739.744	28911.29
740.084	28795.81
740.424	28904.28
740.764	28758.52
741.104	28921.01
741.444	28646.66
741.784	28635.14
742.124	28688.02
742.464	28593.33
742.804	28531.41
743.143	28423.62
743.483	28529.83
743.823	28395.37
744.162	28374.58
744.502	28353.34
744.841	28235.37
745.181	28391.75
745.52	28128.94
745.86	28277.86
746.199	28045.55
746.538	28150.63
746.877	28133.23
747.216	28201.02
747.556	28141.82
747.895	28033.12
748.234	28010.07
748.573	27992.89
748.911	27860.47
749.25	27843.29
749.589	27777.08
749.928	27805.33
750.267	27851.65
750.605	27653.02
750.944	27636.07
751.283	27570.31
751.621	27649.17
751.96	27441.27
752.298	27473.59
752.636	27435.62
752.975	27244.21
753.313	27204.21
753.651	27367.83
753.989	27161.73
754.327	27120.6
754.666	26968.74
755.004	27092.8
755.342	27056.2
755.679	27003.32
756.017	26783.21
756.355	26990.43
756.693	26760.38
757.031	26853.26
757.368	26604.46
757.706	26656.21
758.044	26610.11
758.381	26713.15
758.719	26501.63
759.056	26439.71
759.394	26339.15
759.731	26235.65
760.068	26217.8
760.405	26130.8
760.743	26001.53
761.08	26143.45
761.417	25947.07
761.754	25915.21
762.091	25867.3
762.428	25791.14
762.765	25606.29
763.102	25667.76
763.438	25444.26
763.775	25449.46
764.112	25364.94
764.449	25426.18
764.785	25339.4
765.122	25190.03
765.458	25043.82
765.795	25089.24
766.131	25133.76
766.467	24897.83
766.804	24764.73
767.14	24763.37
767.476	24750.95
767.812	24623.49
768.148	24627.56
768.485	24499.43
768.821	24269.83
769.157	24261.47
769.492	24258.3
769.828	24096.95
770.164	23924.53
770.5	23910.52
770.836	24020.34
771.171	23833.91
771.507	23813.12
771.842	23617.87
772.178	23590.98
772.513	23502.62
772.849	23449.28
773.184	23283.19
773.519	23362.28
773.855	23185.34
774.19	23120.71
774.525	23120.48
774.86	23027.6
775.195	22913.93
775.53	22885.01
775.865	22765.69
776.2	22730.89
776.535	22490.67
776.87	22454.73
777.205	22372.93
777.539	22228.75
777.874	22279.37
778.209	22109.88
778.543	22033.5
778.878	21989.66
779.212	21997.8
779.547	21766.84
779.881	21890.91
780.215	21724.13
780.55	21692.49
780.884	21559.39
781.218	21440.75
781.552	21414.31
781.886	21324.59
782.22	21342.67
782.554	21243.47
782.888	20988.33
783.222	20867.88
783.556	20788.56
783.889	20833.08
784.223	20679.19
784.557	20603.71
784.89	20736.81
785.224	20568.46
785.557	20437.84
785.891	20395.81
786.224	20374.56
786.558	20269.71
786.891	19975.48
787.224	20012.76
787.557	20037.17
787.891	19990.62
788.224	19876.27
788.557	19839.44
788.89	19757.4
789.223	19780.91
789.556	19630.18
789.888	19649.16
790.221	19532.55
790.554	19350.64
790.887	19479.9
791.219	19396.28
791.552	19259.79
791.884	18986.13
792.217	19109.51
792.549	19021.38
792.882	18865.45
793.214	18834.04
793.546	18891.21
793.879	18707.71
794.211	18551.33
794.543	18666.36
794.875	18616.19
795.207	18600.82
795.539	18427.95
795.871	18523.99
796.203	18355.63
796.535	18222.76
796.867	18152.25
797.198	18207.61
797.53	18131.23
797.862	17962.65
798.193	18028.18
798.525	17821.64
798.856	17918.58
799.188	17785.93
799.519	17742.09
799.85	17595.2
800.182	17562.43
800.513	17632.26
800.844	17460.29
801.175	17500.97
801.506	17520.17
801.837	17376
802.168	17381.42
802.499	17256.23
802.83	17230.01
803.161	17119.51
803.491	17180.75
803.822	17105.04
804.153	17032.5
804.483	16874.32
804.814	16782.57
805.145	16786.18
805.475	16767.88
805.805	16726.3
806.136	16674.1
806.466	16667.99
806.796	16602.46
807.126	16481.11
807.457	16552.06
807.787	16442.92
808.117	16367.21
808.447	16299.19
808.777	16280.21
809.107	16415.12
809.436	16197.27
809.766	16229.14
810.096	16190.27
810.426	16119.08
810.755	16109.82
811.085	16126.31
811.414	15984.85
811.744	15895.58
812.073	15904.4
812.403	15835.93
812.732	15726.78
813.061	15694.23
813.39	15626.21
813.719	15604.52
814.049	15732.88
814.378	15619.89
814.707	15512.54
815.036	15517.74
815.365	15412.89
815.693	15340.35
816.022	15296.73
816.351	15294.47
816.68	15267.13
817.008	15221.25
817.337	15196.62
817.665	15064.42
817.994	15134.47
818.322	15131.54
818.651	14911.2
818.979	14898.55
819.307	15020.58
819.636	15020.81
819.964	14906.46
820.292	14967.25
820.62	14974.48
820.948	14749.63
821.276	14883.41
821.604	14903.07
821.932	14873.46
822.259	14924.76
822.587	14829.85
822.915	14807.7
823.243	14874.59
823.57	14802.73
823.898	14786.01
824.225	14662.62
824.553	14804.31
824.88	14693.58
825.207	14834.37
825.535	14662.17
825.862	14860.58
826.189	14720.02
826.516	14743.75
826.843	14826.91
827.17	14796.18
827.497	14786.46
827.824	14767.25
828.151	14838.89
828.478	14746.91
828.805	14782.39
829.131	14740.81
829.458	14715.73
829.785	14616.52
830.111	14684.09
830.438	14795.5
830.764	14809.06
831.09	14726.8
831.417	14616.07
831.743	14670.53
832.069	14686.35
832.395	14720.02
832.722	14662.4
833.048	14579.69
833.374	14636.41
833.7	14590.99
834.026	14491.55
834.351	14584.21
834.677	14553.47
835.003	14622.4
835.329	14485.23
835.654	14470.76
835.98	14432.35
836.306	14434.83
836.631	14473.25
836.956	14495.85
837.282	14441.84
837.607	14295.85
837.932	14367.49
838.258	14319.81
838.583	14306.02
838.908	14252.01
839.233	14263.31
839.558	14231.45
839.883	14204.33
840.208	14135.18
840.533	14037.55
840.858	14218.79
841.182	14164.56
841.507	14124.56
841.832	13978.35
842.156	13988.06
842.481	13983.32
842.805	13943.09
843.13	13913.04
843.454	13932.47
843.778	13876.88
844.103	13834.85
844.427	13718.69
844.751	13758.01
845.075	13663.78
845.399	13694.96
845.723	13631.46
846.047	13607.96
846.371	13495.65
846.695	13471.24
847.019	13420.4
847.343	13390.11
847.666	13283.68
847.99	13235.77
848.313	13213.17
848.637	13111.7
848.96	13140.86
849.284	13108.54
849.607	13041.2
849.931	12974.98
850.254	12898.15
850.577	12817.02
850.9	12715.33
851.223	12677.14
851.546	12626.52
851.869	12586.29
852.192	12619.51
852.515	12503.36
852.838	12461.1
853.161	12513.75
853.483	12369.8
853.806	12345.17
854.129	12340.88
854.451	12219.07
854.774	12225.62
855.096	12145.85
855.419	12090.71
855.741	12130.49
856.063	12004.16
856.385	12061.79
856.708	11949.02
857.03	11933.66
857.352	11932.07
857.674	11921.9
857.996	11798.74
858.318	11761
858.64	11766.2
858.961	11717.39
859.283	11689.37
859.605	11690.27
859.926	11653.89
860.248	11625.41
860.57	11542.03
860.891	11567.79
861.212	11526.66
861.534	11456.15
861.855	11480.56
862.176	11470.62
862.498	11501.58
862.819	11420.45
863.14	11367.12
863.461	11409.83
863.782	11328.7
864.103	11372.31
864.424	11320.34
864.745	11266.55
865.065	11277.18
865.386	11255.48
865.707	11225.2
866.027	11229.94
866.348	11147.91
866.668	11149.04
866.989	11133.45
867.309	11130.29
867.63	11133.22
867.95	11115.37
868.27	11044.86
868.59	11017.52
868.91	10965.09
869.23	10960.12
869.55	10961.7
869.87	10991.31
870.19	10884.64
870.51	10970.52
870.83	10923.06
871.15	10833.35
871.469	10867.92
871.789	10884.87
872.109	10758.77
872.428	10749.73
872.748	10853.23
873.067	10829.73
873.386	10765.78
873.706	10687.36
874.025	10691.43
874.344	10674.03
874.663	10704.76
874.982	10620.24
875.301	10651.43
875.62	10650.98
875.939	10609.17
876.258	10537.31
876.577	10573.92
876.896	10484.65
877.214	10493.69
877.533	10563.52
877.852	10523.52
878.17	10464.99
878.489	10546.12
878.807	10488.04
879.125	10442.62
879.444	10385.9
879.762	10386.13
880.08	10452.11
880.398	10392.23
880.716	10312.91
881.034	10349.97
881.352	10319.23
881.67	10282.85
881.988	10297.31
882.306	10288.95
882.624	10225.23
882.941	10111.56
883.259	10225.45
883.577	10112.46
883.894	10125.57
884.212	10163.98
884.529	10074.27
884.846	9995.63
885.164	10035.17
885.481	10035.17
885.798	10018
886.115	9850.77
886.432	9935.74
886.75	9883.77
887.067	9929.64
887.383	9831.56
887.7	9841.05
888.017	9857.78
888.334	9799.25
888.651	9799.7
888.967	9701.62
889.284	9694.17
889.6	9671.34
889.917	9657.56
890.233	9640.16
890.55	9605.81
890.866	9594.28
891.182	9521.97
891.498	9552.47
891.815	9481.97
892.131	9426.6
892.447	9499.59
892.763	9470.67
893.079	9410.78
893.395	9385.02
893.71	9284.23
894.026	9275.42
894.342	9246.04
894.657	9198.13
894.973	9208.3
895.289	9168.3
895.604	9141.64
895.92	9078.81
896.235	9066.16
896.55	9013.05
896.865	9006.05
897.181	9011.92
897.496	9035.65
897.811	8965.6
898.126	8922.89
898.441	8854.87
898.756	8846.96
899.071	8823.23
899.386	8786.62
899.7	8740.07
900.015	8687.19
900.33	8658.94
900.644	8638.15
900.959	8682.89
901.273	8634.98
901.588	8550.92
901.902	8498.49
902.216	8529
902.531	8463.01
902.845	8470.92
903.159	8406.06
903.473	8333.98
903.787	8311.15
904.101	8269.57
904.415	8321.55
904.729	8294.65
905.042	8237.48
905.356	8185.05
905.67	8221.89
905.984	8159.52
906.297	8110.03
906.611	8133.3
906.924	8047.2
907.237	8040.65
907.551	8009.46
907.864	7969.69
908.177	8016.47
908.491	7944.61
908.804	7903.93
909.117	7854.44
909.43	7769.47
909.743	7731.73
910.056	7790.94
910.368	7711.17
910.681	7604.05
910.994	7610.15
911.307	7648.8
911.619	7546.2
911.932	7503.49
912.244	7498.97
912.557	7501.68
912.869	7462.13
913.181	7404.51
913.494	7413.55
913.806	7406.99
914.118	7363.15
914.43	7343.04
914.742	7247.9
915.054	7238.41
915.366	7220.78
915.678	7204.06
915.99	7136.27
916.302	7131.3
916.613	7035.25
916.925	7070.73
917.236	6990.06
917.548	6983.5
917.859	6963.84
918.171	6943.05
918.482	6870.29
918.794	6876.61
919.105	6842.94
919.416	6807.24
919.727	6785.99
920.038	6813.79
920.349	6767.24
920.66	6736.96
920.971	6734.47
921.282	6672.32
921.593	6577.86
921.903	6635.26
922.214	6567.24
922.525	6571.54
922.835	6521.82
923.146	6519.56
923.456	6485.89
923.767	6439.11
924.077	6433.01
924.387	6383.29
924.697	6322.28
925.008	6303.07
925.318	6341.26
925.628	6292.22
925.938	6339.45
926.248	6186.24
926.558	6209.74
926.867	6135.62
927.177	6138.33
927.487	6120.25
927.796	6085
928.106	6074.83
928.416	6058.1
928.725	6019.91
929.034	5962.51
929.344	5962.74
929.653	5998.9
929.962	5931.78
930.271	5900.59
930.581	5885.9
930.89	5837.32
931.199	5835.28
931.508	5775.85
931.817	5788.05
932.125	5775.62
932.434	5766.81
932.743	5719.81
933.051	5673.93
933.36	5638
933.669	5619.7
933.977	5564.56
934.286	5542.41
934.594	5530.66
934.902	5509.19
935.21	5447.27
935.519	5467.84
935.827	5481.17
936.135	5433.04
936.443	5369.99
936.751	5390.55
937.059	5365.47
937.367	5317.78
937.674	5386.93
937.982	5335.18
938.29	5265.13
938.597	5236.43
938.905	5217.9
939.213	5191.69
939.52	5183.1
939.827	5174.96
940.135	5149.2
940.442	5120.95
940.749	5081.41
941.056	5132.7
941.363	5052.48
941.67	5018.81
941.977	4986.27
942.284	5006.38
942.591	4942.65
942.898	4928.87
943.205	4941.07
943.511	4938.81
943.818	4853.39
944.125	4893.16
944.431	4855.42
944.738	4838.25
945.044	4806.38
945.35	4764.58
945.657	4737.69
945.963	4731.36
946.269	4732.04
946.575	4716.22
946.881	4672.38
947.187	4663.56
947.493	4632.6
947.799	4590.35
948.105	4550.57
948.41	4584.02
948.716	4520.06
949.022	4523.68
949.327	4491.82
949.633	4470.35
949.938	4443
950.244	4457.92
950.549	4416.56
950.854	4386.73
951.16	4409.11
951.465	4372.95
951.77	4346.96
952.075	4304.48
952.38	4328.66
952.685	4325.72
952.99	4306.29
953.294	4295.66
953.599	4254.54
953.904	4184.93
954.209	4222.22
954.513	4174.99
954.818	4196.01
955.122	4155.55
955.426	4125.72
955.731	4123.47
956.035	4078.49
956.339	4084.82
956.643	4033.52
956.948	4024.71
957.252	4038.72
957.556	4053.41
957.86	4016.58
958.163	3995.11
958.467	3952.4
958.771	3960.31
959.075	3971.83
959.378	3879.63
959.682	3894.54
959.985	3824.49
960.289	3878.5
960.592	3823.81
960.896	3803.47
961.199	3823.59
961.502	3786.75
961.805	3771.84
962.108	3772.51
962.411	3732.06
962.714	3702.69
963.017	3712.63
963.32	3725.06
963.623	3673.53
963.926	3651.84
964.228	3645.51
964.531	3633.76
964.833	3667.88
965.136	3573.87
965.438	3572.52
965.741	3566.64
966.043	3514.89
966.345	3521.45
966.648	3528.9
966.95	3566.19
967.252	3456.82
967.554	3501.11
967.856	3478.06
968.158	3446.19
968.46	3427.66
968.761	3375.69
969.063	3388.8
969.365	3381.11
969.666	3389.47
969.968	3319.42
970.269	3334.33
970.571	3334.79
970.872	3329.14
971.174	3261.34
971.475	3280.55
971.776	3255.24
972.077	3299.08
972.378	3226.99
972.679	3241.68
972.98	3220.21
973.281	3203.26
973.582	3155.81
973.883	3193.55
974.183	3154.9
974.484	3170.04
974.785	3110.16
975.085	3112.87
975.386	3101.57
975.686	3076.49
975.986	3113.1
976.287	3053.66
976.587	3054.11
976.887	3069.03
977.187	3012.76
977.487	3018.86
977.787	2993.55
978.087	2935.02
978.387	2970.05
978.687	2920.33
978.987	2945.64
979.286	2910.62
979.586	2895.02
979.885	2908.13
980.185	2836.49
980.484	2868.13
980.784	2858.19
981.083	2819.09
981.382	2829.49
981.682	2819.77
981.981	2785.2
982.28	2796.95
982.579	2812.77
982.878	2765.99
983.177	2789.26
983.475	2729.6
983.774	2721.02
984.073	2716.27
984.372	2703.16
984.67	2691.41
984.969	2701.81
985.267	2709.49
985.566	2691.19
985.864	2632.43
986.162	2658.87
986.461	2685.54
986.759	2610.06
987.057	2574.13
987.355	2567.8
987.653	2596.27
987.951	2542.49
988.249	2562.15
988.547	2536.39
988.844	2533.68
989.142	2533
989.44	2494.13
989.737	2485.77
990.035	2476.73
990.332	2490.97
990.63	2470.18
990.927	2433.11
991.224	2432.21
991.521	2398.09
991.819	2425.2
992.116	2391.99
992.413	2371.65
992.71	2378.2
993.006	2384.3
993.303	2380.23
993.6	2374.81
993.897	2368.03
994.193	2354.02
994.49	2337.98
994.787	2339.56
995.083	2319.22
995.379	2306.11
995.676	2266.34
995.972	2290.74
996.268	2246.23
996.565	2270.86
996.861	2283.29
997.157	2194.48
997.453	2205.32
997.749	2191.99
998.044	2199
998.34	2152.44
998.636	2181.6
998.932	2192.22
999.227	2159.45
999.523	2153.57
999.818	2141.82
1000.114	2123.07
1000.409	2124.65
1000.704	2130.98
1001	2104.08
1001.295	2102.95
1001.59	2076.29
1001.885	2059.79
1002.18	2062.28
1002.475	2042.84
1002.77	2020.92
1003.065	2022.5
1003.359	1975.72
1003.654	1973.01
1003.949	1971.88
1004.243	1976.85
1004.538	1978.66
1004.832	1953.8
1005.127	1949.28
1005.421	1929.85
1005.715	1909.74
1006.009	1896.4
1006.304	1888.95
1006.598	1879.46
1006.892	1868.84
1007.186	1867.93
1007.48	1848.04
1007.773	1830.87
1008.067	1829.51
1008.361	1834.03
1008.655	1823.19
1008.948	1774.83
1009.242	1793.81
1009.535	1769.4
1009.829	1785.9
1010.122	1775.28
1010.415	1760.36
1010.708	1743.87
1011.001	1710.42
1011.295	1725.56
1011.588	1726.47
1011.881	1726.47
1012.173	1695.05
1012.466	1690.31
1012.759	1682.85
1013.052	1661.38
1013.344	1652.34
1013.637	1646.24
1013.93	1634.49
1014.222	1641.95
1014.514	1617.99
1014.807	1610.76
1015.099	1591.78
1015.391	1576.41
1015.683	1563.31
1015.976	1555.17
1016.268	1596.53
1016.56	1572.35
1016.851	1531.22
1017.143	1496.87
1017.435	1514.27
1017.727	1528.05
1018.018	1515.62
1018.31	1493.03
1018.602	1494.38
1018.893	1492.8
1019.185	1482.18
1019.476	1483.08
1019.767	1479.24
1020.058	1421.39
1020.35	1428.39
1020.641	1433.59
1020.932	1420.71
1021.223	1410.77
1021.514	1410.54
1021.804	1389.3
1022.095	1384.78
1022.386	1358.57
1022.677	1375.06
1022.967	1366.7
1023.258	1376.64
1023.548	1352.92
1023.839	1322.63
1024.129	1343.65
1024.419	1309.53
1024.709	1314.73
1025	1302.75
1025.29	1281.05
1025.58	1260.94
1025.87	1295.74
1026.16	1244.67
1026.449	1263.43
1026.739	1258.68
1027.029	1233.37
1027.319	1235.86
1027.608	1230.66
1027.898	1214.39
1028.187	1217.78
1028.477	1180.27
1028.766	1212.58
1029.055	1201.96
1029.344	1172.81
1029.634	1176.42
1029.923	1144.33
1030.212	1160.83
1030.501	1150.66
1030.79	1143.88
1031.078	1126.93
1031.367	1122.41
1031.656	1129.87
1031.945	1092.36
1032.233	1086.71
1032.522	1098.91
1032.81	1084
1033.099	1089.65
1033.387	1099.14
1033.675	1036.77
1033.963	1070.21
1034.251	1059.82
1034.54	1053.94
1034.828	1069.08
1035.116	1048.52
1035.403	1010.55
1035.691	1011.68
1035.979	1013.26
1036.267	1002.64
1036.554	1012.59
1036.842	995.64
1037.129	1007.39
1037.417	989.31
1037.704	975.98
1037.992	980.27
1038.279	979.59
1038.566	955.86
1038.853	955.86
1039.14	955.86
