Data from hue_160_FLMS001491_00022.txt Node
Date: Tue Feb 07 16:50:57 GMT 2017
User: dcchb
Spectrometer: FLMS00149
Trigger mode: 0
Integration Time (sec): 2.000000E-2
Scans to average: 10
Electric dark correction enabled: true
Nonlinearity correction enabled: false
Boxcar width: 0
XAxis mode: Wavelengths
Number of Pixels in Spectrum: 2048
>>>>>Begin Spectral Data<<<<<
341.393	-23.32
341.776	-23.32
342.16	-23.32
342.543	-84.56
342.927	-79.14
343.31	-82.98
343.693	-65.8
344.077	-82.07
344.46	-68.06
344.843	-43.43
345.226	-42.53
345.61	-41.85
345.993	-22.41
346.376	4.48
346.759	17.81
347.142	25.72
347.525	48.09
347.908	59.39
348.291	65.27
348.674	114.3
349.057	114.08
349.44	107.98
349.823	142.78
350.206	141.87
350.588	188.65
350.971	202.66
351.354	226.62
351.737	238.37
352.119	241.08
352.502	279.05
352.884	260.74
353.267	283.57
353.65	298.03
354.032	305.03
354.414	280.85
354.797	326.73
355.179	309.1
355.562	314.75
355.944	326.5
356.326	322.21
356.709	325.6
357.091	324.24
357.473	346.62
357.855	355.43
358.238	339.84
358.62	315.2
359.002	349.1
359.384	346.39
359.766	335.54
360.148	327.18
360.53	321.76
360.912	306.39
361.294	351.81
361.676	326.73
362.057	330.34
362.439	297.8
362.821	338.48
363.203	326.95
363.584	316.79
363.966	320.4
364.348	286.28
364.729	316.79
365.111	305.49
365.493	310.46
365.874	305.94
366.256	309.1
366.637	288.99
367.019	298.03
367.4	310.46
367.781	309.33
368.163	296.45
368.544	308.42
368.925	318.37
369.306	298.93
369.688	304.81
370.069	300.06
370.45	305.94
370.831	298.93
371.212	311.81
371.593	306.62
371.974	327.18
372.355	305.03
372.736	297.8
373.117	300.51
373.498	314.53
373.879	307.97
374.26	297.35
374.641	294.19
375.021	288.99
375.402	339.61
375.783	300.06
376.163	305.49
376.544	321.08
376.925	311.14
377.305	312.27
377.686	322.89
378.066	331.25
378.447	331.47
378.827	318.82
379.208	322.66
379.588	339.38
379.968	339.16
380.349	309.33
380.729	323.11
381.109	316.56
381.489	321.76
381.87	337.12
382.25	338.25
382.63	325.82
383.01	330.34
383.39	333.96
383.77	331.93
384.15	315.88
384.53	312.04
384.91	347.52
385.29	337.8
385.67	347.07
386.049	351.59
386.429	343.23
386.809	353.17
387.189	343.45
387.568	348.88
387.948	345.03
388.328	340.29
388.707	346.84
389.087	341.19
389.466	360.63
389.846	355.43
390.225	351.59
390.605	354.3
390.984	357.46
391.363	340.29
391.743	359.95
392.122	356.33
392.501	347.07
392.881	363.11
393.26	376.22
393.639	378.93
394.018	391.13
394.397	389.55
394.776	381.87
395.155	376.67
395.534	376.9
395.913	382.09
396.292	370.57
396.671	395.88
397.05	370.34
397.429	373.51
397.808	399.04
398.186	378.7
398.565	388.2
398.944	377.8
399.323	397.91
399.701	378.25
400.08	408.31
400.458	374.41
400.837	395.43
401.215	403.56
401.594	396.78
401.972	390.68
402.351	398.59
402.729	406.05
403.107	386.16
403.486	394.07
403.864	396.33
404.242	435.43
404.62	410.12
404.999	383.22
405.377	399.04
405.755	404.69
406.133	417.57
406.511	419.61
406.889	427.74
407.267	428.87
407.645	413.28
408.023	415.31
408.401	429.55
408.779	441.53
409.156	431.58
409.534	448.99
409.912	427.74
410.29	447.18
410.667	441.98
411.045	426.39
411.422	439.27
411.8	468.65
412.178	487.4
412.555	471.81
412.933	472.49
413.31	487.18
413.687	497.8
414.065	485.37
414.442	473.17
414.819	481.98
415.197	480.4
415.574	487.18
415.951	484.01
416.328	491.92
416.705	510
417.082	482.88
417.46	503.9
417.837	493.5
418.214	507.74
418.591	505.93
418.967	518.14
419.344	529.66
419.721	499.15
420.098	517.01
420.475	517.01
420.852	524.69
421.228	542.54
421.605	538.93
421.982	523.56
422.358	533.5
422.735	566.27
423.111	572.6
423.488	558.14
423.864	587.06
424.241	604.46
424.617	553.84
424.994	582.32
425.37	580.96
425.746	581.41
426.123	590
426.499	602.43
426.875	608.53
427.251	604.46
427.627	603.56
428.003	589.77
428.379	631.58
428.756	626.83
429.132	632.94
429.507	634.74
429.883	629.77
430.259	617.57
430.635	643.1
431.011	659.15
431.387	689.88
431.763	669.54
432.138	671.58
432.514	675.87
432.89	705.7
433.265	679.04
433.641	691.92
434.016	675.65
434.392	702.31
434.767	712.93
435.143	726.72
435.518	722.65
435.894	732.37
436.269	742.76
436.644	771.91
437.02	758.58
437.395	756.32
437.77	766.04
438.145	777.11
438.52	787.73
438.895	787.06
439.271	780.05
439.646	819.37
440.021	806.49
440.395	838.13
440.77	803.55
441.145	825.25
441.52	828.64
441.895	822.31
442.27	869.77
442.645	837.22
443.019	859.82
443.394	868.18
443.769	843.33
444.143	868.64
444.518	886.94
444.892	887.62
445.267	895.75
445.641	886.26
446.016	897.56
446.39	894.4
446.764	928.07
447.139	918.58
447.513	929.42
447.887	932.36
448.262	931.46
448.636	939.82
449.01	929.2
449.384	966.49
449.758	975.3
450.132	967.84
450.506	999.03
450.88	977.11
451.254	1004.68
451.628	999.48
452.002	1012.13
452.376	1005.35
452.75	1021.17
453.123	1047.16
453.497	1032.25
453.871	1045.58
454.244	1100.04
454.618	1108.18
454.992	1114.73
455.365	1126.03
455.739	1138.68
456.112	1131.91
456.486	1138.68
456.859	1152.47
457.232	1181.4
457.606	1170.32
457.979	1195.18
458.352	1215.52
458.725	1236.54
459.099	1251
459.472	1233.6
459.845	1227.95
460.218	1288.74
460.591	1282.86
460.964	1266.82
461.337	1318.57
461.71	1356.53
462.083	1377.1
462.456	1359.92
462.829	1387.94
463.201	1414.61
463.574	1423.87
463.947	1452.8
464.32	1472.01
464.692	1465.23
465.065	1494.83
465.438	1537.32
465.81	1519.01
466.183	1546.36
466.555	1580.71
466.928	1622.74
467.3	1611.89
467.672	1671.33
468.045	1690.31
468.417	1716.75
468.789	1730.08
469.161	1780.7
469.534	1807.37
469.906	1805.56
470.278	1846.69
470.65	1907.03
471.022	1905.22
471.394	1984.99
471.766	1997.87
472.138	2061.15
472.51	2107.92
472.882	2122.61
473.253	2182.95
473.625	2215.72
473.997	2238.99
474.369	2318.54
474.74	2353.79
475.112	2413.23
475.484	2445.09
475.855	2498.65
476.227	2542.94
476.598	2647.12
476.97	2655.26
477.341	2759.21
477.713	2797.4
478.084	2875.36
478.455	2932.31
478.827	3006.66
479.198	3091.63
479.569	3137.5
479.94	3263.15
480.311	3317.84
480.682	3446.19
481.053	3509.02
481.424	3634.89
481.795	3690.48
482.166	3773.19
482.537	3902.23
482.908	4008.21
483.279	4118.49
483.65	4180.64
484.021	4325.49
484.391	4397.58
484.762	4490.24
485.133	4586.28
485.503	4717.8
485.874	4792.83
486.244	4948.08
486.615	5081.41
486.985	5237.79
487.356	5348.74
487.726	5428.06
488.097	5593.26
488.467	5668.74
488.837	5797.77
489.207	5921.61
489.578	6048.39
489.948	6125.22
490.318	6246.8
490.688	6410.41
491.058	6548.94
491.428	6773.56
491.798	6804.3
492.168	7036.61
492.538	7059.88
492.908	7136.95
493.278	7373.78
493.648	7411.97
494.017	7571.96
494.387	7698.51
494.757	7749.58
495.126	7971.95
495.496	7998.17
495.866	8138.95
496.235	8178.05
496.605	8369.91
496.974	8469.34
497.344	8570.81
497.713	8656.45
498.082	8745.26
498.452	8891.7
498.821	8980.06
499.19	9068.87
499.559	9161.98
499.928	9294.85
500.298	9353.84
500.667	9467.51
501.036	9535.53
501.405	9610.1
501.774	9630.89
502.143	9777.55
502.512	9843.09
502.88	9963.54
503.249	9944.55
503.618	10034.04
503.987	10145.91
504.356	10223.42
504.724	10241.27
505.093	10299.8
505.462	10344.54
505.83	10373.92
506.199	10543.64
506.567	10687.59
506.936	10690.3
507.304	10740.01
507.672	10807.81
508.041	10881.71
508.409	10934.13
508.777	11009.39
509.145	11100
509.514	11064.53
509.882	11136.61
510.25	11204.41
510.618	11240.11
510.986	11273.33
511.354	11436.72
511.722	11452.54
512.09	11509.03
512.458	11541.8
512.826	11470.16
513.193	11598.97
513.561	11584.74
513.929	11746.32
514.297	11826.31
514.664	11756.48
515.032	11891.62
515.4	11872.41
515.767	11831.06
516.135	12031.05
516.502	11807.33
516.869	12036.7
517.237	12024.5
517.604	11957.38
517.972	12083.93
518.339	12146.98
518.706	12204.16
519.073	12121.9
519.44	12110.37
519.808	12257.26
520.175	12197.38
520.542	12377.26
520.909	12243.25
521.276	12322.35
521.643	12318.73
522.009	12431.72
522.376	12396.02
522.743	12484.6
523.11	12491.15
523.477	12517.59
523.843	12631.94
524.21	12653.86
524.577	12706.97
524.943	12672.17
525.31	12738.83
525.676	12799.17
526.043	12779.06
526.409	12850.24
526.776	12870.58
527.142	12850.24
527.508	12818.6
527.874	12919.17
528.241	12999.39
528.607	12857.7
528.973	12942.89
529.339	12871.71
529.705	12963.46
530.071	12974.08
530.437	12965.94
530.803	12962.33
531.169	12944.48
531.535	12887.75
531.901	12964.59
532.267	12885.49
532.632	12877.36
532.998	12855.21
533.364	12972.72
533.73	12904.03
534.095	12940.86
534.461	12847.76
534.826	12927.08
535.192	12894.76
535.557	12857.47
535.923	12776.34
536.288	12865.61
536.653	12858.6
537.019	12705.84
537.384	12692.28
537.749	12676.69
538.114	12687.08
538.479	12596.46
538.845	12663.81
539.21	12565.73
539.575	12532.96
539.94	12528.44
540.305	12529.12
540.67	12523.02
541.034	12467.88
541.399	12435.79
541.764	12402.34
542.129	12393.08
542.494	12349.24
542.858	12349.01
543.223	12281.67
543.587	12331.16
543.952	12189.69
544.316	12264.27
544.681	12098.85
545.045	12238.28
545.41	12174.33
545.774	12133.65
546.138	12058.17
546.503	12141.56
546.867	11942.47
547.231	11985.41
547.595	11946.54
547.959	11951.06
548.324	11857.27
548.688	11790.83
549.052	11789.48
549.416	11834
549.779	11789.93
550.143	11712.87
550.507	11738.63
550.871	11716.71
551.235	11662.25
551.599	11633.1
551.962	11666.77
552.326	11608.92
552.689	11673.77
553.053	11557.39
553.417	11477.62
553.78	11552.2
554.143	11608.92
554.507	11486.44
554.87	11422.93
555.234	11564.85
555.597	11390.17
555.96	11384.97
556.323	11399.21
556.686	11359.43
557.05	11386.1
557.413	11393.78
557.776	11409.83
558.139	11323.73
558.502	11383.61
558.865	11372.31
559.228	11380.9
559.59	11313.33
559.953	11351.75
560.316	11363.73
560.679	11307.68
561.041	11388.13
561.404	11378.87
561.767	11309.49
562.129	11307.23
562.492	11391.52
562.854	11309.49
563.217	11357.63
563.579	11300
563.941	11407.57
564.304	11350.85
564.666	11397.17
565.028	11357.17
565.39	11314.91
565.753	11402.37
566.115	11428.36
566.477	11443.5
566.839	11417.06
567.201	11507.68
567.563	11493.21
567.925	11516.72
568.287	11486.66
568.648	11467.9
569.01	11505.42
569.372	11597.62
569.734	11558.52
570.095	11480.33
570.457	11545.87
570.819	11549.48
571.18	11575.92
571.542	11640.56
571.903	11619.99
572.265	11633.1
572.626	11578.86
572.987	11645.98
573.349	11640.1
573.71	11675.36
574.071	11615.25
574.432	11647.79
574.794	11692.08
575.155	11693.89
575.516	11615.47
575.877	11622.93
576.238	11715.13
576.599	11684.17
576.96	11662.93
577.32	11690.72
577.681	11631.06
578.042	11670.39
578.403	11750.84
578.763	11661.57
579.124	11657.73
579.485	11721.46
579.845	11744.73
580.206	11754.45
580.566	11720.55
580.927	11741.8
581.287	11749.93
581.648	11705.64
582.008	11695.47
582.368	11626.32
582.728	11637.17
583.089	11650.27
583.449	11703.38
583.809	11643.49
584.169	11687.79
584.529	11657.96
584.889	11690.72
585.249	11664.28
585.609	11591.29
585.969	11678.97
586.329	11631.29
586.688	11648.24
587.048	11622.7
587.408	11562.14
587.768	11599.65
588.127	11599.2
588.487	11555.36
588.846	11618.86
589.206	11479.43
589.565	11552.2
589.925	11594
590.284	11468.81
590.643	11540.22
591.003	11539.99
591.362	11518.52
591.721	11582.03
592.08	11499.77
592.44	11536.15
592.799	11529.37
593.158	11462.26
593.517	11464.74
593.876	11508.36
594.235	11429.26
594.593	11510.16
594.952	11458.87
595.311	11380.45
595.67	11461.58
596.029	11488.47
596.387	11523.72
596.746	11469.26
597.104	11422.93
597.463	11413.89
597.822	11485.76
598.18	11434.91
598.538	11419.54
598.897	11449.83
599.255	11334.8
599.613	11480.56
599.972	11436.04
600.33	11380
600.688	11402.82
601.046	11432.43
601.404	11502.03
601.762	11459.32
602.12	11513.33
602.478	11502.71
602.836	11467
603.194	11424.29
603.552	11416.38
603.91	11445.76
604.268	11442.82
604.625	11408.47
604.983	11406.66
605.341	11413.44
605.698	11474.23
606.056	11384.29
606.413	11514.46
606.771	11485.53
607.128	11493.67
607.485	11394.01
607.843	11462.03
608.2	11468.13
608.557	11417.06
608.914	11435.14
609.272	11493.44
609.629	11507
609.986	11592.42
610.343	11502.71
610.7	11537.28
611.057	11548.58
611.414	11565.76
611.771	11538.64
612.127	11525.98
612.484	11577.73
612.841	11516.72
613.198	11546.77
613.554	11494.12
613.911	11602.59
614.267	11529.82
614.624	11588.35
614.98	11577.05
615.337	11701.57
615.693	11591.07
616.05	11684.85
616.406	11735.69
616.762	11655.02
617.118	11654.34
617.475	11606.88
617.831	11703.6
618.187	11760.78
618.543	11679.2
618.899	11757.84
619.255	11696.15
619.611	11704.06
619.967	11762.81
620.323	11766.2
620.678	11777.05
621.034	11751.06
621.39	11720.33
621.746	11723.49
622.101	11818.63
622.457	11768.91
622.812	11761.23
623.168	11736.15
623.523	11742.93
623.879	11838.06
624.234	11687.56
624.589	11701.12
624.945	11694.34
625.3	11836.48
625.655	11785.18
626.01	11741.34
626.365	11812.08
626.72	11708.58
627.075	11697.28
627.43	11767.78
627.785	11703.6
628.14	11811.17
628.495	11791.96
628.85	11747.9
629.205	11710.61
629.559	11758.07
629.914	11748.58
630.269	11661.35
630.623	11644.62
630.978	11603.95
631.332	11607.11
631.687	11686.88
632.041	11628.35
632.396	11584.96
632.75	11649.82
633.104	11580.9
633.459	11584.74
633.813	11589.71
634.167	11629.93
634.521	11595.36
634.875	11585.87
635.229	11510.62
635.583	11535.93
635.937	11511.07
636.291	11485.53
636.645	11498.86
636.999	11474.68
637.352	11461.35
637.706	11438.98
638.06	11457.74
638.413	11414.8
638.767	11427.45
639.121	11403.5
639.474	11311.98
639.828	11359.66
640.181	11309.94
640.534	11368.25
640.888	11337.96
641.241	11257.74
641.594	11223.17
641.947	11340.9
642.301	11305.65
642.654	11291.64
643.007	11273.79
643.36	11297.97
643.713	11182.26
644.066	11291.64
644.419	11144.52
644.771	11129.83
645.124	11114.47
645.477	11076.95
645.83	10954.92
646.182	10867.02
646.535	10912.44
646.888	10935.26
647.24	10853.68
647.593	10919.9
647.945	10881.03
648.298	10856.85
648.65	10786.11
649.002	10770.97
649.355	10879.22
649.707	10888.03
650.059	10870.18
650.411	11053.45
650.763	11021.81
651.115	11123.73
651.467	11162.15
651.819	11082.38
652.171	11155.6
652.523	11110.17
652.875	11034.7
653.227	11042.15
653.578	11192.88
653.93	11154.69
654.282	11083.51
654.633	11103.17
654.985	11066.11
655.337	11101.81
655.688	11146.78
656.039	11228.59
656.391	11065.43
656.742	11078.76
657.094	11112.66
657.445	11093.23
657.796	11079.21
658.147	11135.71
658.498	11102.04
658.849	11116.95
659.2	11076.5
659.551	11121.02
659.902	11169.16
660.253	11124.18
660.604	11155.6
660.955	11056.84
661.306	11163.96
661.656	11077.86
662.007	11148.37
662.358	11140.23
662.708	11146.78
663.059	11152.88
663.409	11150.17
663.76	11180.45
664.11	11152.88
664.461	11115.37
664.811	11145.2
665.161	11151.08
665.511	11076.73
665.862	11147.69
666.212	11200.79
666.562	11245.99
666.912	11208.25
667.262	11131.42
667.612	11166.9
667.962	11179.1
668.312	11179.1
668.662	11201.25
669.011	11145.43
669.361	11167.12
669.711	11135.26
670.06	11133.9
670.41	11100.91
670.76	11139.55
671.109	11149.95
671.459	11127.57
671.808	11107.01
672.157	11114.24
672.507	11082.15
672.856	11043.74
673.205	11115.37
673.554	11130.29
673.904	11077.63
674.253	11151.98
674.602	11073.56
674.951	10967.58
675.3	10883.74
675.649	11056.16
675.998	11016.39
676.346	11040.12
676.695	11086.45
677.044	10899.78
677.393	11033.34
677.741	11015.04
678.09	10976.62
678.438	10893.91
678.787	10921.93
679.135	10989.05
679.484	10857.53
679.832	10875.15
680.181	10843.74
680.529	10898.2
680.877	10827.92
681.225	10836.51
681.573	10859.33
681.922	10759
682.27	10708.15
682.618	10784.08
682.966	10670.64
683.314	10711.77
683.661	10622.5
684.009	10637.87
684.357	10661.37
684.705	10616.18
685.053	10580.02
685.4	10636.51
685.748	10520.81
686.095	10528.72
686.443	10449.85
686.79	10487.59
687.138	10465.9
687.485	10495.73
687.832	10414.83
688.18	10395.16
688.527	10288.73
688.874	10406.01
689.221	10392.9
689.568	10345.22
689.915	10341.38
690.262	10280.14
690.609	10256.64
690.956	10173.7
691.303	10154.94
691.65	10107.04
691.997	10109.75
692.344	10038.56
692.69	9983.88
693.037	10052.12
693.383	9918.79
693.73	9989.07
694.077	9895.29
694.423	9898.23
694.769	9830.21
695.116	9843.09
695.462	9812.58
695.808	9769.87
696.155	9756.99
696.501	9693.04
696.847	9701.4
697.193	9591.57
697.539	9599.25
697.885	9469.31
698.231	9526.49
698.577	9461.4
698.923	9552.7
699.269	9477.67
699.614	9383.89
699.96	9364.91
700.306	9383.89
700.651	9323.78
700.997	9230.9
701.342	9250.11
701.688	9267.06
702.033	9213.95
702.379	9159.72
702.724	9129.44
703.069	9161.98
703.415	9009.66
703.76	8988.42
704.105	8999.27
704.45	8948.2
704.795	8962.43
705.14	8915.66
705.485	8856.9
705.83	8907.29
706.175	8860.29
706.52	8801.76
706.865	8747.75
707.209	8830.23
707.554	8690.12
707.899	8758.37
708.243	8704.81
708.588	8673.85
708.932	8572.84
709.277	8578.94
709.621	8630.47
709.966	8523.58
710.31	8567.64
710.654	8437.25
710.998	8493.29
711.342	8486.97
711.687	8473.41
712.031	8487.87
712.375	8381.88
712.719	8415.56
713.063	8349.57
713.407	8430.02
713.75	8385.5
714.094	8343.24
714.438	8270.47
714.782	8311.83
715.125	8315.22
715.469	8315.9
715.812	8324.48
716.156	8196.8
716.499	8229.12
716.843	8270.7
717.186	8168.78
717.53	8210.82
717.873	8165.62
718.216	8249.46
718.559	8171.04
718.902	8023.93
719.246	8134.88
719.589	8057.6
719.932	8119.29
720.275	8066.64
720.617	8064.83
720.96	8137.82
721.303	8064.6
721.646	8035.9
721.989	8013.31
722.331	8046.75
722.674	8022.35
723.016	8079.52
723.359	8030.93
723.701	8016.92
724.044	7953.19
724.386	7953.19
724.729	8025.96
725.071	7949.81
725.413	7973.31
725.755	7969.24
726.097	7944.61
726.439	7857.15
726.782	7845.85
727.124	7903.93
727.465	7932.86
727.807	7930.6
728.149	7903.03
728.491	7900.77
728.833	7864.38
729.175	7838.4
729.516	7838.17
729.858	7867.1
730.199	7886.3
730.541	7895.57
730.882	7816.7
731.224	7862.35
731.565	7797.04
731.906	7828.45
732.248	7882.69
732.589	7868.45
732.93	7858.06
733.271	7848.11
733.612	7753.2
733.953	7845.63
734.294	7816.7
734.635	7865.97
734.976	7826.42
735.317	7815.12
735.658	7845.63
735.999	7812.18
736.339	7881.56
736.68	7920.2
737.021	7821.45
737.361	7823.93
737.702	7931.05
738.042	7867.32
738.383	7892.41
738.723	7871.84
739.063	7830.71
739.404	7904.38
739.744	7884.04
740.084	7955.91
740.424	7960.2
740.764	7985.06
741.104	8016.47
741.444	7962.46
741.784	7999.52
742.124	7951.61
742.464	7953.87
742.804	8081.78
743.143	8048.11
743.483	8002.23
743.823	8056.69
744.162	8086.52
744.502	8136.92
744.841	8152.74
745.181	8190.48
745.52	8210.14
745.86	8190.25
746.199	8247.42
746.538	8289.01
746.877	8323.58
747.216	8376.23
747.556	8414.65
747.895	8467.31
748.234	8509.79
748.573	8481.54
748.911	8611.26
749.25	8688.09
749.589	8650.8
749.928	8754.53
750.267	8831.82
750.605	8935.09
750.944	8979.61
751.283	8997.91
751.621	9177.12
751.96	9186.16
752.298	9335.98
752.636	9328.98
752.975	9439.71
753.313	9535.07
753.651	9701.4
753.989	9710.21
754.327	9844.67
754.666	9873.6
755.004	10017.32
755.342	10203.98
755.679	10262.06
756.017	10394.26
756.355	10547.7
756.693	10576.63
757.031	10793.12
757.368	10838.99
757.706	10997.18
758.044	11182.94
758.381	11339.32
758.719	11496.38
759.056	11639.2
759.394	11822.92
759.731	11834.67
760.068	12026.76
760.405	12151.5
760.743	12328.9
761.08	12551.94
761.417	12594.65
761.754	12743.13
762.091	13020.18
762.428	13112.61
762.765	13229.44
763.102	13455.65
763.438	13560.28
763.775	13666.72
764.112	13908.29
764.449	14044.11
764.785	14158.91
765.122	14264.22
765.458	14433.25
765.795	14528.84
766.131	14686.35
766.467	14880.24
766.804	15007.92
767.14	15059.22
767.476	15338.09
767.812	15326.56
768.148	15468.7
768.485	15653.33
768.821	15735.36
769.157	15894
769.492	15933.1
769.828	16234.56
770.164	16055.13
770.5	16177.84
770.836	16391.62
771.171	16458.51
771.507	16529.47
771.842	16576.92
772.178	16673.42
772.513	16804.26
772.849	16946.86
773.184	16902.79
773.519	16998.38
773.855	17013.75
774.19	17101.88
774.525	17286.73
774.86	17340.07
775.195	17415.54
775.53	17347.75
775.865	17307.75
776.2	17259.39
776.535	17416.45
776.87	17507.75
777.205	17411.25
777.539	17533.73
777.874	17577.12
778.209	17523.34
778.543	17649.89
778.878	17632.49
779.212	17662.77
779.547	17632.71
779.881	17799.26
780.215	17607.86
780.55	17761.52
780.884	17684.69
781.218	17789.32
781.552	17764.69
781.886	17755.42
782.22	17605.37
782.554	17709.32
782.888	17607.18
783.222	17610.12
783.556	17552.26
783.889	17604.92
784.223	17597.46
784.557	17657.35
784.89	17646.73
785.224	17646.73
785.557	17556.56
785.891	17522.66
786.224	17577.57
786.558	17515.66
786.891	17453.96
787.224	17425.94
787.557	17474.98
787.891	17436.79
788.224	17465.49
788.557	17457.35
788.89	17402.44
789.223	17432.95
789.556	17397.92
789.888	17336.22
790.221	17281.76
790.554	17188.88
790.887	17244.48
791.219	17172.84
791.552	17155.21
791.884	17112.05
792.217	17124.25
792.549	17072.96
792.882	16967.65
793.214	16985.95
793.546	16978.95
793.879	16902.79
794.211	16884.49
794.543	16912.73
794.875	16893.52
795.207	16849.68
795.539	16837.26
795.871	16847.42
796.203	16736.69
796.535	16660.76
796.867	16666.86
797.198	16665.96
797.53	16595.91
797.862	16513.65
798.193	16522.91
798.525	16406.76
798.856	16553.87
799.188	16385.06
799.519	16237.5
799.85	16245.86
800.182	16202.24
800.513	16233.2
800.844	16132.87
801.175	16256.48
801.506	16252.86
801.837	16091.51
802.168	15989.82
802.499	16081.34
802.83	15983.27
803.161	15922.7
803.491	15957.96
803.822	15937.39
804.153	15873.66
804.483	15708.25
804.814	15682.48
805.145	15698.98
805.475	15675.25
805.805	15674.8
806.136	15672.77
806.466	15560.23
806.796	15583.5
807.126	15420.8
807.457	15467.35
807.787	15433.45
808.117	15406.56
808.447	15331.53
808.777	15310.06
809.107	15313.68
809.436	15270.06
809.766	15273.45
810.096	15205.66
810.426	15101.71
810.755	15261.48
811.085	15148.26
811.414	15086.34
811.744	14997.76
812.073	15025.55
812.403	14979.68
812.732	14949.17
813.061	14890.41
813.39	14873.69
813.719	14878.44
814.049	14981.71
814.378	14869.85
814.707	14788.5
815.036	14772
815.365	14699.91
815.693	14626.69
816.022	14627.82
816.351	14583.75
816.68	14517.99
817.008	14529.75
817.337	14489.97
817.665	14379.92
817.994	14422.86
818.322	14419.47
818.651	14317.32
818.979	14268.28
819.307	14348.28
819.636	14402.29
819.964	14270.54
820.292	14372.91
820.62	14236.65
820.948	14190.54
821.276	14389.18
821.604	14305.34
821.932	14346.7
822.259	14215.63
822.587	14252.24
822.915	14200.26
823.243	14213.82
823.57	14198.91
823.898	14223.54
824.225	14162.3
824.553	14137.21
824.88	14178.34
825.207	14294.05
825.535	14166.82
825.862	14234.84
826.189	14203.43
826.516	14221.28
826.843	14233.26
827.17	14193.03
827.497	14267.83
827.824	14229.41
828.151	14250.88
828.478	14243.2
828.805	14348.96
829.131	14206.36
829.458	14241.39
829.785	14200.49
830.111	14186.25
830.438	14350.31
830.764	14211.11
831.09	14295.4
831.417	14182.64
831.743	14243.88
832.069	14283.88
832.395	14106.03
832.722	14209.98
833.048	14185.8
833.374	14212.69
833.7	14011.11
834.026	14123.65
834.351	14224.22
834.677	14095.41
835.003	14183.77
835.329	14153.26
835.654	14139.92
835.98	14045.46
836.306	14127.27
836.631	14002.3
836.956	14101.06
837.282	14066.71
837.607	13957.56
837.932	13925.69
838.258	13998.01
838.583	13976.99
838.908	13899.48
839.233	13915.3
839.558	13877.78
839.883	13889.31
840.208	13695.87
840.533	13837.33
840.858	13802.98
841.182	13796.43
841.507	13795.08
841.832	13730.44
842.156	13666.04
842.481	13618.58
842.805	13642.76
843.13	13594.18
843.454	13534.74
843.778	13588.07
844.103	13510.56
844.427	13458.59
844.751	13473.5
845.075	13459.49
845.399	13365.48
845.723	13255.65
846.047	13318.93
846.371	13215.43
846.695	13281.19
847.019	13136.11
847.343	13046.62
847.666	12999.16
847.99	13040.97
848.313	12880.75
848.637	12844.14
848.96	12836.91
849.284	12852.28
849.607	12681.88
849.931	12685.73
850.254	12612.06
850.577	12553.98
850.9	12410.93
851.223	12495.9
851.546	12359.18
851.869	12285.96
852.192	12346.75
852.515	12251.39
852.838	12196.25
853.161	12189.92
853.483	12157.38
853.806	12031.05
854.129	12075.8
854.451	12095.23
854.774	11952.64
855.096	11922.13
855.419	11879.42
855.741	11883.49
856.063	11797.84
856.385	11774.11
856.708	11763.26
857.03	11692.98
857.352	11682.14
857.674	11708.58
857.996	11584.29
858.318	11536.38
858.64	11649.37
858.961	11506.32
859.283	11446.89
859.605	11435.82
859.926	11419.09
860.248	11434.23
860.57	11286.44
860.891	11346.78
861.212	11232.88
861.534	11256.84
861.855	11218.87
862.176	11243.5
862.498	11247.8
862.819	11296.84
863.14	11168.93
863.461	11220.91
863.782	11027.01
864.103	11087.12
864.424	11057.52
864.745	11046.45
865.065	11037.63
865.386	10969.39
865.707	11010.29
866.027	11040.35
866.348	10937.52
866.668	10969.39
866.989	10938.88
867.309	10849.84
867.63	10914.25
867.95	10785.66
868.27	10734.82
868.59	10841.93
868.91	10753.57
869.23	10799.45
869.55	10760.35
869.87	10810.29
870.19	10678.09
870.51	10712.22
870.83	10707.92
871.15	10685.78
871.469	10644.42
871.789	10628.83
872.109	10661.6
872.428	10584.54
872.748	10607.59
873.067	10571.88
873.386	10563.52
873.706	10528.27
874.025	10512.45
874.344	10467.03
874.663	10454.37
874.982	10540.7
875.301	10473.13
875.62	10469.74
875.939	10445.33
876.258	10454.82
876.577	10352.91
876.896	10393.58
877.214	10319.01
877.533	10370.08
877.852	10288.27
878.17	10362.62
878.489	10270.42
878.807	10265
879.125	10280.14
879.444	10250.76
879.762	10166.47
880.08	10275.62
880.398	10164.89
880.716	10222.29
881.034	10095.29
881.352	10115.17
881.67	10079.01
881.988	10121.5
882.306	10060.94
882.624	10010.54
882.941	9999.24
883.259	9980.49
883.577	10017.1
883.894	9967.38
884.212	9912.69
884.529	9861.39
884.846	9959.92
885.164	9872.47
885.481	9795.63
885.798	9810.55
886.115	9781.17
886.432	9780.72
886.75	9696.43
887.067	9729.42
887.383	9645.35
887.7	9622.53
888.017	9674.28
888.334	9699.14
888.651	9611.91
888.967	9582.98
889.284	9520.61
889.6	9512.25
889.917	9476.09
890.233	9486.71
890.55	9472.02
890.866	9398.81
891.182	9383.21
891.498	9343.67
891.815	9349.54
892.131	9267.06
892.447	9277.68
892.763	9264.12
893.079	9230
893.395	9168.53
893.71	9164.24
894.026	9168.3
894.342	9122.66
894.657	9008.31
894.973	9022.09
895.289	9037.01
895.604	8955.43
895.92	8894.19
896.235	8954.75
896.55	8944.13
896.865	8889.89
897.181	8863.45
897.496	8879.72
897.811	8772.61
898.126	8712.95
898.441	8729.67
898.756	8679.96
899.071	8590.92
899.386	8661.42
899.7	8599.05
900.015	8551.15
900.33	8481.32
900.644	8506.85
900.959	8451.94
901.273	8462.33
901.588	8406.52
901.902	8368.78
902.216	8288.78
902.531	8348.66
902.845	8250.14
903.159	8257.82
903.473	8250.59
903.787	8106.64
904.101	8168.33
904.415	8137.37
904.729	8104.83
905.042	8096.02
905.356	8008.33
905.67	8017.83
905.984	7980.76
906.297	8013.31
906.611	7959.07
906.924	7896.25
907.237	7837.27
907.551	7859.64
907.864	7781.67
908.177	7770.15
908.491	7729.02
908.804	7761.56
909.117	7607.44
909.43	7640.89
909.743	7585.97
910.056	7595.92
910.368	7574
910.681	7533.54
910.994	7456.94
911.307	7472.98
911.619	7400.89
911.932	7388.24
912.244	7367.22
912.557	7369.93
912.869	7267.56
913.181	7298.3
913.494	7262.14
913.806	7187.57
914.118	7171.97
914.43	7122.03
914.742	7116.83
915.054	7068.02
915.366	7075.93
915.678	7046.78
915.99	6977.4
916.302	6982.82
916.613	6933.79
916.925	6907.57
917.236	6892.43
917.548	6840.46
917.859	6841.59
918.171	6769.72
918.482	6779.67
918.794	6770.85
919.105	6700.35
919.416	6680.69
919.727	6670.97
920.038	6638.2
920.349	6602.5
920.66	6595.49
920.971	6593
921.282	6564.3
921.593	6547.36
921.903	6478.88
922.214	6496.06
922.525	6459
922.835	6432.1
923.146	6358.66
923.456	6326.12
923.767	6311.88
924.077	6316.63
924.387	6239.12
924.697	6284.54
925.008	6212
925.318	6165.45
925.628	6199.79
925.938	6075.05
926.248	6099.23
926.558	6074.83
926.867	6063.3
927.177	6079.35
927.487	6025.56
927.796	5991.66
928.106	5915.96
928.416	5910.08
928.725	5933.59
929.034	5904.89
929.344	5915.06
929.653	5885.23
929.962	5772.01
930.271	5765.68
930.581	5774.72
930.89	5752.12
931.199	5723.87
931.508	5711.67
931.817	5719.36
932.125	5700.6
932.434	5653.37
932.743	5581.28
933.051	5571.56
933.36	5530.89
933.669	5551
933.977	5486.82
934.286	5498.57
934.594	5513.71
934.902	5449.53
935.21	5455.41
935.519	5388.97
935.827	5357.78
936.135	5357.56
936.443	5316.88
936.751	5303.32
937.059	5303.55
937.367	5308.07
937.674	5273.49
937.982	5238.46
938.29	5196.43
938.597	5198.24
938.905	5141.74
939.213	5101.29
939.52	5107.39
939.827	5102.42
940.135	5072.82
940.442	5047.96
940.749	5061.29
941.056	5048.64
941.363	4993.5
941.67	5001.18
941.977	4949.21
942.284	4889.77
942.591	4938.58
942.898	4894.52
943.205	4859.72
943.511	4836.21
943.818	4851.13
944.125	4782.88
944.431	4813.84
944.738	4807.51
945.044	4783.11
945.35	4715.99
945.657	4703.11
945.963	4706.05
946.269	4666.05
946.575	4624.47
946.881	4657.46
947.187	4611.59
947.493	4591.48
947.799	4579.95
948.105	4540.63
948.41	4564.81
948.716	4543.12
949.022	4497.24
949.327	4484.59
949.633	4426.51
949.938	4405.49
950.244	4418.6
950.549	4399.39
950.854	4394.87
951.16	4347.64
951.465	4366.17
951.77	4281.65
952.075	4267.19
952.38	4278.26
952.685	4293.86
952.99	4246.4
953.294	4211.37
953.599	4246.85
953.904	4203.46
954.209	4159.4
954.513	4151.03
954.818	4122.79
955.122	4102.45
955.426	4081.43
955.731	4083.01
956.035	4076.01
956.339	4079.85
956.643	4018.84
956.948	4006.63
957.252	3987.65
957.556	3973.86
957.86	3976.35
958.163	3915.56
958.467	3952.17
958.771	3950.59
959.075	3897.93
959.378	3865.17
959.682	3846.18
959.985	3847.09
960.289	3825.85
960.592	3805.06
960.896	3787.88
961.199	3763.47
961.502	3760.99
961.805	3760.76
962.108	3722.8
962.411	3729.58
962.714	3723.93
963.017	3690.93
963.32	3683.02
963.623	3679.18
963.926	3658.62
964.228	3615.91
964.531	3599.86
964.833	3619.07
965.136	3593.99
965.438	3554.21
965.741	3519.41
966.043	3511.5
966.345	3480.09
966.648	3487.1
966.95	3471.5
967.252	3457.95
967.554	3422.24
967.856	3464.27
968.158	3431.96
968.46	3431.28
968.761	3415.01
969.063	3392.18
969.365	3355.58
969.666	3393.54
969.968	3321.45
970.269	3285.75
970.571	3304.5
970.872	3311.73
971.174	3246.2
971.475	3219.08
971.776	3281.45
972.077	3257.73
972.378	3257.95
972.679	3211.85
972.98	3178.63
973.281	3189.7
973.582	3165.75
973.883	3179.08
974.183	3156.71
974.484	3113.1
974.785	3066.77
975.085	3081.46
975.386	3108.12
975.686	3056.15
975.986	3039.2
976.287	3011.63
976.587	3026.54
976.887	3012.53
977.187	3032.65
977.487	3012.99
977.787	2946.55
978.087	2995.59
978.387	2936.83
978.687	2961.01
978.987	2935.47
979.286	2893.89
979.586	2921.46
979.885	2892.08
980.185	2846.44
980.484	2842.37
980.784	2827.45
981.083	2828.58
981.382	2819.09
981.682	2773.44
981.981	2805.31
982.28	2796.95
982.579	2773.9
982.878	2760.79
983.177	2728.7
983.475	2711.3
983.774	2725.54
984.073	2708.14
984.372	2683.73
984.67	2712.65
984.969	2709.26
985.267	2663.84
985.566	2643.5
985.864	2648.48
986.162	2615.71
986.461	2591.98
986.759	2597.4
987.057	2563.51
987.355	2623.17
987.653	2580.45
987.951	2533
988.249	2560.57
988.547	2535.26
988.844	2492.1
989.142	2520.12
989.44	2506.33
989.737	2508.37
990.035	2478.31
990.332	2477.18
990.63	2453.9
990.927	2424.3
991.224	2455.26
991.521	2412.32
991.819	2412.1
992.116	2397.18
992.413	2383.85
992.71	2409.61
993.006	2390.4
993.303	2372.32
993.6	2349.05
993.897	2317.64
994.193	2336.39
994.49	2309.73
994.787	2335.04
995.083	2297.75
995.379	2262.27
995.676	2250.52
995.972	2263.4
996.268	2233.57
996.565	2257.75
996.861	2242.38
997.157	2226.57
997.453	2180.92
997.749	2182.27
998.044	2214.14
998.34	2180.69
998.636	2153.8
998.932	2146.79
999.227	2124.87
999.523	2121.03
999.818	2108.6
1000.114	2083.07
1000.409	2076.29
1000.704	2075.16
1001	2072.67
1001.295	2039
1001.59	2015.95
1001.885	2025.67
1002.18	2011.2
1002.475	2021.6
1002.77	1998.78
1003.065	2025.67
1003.359	1986.57
1003.654	1963.07
1003.949	1952
1004.243	1980.92
1004.538	1938.66
1004.832	1953.13
1005.127	1938.89
1005.421	1920.36
1005.715	1914.26
1006.009	1903.86
1006.304	1892.11
1006.598	1828.84
1006.892	1847.59
1007.186	1815.5
1007.48	1859.8
1007.773	1833.36
1008.067	1792.9
1008.361	1782.51
1008.655	1771.44
1008.948	1735.73
1009.242	1799.01
1009.535	1747.71
1009.829	1741.61
1010.122	1733.7
1010.415	1715.17
1010.708	1698.67
1011.001	1699.35
1011.295	1723.98
1011.588	1698.9
1011.881	1683.76
1012.173	1659.58
1012.466	1639.46
1012.759	1647.15
1013.052	1638.78
1013.344	1652.12
1013.637	1640.82
1013.93	1635.85
1014.222	1594.27
1014.514	1602.63
1014.807	1609.86
1015.099	1589.07
1015.391	1565.34
1015.683	1582.51
1015.976	1558.56
1016.268	1527.15
1016.56	1525.12
1016.851	1489.18
1017.143	1504.55
1017.435	1484.66
1017.727	1506.13
1018.018	1488.51
1018.31	1476.75
1018.602	1486.25
1018.893	1465
1019.185	1461.16
1019.476	1448.51
1019.767	1452.12
1020.058	1420.03
1020.35	1402.63
1020.641	1402.41
1020.932	1401.28
1021.223	1386.36
1021.514	1375.06
1021.804	1361.96
1022.095	1352.01
1022.386	1349.75
1022.677	1329.41
1022.967	1351.33
1023.258	1336.19
1023.548	1297.55
1023.839	1320.37
1024.129	1260.26
1024.419	1272.01
1024.709	1268.85
1025	1255.97
1025.29	1242.86
1025.58	1235.86
1025.87	1239.93
1026.16	1250.77
1026.449	1221.17
1026.739	1193.82
1027.029	1202.19
1027.319	1190.66
1027.608	1177.33
1027.898	1187.5
1028.187	1175.07
1028.477	1179.14
1028.766	1181.4
1029.055	1161.06
1029.344	1131
1029.634	1142.53
1029.923	1141.4
1030.212	1121.06
1030.501	1141.62
1030.79	1108.4
1031.078	1099.14
1031.367	1121.51
1031.656	1101.62
1031.945	1078.35
1032.233	1092.13
1032.522	1075.86
1032.81	1073.15
1033.099	1059.36
1033.387	1045.13
1033.675	1030.21
1033.963	1064.11
1034.251	1030.66
1034.54	1012.59
1034.828	1026.37
1035.116	1017.56
1035.403	1004.23
1035.691	992.25
1035.979	1001.97
1036.267	972.81
1036.554	975.3
1036.842	985.24
1037.129	973.94
1037.417	966.49
1037.704	952.47
1037.992	953.6
1038.279	944.57
1038.566	948.63
1038.853	948.63
1039.14	948.63
