Data from hue_180_FLMS001491_00095.txt Node
Date: Tue Feb 07 16:47:44 GMT 2017
User: dcchb
Spectrometer: FLMS00149
Trigger mode: 0
Integration Time (sec): 2.000000E-2
Scans to average: 10
Electric dark correction enabled: true
Nonlinearity correction enabled: false
Boxcar width: 0
XAxis mode: Wavelengths
Number of Pixels in Spectrum: 2048
>>>>>Begin Spectral Data<<<<<
341.393	-23.26
341.776	-23.26
342.16	-23.26
342.543	-61.68
342.927	-84.05
343.31	-81.57
343.693	-36.14
344.077	-59.87
344.46	-79.08
344.843	-50.15
345.226	-17.39
345.61	-26.2
345.993	-2.47
346.376	-31.4
346.759	4.08
347.142	36.4
347.525	45.89
347.908	50.18
348.291	62.84
348.674	75.04
349.057	109.84
349.44	119.78
349.823	134.02
350.206	154.13
350.588	213.34
350.971	212.21
351.354	211.76
351.737	237.97
352.119	256.73
352.502	251.76
352.884	275.26
353.267	276.39
353.65	295.83
354.032	289.95
354.414	273.91
354.797	280.46
355.179	308.48
355.562	315.71
355.944	331.53
356.326	299.44
356.709	339.44
357.091	342.6
357.473	322.04
357.855	331.08
358.238	341.7
358.62	336.95
359.002	327.01
359.384	347.35
359.766	333.56
360.148	343.96
360.53	335.82
360.912	316.39
361.294	334.92
361.676	337.63
362.057	338.08
362.439	321.81
362.821	315.49
363.203	291.31
363.584	314.81
363.966	329.5
364.348	313.9
364.729	305.77
365.111	305.54
365.493	308.71
365.874	310.74
366.256	307.35
366.637	304.86
367.019	303.51
367.4	312.1
367.781	298.31
368.163	300.57
368.544	290.18
368.925	314.13
369.306	310.74
369.688	301.25
370.069	290.4
370.45	308.93
370.831	298.99
371.212	327.01
371.593	322.27
371.974	311.87
372.355	302.61
372.736	310.74
373.117	306.22
373.498	309.38
373.879	313.23
374.26	316.16
374.641	321.59
375.021	290.18
375.402	298.99
375.783	301.93
376.163	312.77
376.544	299.22
376.925	324.07
377.305	308.03
377.686	307.35
378.066	326.33
378.447	325.88
378.827	326.56
379.208	300.35
379.588	302.61
379.968	340.8
380.349	336.73
380.729	351.42
381.109	323.17
381.489	323.62
381.87	329.27
382.25	343.51
382.63	326.56
383.01	328.82
383.39	335.6
383.77	333.34
384.15	338.08
384.53	359.55
384.91	340.8
385.29	341.02
385.67	328.59
386.049	351.87
386.429	332.89
386.809	334.92
387.189	362.49
387.568	350.29
387.948	355.26
388.328	344.86
388.707	369.27
389.087	333.79
389.466	361.81
389.846	359.55
390.225	365.43
390.605	338.31
390.984	374.24
391.363	363.17
391.743	376.05
392.122	353.68
392.501	368.37
392.881	357.74
393.26	357.52
393.639	372.43
394.018	355.71
394.397	367.91
394.776	369.04
395.155	369.04
395.534	364.75
395.913	357.07
396.292	383.05
396.671	398.42
397.05	384.41
397.429	380.12
397.808	395.48
398.186	371.98
398.565	388.03
398.944	382.15
399.323	387.35
399.701	391.19
400.08	403.62
400.458	402.72
400.837	389.61
401.215	395.48
401.594	403.62
401.972	413.34
402.351	421.25
402.729	413.79
403.107	412.21
403.486	393.68
403.864	402.49
404.242	414.01
404.62	425.09
404.999	435.71
405.377	431.64
405.755	451.08
406.133	454.24
406.511	423.05
406.889	470.96
407.267	461.02
407.645	445.43
408.023	463.05
408.401	466.44
408.779	470.74
409.156	478.19
409.534	483.84
409.912	499.66
410.29	498.98
410.667	483.39
411.045	498.08
411.422	508.02
411.8	511.87
412.178	537.63
412.555	541.69
412.933	525.2
413.31	526.1
413.687	532.2
414.065	540.56
414.442	569.26
414.819	563.39
415.197	583.73
415.574	586.89
415.951	626.44
416.328	611.07
416.705	602.71
417.082	618.08
417.46	625.08
417.837	617.4
418.214	621.69
418.591	599.55
418.967	638.87
419.344	655.82
419.721	646.55
420.098	665.08
420.475	674.8
420.852	673.89
421.228	705.98
421.605	695.14
421.982	722.93
422.358	734.68
422.735	736.72
423.111	752.31
423.488	755.7
423.864	753.67
424.241	771.07
424.617	792.76
424.994	796.6
425.37	803.16
425.746	803.83
426.123	814.91
426.499	832.76
426.875	830.27
427.251	848.81
427.627	882.25
428.003	857.62
428.379	887.45
428.756	898.3
429.132	913.44
429.507	910.27
429.883	906.88
430.259	947.79
430.635	952.31
431.011	954.34
431.387	969.71
431.763	965.41
432.138	992.08
432.514	981.68
432.89	1004.96
433.265	1028.46
433.641	1063.26
434.016	1055.35
434.392	1086.09
434.767	1095.13
435.143	1110.95
435.518	1117.5
435.894	1144.39
436.269	1161.11
436.644	1177.84
437.02	1180.55
437.395	1207.67
437.77	1223.03
438.145	1225.07
438.52	1236.82
438.895	1255.35
439.271	1294.22
439.646	1342.8
440.021	1324.05
440.395	1331.05
440.77	1349.13
441.145	1352.75
441.52	1371.28
441.895	1392.07
442.27	1389.36
442.645	1393.42
443.019	1439.52
443.394	1437.04
443.769	1466.19
444.143	1450.15
444.518	1490.82
444.892	1488.34
445.267	1481.78
445.641	1515.68
446.016	1549.58
446.39	1535.34
446.764	1571.95
447.139	1546.64
447.513	1582.57
447.887	1581.44
448.262	1603.81
448.636	1609.01
449.01	1614.66
449.384	1656.47
449.758	1661.21
450.132	1672.51
450.506	1691.5
450.88	1674.77
451.254	1675.22
451.628	1717.03
452.002	1753.87
452.376	1732.4
452.75	1796.8
453.123	1820.76
453.497	1844.26
453.871	1813.98
454.244	1869.34
454.618	1885.61
454.992	1896.91
455.365	1877.03
455.739	1939.85
456.112	2010.58
456.486	1994.09
456.859	2014.88
457.232	2018.49
457.606	2034.76
457.979	2066.4
458.352	2092.84
458.725	2154.53
459.099	2120.41
459.472	2167.41
459.845	2169
460.218	2213.06
460.591	2258.94
460.964	2270.24
461.337	2282.21
461.71	2333.06
462.083	2415.09
462.456	2418.93
462.829	2396.34
463.201	2466.39
463.574	2454.41
463.947	2520.4
464.32	2566.27
464.692	2580.96
465.065	2599.04
465.438	2650.34
465.81	2680.4
466.183	2742.31
466.555	2799.94
466.928	2755.42
467.3	2829.77
467.672	2882.88
468.045	2945.25
468.417	2962.42
468.789	2955.87
469.161	3015.75
469.534	3075.87
469.906	3142.76
470.278	3161.51
470.65	3223.43
471.022	3260.72
471.394	3340.04
471.766	3381.62
472.138	3411.45
472.51	3501.17
472.882	3603.76
473.253	3631.78
473.625	3641.27
473.997	3741.16
474.369	3741.61
474.74	3846.47
475.112	3933.24
475.484	3959.68
475.855	4071.77
476.227	4096.86
476.598	4228.6
476.97	4256.17
477.341	4386.11
477.713	4444.42
478.084	4501.14
478.455	4605.54
478.827	4644.86
479.198	4785.65
479.569	4803.28
479.94	4988.13
480.311	5034.46
480.682	5206.2
481.053	5267.67
481.424	5370.27
481.795	5423.83
482.166	5529.13
482.537	5586.53
482.908	5699.53
483.279	5879.86
483.65	5942
484.021	6038.27
484.391	6129.8
484.762	6210.25
485.133	6273.97
485.503	6347.64
485.874	6557.13
486.244	6538.83
486.615	6732.04
486.985	6836.44
487.356	6977.91
487.726	6931.36
488.097	7144.69
488.467	7204.8
488.837	7346.26
489.207	7451.57
489.578	7632.58
489.948	7716.87
490.318	7810.43
490.688	7863.31
491.058	8004.55
491.428	8052.46
491.798	8168.39
492.168	8374.94
492.538	8437.53
492.908	8452.22
493.278	8621.26
493.648	8573.12
494.017	8754.59
494.387	8784.64
494.757	8875.26
495.126	8939.21
495.496	9021.25
495.866	9129.94
496.235	9206.33
496.605	9232.09
496.974	9269.15
497.344	9410.61
497.713	9418.07
498.082	9503.72
498.452	9564.28
498.821	9649.03
499.19	9645.41
499.559	9729.48
499.928	9815.58
500.298	9827.55
500.667	9991.39
501.036	9908.23
501.405	10024.84
501.774	10015.34
502.143	10139.63
502.512	10129.92
502.88	10185.96
503.249	10195.45
503.618	10208.56
503.987	10316.13
504.356	10395.9
504.724	10345.05
505.093	10399.51
505.462	10432.51
505.83	10519.96
506.199	10543.69
506.567	10655.78
506.936	10624.59
507.304	10781.2
507.672	10737.36
508.041	10750.47
508.409	10849.22
508.777	10937.13
509.145	10903
509.514	10856.68
509.882	10888.54
510.25	10915.21
510.618	10962.44
510.986	10950.69
511.354	11015.77
511.722	11040.85
512.09	11108.2
512.458	11173.51
512.826	11223.9
513.193	11154.52
513.561	11204.01
513.929	11318.81
514.297	11328.76
514.664	11361.3
515.032	11369.21
515.4	11452.37
515.767	11380.96
516.135	11403.56
516.502	11276.55
516.869	11482.42
517.237	11459.6
517.604	11370.11
517.972	11496.66
518.339	11553.83
518.706	11467.96
519.073	11428.87
519.44	11565.81
519.808	11559.94
520.175	11568.52
520.542	11696.2
520.909	11676.32
521.276	11665.7
521.643	11697.33
522.009	11668.18
522.376	11719.48
522.743	11727.84
523.11	11724.9
523.477	11862.75
523.843	11797.22
524.21	11844.45
524.577	11906.37
524.943	11926.93
525.31	11836.31
525.676	11957.89
526.043	11888.52
526.409	11920.6
526.776	12039.02
527.142	11978.23
527.508	11997.44
527.874	12003.31
528.241	11949.3
528.607	11945.46
528.973	11986.59
529.339	11994.05
529.705	11932.36
530.071	11993.15
530.437	11977.78
530.803	11938.23
531.169	11982.52
531.535	11963.77
531.901	11901.62
532.267	11842.41
532.632	11880.83
532.998	11804.22
533.364	11873.37
533.73	11788.4
534.095	11800.61
534.461	11719.93
534.826	11832.92
535.192	11771.91
535.557	11796.09
535.923	11665.47
536.288	11662.31
536.653	11676.32
537.019	11624.34
537.384	11579.14
537.749	11574.63
538.114	11491.69
538.479	11508.19
538.845	11484.68
539.21	11325.82
539.575	11433.16
539.94	11364.91
540.305	11333.28
540.67	11289.66
541.034	11140.51
541.399	11202.88
541.764	11169.44
542.129	11119.95
542.494	11081.76
542.858	11081.76
543.223	10998.59
543.587	10984.13
543.952	10951.14
544.316	10935.32
544.681	10843.34
545.045	10816.68
545.41	10894.87
545.774	10896.68
546.138	10750.01
546.503	10662.11
546.867	10725.38
547.231	10731.26
547.595	10591.15
547.959	10689.22
548.324	10576.91
548.688	10516.35
549.052	10416.92
549.416	10383.02
549.779	10381.44
550.143	10315.22
550.507	10258.95
550.871	10272.06
551.235	10226.64
551.599	10246.3
551.962	10167.66
552.326	10094.89
552.689	10155.68
553.053	10086.98
553.417	10005.17
553.78	10134.21
554.143	10018.73
554.507	10025.29
554.87	9925.85
555.234	9991.62
555.597	9861.68
555.96	9899.64
556.323	9779.19
556.686	9843.82
557.05	9813.99
557.413	9792.53
557.776	9757.5
558.139	9741
558.502	9784.16
558.865	9721.11
559.228	9728.8
559.59	9752.3
559.953	9707.56
560.316	9715.01
560.679	9718.63
561.041	9731.28
561.404	9679.76
561.767	9704.62
562.129	9609.03
562.492	9756.14
562.854	9661
563.217	9655.13
563.579	9737.39
563.941	9657.84
564.304	9627.56
564.666	9685.64
565.028	9626.88
565.39	9644.51
565.753	9603.6
566.115	9691.96
566.477	9675.69
566.839	9682.02
567.201	9713.43
567.563	9714.11
567.925	9686.31
568.287	9770.6
568.648	9675.69
569.01	9671.17
569.372	9715.24
569.734	9735.13
570.095	9758.85
570.457	9746.42
570.819	9696.48
571.18	9720.66
571.542	9748.91
571.903	9673.66
572.265	9739.19
572.626	9728.57
572.987	9689.25
573.349	9721.34
573.71	9717.27
574.071	9796.59
574.432	9706.2
574.794	9776.93
575.155	9723.15
575.516	9695.35
575.877	9693.77
576.238	9727.67
576.599	9756.82
576.96	9748.46
577.32	9712.3
577.681	9741.23
578.042	9768.12
578.403	9699.87
578.763	9668.46
579.124	9770.6
579.485	9694.22
579.845	9741.23
580.206	9697.61
580.566	9685.41
580.927	9771.06
581.287	9738.06
581.648	9706.2
582.008	9717.27
582.368	9666.2
582.728	9726.09
583.089	9693.77
583.449	9661
583.809	9682.25
584.169	9702.13
584.529	9659.65
584.889	9712.08
585.249	9641.57
585.609	9628.24
585.969	9629.14
586.329	9656.71
586.688	9634.79
587.048	9569.48
587.408	9564.96
587.768	9546.2
588.127	9515.7
588.487	9562.7
588.846	9573.32
589.206	9531.06
589.565	9518.63
589.925	9514.11
590.284	9493.32
590.643	9493.78
591.003	9516.37
591.362	9507.56
591.721	9480.67
592.08	9477.28
592.44	9453.55
592.799	9506.88
593.158	9454
593.517	9469.6
593.876	9448.35
594.235	9380.11
594.593	9483.15
594.952	9474.79
595.311	9357.73
595.67	9394.34
596.029	9500.56
596.387	9428.24
596.746	9393.89
597.104	9387.56
597.463	9363.84
597.822	9434.12
598.18	9349.82
598.538	9348.24
598.897	9401.12
599.255	9300.56
599.613	9458.07
599.972	9376.49
600.33	9367.45
600.688	9330.62
601.046	9388.69
601.404	9381.91
601.762	9338.53
602.12	9336.27
602.478	9409.71
602.836	9416.72
603.194	9340.79
603.552	9314.57
603.91	9281.8
604.268	9298.98
604.625	9331.52
604.983	9312.99
605.341	9337.62
605.698	9259.21
606.056	9284.29
606.413	9338.53
606.771	9294.46
607.128	9349.6
607.485	9314.35
607.843	9272.99
608.2	9428.24
608.557	9319.32
608.914	9287.23
609.272	9437.28
609.629	9349.37
609.986	9374
610.343	9355.7
610.7	9380.78
611.057	9386.21
611.414	9321.35
611.771	9400.9
612.127	9399.99
612.484	9380.56
612.841	9418.75
613.198	9381.01
613.554	9472.99
613.911	9475.47
614.267	9449.94
614.624	9405.64
614.98	9407.68
615.337	9449.26
615.693	9481.35
616.05	9436.38
616.406	9489.71
616.762	9452.42
617.118	9457.17
617.475	9419.43
617.831	9442.7
618.187	9450.16
618.543	9512.53
618.899	9520.44
619.255	9466.66
619.611	9492.19
619.967	9576.71
620.323	9590.95
620.678	9532.87
621.034	9439.54
621.39	9424.4
621.746	9441.12
622.101	9597.05
622.457	9501.01
622.812	9547.56
623.168	9479.09
623.523	9527
623.879	9554.11
624.234	9486.32
624.589	9516.83
624.945	9533.1
625.3	9534.23
625.655	9519.76
626.01	9531.51
626.365	9488.35
626.72	9516.37
627.075	9556.37
627.43	9514.11
627.785	9519.76
628.14	9562.02
628.495	9557.5
628.85	9476.38
629.205	9522.48
629.559	9472.08
629.914	9492.19
630.269	9472.31
630.623	9471.86
630.978	9422.82
631.332	9446.09
631.687	9493.1
632.041	9340.56
632.396	9381.91
632.75	9441.12
633.104	9378.07
633.459	9390.05
633.813	9343.05
634.167	9333.55
634.521	9285.65
634.875	9348.24
635.229	9298.53
635.583	9295.59
635.937	9324.06
636.291	9270.05
636.645	9265.08
636.999	9200.68
637.352	9225.76
637.706	9197.74
638.06	9213.11
638.413	9254.91
638.767	9175.82
639.121	9212.65
639.474	9145.31
639.828	9133.11
640.181	9193.67
640.534	9196.38
640.888	9153.45
641.241	9084.3
641.594	9162.49
641.947	9164.07
642.301	9006.56
642.654	9112.09
643.007	9179.89
643.36	9147.12
643.713	9099.89
644.066	9064.41
644.419	9075.48
644.771	8944.19
645.124	8969.04
645.477	8916.16
645.83	8858.09
646.182	8852.66
646.535	8817.41
646.888	8806.34
647.24	8768.6
647.593	8835.94
647.945	8773.34
648.298	8735.83
648.65	8748.03
649.002	8702.38
649.355	8799.56
649.707	8788.94
650.059	8866.9
650.411	8933.56
650.763	8889.5
651.115	8966.33
651.467	8972.21
651.819	8978.31
652.171	9031.19
652.523	9019.44
652.875	8945.09
653.227	8871.65
653.578	8970.17
653.93	8960.68
654.282	8920.91
654.633	8924.53
654.985	8943.28
655.337	9003.39
655.688	9007.46
656.039	9001.36
656.391	8938.54
656.742	8940.57
657.094	8955.03
657.445	8973.79
657.796	8943.28
658.147	8981.47
658.498	9025.77
658.849	8961.81
659.2	8996.84
659.551	9041.13
659.902	9023.51
660.253	8929.04
660.604	9001.36
660.955	8974.02
661.306	9037.29
661.656	8993.22
662.007	8998.42
662.358	9045.88
662.708	9028.03
663.059	9056.5
663.409	9012.21
663.76	9034.35
664.11	9033
664.461	9044.52
664.811	9029.83
665.161	9064.41
665.511	9044.07
665.862	9083.62
666.212	9093.79
666.562	9045.43
666.912	9044.97
667.262	9074.35
667.612	9075.03
667.962	9096.05
668.312	9046.78
668.662	9080.45
669.011	9027.12
669.361	9009.72
669.711	9036.39
670.06	9008.82
670.41	9056.27
670.76	9015.37
671.109	9028.48
671.459	8988.48
671.808	8984.41
672.157	9053.79
672.507	8955.94
672.856	8962.49
673.205	8965.88
673.554	8948.25
673.904	8899.89
674.253	9055.37
674.602	8954.35
674.951	8821.25
675.3	8767.24
675.649	8874.58
675.998	8828.03
676.346	8885.88
676.695	8883.85
677.044	8821.25
677.393	8847.69
677.741	8860.35
678.09	8869.16
678.438	8811.53
678.787	8850.4
679.135	8867.35
679.484	8735.6
679.832	8815.38
680.181	8743.51
680.529	8758.65
680.877	8736.06
681.225	8713.68
681.573	8797.97
681.922	8717.3
682.27	8741.48
682.618	8711.42
682.966	8595.04
683.314	8689.96
683.661	8606.57
684.009	8653.35
684.357	8560.69
684.705	8538.77
685.053	8572.44
685.4	8564.53
685.748	8523.86
686.095	8536.06
686.443	8485.44
686.79	8449.28
687.138	8504.88
687.485	8499.23
687.832	8397.76
688.18	8387.82
688.527	8342.39
688.874	8413.13
689.221	8360.25
689.568	8301.26
689.915	8267.82
690.262	8217.65
690.609	8188.73
690.956	8194.37
691.303	8204.77
691.65	8087.26
691.997	8147.82
692.344	8007.26
692.69	8056.98
693.037	8038.22
693.383	7961.61
693.73	7981.27
694.077	7970.65
694.423	7978.34
694.769	7961.16
695.116	7838
695.462	7845.91
695.808	7902.86
696.155	7893.37
696.501	7801.16
696.847	7758.23
697.193	7762.3
697.539	7771.11
697.885	7653.6
698.231	7634.84
698.577	7581.28
698.923	7566.82
699.269	7508.97
699.614	7539.48
699.96	7477.11
700.306	7478.91
700.651	7419.48
700.997	7410.67
701.342	7397.79
701.688	7376.09
702.033	7351.91
702.379	7322.76
702.724	7327.73
703.069	7303.55
703.415	7228.98
703.76	7224.23
704.105	7227.62
704.45	7205.93
704.795	7044.12
705.14	7070.11
705.485	7102.2
705.83	7080.73
706.175	7061.75
706.52	7021.52
706.865	7026.27
707.209	6988.3
707.554	6934.07
707.899	6953.05
708.243	6859.04
708.588	6864.69
708.932	6891.13
709.277	6805.03
709.621	6881.87
709.966	6808.2
710.31	6821.76
710.654	6734.07
710.998	6737.46
711.342	6817.69
711.687	6721.42
712.031	6717.35
712.375	6705.83
712.719	6692.72
713.063	6661.08
713.407	6665.83
713.75	6632.61
714.094	6642.1
714.438	6637.13
714.782	6593.74
715.125	6586.06
715.469	6580.41
715.812	6593.97
716.156	6508.77
716.499	6543.34
716.843	6559.84
717.186	6470.13
717.53	6485.72
717.873	6478.26
718.216	6500.86
718.559	6445.49
718.902	6410.02
719.246	6473.29
719.589	6431.03
719.932	6366.4
720.275	6419.28
720.617	6486.62
720.96	6414.31
721.303	6399.17
721.646	6388.32
721.989	6371.37
722.331	6411.82
722.674	6405.04
723.016	6412.95
723.359	6384.93
723.701	6372.05
724.044	6311.49
724.386	6313.52
724.729	6342.9
725.071	6365.04
725.413	6318.49
725.755	6306.06
726.097	6330.92
726.439	6274.88
726.782	6269
727.124	6282.56
727.465	6264.71
727.807	6297.7
728.149	6254.99
728.491	6242.79
728.833	6301.77
729.175	6216.8
729.516	6340.86
729.858	6276.69
730.199	6236.91
730.541	6257.25
730.882	6272.39
731.224	6281.2
731.565	6260.64
731.906	6227.87
732.248	6233.07
732.589	6272.39
732.93	6251.83
733.271	6236.23
733.612	6233.52
733.953	6258.38
734.294	6213.86
734.635	6250.02
734.976	6246.18
735.317	6235.78
735.658	6250.92
735.999	6261.09
736.339	6241.43
736.68	6332.95
737.021	6354.42
737.361	6266.97
737.702	6326.63
738.042	6261.77
738.383	6241.21
738.723	6334.08
739.063	6313.97
739.404	6393.07
739.744	6299.06
740.084	6336.34
740.424	6343.12
740.764	6349.9
741.104	6381.99
741.444	6400.75
741.784	6393.97
742.124	6434.2
742.464	6432.16
742.804	6415.66
743.143	6447.98
743.483	6498.6
743.823	6473.06
744.162	6530.01
744.502	6600.07
744.841	6549.45
745.181	6574.08
745.52	6660.4
745.86	6677.58
746.199	6727.52
746.538	6751.48
746.877	6794.19
747.216	6833.28
747.556	6861.3
747.895	6930.45
748.234	6909.66
748.573	6935.2
748.911	7020.85
749.25	7078.25
749.589	7096.32
749.928	7184.46
750.267	7287.28
750.605	7281.18
750.944	7351.01
751.283	7472.59
751.621	7478.69
751.96	7618.34
752.298	7729.75
752.636	7760.26
752.975	7795.52
753.313	7918.9
753.651	8042.74
753.989	8153.92
754.327	8267.14
754.666	8333.58
755.004	8381.94
755.342	8580.13
755.679	8740.35
756.017	8798.88
756.355	8866.45
756.693	9040
757.031	9196.61
757.368	9315.7
757.706	9420.78
758.044	9548.92
758.381	9663.94
758.719	9820.09
759.056	10005.4
759.394	10066.64
759.731	10243.59
760.068	10395
760.405	10515.67
760.743	10607.64
761.08	10836.57
761.417	10907.98
761.754	11138.25
762.091	11324.01
762.428	11512.93
762.765	11632.7
763.102	11740.5
763.438	11855.07
763.775	12032.24
764.112	12275.62
764.449	12433.81
764.785	12558.1
765.122	12740.47
765.458	12750.87
765.795	12987.24
766.131	13116.96
766.467	13267.69
766.804	13459.32
767.14	13519.88
767.476	13730.5
767.812	13801.69
768.148	13964.84
768.485	14067.21
768.821	14141.79
769.157	14292.75
769.492	14440.76
769.828	14594.88
770.164	14681.89
770.5	14754.88
770.836	14879.4
771.171	14974.76
771.507	15010.92
771.842	15042.33
772.178	15234.87
772.513	15344.7
772.849	15431.02
773.184	15457.23
773.519	15618.81
773.855	15595.54
774.19	15615.42
774.525	15638.47
774.86	15937.9
775.195	15897
775.53	15908.3
775.865	16012.93
776.2	15907.84
776.535	15975.19
776.87	16136.54
777.205	16122.08
777.539	16219.93
777.874	16186.03
778.209	16176.31
778.543	16251.11
778.878	16256.31
779.212	16324.1
779.547	16338.12
779.881	16414.5
780.215	16362.75
780.55	16488.85
780.884	16421.28
781.218	16394.84
781.552	16500.6
781.886	16460.15
782.22	16433.03
782.554	16416.98
782.888	16366.36
783.222	16403.88
783.556	16323.43
783.889	16342.86
784.223	16327.72
784.557	16438.68
784.89	16428.96
785.224	16329.08
785.557	16347.38
785.891	16376.76
786.224	16367.49
786.558	16426.93
786.891	16248.17
787.224	16204.11
787.557	16297.89
787.891	16263.54
788.224	16234.84
788.557	16264.22
788.89	16347.38
789.223	16363.2
789.556	16199.81
789.888	16282.75
790.221	16188.97
790.554	16076.43
790.887	16147.61
791.219	16146.71
791.552	16084.56
791.884	16045.02
792.217	16000.5
792.549	15895.42
792.882	15915.75
793.214	15884.79
793.546	15828.07
793.879	15765.7
794.211	15852.7
794.543	15833.72
794.875	15726.15
795.207	15796.89
795.539	15719.6
795.871	15746.94
796.203	15589.66
796.535	15646.83
796.867	15560.73
797.198	15487.74
797.53	15513.28
797.862	15456.56
798.193	15489.1
798.525	15355.09
798.856	15457.91
799.188	15210.69
799.519	15298.59
799.85	15238.03
800.182	15315.54
800.513	15254.08
800.844	15115.77
801.175	15230.12
801.506	15191.25
801.837	15087.98
802.168	15126.4
802.499	15023.35
802.83	14881.43
803.161	14927.76
803.491	15012.95
803.822	14962.11
804.153	14774.09
804.483	14764.82
804.814	14824.48
805.145	14762.11
805.475	14748.78
805.805	14732.06
806.136	14708.1
806.466	14726.18
806.796	14631.27
807.126	14545.17
807.457	14539.52
807.787	14526.64
808.117	14487.77
808.447	14463.14
808.777	14464.04
809.107	14447.54
809.436	14335.46
809.766	14303.37
810.096	14250.26
810.426	14277.6
810.755	14322.12
811.085	14203.03
811.414	14143.6
811.744	14082.13
812.073	14108.57
812.403	14065.63
812.732	14026.76
813.061	14038.52
813.39	13936.82
813.719	13928.01
814.049	14000.32
814.378	13860.89
814.707	13880.55
815.036	13917.39
815.365	13845.3
815.693	13698.86
816.022	13712.65
816.351	13723.72
816.68	13623.61
817.008	13685.98
817.337	13638.98
817.665	13634.23
817.994	13606.44
818.322	13580.22
818.651	13531.41
818.979	13543.84
819.307	13572.31
819.636	13488.47
819.964	13426.55
820.292	13500
820.62	13542.03
820.948	13375.48
821.276	13389.49
821.604	13440.34
821.932	13452.54
822.259	13462.71
822.587	13392.66
822.915	13431.3
823.243	13423.16
823.57	13329.16
823.898	13439.66
824.225	13372.54
824.553	13390.4
824.88	13429.27
825.207	13411.86
825.535	13421.81
825.862	13408.02
826.189	13431.07
826.516	13389.49
826.843	13475.14
827.17	13427.91
827.497	13510.39
827.824	13493.9
828.151	13488.25
828.478	13520.11
828.805	13472.43
829.131	13486.21
829.458	13483.73
829.785	13429.27
830.111	13476.04
830.438	13442.37
830.764	13380.91
831.09	13494.35
831.417	13419.1
831.743	13409.83
832.069	13434.92
832.395	13385.2
832.722	13455.03
833.048	13391.53
833.374	13393.56
833.7	13255.71
834.026	13407.12
834.351	13459.77
834.677	13331.64
835.003	13342.49
835.329	13368.25
835.654	13304.98
835.98	13233.11
836.306	13226.78
836.631	13257.52
836.956	13277.41
837.282	13260.68
837.607	13182.94
837.932	13198.99
838.258	13227.69
838.583	13132.32
838.908	13085.55
839.233	13093
839.558	13051.65
839.883	13085.55
840.208	12996.06
840.533	13017.52
840.858	12982.5
841.182	13010.29
841.507	13053.23
841.832	12923.29
842.156	12864.99
842.481	12894.14
842.805	12787.25
843.13	12841.94
843.454	12883.52
843.778	12775.5
844.103	12752.45
844.427	12684.65
844.751	12728.94
845.075	12672.22
845.399	12638.1
845.723	12620.02
846.047	12563.98
846.371	12507.93
846.695	12509.97
847.019	12348.39
847.343	12363.08
847.666	12280.82
847.99	12201.5
848.313	12235.62
848.637	12147.27
848.96	12173.48
849.284	12132.58
849.607	11909.98
849.931	11867.5
850.254	11928.51
850.577	11819.36
850.9	11781.63
851.223	11831.79
851.546	11747.28
851.869	11646.04
852.192	11672.93
852.515	11547.51
852.838	11495.98
853.161	11510.67
853.483	11455.76
853.806	11422.09
854.129	11373.05
854.451	11362.88
854.774	11291.24
855.096	11288.08
855.419	11217.12
855.741	11180.29
856.063	11126.28
856.385	11135.31
856.708	11163.79
857.03	11092.83
857.352	11024.36
857.674	11048.31
857.996	11033.17
858.318	10940.52
858.64	10906.39
858.961	10810.35
859.283	10869.33
859.605	10762.44
859.926	10831.14
860.248	10807.19
860.57	10682.9
860.891	10710.24
861.212	10606.29
861.534	10687.19
861.855	10584.59
862.176	10631.37
862.498	10579.62
862.819	10599.51
863.14	10504.82
863.461	10490.81
863.782	10454.43
864.103	10570.36
864.424	10437.25
864.745	10424.6
865.065	10423.02
865.386	10366.75
865.707	10361.55
866.027	10398.61
866.348	10333.3
866.668	10345.5
866.989	10299.18
867.309	10287.2
867.63	10311.83
867.95	10256.92
868.27	10256.47
868.59	10225.73
868.91	10221.89
869.23	10149.8
869.55	10127.43
869.87	10249.91
870.19	10075.91
870.51	10119.07
870.83	10195.23
871.15	10063.25
871.469	10055.79
871.789	10145.96
872.109	10144.15
872.428	10042.46
872.748	10102.35
873.067	10038.85
873.386	10028.9
873.706	10009.24
874.025	9891.51
874.344	9952.97
874.663	9934.67
874.982	9931.5
875.301	9890.6
875.62	9912.97
875.939	9868.23
876.258	9856.7
876.577	9776.93
876.896	9830.94
877.214	9776.48
877.533	9781.45
877.852	9797.5
878.17	9847.21
878.489	9782.58
878.807	9720.21
879.125	9700.32
879.444	9668.91
879.762	9638.18
880.08	9712.98
880.398	9623.04
880.716	9601.34
881.034	9604.51
881.352	9642.92
881.67	9552.53
881.988	9531.06
882.306	9506.43
882.624	9543.04
882.941	9521.35
883.259	9440.44
883.577	9433.66
883.894	9399.09
884.212	9415.81
884.529	9388.02
884.846	9343.27
885.164	9291.52
885.481	9304.63
885.798	9278.64
886.115	9192.31
886.432	9239.55
886.75	9182.15
887.067	9277.74
887.383	9214.69
887.7	9193.9
888.017	9116.38
888.334	9111.86
888.651	9112.77
888.967	9084.07
889.284	9006.56
889.6	8972.66
889.917	9052.88
890.233	8894.92
890.55	8935.6
890.866	8947.58
891.182	8895.6
891.498	8865.54
891.815	8849.5
892.131	8808.14
892.447	8718.88
892.763	8722.27
893.079	8748.26
893.395	8582.61
893.71	8696.28
894.026	8669.39
894.342	8606.57
894.657	8562.27
894.973	8541.48
895.289	8498.32
895.604	8538.55
895.92	8467.59
896.235	8403.18
896.55	8420.36
896.865	8379.68
897.181	8411.77
897.496	8347.59
897.811	8337.65
898.126	8267.82
898.441	8228.72
898.756	8239.12
899.071	8170.65
899.386	8176.52
899.7	8032.8
900.015	8044.1
900.33	7998
900.644	8040.03
900.959	7992.57
901.273	7976.08
901.588	7956.42
901.902	7859.02
902.216	7855.17
902.531	7852.46
902.845	7850.66
903.159	7802.29
903.473	7671.22
903.787	7750.32
904.101	7673.71
904.415	7648.85
904.729	7704.44
905.042	7597.55
905.356	7560.72
905.67	7569.31
905.984	7592.36
906.297	7515.3
906.611	7471
906.924	7474.85
907.237	7408.41
907.551	7379.03
907.864	7305.36
908.177	7388.29
908.491	7310.78
908.804	7262.65
909.117	7229.65
909.43	7205.47
909.743	7169.54
910.056	7148.53
910.368	7083.44
910.681	7107.85
910.994	7077.34
911.307	7075.99
911.619	7043.9
911.932	7004.12
912.244	6979.04
912.557	6962.77
912.869	6914.18
913.181	6803.9
913.494	6898.36
913.806	6819.95
914.118	6807.52
914.43	6727.52
914.742	6749.89
915.054	6713.96
915.366	6654.08
915.678	6628.99
915.99	6590.8
916.302	6620.63
916.613	6538.37
916.925	6531.82
917.236	6556.45
917.548	6514.19
917.859	6553.51
918.171	6426.51
918.482	6406.17
918.794	6341.77
919.105	6376.8
919.416	6297.7
919.727	6319.62
920.038	6294.09
920.349	6284.59
920.66	6282.33
920.971	6230.13
921.282	6183.58
921.593	6204.82
921.903	6162.79
922.214	6102.9
922.525	6078.05
922.835	6028.33
923.146	6030.36
923.456	6012.06
923.767	5970.48
924.077	6003.7
924.387	5974.55
924.697	5916.92
925.008	5911.27
925.318	5892.06
925.628	5854.32
925.938	5777.72
926.248	5753.31
926.558	5777.26
926.867	5784.95
927.177	5744.72
927.487	5692.52
927.796	5664.05
928.106	5624.27
928.416	5648.68
928.725	5616.82
929.034	5571.39
929.344	5550.15
929.653	5564.16
929.962	5515.8
930.271	5450.04
930.581	5419.76
930.89	5442.36
931.199	5402.13
931.508	5394.67
931.817	5358.07
932.125	5394.67
932.434	5362.58
932.743	5283.04
933.051	5260.67
933.36	5203.95
933.669	5266.99
933.977	5272.42
934.286	5275.36
934.594	5238.29
934.902	5186.77
935.21	5156.26
935.519	5165.53
935.827	5139.99
936.135	5096.6
936.443	5103.61
936.751	5047.34
937.059	5045.31
937.367	4994.23
937.674	4983.39
937.982	4975.48
938.29	4925.99
938.597	4935.48
938.905	4887.12
939.213	4894.12
939.52	4889.6
939.827	4878.53
940.135	4829.94
940.442	4803.5
940.749	4761.24
941.056	4784.3
941.363	4699.55
941.67	4700.91
941.977	4679.21
942.284	4669.5
942.591	4685.54
942.898	4650.97
943.205	4580.01
943.511	4572.78
943.818	4622.27
944.125	4558.31
944.431	4570.29
944.738	4516.05
945.044	4505.88
945.35	4483.74
945.657	4462.72
945.963	4440.58
946.269	4420.24
946.575	4433.12
946.881	4383.4
947.187	4360.13
947.493	4332.1
947.799	4315.61
948.105	4277.64
948.41	4320.35
948.716	4267.02
949.022	4252.11
949.327	4278.09
949.633	4237.19
949.938	4195.84
950.244	4180.7
950.549	4168.04
950.854	4146.12
951.16	4138.21
951.465	4133.01
951.77	4146.57
952.075	4083.07
952.38	4061.6
952.685	4071.32
952.99	3999.01
953.294	4024.77
953.599	4008.95
953.904	3958.55
954.209	3978.21
954.513	3958.55
954.818	3930.76
955.122	3906.58
955.426	3918.56
955.731	3881.04
956.035	3873.81
956.339	3848.73
956.643	3802.85
956.948	3828.16
957.252	3815.73
957.556	3780.93
957.86	3736.64
958.163	3746.36
958.467	3738.45
958.771	3714.04
959.075	3730.31
959.378	3673.14
959.682	3676.08
959.985	3681.27
960.289	3654.38
960.592	3634.27
960.896	3609.18
961.199	3556.08
961.502	3625.68
961.805	3581.84
962.108	3547.49
962.411	3523.76
962.714	3516.31
963.017	3526.7
963.32	3494.84
963.623	3464.56
963.926	3470.88
964.228	3486.93
964.531	3447.61
964.833	3418.23
965.136	3392.24
965.438	3386.82
965.741	3401.51
966.043	3363.99
966.345	3388.17
966.648	3349.98
966.95	3345.01
967.252	3297.1
967.554	3292.58
967.856	3307.05
968.158	3221.4
968.46	3249.19
968.761	3242.19
969.063	3213.94
969.365	3214.62
969.666	3187.95
969.968	3181.63
970.269	3148.41
970.571	3131.68
970.872	3127.62
971.174	3101.4
971.475	3104.57
971.776	3111.34
972.077	3094.17
972.378	3064.57
972.679	3023.66
972.98	3051.91
973.281	3032.48
973.582	3014.85
973.883	2996.09
974.183	2937.11
974.484	2974.63
974.785	2977.11
975.085	2958.35
975.386	2967.62
975.686	2895.76
975.986	2903.89
976.287	2903.67
976.587	2850.56
976.887	2879.94
977.187	2882.65
977.487	2849.2
977.787	2836.32
978.087	2792.48
978.387	2824.12
978.687	2795.65
978.987	2759.26
979.286	2777.12
979.586	2784.57
979.885	2752.71
980.185	2719.49
980.484	2737.57
980.784	2723.78
981.083	2691.24
981.382	2686.27
981.682	2691.69
981.981	2653.05
982.28	2639.27
982.579	2626.39
982.878	2633.62
983.177	2595.43
983.475	2612.6
983.774	2601.08
984.073	2601.3
984.372	2573.05
984.67	2580.74
984.969	2592.49
985.267	2548.42
985.566	2524.69
985.864	2522.66
986.162	2499.84
986.461	2517.01
986.759	2484.47
987.057	2464.81
987.355	2477.46
987.653	2434.75
987.951	2480.4
988.249	2420.52
988.547	2417.58
988.844	2436.79
989.142	2371.03
989.44	2417.35
989.737	2372.16
990.035	2372.38
990.332	2336
990.63	2368.99
990.927	2329.9
991.224	2321.08
991.521	2298.26
991.819	2286.06
992.116	2279.05
992.413	2265.72
992.71	2266.62
993.006	2240.63
993.303	2232.72
993.6	2226.4
993.897	2234.53
994.193	2228.88
994.49	2222.33
994.787	2199.05
995.083	2209.9
995.379	2158.15
995.676	2169
995.972	2149.11
996.268	2140.75
996.565	2125.83
996.861	2136.68
997.157	2133.07
997.453	2098.72
997.749	2088.32
998.044	2100.75
998.34	2068.43
998.636	2078.38
998.932	2057.59
999.227	2042.67
999.523	2028.66
999.818	2026.85
1000.114	2025.5
1000.409	1994.99
1000.704	1999.06
1001	1946.4
1001.295	1926.29
1001.59	1927.87
1001.885	1952.73
1002.18	1926.74
1002.475	1894.65
1002.77	1905.05
1003.065	1899.17
1003.359	1895.56
1003.654	1875.45
1003.949	1869.12
1004.243	1843.81
1004.538	1839.06
1004.832	1819.4
1005.127	1835.22
1005.421	1781.21
1005.715	1797.71
1006.009	1796.8
1006.304	1771.49
1006.598	1787.31
1006.892	1747.76
1007.186	1759.06
1007.48	1732.62
1007.773	1743.02
1008.067	1710.7
1008.361	1741.66
1008.655	1738.95
1008.948	1700.76
1009.242	1701.21
1009.535	1653.53
1009.829	1673.42
1010.122	1657.82
1010.415	1647.43
1010.708	1658.28
1011.001	1631.61
1011.295	1626.86
1011.588	1615.56
1011.881	1600.2
1012.173	1604.72
1012.466	1594.77
1012.759	1585.06
1013.052	1597.03
1013.344	1550.71
1013.637	1563.36
1013.93	1538.73
1014.222	1532.18
1014.514	1535.57
1014.807	1503.03
1015.099	1506.19
1015.391	1520.2
1015.683	1500.54
1015.976	1481.78
1016.268	1495.57
1016.56	1492.18
1016.851	1444.5
1017.143	1439.52
1017.435	1442.46
1017.727	1425.06
1018.018	1435.46
1018.31	1432.29
1018.602	1429.36
1018.893	1388.68
1019.185	1371.73
1019.476	1343.93
1019.767	1372.18
1020.058	1373.76
1020.35	1371.96
1020.641	1335.35
1020.932	1341.45
1021.223	1329.92
1021.514	1315.23
1021.804	1296.48
1022.095	1320.66
1022.386	1305.97
1022.677	1261.45
1022.967	1270.94
1023.258	1241.11
1023.548	1253.99
1023.839	1262.58
1024.129	1271.17
1024.419	1223.26
1024.709	1225.29
1025	1190.04
1025.29	1185.07
1025.58	1199.76
1025.87	1162.7
1026.16	1184.62
1026.449	1186.88
1026.739	1172.64
1027.029	1179.19
1027.319	1144.39
1027.608	1170.38
1027.898	1137.16
1028.187	1146.2
1028.477	1154.33
1028.766	1122.24
1029.055	1094.67
1029.344	1089.48
1029.634	1089.25
1029.923	1101.45
1030.212	1093.32
1030.501	1090.15
1030.79	1076.37
1031.078	1068.91
1031.367	1059.42
1031.656	1053.55
1031.945	1052.64
1032.233	1045.41
1032.522	1070.04
1032.81	1038.63
1033.099	998.63
1033.387	1028.01
1033.675	1023.49
1033.963	996.37
1034.251	995.92
1034.54	983.72
1034.828	965.86
1035.116	993.66
1035.403	955.7
1035.691	945.53
1035.979	962.93
1036.267	953.89
1036.554	945.53
1036.842	922.7
1037.129	944.62
1037.417	923.15
1037.704	922.7
1037.992	912.98
1038.279	893.32
1038.566	906.88
1038.853	906.88
1039.14	906.88
