Data from hue_180_FLMS001491_00023.txt Node
Date: Tue Feb 07 16:46:45 GMT 2017
User: dcchb
Spectrometer: FLMS00149
Trigger mode: 0
Integration Time (sec): 2.000000E-2
Scans to average: 10
Electric dark correction enabled: true
Nonlinearity correction enabled: false
Boxcar width: 0
XAxis mode: Wavelengths
Number of Pixels in Spectrum: 2048
>>>>>Begin Spectral Data<<<<<
341.393	-31.51
341.776	-31.51
342.16	-31.51
342.543	-67.67
342.927	-71.06
343.31	-79.64
343.693	-64.73
344.077	-77.61
344.46	-63.6
344.843	-31.74
345.226	-35.35
345.61	-22.92
345.993	-24.96
346.376	0.81
346.759	15.72
347.142	16.4
347.525	35.38
347.908	55.04
348.291	84.64
348.674	91.42
349.057	101.14
349.44	140.46
349.823	160.8
350.206	157.41
350.588	210.97
350.971	208.94
351.354	214.58
351.737	227.69
352.119	244.87
352.502	240.35
352.884	260.23
353.267	278.99
353.65	306.79
354.032	295.26
354.414	293.45
354.797	313.34
355.179	330.74
355.562	322.6
355.944	327.12
356.326	318.31
356.709	347.24
357.091	327.8
357.473	321.47
357.855	319.44
358.238	327.12
358.62	346.11
359.002	325.54
359.384	335.71
359.766	328.93
360.148	340.91
360.53	343.85
360.912	328.25
361.294	336.39
361.676	314.92
362.057	352.21
362.439	328.03
362.821	303.4
363.203	318.99
363.584	313.11
363.966	310.85
364.348	337.97
364.729	310.85
365.111	334.81
365.493	320.34
365.874	321.02
366.256	303.62
366.637	304.98
367.019	290.06
367.4	318.99
367.781	314.24
368.163	303.4
368.544	294.36
368.925	295.26
369.306	314.47
369.688	302.49
370.069	304.3
370.45	301.59
370.831	305.43
371.212	300.91
371.593	311.76
371.974	302.94
372.355	300.46
372.736	318.76
373.117	329.16
373.498	325.99
373.879	310.18
374.26	326.67
374.641	299.33
375.021	330.06
375.402	319.44
375.783	330.06
376.163	310.4
376.544	310.4
376.925	347.91
377.305	321.47
377.686	328.03
378.066	312.89
378.447	324.19
378.827	344.75
379.208	316.73
379.588	336.16
379.968	327.58
380.349	323.51
380.729	324.64
381.109	334.81
381.489	335.94
381.87	316.28
382.25	330.97
382.63	326.22
383.01	329.61
383.39	351.76
383.77	316.05
384.15	352.66
384.53	362.83
384.91	333.68
385.29	361.02
385.67	324.86
386.049	355.82
386.429	338.88
386.809	340.91
387.189	337.29
387.568	352.43
387.948	344.3
388.328	366.22
388.707	347.24
389.087	339.33
389.466	362.6
389.846	356.5
390.225	362.83
390.605	347.01
390.984	368.7
391.363	355.6
391.743	377.52
392.122	368.25
392.501	333.68
392.881	340.68
393.26	358.08
393.639	380
394.018	368.48
394.397	362.6
394.776	371.19
395.155	363.28
395.534	375.71
395.913	357.18
396.292	377.74
396.671	391.53
397.05	398.08
397.429	388.37
397.808	394.69
398.186	417.52
398.565	368.93
398.944	389.5
399.323	396.5
399.701	400.57
400.08	419.78
400.458	396.5
400.837	420.23
401.215	418.87
401.594	412.55
401.972	408.03
402.351	409.38
402.729	407.8
403.107	407.57
403.486	418.42
403.864	418.65
404.242	438.53
404.62	432.21
404.999	424.97
405.377	430.62
405.755	433.34
406.133	429.04
406.511	449.83
406.889	453.45
407.267	464.52
407.645	444.18
408.023	471.53
408.401	465.65
408.779	491.41
409.156	479.44
409.534	480.11
409.912	474.01
410.29	486.44
410.667	495.03
411.045	519.21
411.422	514.92
411.8	516.27
412.178	516.72
412.555	562.15
412.933	528.7
413.31	558.3
413.687	556.27
414.065	568.93
414.442	583.16
414.819	580.68
415.197	571.19
415.574	571.19
415.951	590.62
416.328	610.73
416.705	606.89
417.082	619.09
417.46	619.55
417.837	623.84
418.214	653.44
418.591	666.55
418.967	635.59
419.344	663.61
419.721	672.65
420.098	666.32
420.475	691.86
420.852	680.56
421.228	728.92
421.605	738.19
421.982	710.16
422.358	717.4
422.735	735.48
423.111	740.45
423.488	754.91
423.864	757.4
424.241	772.99
424.617	788.13
424.994	801.01
425.37	824.06
425.746	827.45
426.123	814.34
426.499	841.23
426.875	852.08
427.251	852.53
427.627	891.63
428.003	886.66
428.379	902.25
428.756	902.48
429.132	924.17
429.507	918.75
429.883	941.35
430.259	944.06
430.635	942.7
431.011	984.51
431.387	974.56
431.763	989.03
432.138	1016.37
432.514	1030.16
432.89	1048.91
433.265	1055.24
433.641	1069.48
434.016	1065.86
434.392	1111.74
434.767	1122.81
435.143	1130.72
435.518	1147.44
435.894	1158.74
436.269	1199.42
436.644	1210.49
437.02	1216.82
437.395	1237.16
437.77	1246.87
438.145	1271.05
438.52	1309.92
438.895	1324.39
439.271	1306.53
439.646	1372.52
440.021	1354.44
440.395	1403.25
440.77	1383.14
441.145	1386.53
441.52	1423.82
441.895	1401.22
442.27	1452.07
442.645	1424.27
443.019	1482.57
443.394	1481.9
443.769	1495.68
444.143	1499.97
444.518	1501.56
444.892	1556.92
445.267	1545.62
445.641	1556.47
446.016	1584.49
446.39	1574.32
446.764	1628.56
447.139	1605.73
447.513	1617.03
447.887	1639.63
448.262	1641.89
448.636	1649.35
449.01	1671.72
449.384	1669.24
449.758	1713.3
450.132	1737.93
450.506	1752.4
450.88	1773.64
451.254	1760.98
451.628	1798.5
452.002	1829.23
452.376	1829.91
452.75	1838.5
453.123	1829.01
453.497	1873.98
453.871	1909.46
454.244	1937.7
454.618	1926.18
454.992	1973.18
455.365	1982.9
455.739	2032.84
456.112	2037.81
456.486	2063.8
456.859	2100.64
457.232	2124.82
457.606	2121.43
457.979	2144.03
458.352	2188.77
458.725	2244.14
459.099	2238.94
459.472	2267.19
459.845	2270.8
460.218	2294.76
460.591	2351.03
460.964	2362.32
461.337	2397.13
461.71	2461.76
462.083	2447.97
462.456	2480.74
462.829	2538.59
463.201	2544.69
463.574	2536.56
463.947	2617.01
464.32	2654.07
464.692	2676.67
465.065	2717.34
465.438	2785.82
465.81	2804.35
466.183	2795.99
466.555	2855.42
466.928	2894.29
467.3	2942.42
467.672	2967.96
468.045	3090.67
468.417	3076.43
468.789	3091.35
469.161	3108.07
469.534	3192.13
469.906	3267.84
470.278	3293.83
470.65	3371.79
471.022	3392.13
471.394	3485.69
471.766	3532.01
472.138	3570.43
472.51	3643.42
472.882	3693.59
473.253	3746.92
473.625	3828.5
473.997	3844.32
474.369	3927.26
474.74	3968.84
475.112	4040.25
475.484	4103.52
475.855	4226.46
476.227	4222.61
476.598	4317.08
476.97	4431.65
477.341	4545.77
477.713	4624.64
478.084	4645.65
478.455	4771.08
478.827	4825.99
479.198	4959.54
479.569	4985.08
479.94	5173.55
480.311	5228.69
480.682	5365.86
481.053	5449.7
481.424	5527.89
481.795	5646.76
482.166	5738.06
482.537	5783.03
482.908	5930.59
483.279	6036.35
483.65	6153.64
484.021	6319.96
484.391	6381.2
484.762	6423.69
485.133	6528.32
485.503	6626.85
485.874	6761.76
486.244	6850.79
486.615	7046.04
486.985	7085.82
487.356	7204.68
487.726	7362.87
488.097	7457.11
488.467	7505.24
488.837	7688.29
489.207	7763.54
489.578	7926.25
489.948	8033.14
490.318	8122.85
490.688	8168.73
491.058	8312.22
491.428	8418.44
491.798	8482.16
492.168	8693.91
492.538	8724.42
492.908	8789.27
493.278	8952.21
493.648	8973.22
494.017	9108.59
494.387	9166.67
494.757	9253.44
495.126	9280.34
495.496	9338.64
495.866	9468.35
496.235	9546.77
496.605	9584.51
496.974	9659.53
497.344	9735.46
497.713	9751.96
498.082	9882.81
498.452	9975.91
498.821	9980.66
499.19	10083.25
499.559	10171.61
499.928	10143.36
500.298	10207.99
500.667	10369.57
501.036	10283.02
501.405	10319.18
501.774	10419.06
502.143	10433.53
502.512	10471.94
502.88	10584.26
503.249	10573.86
503.618	10595.78
503.987	10715.55
504.356	10685.27
504.724	10741.09
505.093	10852.72
505.462	10797.36
505.83	10927.52
506.199	10982.89
506.567	11010.01
506.936	11002.32
507.304	11125.03
507.672	11090.01
508.041	11157.8
508.409	11186.27
508.777	11306.04
509.145	11283.45
509.514	11236.89
509.882	11382.65
510.25	11326.83
510.618	11298.36
510.986	11359.15
511.354	11450
511.722	11433.05
512.09	11567.51
512.458	11533.61
512.826	11527.28
513.193	11635.3
513.561	11616.54
513.929	11668.29
514.297	11747.16
514.664	11774.51
515.032	11676.88
515.4	11775.86
515.767	11777.9
516.135	11849.31
516.502	11590.56
516.869	11927.05
517.237	11785.13
517.604	11783.32
517.972	11830.1
518.339	11866.03
518.706	11832.58
519.073	11762.53
519.44	11838.23
519.808	11867.84
520.175	11831.23
520.542	11999.36
520.909	12002.3
521.276	11953.26
521.643	12070.09
522.009	11943.32
522.376	12076.87
522.743	11993.26
523.11	12101.5
523.477	12150.54
523.843	12121.62
524.21	12103.99
524.577	12180.6
524.943	12183.76
525.31	12214.5
525.676	12206.13
526.043	12223.31
526.409	12261.95
526.776	12354.15
527.142	12306.02
527.508	12265.34
527.874	12284.1
528.241	12326.13
528.607	12232.35
528.973	12303.31
529.339	12181.95
529.705	12287.49
530.071	12305.11
530.437	12134.27
530.803	12233.03
531.169	12288.62
531.535	12174.72
531.901	12091.56
532.267	12184.44
532.632	12081.39
532.998	12100.37
533.364	12140.6
533.73	12109.87
534.095	12012.24
534.461	12015.63
534.826	12046.59
535.192	11923.88
535.557	11943.54
535.923	12003.88
536.288	11936.31
536.653	11961.39
537.019	11763.66
537.384	11748.97
537.749	11766.15
538.114	11678.46
538.479	11663.78
538.845	11613.16
539.21	11492.93
539.575	11514.17
539.94	11435.31
540.305	11450.45
540.67	11419.26
541.034	11407.51
541.399	11377
541.764	11380.62
542.129	11253.62
542.494	11255.2
542.858	11224.69
543.223	11214.07
543.587	11187.4
543.952	11061.31
544.316	11028.31
544.681	10993.51
545.045	10958.26
545.41	10931.59
545.774	10925.49
546.138	10834.87
546.503	10838.03
546.867	10736.79
547.231	10838.03
547.595	10722.11
547.959	10640.53
548.324	10605.95
548.688	10575.22
549.052	10515.78
549.416	10471.49
549.779	10448.89
550.143	10402.34
550.507	10420.87
550.871	10321.21
551.235	10236.92
551.599	10294.09
551.962	10222.91
552.326	10174.32
552.689	10154.44
553.053	10091.16
553.417	10058.62
553.78	10069.69
554.143	9980.88
554.507	10029.24
554.87	9949.02
555.234	9973.2
555.597	9956.25
555.96	9855.24
556.323	9911.96
556.686	9829.47
557.05	9880.55
557.413	9798.97
557.776	9776.82
558.139	9835.35
558.502	9763.94
558.865	9728.01
559.228	9730.94
559.59	9729.36
559.953	9678.29
560.316	9802.58
560.679	9669.48
561.041	9700.89
561.404	9657.73
561.767	9683.71
562.129	9579.08
562.492	9673.09
562.854	9645.52
563.217	9541.57
563.579	9580.21
563.941	9604.17
564.304	9596.94
564.666	9608.24
565.028	9642.36
565.39	9587.67
565.753	9630.38
566.115	9600.33
566.477	9589.71
566.839	9597.61
567.201	9586.77
567.563	9580.21
567.925	9675.8
568.287	9557.62
568.648	9619.99
569.01	9612.98
569.372	9657.05
569.734	9657.05
570.095	9672.42
570.457	9655.01
570.819	9631.29
571.18	9623.83
571.542	9600.55
571.903	9637.61
572.265	9622.25
572.626	9633.32
572.987	9601
573.349	9667.9
573.71	9613.43
574.071	9645.07
574.432	9657.05
574.794	9690.49
575.155	9618.41
575.516	9646.43
575.877	9609.82
576.238	9678.29
576.599	9683.04
576.96	9601.68
577.32	9589.03
577.681	9619.76
578.042	9640.33
578.403	9630.38
578.763	9633.77
579.124	9650.72
579.485	9624.51
579.845	9593.1
580.206	9612.76
580.566	9639.42
580.927	9509.48
581.287	9657.73
581.648	9558.29
582.008	9573.43
582.368	9555.58
582.728	9541.8
583.089	9516.71
583.449	9600.55
583.809	9515.13
584.169	9544.51
584.529	9516.26
584.889	9576.82
585.249	9476.71
585.609	9467.9
585.969	9465.41
586.329	9505.19
586.688	9475.13
587.048	9484.62
587.408	9374.8
587.768	9352.2
588.127	9356.27
588.487	9356.72
588.846	9431.29
589.206	9356.94
589.565	9375.02
589.925	9331.18
590.284	9319.2
590.643	9372.31
591.003	9355.59
591.362	9370.05
591.721	9333.67
592.08	9276.95
592.44	9396.72
592.799	9393.55
593.158	9320.56
593.517	9265.87
593.876	9311.29
594.235	9262.71
594.593	9271.3
594.952	9261.58
595.311	9224.52
595.67	9297.96
596.029	9301.13
596.387	9257.74
596.746	9286.21
597.104	9201.47
597.463	9237.62
597.822	9200.11
598.18	9226.78
598.538	9164.18
598.897	9260
599.255	9103.84
599.613	9285.08
599.972	9256.83
600.33	9209.83
600.688	9109.72
601.046	9206.44
601.404	9194.24
601.762	9203.05
602.12	9214.35
602.478	9200.79
602.836	9194.46
603.194	9101.13
603.552	9127.57
603.91	9142.26
604.268	9165.76
604.625	9079.66
604.983	9148.59
605.341	9113.33
605.698	9212.31
606.056	9184.97
606.413	9100.68
606.771	9152.65
607.128	9081.47
607.485	9176.61
607.843	9181.81
608.2	9144.97
608.557	9197.63
608.914	9172.54
609.272	9179.32
609.629	9208.25
609.986	9221.81
610.343	9177.06
610.7	9248.7
611.057	9236.27
611.414	9173.22
611.771	9167.57
612.127	9236.95
612.484	9192.2
612.841	9291.63
613.198	9230.17
613.554	9257.51
613.911	9238.53
614.267	9223.84
614.624	9219.32
614.98	9264.97
615.337	9328.24
615.693	9309.49
616.05	9241.69
616.406	9336.15
616.762	9359.66
617.118	9229.71
617.475	9351.07
617.831	9310.62
618.187	9329.6
618.543	9302.26
618.899	9404.17
619.255	9351.52
619.611	9296.38
619.967	9404.4
620.323	9312.42
620.678	9317.62
621.034	9303.39
621.39	9295.48
621.746	9328.92
622.101	9376.6
622.457	9337.51
622.812	9430.16
623.168	9389.26
623.523	9350.62
623.879	9371.86
624.234	9262.03
624.589	9332.76
624.945	9336.15
625.3	9253.67
625.655	9298.64
626.01	9299.77
626.365	9286.21
626.72	9290.73
627.075	9332.54
627.43	9321.46
627.785	9318.07
628.14	9260.22
628.495	9353.55
628.85	9271.52
629.205	9314.01
629.559	9339.09
629.914	9233.78
630.269	9249.6
630.623	9192.65
630.978	9217.96
631.332	9264.97
631.687	9236.95
632.041	9198.3
632.396	9229.49
632.75	9251.41
633.104	9229.04
633.459	9180.68
633.813	9170.28
634.167	9202.15
634.521	9129.6
634.875	9171.19
635.229	9126.67
635.583	8995.82
635.937	9099.55
636.291	9102.71
636.645	9098.64
636.999	9002.83
637.352	9059.32
637.706	9021.13
638.06	9109.72
638.413	9055.26
638.767	8947.24
639.121	8997.4
639.474	8963.51
639.828	8883.74
640.181	8968.7
640.534	8961.7
640.888	8962.15
641.241	8919.67
641.594	8921.25
641.947	8914.92
642.301	8911.08
642.654	8943.62
643.007	8963.51
643.36	8868.14
643.713	8921.7
644.066	8932.77
644.419	8874.24
644.771	8740.69
645.124	8723.51
645.477	8735.04
645.83	8618.43
646.182	8621.37
646.535	8648.26
646.888	8628.83
647.24	8583.4
647.593	8641.93
647.945	8640.58
648.298	8592.44
648.65	8604.87
649.002	8494.59
649.355	8632.44
649.707	8572.78
650.059	8653.01
650.411	8755.38
650.763	8752.21
651.115	8825.21
651.467	8789.73
651.819	8734.81
652.171	8801.03
652.523	8783.85
652.875	8772.33
653.227	8713.12
653.578	8882.83
653.93	8764.19
654.282	8715.38
654.633	8786.79
654.985	8741.59
655.337	8793.57
655.688	8823.85
656.039	8811.65
656.391	8755.6
656.742	8751.99
657.094	8873.34
657.445	8830.63
657.796	8844.41
658.147	8819.33
658.498	8847.35
658.849	8818.43
659.2	8877.63
659.551	8895.94
659.902	8852.55
660.253	8827.47
660.604	8883.06
660.955	8814.13
661.306	8816.62
661.656	8879.89
662.007	8847.8
662.358	8857.07
662.708	8874.47
663.059	8883.96
663.409	8833.79
663.76	8868.14
664.11	8834.7
664.461	8908.37
664.811	8953.34
665.161	8915.15
665.511	8814.13
665.862	8911.31
666.212	8916.05
666.562	8871.98
666.912	8860.91
667.262	8852.1
667.612	8897.75
667.962	8937.29
668.312	8886
668.662	8880.35
669.011	8887.58
669.361	8861.82
669.711	8869.27
670.06	8867.01
670.41	8869.5
670.76	8843.28
671.109	8894.58
671.459	8877.18
671.808	8859.56
672.157	8802.16
672.507	8820.91
672.856	8806.68
673.205	8809.16
673.554	8866.79
673.904	8835.15
674.253	8822.95
674.602	8867.46
674.951	8739.56
675.3	8626.79
675.649	8814.36
675.998	8742.5
676.346	8763.06
676.695	8807.58
677.044	8696.62
677.393	8747.69
677.741	8753.57
678.09	8716.28
678.438	8681.25
678.787	8695.94
679.135	8670.63
679.484	8616.85
679.832	8626.57
680.181	8600.35
680.529	8625.44
680.877	8646
681.225	8574.59
681.573	8528.72
681.922	8583.18
682.27	8481.03
682.618	8551.54
682.966	8532.78
683.314	8498.66
683.661	8479.23
684.009	8407.36
684.357	8412.56
684.705	8429.96
685.053	8506.57
685.4	8405.1
685.748	8345.44
686.095	8337.54
686.443	8354.03
686.79	8285.11
687.138	8319.23
687.485	8325.11
687.832	8287.59
688.18	8279.23
688.527	8208.27
688.874	8248.95
689.221	8123.3
689.568	8143.64
689.915	8154.94
690.262	8110.87
690.609	8092.34
690.956	8050.54
691.303	8100.25
691.65	8034.49
691.997	7959.92
692.344	7908.62
692.69	7895.74
693.037	7891.22
693.383	7830.88
693.73	7904.55
694.077	7841.28
694.423	7810.32
694.769	7718.12
695.116	7697.1
695.462	7705.91
695.808	7727.61
696.155	7670.21
696.501	7566.71
696.847	7640.15
697.193	7551.57
697.539	7629.76
697.885	7532.36
698.231	7501.62
698.577	7460.27
698.923	7462.76
699.269	7382.08
699.614	7414.4
699.96	7364.45
700.306	7338.69
700.651	7286.26
700.997	7257.34
701.342	7295.08
701.688	7237.68
702.033	7203.33
702.379	7208.75
702.724	7213.04
703.069	7149.32
703.415	7054.4
703.76	7082.2
704.105	7059.83
704.45	6993.62
704.795	6949.32
705.14	6978.25
705.485	6918.59
705.83	6940.28
706.175	6921.98
706.52	6915.65
706.865	6877.91
707.209	6786.16
707.554	6782.55
707.899	6826.61
708.243	6791.13
708.588	6748.42
708.932	6747.29
709.277	6710.69
709.621	6686.28
709.966	6634.98
710.31	6663.23
710.654	6625.72
710.998	6618.48
711.342	6586.39
711.687	6570.8
712.031	6613.51
712.375	6549.56
712.719	6538.03
713.063	6547.75
713.407	6598.82
713.75	6450.35
714.094	6479.73
714.438	6478.6
714.782	6506.85
715.125	6432.73
715.469	6409.68
715.812	6367.87
716.156	6375.33
716.499	6397.47
716.843	6385.04
717.186	6380.3
717.53	6414.2
717.873	6356.12
718.216	6344.37
718.559	6334.65
718.902	6290.58
719.246	6339.62
719.589	6278.38
719.932	6313.86
720.275	6248.32
720.617	6293.07
720.96	6264.37
721.303	6223.69
721.646	6284.03
721.989	6226.86
722.331	6235.9
722.674	6244.03
723.016	6306.63
723.359	6209.91
723.701	6255.33
724.044	6200.64
724.386	6157.71
724.729	6234.99
725.071	6220.53
725.413	6184.37
725.755	6204.48
726.097	6191.6
726.439	6126.07
726.782	6216.23
727.124	6125.39
727.465	6147.99
727.807	6183.02
728.149	6167.42
728.491	6114.09
728.833	6139.4
729.175	6124.26
729.516	6147.31
729.858	6126.52
730.199	6213.07
730.541	6101.44
730.882	6138.04
731.224	6126.52
731.565	6166.97
731.906	6182.79
732.248	6192.96
732.589	6127.42
732.93	6093.07
733.271	6107.76
733.612	6188.44
733.953	6132.85
734.294	6125.62
734.635	6132.62
734.976	6197.7
735.317	6120.87
735.658	6192.05
735.999	6210.13
736.339	6184.6
736.68	6200.42
737.021	6190.47
737.361	6168.33
737.702	6231.15
738.042	6126.29
738.383	6183.69
738.723	6205.39
739.063	6222.34
739.404	6245.39
739.744	6237.7
740.084	6247.42
740.424	6238.38
740.764	6243.35
741.104	6316.8
741.444	6270.24
741.784	6295.33
742.124	6353.18
742.464	6364.03
742.804	6324.71
743.143	6367.19
743.483	6475.66
743.823	6372.84
744.162	6468.43
744.502	6446.29
744.841	6467.75
745.181	6547.3
745.52	6554.98
745.86	6608.77
746.199	6607.41
746.538	6643.34
746.877	6702.55
747.216	6800.63
747.556	6782.55
747.895	6824.58
748.234	6880.17
748.573	6949.77
748.911	6971.47
749.25	7057.12
749.589	7032.48
749.928	7124.23
750.267	7272.25
750.605	7309.77
750.944	7410.1
751.283	7422.53
751.621	7518.57
751.96	7567.84
752.298	7689.87
752.636	7766.48
752.975	7846.02
753.313	7968.28
753.651	8120.14
753.989	8243.3
754.327	8294.37
754.666	8330.08
755.004	8492.56
755.342	8643.52
755.679	8784.08
756.017	8853.68
756.355	9057.06
756.693	9196.04
757.031	9324.18
757.368	9462.93
757.706	9537.96
758.044	9690.95
758.381	9908.34
758.719	10005.97
759.056	10204.15
759.394	10321.21
759.731	10419.51
760.068	10605.27
760.405	10714.65
760.743	10930.46
761.08	11169.78
761.417	11264.92
761.754	11393.05
762.091	11645.7
762.428	11762.3
762.765	11945.35
763.102	12170.43
763.438	12214.04
763.775	12419.24
764.112	12503.98
764.449	12805.21
764.785	12907.81
765.122	12997.53
765.458	13117.3
765.795	13336.5
766.131	13539.43
766.467	13685.87
766.804	13831.4
767.14	13978.97
767.476	14008.57
767.812	14305.51
768.148	14359.75
768.485	14516.81
768.821	14676.13
769.157	14815.78
769.492	14859.4
769.828	15100.52
770.164	15088.54
770.5	15211.48
770.836	15425.03
771.171	15442.66
771.507	15558.59
771.842	15606.5
772.178	15755.65
772.513	15815.3
772.849	15959.71
773.184	16004.45
773.519	16159.25
773.855	16174.62
774.19	16242.86
774.525	16290.55
774.86	16376.65
775.195	16569.63
775.53	16556.3
775.865	16625
776.2	16524.89
776.535	16636.53
776.87	16670.88
777.205	16756.75
777.539	16768.73
777.874	16985.44
778.209	16798.78
778.543	16984.77
778.878	16875.62
779.212	16975.27
779.547	16860.02
779.881	17077.64
780.215	16978.89
780.55	17189.51
780.884	17098.89
781.218	17146.57
781.552	17145.21
781.886	17109.06
782.22	17136.4
782.554	17133.69
782.888	17122.39
783.222	17063.41
783.556	17106.12
783.889	17132.11
784.223	17076.06
784.557	17067.7
784.89	17081.49
785.224	17073.58
785.557	17042.39
785.891	16957.42
786.224	17024.76
786.558	17067.47
786.891	16924.88
787.224	16985.44
787.557	16938.89
787.891	17008.04
788.224	16985.44
788.557	16944.77
788.89	17025.22
789.223	16942.28
789.556	16888.04
789.888	16879.46
790.221	16842.4
790.554	16755.62
790.887	16745.45
791.219	16712.68
791.552	16680.82
791.884	16656.41
792.217	16654.6
792.549	16639.92
792.882	16549.3
793.214	16547.71
793.546	16634.27
793.879	16476.76
794.211	16402.41
794.543	16552.01
794.875	16477.66
795.207	16457.55
795.539	16443.08
795.871	16399.24
796.203	16252.81
796.535	16221.4
796.867	16156.76
797.198	16187.5
797.53	16180.04
797.862	16151.11
798.193	16060.95
798.525	16013.72
798.856	16091.68
799.188	15923.32
799.519	15948.41
799.85	15884.23
800.182	15880.39
800.513	15891.01
800.844	15807.85
801.175	15845.36
801.506	15837.22
801.837	15775.53
802.168	15689.66
802.499	15662.09
802.83	15603.33
803.161	15617.12
803.491	15546.39
803.822	15568.76
804.153	15502.32
804.483	15399.72
804.814	15348.2
805.145	15355.43
805.475	15407.18
805.805	15243.57
806.136	15329.22
806.466	15274.98
806.796	15265.04
807.126	15106.62
807.457	15102.1
807.787	15103.46
808.117	15220.07
808.447	15057.13
808.777	15018.04
809.107	14945.95
809.436	14995.21
809.766	14992.5
810.096	14899.62
810.426	14809
810.755	14898.27
811.085	14903.92
811.414	14853.52
811.744	14796.35
812.073	14739.63
812.403	14666.41
812.732	14622.79
813.061	14655.33
813.39	14581.44
813.719	14550.03
814.049	14582.57
814.378	14492.18
814.707	14488.11
815.036	14451.05
815.365	14390.26
815.693	14282.92
816.022	14335.12
816.351	14304.16
816.68	14198.17
817.008	14259.41
817.337	14139.19
817.665	14222.13
817.994	14064.16
818.322	14173.99
818.651	14127.44
818.979	14075.46
819.307	14155.91
819.636	14120.89
819.964	14084.28
820.292	14103.94
820.62	14083.82
820.948	13986.2
821.276	14075.24
821.604	14050.61
821.932	14030.49
822.259	14039.53
822.587	14050.61
822.915	14004.28
823.243	14107.55
823.57	13966.54
823.898	14003.15
824.225	13901.91
824.553	13992.08
824.88	13918.86
825.207	14048.12
825.535	13988.01
825.862	14088.12
826.189	14066.65
826.516	14025.52
826.843	14071.85
827.17	14076.82
827.497	13957.73
827.824	14016.48
828.151	14086.99
828.478	14069.14
828.805	14101.23
829.131	14092.86
829.458	13971.74
829.785	13945.52
830.111	14075.24
830.438	14075.01
830.764	14042.24
831.09	14064.62
831.417	13953.66
831.743	13974.22
832.069	14028.46
832.395	13899.2
832.722	14016.03
833.048	13955.24
833.374	13964.51
833.7	13899.87
834.026	13900.78
834.351	13937.61
834.677	13931.51
835.003	13897.84
835.329	13872.98
835.654	13884.73
835.98	13855.81
836.306	13834.79
836.631	13793.89
836.956	13875.69
837.282	13903.94
837.607	13783.95
837.932	13743.95
838.258	13710.73
838.583	13724.74
838.908	13619.43
839.233	13633.67
839.558	13567.45
839.883	13619.43
840.208	13527
840.533	13524.97
840.858	13562.71
841.182	13564.29
841.507	13547.57
841.832	13390.06
842.156	13443.16
842.481	13521.13
842.805	13435.03
843.13	13414.92
843.454	13399.32
843.778	13371.98
844.103	13308.7
844.427	13271.19
844.751	13327.69
845.075	13165.66
845.399	13136.73
845.723	13047.92
846.047	13114.58
846.371	12997.07
846.695	12988.26
847.019	12918.21
847.343	12861.71
847.666	12741.49
847.99	12778.32
848.313	12708.27
848.637	12639.34
848.96	12598.21
849.284	12588.72
849.607	12510.31
849.931	12492.23
850.254	12408.61
850.577	12310.09
850.9	12255.85
851.223	12326.13
851.546	12222.4
851.869	12178.79
852.192	12175.85
852.515	12040.26
852.838	12007.04
853.161	12044.1
853.483	12026.48
853.806	11969.98
854.129	11947.16
854.451	11837.33
854.774	11781.06
855.096	11721.17
855.419	11694.96
855.741	11753.49
856.063	11639.37
856.385	11607.28
856.708	11579.26
857.03	11536.77
857.352	11534.06
857.674	11438.92
857.996	11412.26
858.318	11406.15
858.64	11395.08
858.961	11340.62
859.283	11313.95
859.605	11273.5
859.926	11331.81
860.248	11193.73
860.57	11299.94
860.891	11213.39
861.212	11122.32
861.534	11128.65
861.855	11047.97
862.176	11104.47
862.498	11051.59
862.819	11048.42
863.14	10998.71
863.461	11052.94
863.782	11014.3
864.103	10968.43
864.424	10884.81
864.745	10946.51
865.065	10860.63
865.386	10890.69
865.707	10843.23
866.027	10781.54
866.348	10836
866.668	10787.19
866.989	10792.84
867.309	10741.54
867.63	10738.6
867.95	10717.59
868.27	10626.29
868.59	10678.26
868.91	10586.06
869.23	10580.41
869.55	10601.2
869.87	10647.08
870.19	10613.63
870.51	10574.76
870.83	10546.97
871.15	10524.6
871.469	10517.36
871.789	10551.71
872.109	10551.49
872.428	10418.84
872.748	10529.79
873.067	10469.91
873.386	10476.24
873.706	10431.49
874.025	10370.48
874.344	10383.58
874.663	10305.62
874.982	10314.21
875.301	10267.88
875.62	10356.24
875.939	10252.51
876.258	10280.31
876.577	10237.82
876.896	10280.53
877.214	10208.45
877.533	10205.28
877.852	10204.83
878.17	10152.63
878.489	10183.36
878.807	10139.3
879.125	10147.88
879.444	10057.26
879.762	10045.74
880.08	10097.26
880.398	10072.63
880.716	10126.64
881.034	9996.7
881.352	9986.76
881.67	9962.58
881.988	9988.79
882.306	9916.25
882.624	9918.06
882.941	9910.15
883.259	9798.51
883.577	9829.93
883.894	9787.89
884.212	9835.8
884.529	9832.64
884.846	9745.63
885.164	9771.85
885.481	9671.96
885.798	9747.22
886.115	9643.04
886.432	9684.39
886.75	9620.21
887.067	9552.42
887.383	9589.48
887.7	9615.69
888.017	9541.35
888.334	9502.25
888.651	9544.28
888.967	9464.06
889.284	9459.77
889.6	9409.37
889.917	9370.28
890.233	9357.4
890.55	9331.86
890.866	9276.04
891.182	9301.8
891.498	9289.37
891.815	9189.72
892.131	9228.59
892.447	9157.17
892.763	9112.88
893.079	9112.2
893.395	9063.17
893.71	9071.53
894.026	9029.27
894.342	8948.14
894.657	9005.99
894.973	8928.03
895.289	8912.89
895.604	8935.94
895.92	8822.04
896.235	8740.24
896.55	8769.84
896.865	8779.33
897.181	8756.73
897.496	8700.69
897.811	8647.36
898.126	8690.52
898.441	8605.55
898.756	8574.82
899.071	8513.35
899.386	8485.55
899.7	8517.87
900.015	8428.15
900.33	8322.17
900.644	8335.95
900.959	8295.73
901.273	8350.87
901.588	8290.98
901.902	8257.54
902.216	8189.29
902.531	8204.21
902.845	8201.27
903.159	8104.32
903.473	8098.67
903.787	8046.24
904.101	8059.35
904.415	8032.91
904.729	8022.97
905.042	7944.1
905.356	7964.44
905.67	7877.66
905.984	7917.66
906.297	7820.26
906.611	7770.77
906.924	7848.73
907.237	7751.56
907.551	7726.7
907.864	7622.53
908.177	7637.21
908.491	7620.49
908.804	7625.46
909.117	7545.01
909.43	7471.57
909.743	7450.55
910.056	7425.02
910.368	7389.09
910.681	7389.76
910.994	7367.84
911.307	7397.22
911.619	7328.52
911.932	7309.31
912.244	7230.45
912.557	7237.68
912.869	7139.6
913.181	7139.83
913.494	7155.87
913.806	7107.06
914.118	7051.69
914.43	7035.2
914.742	6979.6
915.054	6997.46
915.366	6959.49
915.678	6967.85
915.99	6921.53
916.302	6834.07
916.613	6828.87
916.925	6819.61
917.236	6817.35
917.548	6757.69
917.859	6758.59
918.171	6693.28
918.482	6704.36
918.794	6623.46
919.105	6611.48
919.416	6584.81
919.727	6532.61
920.038	6573.74
920.349	6535.55
920.66	6446.96
920.971	6453.74
921.282	6498.04
921.593	6433.4
921.903	6399.51
922.214	6329.68
922.525	6351.6
922.835	6280.64
923.146	6258.27
923.456	6249.68
923.767	6202.22
924.077	6182.11
924.387	6181.43
924.697	6161.32
925.008	6125.84
925.318	6144.6
925.628	6101.66
925.938	6095.79
926.248	6025.05
926.558	5974.21
926.867	6033.64
927.177	5993.64
927.487	5913.87
927.796	5903.93
928.106	5879.29
928.416	5858.5
928.725	5899.63
929.034	5830.26
929.344	5830.93
929.653	5750.48
929.962	5684.05
930.271	5733.08
930.581	5644.95
930.89	5676.59
931.199	5614.44
931.508	5660.32
931.817	5617.83
932.125	5581.68
932.434	5635.69
932.743	5526.08
933.051	5474.56
933.36	5506.42
933.669	5446.54
933.977	5426.65
934.286	5407.22
934.594	5444.5
934.902	5343.72
935.21	5341.23
935.519	5315.02
935.827	5329.93
936.135	5311.63
936.443	5225.3
936.751	5207.9
937.059	5233.21
937.367	5197.5
937.674	5179.43
937.982	5174.45
938.29	5143.95
938.597	5151.18
938.905	5096.26
939.213	5059.66
939.52	5063.95
939.827	5062.59
940.135	4979.88
940.442	5033.22
940.749	5032.31
941.056	4957.51
941.363	4937.62
941.67	4901.02
941.977	4879.55
942.284	4854.01
942.591	4830.06
942.898	4819.66
943.205	4807.91
943.511	4745.77
943.818	4729.72
944.125	4739.66
944.431	4746.22
944.738	4707.35
945.044	4671.87
945.35	4694.47
945.657	4656.28
945.963	4600.91
946.269	4618.31
946.575	4570.18
946.881	4555.71
947.187	4508.94
947.493	4556.84
947.799	4492.44
948.105	4456.73
948.41	4440.91
948.716	4433.68
949.022	4447.47
949.327	4408.15
949.633	4398.43
949.938	4343.97
950.244	4411.54
950.549	4280.69
950.854	4298.32
951.16	4263.97
951.465	4260.58
951.77	4248.15
952.075	4270.52
952.38	4225.55
952.685	4201.6
952.99	4156.18
953.294	4179.68
953.599	4125.22
953.904	4174.48
954.209	4145.33
954.513	4111.66
954.818	4065.33
955.122	4060.81
955.426	4043.86
955.731	4064.88
956.035	4016.97
956.339	4019
956.643	3962.51
956.948	3963.19
957.252	3960.47
957.556	3964.32
957.86	3902.17
958.163	3930.65
958.467	3927.26
958.771	3862.4
959.075	3858.78
959.378	3826.47
959.682	3838.22
959.985	3781.04
960.289	3816.98
960.592	3747.15
960.896	3773.59
961.199	3756.86
961.502	3731.78
961.805	3671.89
962.108	3649.3
962.411	3682.29
962.714	3638.45
963.017	3609.52
963.32	3611.56
963.623	3624.89
963.926	3595.29
964.228	3559.81
964.531	3571.56
964.833	3533.14
965.136	3537.66
965.438	3522.29
965.741	3509.64
966.043	3488.4
966.345	3480.49
966.648	3474.84
966.95	3435.52
967.252	3423.99
967.554	3402.3
967.856	3435.52
968.158	3348.74
968.46	3348.74
968.761	3337.44
969.063	3330.44
969.365	3350.1
969.666	3298.57
969.968	3285.69
970.269	3275.07
970.571	3231
970.872	3252.7
971.174	3242.08
971.475	3210.21
971.776	3201.85
972.077	3218.57
972.378	3175.64
972.679	3158.46
972.98	3165.92
973.281	3151.23
973.582	3125.02
973.883	3144.45
974.183	3107.16
974.484	3090.22
974.785	3085.47
975.085	3052.48
975.386	3081.18
975.686	3052.02
975.986	3018.35
976.287	3017
976.587	2960.95
976.887	2975.42
977.187	2991.01
977.487	2957.34
977.787	2958.69
978.087	2941.52
978.387	2928.19
978.687	2920.28
978.987	2890.67
979.286	2827.62
979.586	2886.6
979.885	2861.07
980.185	2773.39
980.484	2822.43
980.784	2824.23
981.083	2816.78
981.382	2810.67
981.682	2755.76
981.981	2769.77
982.28	2727.74
982.579	2746.5
982.878	2763.9
983.177	2729.77
983.475	2687.06
983.774	2699.49
984.073	2663.11
984.372	2666.27
984.67	2651.58
984.969	2671.92
985.267	2681.64
985.566	2610.91
985.864	2616.78
986.162	2567.97
986.461	2584.69
986.759	2562.77
987.057	2547.86
987.355	2557.57
987.653	2525.26
987.951	2536.56
988.249	2530
988.547	2530.23
988.844	2501.53
989.142	2477.12
989.44	2446.62
989.737	2476.22
990.035	2464.92
990.332	2396.67
990.63	2424.24
990.927	2422.21
991.224	2410.46
991.521	2354.64
991.819	2382.44
992.116	2385.15
992.413	2357.13
992.71	2360.52
993.006	2326.39
993.303	2294.98
993.6	2333.4
993.897	2304.7
994.193	2292.5
994.49	2278.94
994.787	2281.2
995.083	2259.5
995.379	2229
995.676	2227.41
995.972	2174.99
996.268	2198.94
996.565	2200.3
996.861	2193.29
997.157	2162.78
997.453	2178.83
997.749	2146.29
998.044	2151.93
998.34	2166.4
998.636	2135.66
998.932	2115.1
999.227	2125.49
999.523	2105.83
999.818	2079.39
1000.114	2066.06
1000.409	2061.09
1000.704	2083.91
1001	2010.7
1001.295	2034.42
1001.59	2030.81
1001.885	2019.74
1002.18	1997.36
1002.475	1974.31
1002.77	1987.65
1003.065	1927.76
1003.359	1937.93
1003.654	1964.82
1003.949	1931.6
1004.243	1943.58
1004.538	1908.33
1004.832	1909
1005.127	1885.95
1005.421	1853.86
1005.715	1850.25
1006.009	1877.59
1006.304	1871.72
1006.598	1845.28
1006.892	1831.94
1007.186	1809.35
1007.48	1804.6
1007.773	1799.85
1008.067	1795.11
1008.361	1802.57
1008.655	1753.75
1008.948	1753.75
1009.242	1759.18
1009.535	1735.67
1009.829	1714.21
1010.122	1722.34
1010.415	1717.37
1010.708	1725.05
1011.001	1672.4
1011.295	1657.48
1011.588	1671.72
1011.881	1667.2
1012.173	1647.99
1012.466	1647.32
1012.759	1622.46
1013.052	1634.89
1013.344	1616.36
1013.637	1599.63
1013.93	1606.86
1014.222	1566.19
1014.514	1544.27
1014.807	1566.41
1015.099	1555.34
1015.391	1570.93
1015.683	1533.65
1015.976	1500.65
1016.268	1538.39
1016.56	1490.48
1016.851	1499.52
1017.143	1512.4
1017.435	1472.86
1017.727	1491.84
1018.018	1472.63
1018.31	1476.47
1018.602	1449.58
1018.893	1416.14
1019.185	1454.55
1019.476	1432.41
1019.767	1429.02
1020.058	1398.73
1020.35	1388.57
1020.641	1393.08
1020.932	1367.55
1021.223	1353.09
1021.514	1357.83
1021.804	1345.63
1022.095	1357.61
1022.386	1323.48
1022.677	1331.17
1022.967	1327.32
1023.258	1311.05
1023.548	1305.18
1023.839	1294.1
1024.129	1293.65
1024.419	1266.53
1024.709	1278.29
1025	1266.76
1025.29	1262.47
1025.58	1245.52
1025.87	1219.53
1026.16	1214.78
1026.449	1217.04
1026.739	1188.8
1027.029	1211.17
1027.319	1200.55
1027.608	1191.73
1027.898	1165.75
1028.187	1160.55
1028.477	1169.81
1028.766	1147.67
1029.055	1154
1029.344	1141.34
1029.634	1107.22
1029.923	1146.54
1030.212	1103.6
1030.501	1100.89
1030.79	1098.18
1031.078	1096.14
1031.367	1067.44
1031.656	1080.78
1031.945	1081.91
1032.233	1073.32
1032.522	1071.06
1032.81	1095.24
1033.099	1053.21
1033.387	1022.93
1033.675	1028.12
1033.963	1018.18
1034.251	1038.52
1034.54	1034
1034.828	1011.85
1035.116	1016.6
1035.403	1015.47
1035.691	990.38
1035.979	1012.3
1036.267	1002.81
1036.554	961.68
1036.842	1006.2
1037.129	971.4
1037.417	943.61
1037.704	934.79
1037.992	950.38
1038.279	939.99
1038.566	926.66
1038.853	926.66
1039.14	926.66
