Data from hue_170_FLMS001491_00040.txt Node
Date: Tue Feb 07 16:48:37 GMT 2017
User: dcchb
Spectrometer: FLMS00149
Trigger mode: 0
Integration Time (sec): 2.000000E-2
Scans to average: 10
Electric dark correction enabled: true
Nonlinearity correction enabled: false
Boxcar width: 0
XAxis mode: Wavelengths
Number of Pixels in Spectrum: 2048
>>>>>Begin Spectral Data<<<<<
341.393	2.56
341.776	2.56
342.16	2.56
342.543	-66.59
342.927	-44.22
343.31	-54.39
343.693	-62.75
344.077	-64.11
344.46	-59.14
344.843	-39.93
345.226	-49.65
345.61	-23.88
345.993	-29.31
346.376	-15.07
346.759	12.27
347.142	11.6
347.525	32.16
347.908	68.77
348.291	81.65
348.674	92.72
349.057	99.05
349.44	119.16
349.823	160.29
350.206	146.96
350.588	172.72
350.971	205.04
351.354	237.8
351.737	236.45
352.119	224.7
352.502	252.49
352.884	243.23
353.267	267.63
353.65	281.87
354.032	285.94
354.414	318.25
354.797	302.89
355.179	315.32
355.562	323.68
355.944	325.94
356.326	317.12
356.709	320.29
357.091	349.21
357.473	327.97
357.855	341.98
358.238	329.55
358.62	335.2
359.002	344.47
359.384	341.98
359.766	332.94
360.148	322.1
360.53	340.4
360.912	353.96
361.294	310.34
361.676	319.84
362.057	325.26
362.439	319.61
362.821	320.74
363.203	297.92
363.584	326.16
363.966	321.64
364.348	333.85
364.729	305.83
365.111	334.53
365.493	325.94
365.874	326.62
366.256	297.69
366.637	297.92
367.019	347.86
367.4	304.7
367.781	310.57
368.163	291.81
368.544	308.76
368.925	310.12
369.306	285.71
369.688	318.03
370.069	307.86
370.45	317.35
370.831	306.5
371.212	291.81
371.593	305.15
371.974	315.54
372.355	295.88
372.736	331.81
373.117	320.74
373.498	313.28
373.879	316.9
374.26	312.6
374.641	316.45
375.021	315.77
375.402	308.09
375.783	323.68
376.163	316.67
376.544	315.32
376.925	311.25
377.305	327.07
377.686	334.07
378.066	319.61
378.447	320.74
378.827	325.26
379.208	334.98
379.588	334.98
379.968	319.38
380.349	326.16
380.729	320.29
381.109	336.56
381.489	333.17
381.87	325.03
382.25	345.6
382.63	318.93
383.01	331.59
383.39	333.62
383.77	314.41
384.15	336.56
384.53	335.2
384.91	332.49
385.29	347.63
385.67	351.02
386.049	344.47
386.429	345.37
386.809	352.83
387.189	347.18
387.568	339.27
387.948	333.62
388.328	358.71
388.707	345.37
389.087	337.69
389.466	352.38
389.846	365.71
390.225	388.31
390.605	357.8
390.984	367.97
391.363	377.01
391.743	368.87
392.122	384.47
392.501	359.16
392.881	366.16
393.26	365.94
393.639	364.35
394.018	376.78
394.397	371.59
394.776	374.07
395.155	362.77
395.534	370
395.913	366.16
396.292	358.93
396.671	391.02
397.05	386.5
397.429	403.45
397.808	388.53
398.186	396.67
398.565	386.73
398.944	411.59
399.323	384.92
399.701	380.4
400.08	395.99
400.458	404.58
400.837	409.1
401.215	379.95
401.594	402.55
401.972	406.39
402.351	435.77
402.729	400.06
403.107	390.57
403.486	394.41
403.864	428.99
404.242	422.66
404.62	417.23
404.999	428.99
405.377	445.48
405.755	438.93
406.133	427.18
406.511	447.97
406.889	431.92
407.267	447.74
407.645	448.19
408.023	433.28
408.401	464.69
408.779	471.47
409.156	454.75
409.534	480.96
409.912	475.99
410.29	475.76
410.667	457.91
411.045	478.25
411.422	501.53
411.8	495.88
412.178	513.28
412.555	515.99
412.933	507.63
413.31	508.76
413.687	512.15
414.065	516.44
414.442	512.37
414.819	527.97
415.197	552.37
415.574	551.47
415.951	574.97
416.328	558.93
416.705	554.63
417.082	578.13
417.46	575.42
417.837	591.92
418.214	584.69
418.591	586.27
418.967	588.3
419.344	588.76
419.721	596.89
420.098	588.76
420.475	599.83
420.852	619.04
421.228	605.48
421.605	623.11
421.982	631.47
422.358	636.44
422.735	644.35
423.111	649.77
423.488	652.71
423.864	666.27
424.241	673.27
424.617	661.75
424.994	683.67
425.37	677.34
425.746	692.93
426.123	700.17
426.499	715.08
426.875	718.47
427.251	716.66
427.627	752.82
428.003	739.94
428.379	749.2
428.756	760.73
429.132	761.41
429.507	777.68
429.883	788.3
430.259	795.98
430.635	800.95
431.011	765.47
431.387	811.8
431.763	798.47
432.138	822.65
432.514	823.78
432.89	812.48
433.265	876.88
433.641	864
434.016	894.74
434.392	910.33
434.767	925.7
435.143	933.83
435.518	899.48
435.894	929.31
436.269	929.76
436.644	955.3
437.02	966.82
437.395	959.14
437.77	988.75
438.145	998.69
438.52	1021.06
438.895	1012.93
439.271	991.68
439.646	1038.91
440.021	1070.32
440.395	1058.12
440.77	1087.5
441.145	1083.21
441.52	1101.28
441.895	1088.18
442.27	1096.76
442.645	1117.1
443.019	1116.43
443.394	1137.22
443.769	1151.9
444.143	1165.92
444.518	1174.05
444.892	1198.68
445.267	1179.93
445.641	1195.75
446.016	1219.7
446.39	1216.31
446.764	1214.73
447.139	1214.5
447.513	1241.17
447.887	1239.36
448.262	1245.01
448.636	1240.49
449.01	1288.17
449.384	1257.89
449.758	1302.64
450.132	1290.88
450.506	1337.66
450.88	1346.25
451.254	1297.66
451.628	1353.26
452.002	1370.66
452.376	1382.18
452.75	1375.85
453.123	1405.23
453.497	1441.61
453.871	1443.87
454.244	1446.36
454.618	1476.64
454.992	1468.28
455.365	1477.55
455.739	1533.82
456.112	1541.72
456.486	1549.41
456.859	1577.88
457.232	1617.88
457.606	1587.37
457.979	1639.35
458.352	1659.46
458.725	1654.72
459.099	1667.37
459.472	1724.55
459.845	1719.35
460.218	1751.21
460.591	1795.5
460.964	1792.79
461.337	1802.06
461.71	1840.02
462.083	1885.67
462.456	1897.65
462.829	1898.78
463.201	1954.6
463.574	1970.87
463.947	1988.27
464.32	2013.13
464.692	2036.85
465.065	2056.06
465.438	2090.41
465.81	2136.29
466.183	2149.39
466.555	2208.6
466.928	2201.37
467.3	2228.03
467.672	2292.67
468.045	2317.52
468.417	2372.89
468.789	2393.45
469.161	2399.56
469.534	2453.79
469.906	2538.76
470.278	2540.57
470.65	2571.3
471.022	2634.8
471.394	2686.55
471.766	2691.75
472.138	2748.25
472.51	2843.39
472.882	2893.78
473.253	2905.98
473.625	3015.36
473.997	3067.79
474.369	3119.54
474.74	3143.49
475.112	3197.5
475.484	3319.98
475.855	3360.21
476.227	3401.79
476.598	3519.53
476.97	3564.04
477.341	3632.52
477.713	3739.41
478.084	3779.41
478.455	3880.87
478.827	3961.32
479.198	4093.07
479.569	4150.24
479.94	4281.99
480.311	4338.26
480.682	4477.92
481.053	4637.01
481.424	4632.04
481.795	4758.82
482.166	4832.71
482.537	4935.08
482.908	5095.08
483.279	5167.62
483.65	5289.42
484.021	5421.4
484.391	5502.52
484.762	5619.36
485.133	5654.84
485.503	5844.89
485.874	5927.6
486.244	6037.43
486.615	6210.53
486.985	6294.37
487.356	6503.18
487.726	6627.02
488.097	6733.45
488.467	6822.04
488.837	6993.56
489.207	7114.01
489.578	7199.2
489.948	7323.27
490.318	7490.27
490.688	7557.84
491.058	7718.06
491.428	7852.29
491.798	7993.76
492.168	8151.95
492.538	8183.58
492.908	8341.32
493.278	8457.7
493.648	8542.22
494.017	8671.71
494.387	8775.43
494.757	8892.27
495.126	9004.58
495.496	9050.68
495.866	9194.41
496.235	9218.36
496.605	9379.71
496.974	9476.21
497.344	9559.37
497.713	9651.34
498.082	9768.85
498.452	9855.18
498.821	9938.34
499.19	9970.88
499.559	10065.57
499.928	10149.41
500.298	10193.02
500.667	10325.9
501.036	10394.6
501.405	10413.81
501.774	10491.09
502.143	10561.83
502.512	10627.36
502.88	10746
503.249	10752.78
503.618	10869.16
503.987	10891.54
504.356	10946.9
504.724	10987.13
505.093	11049.27
505.462	11135.6
505.83	11155.26
506.199	11245.42
506.567	11412.65
506.936	11388.02
507.304	11440.9
507.672	11559.99
508.041	11487.9
508.409	11578.52
508.777	11703.49
509.145	11758.86
509.514	11835.69
509.882	11810.83
510.25	11819.65
510.618	11955.46
510.986	11884.73
511.354	12041.34
511.722	12079.08
512.09	12136.02
512.458	12056.7
512.826	12211.5
513.193	12220.54
513.561	12235.68
513.929	12277.94
514.297	12367.43
514.664	12475.45
515.032	12411.27
515.4	12484.26
515.767	12491.27
516.135	12496.69
516.502	12322.01
516.869	12581.89
517.237	12646.52
517.604	12554.09
517.972	12627.08
518.339	12693.52
518.706	12668.89
519.073	12711.15
519.44	12698.04
519.808	12840.86
520.175	12804.48
520.542	12918.38
520.909	12896.68
521.276	12835.67
521.643	13005.15
522.009	12919.28
522.376	13010.12
522.743	12996.34
523.11	13105.04
523.477	13084.02
523.843	13157.01
524.21	13225.26
524.577	13304.35
524.943	13298.25
525.31	13319.49
525.676	13356.56
526.043	13420.06
526.409	13400.62
526.776	13473.84
527.142	13308.87
527.508	13387.52
527.874	13457.8
528.241	13480.85
528.607	13455.99
528.973	13435.2
529.339	13425.93
529.705	13525.36
530.071	13529.43
530.437	13459.38
530.803	13432.94
531.169	13504.57
531.535	13466.38
531.901	13489.43
532.267	13411.47
532.632	13458.7
532.998	13508.87
533.364	13473.16
533.73	13420.73
534.095	13444.24
534.461	13446.5
534.826	13431.13
535.192	13350.91
535.557	13429.55
535.923	13330.34
536.288	13372.83
536.653	13311.81
537.019	13194.53
537.384	13192.94
537.749	13227.75
538.114	13250.8
538.479	13113.17
538.845	13060.97
539.21	13045.38
539.575	13039.73
539.94	13062.1
540.305	13015.55
540.67	12910.24
541.034	12976.68
541.399	13007.64
541.764	12926.96
542.129	12945.49
542.494	12832.95
542.858	12812.62
543.223	12792.05
543.587	12798.83
543.952	12712.73
544.316	12544.83
544.681	12604.94
545.045	12670.02
545.41	12674.77
545.774	12486.75
546.138	12488.33
546.503	12469.8
546.867	12394.1
547.231	12426.86
547.595	12397.48
547.959	12337.83
548.324	12237.71
548.688	12266.41
549.052	12216.47
549.416	12239.75
549.779	12216.47
550.143	12087.21
550.507	12169.24
550.871	12094.44
551.235	12082.46
551.599	12083.82
551.962	11983.26
552.326	12005.4
552.689	11971.96
553.053	11908.91
553.417	11879.53
553.78	11986.65
554.143	11916.82
554.507	11788.24
554.87	11914.56
555.234	11862.13
555.597	11758.18
555.96	11801.79
556.323	11739.42
556.686	11720.67
557.05	11752.98
557.413	11742.13
557.776	11695.13
558.139	11694.45
558.502	11651.97
558.865	11684.96
559.228	11715.47
559.59	11668.69
559.953	11617.17
560.316	11729.03
560.679	11618.3
561.041	11698.75
561.404	11726.32
561.767	11735.81
562.129	11645.87
562.492	11623.49
562.854	11624.17
563.217	11595.92
563.579	11620.56
563.941	11662.59
564.304	11692.42
564.666	11642.02
565.028	11754.56
565.39	11671.85
565.753	11674.79
566.115	11709.14
566.477	11714.11
566.839	11668.92
567.201	11705.53
567.563	11737.39
567.925	11706.66
568.287	11755.92
568.648	11794.56
569.01	11766.09
569.372	11850.83
569.734	11758.18
570.095	11842.7
570.457	11809.93
570.819	11887.44
571.18	11745.75
571.542	11769.25
571.903	11820.1
572.265	11859.19
572.626	11861
572.987	11887.22
573.349	11877.72
573.71	11945.97
574.071	11771.06
574.432	11914.79
574.794	11998.63
575.155	11899.64
575.516	11842.92
575.877	11962.69
576.238	11901.23
576.599	11936.48
576.96	11825.75
577.32	11950.26
577.681	11922.47
578.042	11936.93
578.403	11917.5
578.763	11886.09
579.124	11945.52
579.485	11913.66
579.845	11957.04
580.206	11926.76
580.566	11888.35
580.927	11911.62
581.287	11930.83
581.648	11861.68
582.008	11945.75
582.368	11850.83
582.728	11933.77
583.089	11865.97
583.449	11922.69
583.809	11865.52
584.169	11890.38
584.529	11797.5
584.889	11852.19
585.249	11820.78
585.609	11743.72
585.969	11824.17
586.329	11743.94
586.688	11882.24
587.048	11726.09
587.408	11713.21
587.768	11712.53
588.127	11761.57
588.487	11770.38
588.846	11754.79
589.206	11717.05
589.565	11679.54
589.925	11772.42
590.284	11712.53
590.643	11736.71
591.003	11730.38
591.362	11723.38
591.721	11708.92
592.08	11705.75
592.44	11727.9
592.799	11678.86
593.158	11623.95
593.517	11628.01
593.876	11676.83
594.235	11582.36
594.593	11641.35
594.952	11599.09
595.311	11577.85
595.67	11600.22
596.029	11592.99
596.387	11623.72
596.746	11681.57
597.104	11578.07
597.463	11588.24
597.822	11642.93
598.18	11569.71
598.538	11633.66
598.897	11628.92
599.255	11575.13
599.613	11645.87
599.972	11577.62
600.33	11582.82
600.688	11567.22
601.046	11585.98
601.404	11606.77
601.762	11574.46
602.12	11606.32
602.478	11646.32
602.836	11568.81
603.194	11505.08
603.552	11555.7
603.91	11469.15
604.268	11536.94
604.625	11476.61
604.983	11562.03
605.341	11500.79
605.698	11531.52
606.056	11601.12
606.413	11544.17
606.771	11592.76
607.128	11546.66
607.485	11552.08
607.843	11518.86
608.2	11576.49
608.557	11653.32
608.914	11654.91
609.272	11661.46
609.629	11628.92
609.986	11627.56
610.343	11656.26
610.7	11729.93
611.057	11670.95
611.414	11716.82
611.771	11699.65
612.127	11661.23
612.484	11729.71
612.841	11715.47
613.198	11618.97
613.554	11727.22
613.911	11713.21
614.267	11695.36
614.624	11790.95
614.98	11670.72
615.337	11778.74
615.693	11767.44
616.05	11797.95
616.406	11813.32
616.762	11740.55
617.118	11770.38
617.475	11757.28
617.831	11824.84
618.187	11815.35
618.543	11799.08
618.899	11908.23
619.255	11854.45
619.611	11808.35
619.967	11903.49
620.323	11923.82
620.678	11788.91
621.034	11817.61
621.39	11822.58
621.746	11759.99
622.101	11917.72
622.457	11749.14
622.812	11831.4
623.168	11811.29
623.523	11797.5
623.879	11899.42
624.234	11776.94
624.589	11819.42
624.945	11862.13
625.3	11910.94
625.655	11880.44
626.01	11816.71
626.365	11829.82
626.72	11798.18
627.075	11802.7
627.43	11834.79
627.785	11847.44
628.14	11839.76
628.495	11877.05
628.85	11798.86
629.205	11825.97
629.559	11802.92
629.914	11768.35
630.269	11724.96
630.623	11775.81
630.978	11754.34
631.332	11782.13
631.687	11773.77
632.041	11675.92
632.396	11765.64
632.75	11700.1
633.104	11729.03
633.459	11572.87
633.813	11615.13
634.167	11681.12
634.521	11632.08
634.875	11618.52
635.229	11678.63
635.583	11557.51
635.937	11528.58
636.291	11498.07
636.645	11542.37
636.999	11523.38
637.352	11532.2
637.706	11463.72
638.06	11489.94
638.413	11472.99
638.767	11393.9
639.121	11450.17
639.474	11352.99
639.828	11330.39
640.181	11373.78
640.534	11449.94
640.888	11342.6
641.241	11308.25
641.594	11384.4
641.947	11469.83
642.301	11334.24
642.654	11427.57
643.007	11336.72
643.36	11324.74
643.713	11276.38
644.066	11325.42
644.419	11270.28
644.771	11304.63
645.124	11125.2
645.477	11193.67
645.83	11035.03
646.182	11015.15
646.535	10971.08
646.888	11063.06
647.24	11001.36
647.593	11018.54
647.945	10979.44
648.298	10985.54
648.65	10991.19
649.002	10924.3
649.355	10981.25
649.707	10915.49
650.059	11045.2
650.411	11193.45
650.763	11158.2
651.115	11218.53
651.467	11211.08
651.819	11177.86
652.171	11114.35
652.523	11169.95
652.875	11167.46
653.227	11055.15
653.578	11188.03
653.93	11115.26
654.282	11136.95
654.633	11098.76
654.985	11094.47
655.337	11104.64
655.688	11217.18
656.039	11221.7
656.391	11084.07
656.742	11168.36
657.094	11183.51
657.445	11173.56
657.796	11207.46
658.147	11103.96
658.498	11147.57
658.849	11163.17
659.2	11144.41
659.551	11206.56
659.902	11253.56
660.253	11230.28
660.604	11272.77
660.955	11206.78
661.306	11251.98
661.656	11181.7
662.007	11217.63
662.358	11206.56
662.708	11278.64
663.059	11273.45
663.409	11152.55
663.76	11260.34
664.11	11295.14
664.461	11279.1
664.811	11277.51
665.161	11234.8
665.511	11315.03
665.862	11390.73
666.212	11299.21
666.562	11340.56
666.912	11270.73
667.262	11233.67
667.612	11235.71
667.962	11288.59
668.312	11233.22
668.662	11275.71
669.011	11303.05
669.361	11233.22
669.711	11196.84
670.06	11154.13
670.41	11223.73
670.76	11198.42
671.109	11222.37
671.459	11183.05
671.808	11242.03
672.157	11191.87
672.507	11134.02
672.856	11170.85
673.205	11132.89
673.554	11108.48
673.904	11087.24
674.253	11174.01
674.602	11135.15
674.951	10994.36
675.3	10913
675.649	11123.85
675.998	11097.41
676.346	11064.64
676.695	11108.25
677.044	10979.44
677.393	11026.67
677.741	11106.22
678.09	11005.2
678.438	11013.57
678.787	11013.79
679.135	11018.31
679.484	10929.05
679.832	10963.4
680.181	10927.24
680.529	10967.47
680.877	10938.99
681.225	10851.31
681.573	10904.42
681.922	10821.26
682.27	10782.39
682.618	10791.2
682.966	10844.08
683.314	10769.28
683.661	10730.86
684.009	10633.46
684.357	10686.8
684.705	10673.91
685.053	10696.06
685.4	10688.15
685.748	10552.34
686.095	10532.45
686.443	10499.23
686.79	10506.69
687.138	10562.73
687.485	10513.24
687.832	10526.8
688.18	10456.97
688.527	10328.16
688.874	10372
689.221	10350.08
689.568	10322.51
689.915	10345.11
690.262	10281.38
690.609	10228.5
690.956	10229.63
691.303	10205
691.65	10114.83
691.997	10131.78
692.344	10050.2
692.69	10077.09
693.037	10080.03
693.383	9935.4
693.73	9999.13
694.077	9876.65
694.423	9857.66
694.769	9940.37
695.116	9854.95
695.462	9854.73
695.808	9741.06
696.155	9734.05
696.501	9687.95
696.847	9701.06
697.193	9653.15
697.539	9640.5
697.885	9558.01
698.231	9497
698.577	9487.73
698.923	9455.87
699.269	9419.03
699.614	9409.99
699.96	9366.6
700.306	9340.39
700.651	9262.2
700.997	9283.22
701.342	9250.45
701.688	9163.45
702.033	9205.93
702.379	9159.83
702.724	9140.4
703.069	9116.22
703.415	9030.57
703.76	9003.22
704.105	9043.22
704.45	8935.43
704.795	8918.03
705.14	8843.45
705.485	8891.14
705.83	8838.26
706.175	8826.73
706.52	8833.96
706.865	8751.48
707.209	8722.33
707.554	8735.21
707.899	8739.05
708.243	8632.39
708.588	8631.26
708.932	8601.2
709.277	8619.5
709.621	8523.91
709.966	8553.97
710.31	8520.3
710.654	8454.09
710.998	8487.31
711.342	8516.91
711.687	8438.72
712.031	8392.17
712.375	8332.05
712.719	8355.33
713.063	8429
713.407	8387.65
713.75	8294.77
714.094	8258.84
714.438	8234.2
714.782	8230.14
715.125	8222.23
715.469	8255.67
715.812	8222.91
716.156	8127.99
716.499	8183.13
716.843	8181.1
717.186	8116.02
717.53	8190.59
717.873	8122.79
718.216	8146.75
718.559	8116.92
718.902	8039.63
719.246	8033.53
719.589	8011.61
719.932	7982.46
720.275	8056.81
720.617	8078.95
720.96	7978.84
721.303	7994.66
721.646	8025.62
721.989	7968.67
722.331	7980.2
722.674	7925.96
723.016	8031.5
723.359	7891.61
723.701	7959.64
724.044	7945.17
724.386	7919.41
724.729	7978.17
725.071	7947.88
725.413	7948.56
725.755	7903.82
726.097	7933.65
726.439	7872.18
726.782	7882.8
727.124	7915.12
727.465	7885.51
727.807	7913.08
728.149	7891.16
728.491	7865.4
728.833	7831.73
729.175	7831.05
729.516	7793.31
729.858	7827.44
730.199	7915.34
730.541	7868.56
730.882	7846.42
731.224	7823.59
731.565	7779.53
731.906	7797.38
732.248	7812.52
732.589	7825.18
732.93	7786.53
733.271	7733.2
733.612	7796.02
733.953	7808
734.294	7777.95
734.635	7774.56
734.976	7815.91
735.317	7815.68
735.658	7758.74
735.999	7799.19
736.339	7766.87
736.68	7812.97
737.021	7787.44
737.361	7788.34
737.702	7821.79
738.042	7814.55
738.383	7848.23
738.723	7873.08
739.063	7827.44
739.404	7902.24
739.744	7880.09
740.084	7878.06
740.424	7877.15
740.764	7895.46
741.104	7948.79
741.444	7912.63
741.784	7921.44
742.124	7952.86
742.464	7992.63
742.804	7981.78
743.143	7980.65
743.483	8024.04
743.823	8015.45
744.162	8028.11
744.502	8118.95
744.841	8081.21
745.181	8153.53
745.52	8188.1
745.86	8217.26
746.199	8257.48
746.538	8312.62
746.877	8293.19
747.216	8448.21
747.556	8422.22
747.895	8476.68
748.234	8482.79
748.573	8553.97
748.911	8648.43
749.25	8637.58
749.589	8677.58
749.928	8759.39
750.267	8906.96
750.605	8916.45
750.944	9034.86
751.283	9011.36
751.621	9189.21
751.96	9249.32
752.298	9310.11
752.636	9457.45
752.975	9464
753.313	9565.24
753.651	9732.47
753.989	9806.37
754.327	9905.57
754.666	9984.21
755.004	10065.34
755.342	10259.46
755.679	10402.06
756.017	10456.29
756.355	10573.58
756.693	10773.12
757.031	10852.21
757.368	10976.05
757.706	11116.39
758.044	11274.35
758.381	11422.14
758.719	11609.93
759.056	11762.93
759.394	11905.29
759.731	11969.25
760.068	12172.86
760.405	12339.86
760.743	12420.53
761.08	12664.6
761.417	12756.8
761.754	12969.9
762.091	13158.37
762.428	13279.5
762.765	13436.78
763.102	13638.13
763.438	13677.23
763.775	13910.89
764.112	14027.05
764.449	14252.58
764.785	14425.91
765.122	14474.27
765.458	14688.72
765.795	14813.92
766.131	14892.56
766.467	15052.56
766.804	15238.77
767.14	15373.45
767.476	15498.65
767.812	15561.24
768.148	15793.1
768.485	15901.35
768.821	15994.68
769.157	16142.47
769.492	16223.37
769.828	16397.38
770.164	16445.97
770.5	16386.98
770.836	16624.94
771.171	16726.64
771.507	16730.93
771.842	16826.97
772.178	16907.65
772.513	17086.18
772.849	17101.32
773.184	17144.93
773.519	17271.93
773.855	17377.01
774.19	17415.43
774.525	17496.33
774.86	17472.83
775.195	17633.05
775.53	17674.18
775.865	17653.17
776.2	17636.9
776.535	17615.2
776.87	17745.59
777.205	17810.9
777.539	17836.44
777.874	17908.07
778.209	17972.03
778.543	17856.1
778.878	17896.32
779.212	17995.3
779.547	17983.33
779.881	17987.62
780.215	17979.03
780.55	18044.12
780.884	17991.69
781.218	17958.69
781.552	18140.16
781.886	18064.68
782.22	18076.21
782.554	18010.44
782.888	18023.1
783.222	17988.07
783.556	18012.25
783.889	18026.26
784.223	17873.05
784.557	17903.55
784.89	17925.47
785.224	17952.14
785.557	17944.46
785.891	17850
786.224	17993.95
786.558	17934.97
786.891	17837.34
787.224	17792.82
787.557	17806.83
787.891	17737.46
788.224	17801.86
788.557	17787.85
788.89	17794.86
789.223	17737.91
789.556	17594.41
789.888	17640.06
790.221	17557.35
790.554	17521.64
790.887	17570
791.219	17621.98
791.552	17421.08
791.884	17483.45
792.217	17406.39
792.549	17481.42
792.882	17308.09
793.214	17208.43
793.546	17285.49
793.879	17218.83
794.211	17133.86
794.543	17242.33
794.875	17195.1
795.207	17191.71
795.539	17150.58
795.871	17135.67
796.203	17026.29
796.535	16904.03
796.867	16900.19
797.198	16872.85
797.53	16912.62
797.862	16807.09
798.193	16841.44
798.525	16701.78
798.856	16763.02
799.188	16553.31
799.519	16629.01
799.85	16491.84
800.182	16533.65
800.513	16492.97
800.844	16460.2
801.175	16439.86
801.506	16461.33
801.837	16417.27
802.168	16307.89
802.499	16327.1
802.83	16220.89
803.161	16155.58
803.491	16203.71
803.822	16269.02
804.153	16071.29
804.483	16015.92
804.814	16003.49
805.145	16056.37
805.475	15882.59
805.805	15921.46
806.136	15969.82
806.466	15912.87
806.796	15851.18
807.126	15771.18
807.457	15669.26
807.787	15715.14
808.117	15691.64
808.447	15675.14
808.777	15683.5
809.107	15531.64
809.436	15569.15
809.766	15577.29
810.096	15456.84
810.426	15383.85
810.755	15416.39
811.085	15323.51
811.414	15359.21
811.744	15261.14
812.073	15286.9
812.403	15323.28
812.732	15120.8
813.061	15241.7
813.39	15023.4
813.719	15119.45
814.049	15146.79
814.378	15176.62
814.707	15038.09
815.036	14986.12
815.365	15033.57
815.693	14889.85
816.022	14851.43
816.351	14914.25
816.68	14854.82
817.008	14840.13
817.337	14692.57
817.665	14651.66
817.994	14725.33
818.322	14725.79
818.651	14689.85
818.979	14585.9
819.307	14592.46
819.636	14592.23
819.964	14512.68
820.292	14597.88
820.62	14581.38
820.948	14512.91
821.276	14627.26
821.604	14522.4
821.932	14542.29
822.259	14590.42
822.587	14566.47
822.915	14515.17
823.243	14548.16
823.57	14504.32
823.898	14492.8
824.225	14408.51
824.553	14527.6
824.88	14496.41
825.207	14516.98
825.535	14482.85
825.862	14423.19
826.189	14562.85
826.516	14518.33
826.843	14620.93
827.17	14606.92
827.497	14580.7
827.824	14537.32
828.151	14576.41
828.478	14507.94
828.805	14587.71
829.131	14543.64
829.458	14426.36
829.785	14394.27
830.111	14483.08
830.438	14528.05
830.764	14544.32
831.09	14517.2
831.417	14456.87
831.743	14462.06
832.069	14481.27
832.395	14441.05
832.722	14426.58
833.048	14499.8
833.374	14544.77
833.7	14387.04
834.026	14452.12
834.351	14453.02
834.677	14440.59
835.003	14382.29
835.329	14401.5
835.654	14382.74
835.98	14313.82
836.306	14337.77
836.631	14248.28
836.956	14387.71
837.282	14292.35
837.607	14237.21
837.932	14251.22
838.258	14241.05
838.583	14156.53
838.908	14145.46
839.233	14181.84
839.558	14095.29
839.883	14025.92
840.208	14026.59
840.533	14061.17
840.858	13991.57
841.182	14044
841.507	13965.13
841.832	13809.88
842.156	13776.43
842.481	13859.82
842.805	13810.1
843.13	13907.05
843.454	13775.3
843.778	13785.02
844.103	13694.17
844.427	13725.81
844.751	13668.41
845.075	13536.21
845.399	13678.81
845.723	13536.89
846.047	13547.51
846.371	13415.09
846.695	13452.37
847.019	13339.83
847.343	13300.06
847.666	13205.6
847.99	13199.5
848.313	13160.4
848.637	13117.01
848.96	13108.2
849.284	13046.28
849.607	12948.66
849.931	12903.23
850.254	12840.18
850.577	12697.82
850.9	12689
851.223	12690.58
851.546	12548.44
851.869	12541.89
852.192	12576.92
852.515	12451.95
852.838	12425.28
853.161	12406.3
853.483	12339.18
853.806	12276.58
854.129	12267.32
854.451	12242.46
854.774	12203.37
855.096	12178.73
855.419	12123.82
855.741	12037.49
856.063	11976.93
856.385	12067.1
856.708	11919.76
857.03	11892.64
857.352	11946.2
857.674	11883.37
857.996	11886.99
858.318	11734.23
858.64	11756.15
858.961	11734
859.283	11694.23
859.605	11626.43
859.926	11710.27
860.248	11640.89
860.57	11569.03
860.891	11547.56
861.212	11512.99
861.534	11523.61
861.855	11433.22
862.176	11423.73
862.498	11436.15
862.819	11450.39
863.14	11380.11
863.461	11382.82
863.782	11320.9
864.103	11334.91
864.424	11258.53
864.745	11367.91
865.065	11252.2
865.386	11203.62
865.707	11185.77
866.027	11228.25
866.348	11179.44
866.668	11160.68
866.989	11108.93
867.309	11012.89
867.63	11073.9
867.95	11011.53
868.27	11020.12
868.59	11042.04
868.91	11037.75
869.23	10991.87
869.55	10881.14
869.87	10950.07
870.19	10856.28
870.51	10918.43
870.83	10909.61
871.15	10917.52
871.469	10812.22
871.789	10816.74
872.109	10844.76
872.428	10777.19
872.748	10843.4
873.067	10793.69
873.386	10842.27
873.706	10788.04
874.025	10643.18
874.344	10616.74
874.663	10663.52
874.982	10651.09
875.301	10647.7
875.62	10603.63
875.939	10643.63
876.258	10643.41
876.577	10585.33
876.896	10547.36
877.214	10543.3
877.533	10533.58
877.852	10525.44
878.17	10492
878.489	10482.28
878.807	10475.73
879.125	10373.81
879.444	10437.76
879.762	10470.98
880.08	10481.83
880.398	10365.22
880.716	10372.23
881.034	10351.66
881.352	10301.49
881.67	10328.39
881.988	10226.69
882.306	10261.95
882.624	10138.11
882.941	10169.75
883.259	10151.22
883.577	10069.41
883.894	10112.12
884.212	10121.39
884.529	10121.39
884.846	10083.42
885.164	10009.75
885.481	9994.38
885.798	10075.06
886.115	9955.97
886.432	9955.52
886.75	9964.1
887.067	9908.28
887.383	9900.83
887.7	9896.76
888.017	9806.59
888.334	9817.44
888.651	9799.81
888.967	9703.77
889.284	9696.54
889.6	9720.72
889.917	9586.03
890.233	9644.34
890.55	9624
890.866	9626.03
891.182	9598.24
891.498	9556.2
891.815	9473.72
892.131	9479.82
892.447	9446.83
892.763	9434.4
893.079	9363.67
893.395	9327.06
893.71	9342.65
894.026	9320.96
894.342	9283.22
894.657	9234.4
894.973	9196.89
895.289	9193.95
895.604	9152.37
895.92	9138.36
896.235	9073.28
896.55	9112.83
896.865	9023.56
897.181	9022.21
897.496	9052.26
897.811	8942.21
898.126	8927.07
898.441	8907.18
898.756	8869.22
899.071	8748.99
899.386	8740.41
899.7	8695.66
900.015	8665.38
900.33	8637.36
900.644	8625.61
900.959	8659.28
901.273	8593.07
901.588	8603.23
901.902	8576.12
902.216	8475.78
902.531	8451.83
902.845	8477.59
903.159	8388.32
903.473	8424.71
903.787	8324.15
904.101	8256.35
904.415	8246.41
904.729	8210.25
905.042	8194.66
905.356	8182.68
905.67	8139.97
905.984	8150.14
906.297	8093.64
906.611	8047.54
906.924	7993.76
907.237	8018.16
907.551	7988.34
907.864	7925.74
908.177	7941.33
908.491	7852.07
908.804	7815.23
909.117	7769.81
909.43	7705.4
909.743	7714.9
910.056	7696.14
910.368	7651.62
910.681	7670.83
910.994	7643.03
911.307	7654.11
911.619	7549.93
911.932	7561
912.244	7477.61
912.557	7477.39
912.869	7455.24
913.181	7412.08
913.494	7379.31
913.806	7304.96
914.118	7289.6
914.43	7238.07
914.742	7266.77
915.054	7268.35
915.366	7222.48
915.678	7148.81
915.99	7152.42
916.302	7038.08
916.613	7066.33
916.925	7015.25
917.236	7010.73
917.548	6999.66
917.859	6989.27
918.171	6923.73
918.482	6898.87
918.794	6832.43
919.105	6857.74
919.416	6789.5
919.727	6813.22
920.038	6820.91
920.349	6729.16
920.66	6720.35
920.971	6691.65
921.282	6690.06
921.593	6607.35
921.903	6532.1
922.214	6563.51
922.525	6489.62
922.835	6552.21
923.146	6471.99
923.456	6469.96
923.767	6464.99
924.077	6394.93
924.387	6358.32
924.697	6358.77
925.008	6291.88
925.318	6303.41
925.628	6325.55
925.938	6250.53
926.248	6225.22
926.558	6198.33
926.867	6196.52
927.177	6135.95
927.487	6124.66
927.796	6084.2
928.106	6077.2
928.416	5985.22
928.725	6001.95
929.034	5970.31
929.344	5992.23
929.653	5993.59
929.962	5935.28
930.271	5881.5
930.581	5837.88
930.89	5811.9
931.199	5796.75
931.508	5779.58
931.817	5793.14
932.125	5764.89
932.434	5717.89
932.743	5724.67
933.051	5677.89
933.36	5659.58
933.669	5578.68
933.977	5615.74
934.286	5619.58
934.594	5611.67
934.902	5571.22
935.21	5522.19
935.519	5485.35
935.827	5454.39
936.135	5457.1
936.443	5410.1
936.751	5420.95
937.059	5354.28
937.367	5402.87
937.674	5365.13
937.982	5336.88
938.29	5326.71
938.597	5279.93
938.905	5239.25
939.213	5274.06
939.52	5177.79
939.827	5161.52
940.135	5186.6
940.442	5134.62
940.749	5143.44
941.056	5135.75
941.363	5053.72
941.67	5100.05
941.977	5031.35
942.284	4960.84
942.591	4927.4
942.898	4949.32
943.205	4943.22
943.511	4927.17
943.818	4929.21
944.125	4821.41
944.431	4871.81
944.738	4847.4
945.044	4807.18
945.35	4818.02
945.657	4764.47
945.963	4735.31
946.269	4711.59
946.575	4740.96
946.881	4682.89
947.187	4693.28
947.493	4690.34
947.799	4660.74
948.105	4630.23
948.41	4613.06
948.716	4641.08
949.022	4545.94
949.327	4586.39
949.633	4473.17
949.938	4504.58
950.244	4521.08
950.549	4471.82
950.854	4478.14
951.16	4416.23
951.465	4389.33
951.77	4383.68
952.075	4364.02
952.38	4336.23
952.685	4329.22
952.99	4289.22
953.294	4307.98
953.599	4262.33
953.904	4230.47
954.209	4216.23
954.513	4232.95
954.818	4192.95
955.122	4189.11
955.426	4176.68
955.731	4146.85
956.035	4099.62
956.339	4131.49
956.643	4103.01
956.948	4053.75
957.252	4039.96
957.556	4094.88
957.86	4041.77
958.163	4027.08
958.467	4002.9
958.771	3982.34
959.075	3962
959.378	3948.44
959.682	3919.06
959.985	3914.09
960.289	3869.57
960.592	3874.09
960.896	3920.19
961.199	3862.79
961.502	3858.73
961.805	3809.01
962.108	3789.8
962.411	3809.91
962.714	3759.29
963.017	3741.67
963.32	3724.49
963.623	3697.6
963.926	3703.93
964.228	3679.3
964.531	3651.05
964.833	3624.83
965.136	3576.93
965.438	3615.34
965.741	3596.13
966.043	3619.86
966.345	3590.26
966.648	3526.08
966.95	3575.12
967.252	3521.79
967.554	3514.55
967.856	3486.76
968.158	3476.82
968.46	3466.87
968.761	3425.97
969.063	3456.93
969.365	3411.73
969.666	3425.07
969.968	3365.63
970.269	3396.14
970.571	3385.29
970.872	3359.3
971.174	3325.86
971.475	3315.92
971.776	3317.95
972.077	3261.23
972.378	3274.56
972.679	3280.66
972.98	3234.34
973.281	3216.48
973.582	3210.61
973.883	3192.3
974.183	3171.51
974.484	3214.9
974.785	3168.8
975.085	3141.68
975.386	3134.9
975.686	3157.28
975.986	3104.85
976.287	3084.06
976.587	3065.07
976.887	3046.77
977.187	3094.9
977.487	3053.32
977.787	3030.05
978.087	2976.72
978.387	2968.58
978.687	3002.25
978.987	2980.78
979.286	2952.76
979.586	2952.76
979.885	2938.3
980.185	2901.46
980.484	2940.33
980.784	2947.79
981.083	2906.21
981.382	2856.72
981.682	2856.72
981.981	2839.09
982.28	2833.44
982.579	2840.67
982.878	2802.26
983.177	2784.4
983.475	2790.51
983.774	2742.37
984.073	2725.65
984.372	2727.91
984.67	2726.78
984.969	2722.71
985.267	2702.37
985.566	2717.51
985.864	2695.37
986.162	2676.61
986.461	2638.87
986.759	2668.48
987.057	2640
987.355	2621.7
987.653	2634.13
987.951	2601.36
988.249	2588.93
988.547	2602.04
988.844	2560.91
989.142	2547.35
989.44	2521.59
989.737	2512.55
990.035	2509.61
990.332	2508.48
990.63	2508.71
990.927	2494.02
991.224	2444.3
991.521	2444.3
991.819	2437.97
992.116	2413.11
992.413	2414.92
992.71	2389.39
993.006	2395.71
993.303	2379.22
993.6	2388.48
993.897	2378.54
994.193	2330.18
994.49	2353.91
994.787	2291.08
995.083	2318.88
995.379	2320.46
995.676	2291.31
995.972	2275.94
996.268	2260.58
996.565	2263.51
996.861	2250.63
997.157	2251.76
997.453	2217.87
997.749	2206.79
998.044	2178.54
998.34	2203.18
998.636	2160.69
998.932	2174.25
999.227	2169.05
999.523	2150.07
999.818	2112.33
1000.114	2139.45
1000.409	2145.78
1000.704	2109.39
1001	2090.86
1001.295	2092.22
1001.59	2073.91
1001.885	2092.44
1002.18	2065.1
1002.475	2038.21
1002.77	2012.67
1003.065	1997.31
1003.359	1989.85
1003.654	2015.38
1003.949	1982.62
1004.243	1984.88
1004.538	1945.56
1004.832	1933.13
1005.127	1951.43
1005.421	1948.49
1005.715	1943.07
1006.009	1887.03
1006.304	1914.37
1006.598	1887.03
1006.892	1854.03
1007.186	1861.26
1007.48	1859.46
1007.773	1823.75
1008.067	1872.11
1008.361	1812.9
1008.655	1819.46
1008.948	1786.46
1009.242	1782.62
1009.535	1773.36
1009.829	1765.22
1010.122	1745.79
1010.415	1746.92
1010.708	1715.51
1011.001	1718.44
1011.295	1718.44
1011.588	1719.57
1011.881	1689.07
1012.173	1690.2
1012.466	1685.9
1012.759	1662.4
1013.052	1642.29
1013.344	1645
1013.637	1636.64
1013.93	1631.89
1014.222	1650.87
1014.514	1633.7
1014.807	1640.93
1015.099	1611.78
1015.391	1595.51
1015.683	1582.63
1015.976	1557.77
1016.268	1544.66
1016.56	1564.78
1016.851	1541.72
1017.143	1546.92
1017.435	1515.51
1017.727	1499.92
1018.018	1496.75
1018.31	1474.16
1018.602	1491.1
1018.893	1433.25
1019.185	1465.12
1019.476	1460.6
1019.767	1464.89
1020.058	1421.28
1020.35	1423.08
1020.641	1376.08
1020.932	1411.11
1021.223	1387.83
1021.514	1405.68
1021.804	1379.92
1022.095	1400.49
1022.386	1362.29
1022.677	1363.2
1022.967	1345.57
1023.258	1321.62
1023.548	1316.42
1023.839	1310.54
1024.129	1312.13
1024.419	1320.04
1024.709	1312.13
1025	1283.65
1025.29	1272.81
1025.58	1271.68
1025.87	1261.96
1026.16	1234.16
1026.449	1258.12
1026.739	1246.82
1027.029	1230.77
1027.319	1231.68
1027.608	1230.09
1027.898	1193.26
1028.187	1205.69
1028.477	1162.3
1028.766	1210.66
1029.055	1177.21
1029.344	1165.24
1029.634	1151.9
1029.923	1131.79
1030.212	1167.95
1030.501	1147.84
1030.79	1132.02
1031.078	1126.37
1031.367	1099.02
1031.656	1096.99
1031.945	1104.67
1032.233	1111.68
1032.522	1067.16
1032.81	1078.69
1033.099	1050.44
1033.387	1059.03
1033.675	1063.09
1033.963	1040.27
1034.251	1064.22
1034.54	1060.38
1034.828	1051.57
1035.116	1033.72
1035.403	994.17
1035.691	1003.89
1035.979	1016.77
1036.267	1003.89
1036.554	1006.37
1036.842	982.42
1037.129	968.18
1037.417	982.87
1037.704	979.25
1037.992	964.57
1038.279	942.19
1038.566	954.4
1038.853	954.4
1039.14	954.4
