Data from hue_50_FLMS001491_35.txt Node
Date: Mon Feb 06 15:10:02 GMT 2017
User: dcchb
Spectrometer: FLMS00149
Trigger mode: 0
Integration Time (sec): 2.000000E-2
Scans to average: 10
Electric dark correction enabled: true
Nonlinearity correction enabled: false
Boxcar width: 0
XAxis mode: Wavelengths
Number of Pixels in Spectrum: 2048
>>>>>Begin Spectral Data<<<<<
341.393	-12.92
341.776	-12.92
342.16	-12.92
342.543	-75.52
342.927	-49.08
343.31	-68.97
343.693	-66.71
344.077	-64.45
344.46	-61.74
344.843	-53.6
345.226	-44.11
345.61	-33.71
345.993	-46.14
346.376	7.19
346.759	-0.72
347.142	37.7
347.525	53.74
347.908	55.78
348.291	80.63
348.674	82.89
349.057	122.21
349.44	131.93
349.823	125.15
350.206	161.31
350.588	180.97
350.971	226.17
351.354	218.03
351.737	234.3
352.119	237.92
352.502	264.81
352.884	287.41
353.267	296
353.65	281.53
354.032	299.16
354.414	316.11
354.797	315.2
355.179	320.85
355.562	314.3
355.944	329.89
356.326	347.52
356.709	337.12
357.091	337.35
357.473	356.56
357.855	341.42
358.238	352.72
358.62	351.36
359.002	348.65
359.384	326.5
359.766	341.42
360.148	324.47
360.53	322.66
360.912	357.24
361.294	331.47
361.676	329.21
362.057	337.12
362.439	340.74
362.821	336.9
363.203	331.93
363.584	334.86
363.966	332.15
364.348	312.49
364.729	314.98
365.111	326.95
365.493	330.12
365.874	312.27
366.256	312.04
366.637	332.15
367.019	318.82
367.4	311.36
367.781	323.56
368.163	322.66
368.544	312.49
368.925	325.6
369.306	310.46
369.688	331.47
370.069	315.2
370.45	306.62
370.831	303.9
371.212	327.18
371.593	303
371.974	307.29
372.355	319.72
372.736	312.72
373.117	318.59
373.498	303
373.879	329.89
374.26	310.46
374.641	302.77
375.021	307.97
375.402	306.16
375.783	324.69
376.163	328.54
376.544	318.82
376.925	312.49
377.305	312.04
377.686	319.5
378.066	316.33
378.447	336.67
378.827	322.89
379.208	324.02
379.588	323.79
379.968	331.25
380.349	328.76
380.729	321.08
381.109	348.2
381.489	328.99
381.87	338.48
382.25	333.96
382.63	333.51
383.01	348.65
383.39	326.5
383.77	335.54
384.15	341.87
384.53	340.51
384.91	345.26
385.29	360.17
385.67	344.58
386.049	342.32
386.429	352.26
386.809	340.51
387.189	375.31
387.568	346.62
387.948	346.84
388.328	356.78
388.707	337.8
389.087	324.02
389.466	384.35
389.846	364.92
390.225	362.66
390.605	359.95
390.984	354.75
391.363	363.11
391.743	346.84
392.122	349.55
392.501	363.79
392.881	373.73
393.26	337.35
393.639	355.88
394.018	364.69
394.397	358.14
394.776	364.47
395.155	352.94
395.534	364.69
395.913	359.04
396.292	379.16
396.671	364.24
397.05	369.44
397.429	364.02
397.808	385.03
398.186	350.23
398.565	365.37
398.944	381.87
399.323	373.51
399.701	380.06
400.08	382.77
400.458	392.49
400.837	377.12
401.215	398.82
401.594	394.52
401.972	383.45
402.351	371.47
402.729	377.8
403.107	392.26
403.486	403.56
403.864	378.93
404.242	404.01
404.62	380.06
404.999	383.22
405.377	389.55
405.755	407.4
406.133	394.52
406.511	406.05
406.889	416.67
407.267	417.12
407.645	420.51
408.023	425.03
408.401	418.48
408.779	423.9
409.156	441.75
409.534	420.06
409.912	412.83
410.29	412.15
410.667	419.16
411.045	428.87
411.422	423.68
411.8	428.42
412.178	416.44
412.555	432.49
412.933	444.24
413.31	433.17
413.687	437.91
414.065	434.07
414.442	459.61
414.819	447.63
415.197	451.7
415.574	444.69
415.951	476.78
416.328	452.6
416.705	455.99
417.082	482.88
417.46	446.05
417.837	488.76
418.214	477.01
418.591	481.53
418.967	482.66
419.344	464.8
419.721	478.36
420.098	467.52
420.475	479.27
420.852	483.33
421.228	497.12
421.605	494.86
421.982	490.34
422.358	503.22
422.735	494.63
423.111	505.48
423.488	500.74
423.864	519.27
424.241	509.55
424.617	510.68
424.994	520.62
425.37	523.11
425.746	503.67
426.123	526.27
426.499	492.6
426.875	528.53
427.251	528.08
427.627	544.12
428.003	552.71
428.379	541.64
428.756	559.04
429.132	535.08
429.507	557.01
429.883	568.3
430.259	558.36
430.635	550.23
431.011	571.92
431.387	584.58
431.763	586.38
432.138	584.12
432.514	567.17
432.89	590.68
433.265	605.59
433.641	587.96
434.016	601.3
434.392	603.56
434.767	596.33
435.143	598.81
435.518	599.72
435.894	612.37
436.269	639.26
436.644	611.47
437.02	634.07
437.395	629.55
437.77	634.52
438.145	641.07
438.52	627.51
438.895	646.72
439.271	652.6
439.646	642.2
440.021	678.36
440.395	649.88
440.77	657.34
441.145	652.37
441.52	682.2
441.895	698.24
442.27	656.89
442.645	684.01
443.019	657.34
443.394	681.75
443.769	702.09
444.143	707.06
444.518	688.98
444.892	676.55
445.267	705.02
445.641	704.35
446.016	721.75
446.39	713.84
446.764	720.62
447.139	715.87
447.513	721.52
447.887	726.94
448.262	721.75
448.636	731.69
449.01	731.92
449.384	733.27
449.758	717.9
450.132	749.99
450.506	772.37
450.88	745.7
451.254	740.96
451.628	771.46
452.002	770.11
452.376	778.69
452.75	799.94
453.123	798.81
453.497	811.01
453.871	809.88
454.244	808.98
454.618	847.17
454.992	829.77
455.365	813.04
455.739	861.86
456.112	863.66
456.486	850.56
456.859	849.43
457.232	860.95
457.606	845.36
457.979	882.87
458.352	872.7
458.725	927.62
459.099	905.92
459.472	931.46
459.845	907.96
460.218	932.81
460.591	952.47
460.964	938.24
461.337	952.93
461.71	968.29
462.083	1001.06
462.456	985.02
462.829	1027.73
463.201	1039.93
463.574	1023.66
463.947	1008.07
464.32	1049.42
464.692	1041.29
465.065	1063.21
465.438	1079.25
465.81	1119.7
466.183	1142.98
466.555	1156.09
466.928	1131.23
467.3	1152.92
467.672	1202.19
468.045	1197.89
468.417	1229.08
468.789	1223.65
469.161	1260.04
469.534	1274.73
469.906	1285.35
470.278	1299.36
470.65	1356.31
471.022	1389.07
471.394	1399.24
471.766	1420.26
472.138	1420.71
472.51	1468.39
472.882	1500.94
473.253	1517.66
473.625	1533.02
473.997	1593.81
474.369	1629.07
474.74	1647.37
475.112	1663.42
475.484	1731.44
475.855	1775.73
476.227	1815.73
476.598	1867.25
476.97	1890.76
477.341	1935.5
477.713	1984.09
478.084	2053.91
478.455	2083.97
478.827	2175.95
479.198	2210.29
479.569	2272.44
479.94	2346.34
480.311	2406.67
480.682	2484.86
481.053	2587.69
481.424	2626.56
481.795	2686.89
482.166	2785.65
482.537	2834.46
482.908	2939.54
483.279	2987.45
483.65	3100.67
484.021	3204.85
484.391	3289.36
484.762	3357.38
485.133	3401.68
485.503	3565.97
485.874	3654.78
486.244	3796.02
486.615	3899.29
486.985	3979.29
487.356	4093.41
487.726	4212.28
488.097	4335.21
488.467	4403.23
488.837	4595.09
489.207	4686.39
489.578	4783.79
489.948	4938.13
490.318	4990.11
490.688	5146.04
491.058	5255.41
491.428	5379.93
491.798	5497.21
492.168	5696.53
492.538	5794.16
492.908	5916.64
493.278	6028.95
493.648	6170.19
494.017	6289.06
494.387	6405.89
494.757	6622.38
495.126	6715.26
495.496	6761.81
495.866	6900.34
496.235	6970.85
496.605	7181.92
496.974	7269.82
497.344	7410.38
497.713	7535.13
498.082	7690.6
498.452	7785.06
498.821	7901.9
499.19	7978.96
499.559	8107.09
499.928	8265.5
500.298	8380.75
500.667	8511.15
501.036	8604.03
501.405	8745.72
501.774	8864.36
502.143	8965.15
502.512	9054.18
502.88	9192.71
503.249	9232.71
503.618	9349.09
503.987	9502.98
504.356	9612.59
504.724	9684
505.093	9826.37
505.462	9855.29
505.83	9992.69
506.199	10116.75
506.567	10300.25
506.936	10351.1
507.304	10448.95
507.672	10564.43
508.041	10636.74
508.409	10782.5
508.777	10870.18
509.145	10998.99
509.514	11075.15
509.882	11219.32
510.25	11288.25
510.618	11460.67
510.986	11458.41
511.354	11582.03
511.722	11772.53
512.09	11899.53
512.458	11868.8
512.826	12046.19
513.193	12068.11
513.561	12150.6
513.929	12325.96
514.297	12447.77
514.664	12496.58
515.032	12592.62
515.4	12739.06
515.767	12842.78
516.135	12903.57
516.502	12869.22
516.869	13170.01
517.237	13114.87
517.604	13239.61
517.972	13324.13
518.339	13490.22
518.706	13500.17
519.073	13654.74
519.44	13753.72
519.808	13876.65
520.175	13854.51
520.542	14102.86
520.909	14168.85
521.276	14219.7
521.643	14279.58
522.009	14496.3
522.376	14640.93
522.743	14549.86
523.11	14802.28
523.477	14994.59
523.843	15026.46
524.21	15184.19
524.577	15368.14
524.943	15393.45
525.31	15423.05
525.676	15603.39
526.043	15756.83
526.409	15843.38
526.776	15941.01
527.142	16082.92
527.508	16097.61
527.874	16207.89
528.241	16306.42
528.607	16465.29
528.973	16594.55
529.339	16544.61
529.705	16757.94
530.071	16886.07
530.437	16911.15
530.803	17065.27
531.169	17212.16
531.535	17245.83
531.901	17157.25
532.267	17282.67
532.632	17380.07
532.998	17363.12
533.364	17648.08
533.73	17745.71
534.095	17786.61
534.461	17883.78
534.826	17941.63
535.192	18058.92
535.557	18202.19
535.923	18274.05
536.288	18268.18
536.653	18403.32
537.019	18439.92
537.384	18447.38
537.749	18503.2
538.114	18546.81
538.479	18621.84
538.845	18722.18
539.21	18786.13
539.575	18854.83
539.94	18871.1
540.305	19092.79
540.67	19035.39
541.034	19174.82
541.399	19084.43
541.764	19240.13
542.129	19322.39
542.494	19375.04
542.858	19450.07
543.223	19529.16
543.587	19660.23
543.952	19739.33
544.316	19730.06
544.681	19780.68
545.045	19900
545.41	19951.75
545.774	20025.65
546.138	20061.13
546.503	20079.43
546.867	20107.68
547.231	20280.78
547.595	20388.35
547.959	20444.84
548.324	20357.16
548.688	20555.58
549.052	20592.41
549.416	20664.5
549.779	20729.36
550.143	20702.01
550.507	20869.92
550.871	20971.84
551.235	20982.23
551.599	20988.33
551.962	21122.11
552.326	21262
552.689	21372.28
553.053	21277.36
553.417	21252.05
553.78	21594.42
554.143	21466.74
554.507	21658.37
554.87	21735.21
555.234	21898.14
555.597	21751.02
555.96	21984.92
556.323	22099.72
556.686	21935.65
557.05	22207.06
557.413	22295.42
557.776	22263.55
558.139	22489.99
558.502	22523.43
558.865	22607.05
559.228	22720.72
559.59	22784.44
559.953	22866.48
560.316	23005.91
560.679	23078.9
561.041	23253.36
561.404	23259.01
561.767	23422.39
562.129	23388.72
562.492	23661.26
562.854	23597.76
563.217	23678.21
563.579	23811.31
563.941	23935.83
564.304	24076.16
564.666	24075.48
565.028	24204.74
565.39	24299.43
565.753	24311.86
566.115	24510.5
566.477	24548.69
566.839	24778.97
567.201	24805.86
567.563	24798.18
567.925	25007.21
568.287	25066.87
568.648	25162.91
569.01	25322.68
569.372	25388.67
569.734	25180.76
570.095	25614.88
570.457	25748.89
570.819	25647.64
571.18	25741.88
571.542	25833.85
571.903	25929.67
572.265	26097.58
572.626	26187.07
572.987	26248.31
573.349	26433.16
573.71	26497.34
574.071	26507.06
574.432	26623.66
574.794	26738.46
575.155	26885.8
575.516	26629.31
575.877	26898.23
576.238	27090.09
576.599	27200.15
576.96	27356.98
577.32	27186.14
577.681	27404.66
578.042	27559.23
578.403	27611.89
578.763	27747.48
579.124	27713.13
579.485	27967.58
579.845	28014.14
580.206	28031.31
580.566	28010.75
580.927	28147.01
581.287	28312.21
581.648	28391.75
582.008	28523.73
582.368	28526.89
582.728	28716.72
583.089	28740.9
583.449	28864.51
583.809	28909.25
584.169	29045.52
584.529	29092.98
584.889	29404.83
585.249	29129.36
585.609	29243.26
585.969	29493.65
586.329	29584.26
586.688	29690.7
587.048	29761.21
587.408	29754.2
587.768	29945.84
588.127	29996.01
588.487	30079.39
588.846	30387.86
589.206	30139.96
589.565	30372.49
589.925	30580.62
590.284	30579.04
590.643	30683.44
591.003	30786.72
591.362	31049.54
591.721	31000.72
592.08	30979.48
592.44	31326.37
592.799	31379.25
593.158	31307.83
593.517	31575.85
593.876	31753.02
594.235	31524.78
594.593	31795.73
594.952	31925.45
595.311	31934.94
595.67	31956.86
596.029	32189.17
596.387	32356.39
596.746	32458.31
597.104	32324.31
597.463	32386.22
597.822	32672.77
598.18	32560.68
598.538	32532.89
598.897	32838.87
599.255	32724.07
599.613	33351.85
599.972	33240.44
600.33	33313.66
600.688	33185.75
601.046	33396.37
601.404	33653.76
601.762	33556.59
602.12	33849.92
602.478	33703.7
602.836	33863.25
603.194	33702.35
603.552	33892.17
603.91	33966.3
604.268	34322.44
604.625	34146.18
604.983	34380.07
605.341	34079.97
605.698	34350.47
606.056	34467.75
606.413	34491.03
606.771	34773.96
607.128	34778.93
607.485	34626.84
607.843	34836.33
608.2	35049.66
608.557	35043.33
608.914	35011.47
609.272	35078.13
609.629	35229.54
609.986	35502.53
610.343	35354.28
610.7	35591.56
611.057	35588.4
611.414	35611.68
611.771	35729.19
612.127	35847.15
612.484	35841.73
612.841	35937.32
613.198	35960.37
613.554	35972.8
613.911	36345.67
614.267	36307.48
614.624	36237.65
614.98	36344.54
615.337	36558.77
615.693	36408.04
616.05	36477.64
616.406	36707.92
616.762	36646
617.118	36643.06
617.475	36624.08
617.831	36848.03
618.187	36885.77
618.543	36939.1
618.899	37183.16
619.255	37143.16
619.611	37162.6
619.967	37335.7
620.323	37269.03
620.678	37216.38
621.034	37306.32
621.39	37293.44
621.746	37369.6
622.101	37789.25
622.457	37440.33
622.812	37636.26
623.168	37753.99
623.523	37691.17
623.879	37864.95
624.234	37495.02
624.589	37763.71
624.945	37734.11
625.3	37748.8
625.655	37901.33
626.01	37822.24
626.365	37922.58
626.72	37955.34
627.075	37832.86
627.43	37768.68
627.785	37686.88
628.14	37935.01
628.495	38008.45
628.85	37885.52
629.205	37795.57
629.559	38003.48
629.914	37920.99
630.269	37981.33
630.623	37862.01
630.978	37891.84
631.332	38023.82
631.687	38104.27
632.041	37873.76
632.396	38009.13
632.75	37880.77
633.104	37883.03
633.459	37720.77
633.813	37958.73
634.167	37796.25
634.521	37842.35
634.875	37829.25
635.229	37766.42
635.583	37617.05
635.937	37615.24
636.291	37794.9
636.645	37796.25
636.999	37575.69
637.352	37661.79
637.706	37526.88
638.06	37749.93
638.413	37636.03
638.767	37557.61
639.121	37559.65
639.474	37275.36
639.828	37416.37
640.181	37398.07
640.534	37529.59
640.888	37489.37
641.241	37377.96
641.594	37362.37
641.947	37360.78
642.301	37405.98
642.654	37325.76
643.007	37326.89
643.36	37257.51
643.713	37249.37
644.066	37274.91
644.419	37150.39
644.771	36768.48
645.124	36614.81
645.477	36477.19
645.83	36230.64
646.182	36094.38
646.535	36179.8
646.888	36119.69
647.24	36006.69
647.593	36175.5
647.945	36074.72
648.298	35959.92
648.65	35815.29
649.002	35746.59
649.355	35839.92
649.707	35806.25
650.059	35984.1
650.411	36456.85
650.763	36462.73
651.115	36756.73
651.467	36612.33
651.819	36742.04
652.171	36691.87
652.523	36608.26
652.875	36535.27
653.227	36396.51
653.578	36746.11
653.93	36462.95
654.282	36448.26
654.633	36192.23
654.985	36340.7
655.337	36431.77
655.688	36368.49
656.039	36511.31
656.391	36147.26
656.742	36296.4
657.094	36278.55
657.445	36303.64
657.796	36379.34
658.147	36409.85
658.498	36293.92
658.849	36334.6
659.2	36259.34
659.551	36077.65
659.902	36313.81
660.253	36242.17
660.604	36330.08
660.955	36054.83
661.306	36234.94
661.656	35987.71
662.007	36115.84
662.358	36046.69
662.708	36104.55
663.059	36050.31
663.409	35923.53
663.76	36117.2
664.11	36057.09
664.461	36133.92
664.811	36074.94
665.161	36064.09
665.511	36021.38
665.862	36018.22
666.212	36079.69
666.562	36194.71
666.912	36091.66
667.262	36075.62
667.612	35938.9
667.962	36022.51
668.312	35998.33
668.662	35970.09
669.011	36117.88
669.361	36074.72
669.711	36014.38
670.06	35998.79
670.41	35779.58
670.76	35900.48
671.109	36032.23
671.459	35989.07
671.808	35771.22
672.157	35901.16
672.507	35682.41
672.856	35683.31
673.205	35825
673.554	35862.29
673.904	35623.2
674.253	35898.9
674.602	35719.92
674.951	35185.93
675.3	35105.02
675.649	35693.48
675.998	35651
676.346	35759.92
676.695	35739.13
677.044	35491.91
677.393	35539.36
677.741	35617.33
678.09	35519.48
678.438	35335.07
678.787	35433.6
679.135	35531.45
679.484	35231.57
679.832	35307.05
680.181	35168.98
680.529	35305.92
680.877	35300.5
681.225	35180.05
681.573	35245.13
681.922	35045.14
682.27	35015.08
682.618	34983.67
682.966	35009.43
683.314	34928.98
683.661	34964.01
684.009	34652.61
684.357	34564.47
684.705	34601.99
685.053	34658.03
685.4	34593.62
685.748	34607.86
686.095	34471.37
686.443	34302.11
686.79	34256.01
687.138	34466.4
687.485	34247.19
687.832	34292.84
688.18	34223.01
688.527	34138.5
688.874	34062.56
689.221	33959.52
689.568	33778.05
689.915	33870.71
690.262	33812.63
690.609	33617.6
690.956	33580.32
691.303	33485.4
691.65	33385.97
691.997	33403.15
692.344	33234.34
692.69	33297.61
693.037	33239.54
693.383	33015.13
693.73	33184.62
694.077	32862.37
694.423	32878.42
694.769	32655.37
695.116	32851.3
695.462	32603.62
695.808	32506.9
696.155	32705.31
696.501	32410.18
696.847	32358.43
697.193	32252.89
697.539	32145.78
697.885	32027.59
698.231	31953.02
698.577	32032.34
698.923	31918.67
699.269	31859.68
699.614	31612.23
699.96	31615.62
700.306	31588.96
700.651	31421.96
700.997	31318
701.342	31329.3
701.688	31258.12
702.033	31173.15
702.379	31154.39
702.724	31024.9
703.069	31057.22
703.415	30776.78
703.76	30803.22
704.105	30849.32
704.45	30770.9
704.795	30635.54
705.14	30363.91
705.485	30440.29
705.83	30227.19
706.175	30281.2
706.52	30287.07
706.865	30149
707.209	30081.65
707.554	29960.53
707.899	30041.2
708.243	29830.59
708.588	29862.9
708.932	29640.53
709.277	29614.77
709.621	29603.47
709.966	29458.17
710.31	29632.62
710.654	29319.64
710.998	29410.48
711.342	29312.86
711.687	29337.94
712.031	29164.84
712.375	29092.07
712.719	29141.34
713.063	29116.25
713.407	29070.15
713.75	28853.44
714.094	28869.71
714.438	28783.83
714.782	28769.6
715.125	28616.38
715.469	28811.63
715.812	28530.51
716.156	28344.98
716.499	28454.58
716.843	28350.62
717.186	28380.68
717.53	28424.29
717.873	28346.1
718.216	28214.36
718.559	28170.74
718.902	28000.35
719.246	28080.35
719.589	27915.83
719.932	27788.38
720.275	27872.22
720.617	27731.43
720.96	27789.28
721.303	27827.02
721.646	27779.79
721.989	27596.29
722.331	27531.66
722.674	27584.09
723.016	27601.72
723.359	27467.26
723.701	27419.58
724.044	27235.4
724.386	27152.69
724.729	27420.71
725.071	27419.35
725.413	27188.85
725.755	27238.56
726.097	27168.96
726.439	26976.42
726.782	26878.12
727.124	27094.84
727.465	26882.41
727.807	26929.19
728.149	26814.62
728.491	26808.74
728.833	26875.64
729.175	26842.19
729.516	26607.17
729.858	26646.26
730.199	26608.07
730.541	26595.87
730.882	26536.89
731.224	26644.23
731.565	26401.75
731.906	26428.19
732.248	26581.18
732.589	26370.79
732.93	26283.11
733.271	26237.01
733.612	26256.44
733.953	26095.09
734.294	26041.98
734.635	25992.49
734.976	26145.26
735.317	25997.47
735.658	25834.31
735.999	25939.16
736.339	25943
736.68	26081.08
737.021	25871.37
737.361	25685.38
737.702	25948.2
738.042	25806.28
738.383	25721.32
738.723	25738.94
739.063	25657.36
739.404	25667.76
739.744	25596.8
740.084	25552.51
740.424	25463.69
740.764	25441.77
741.104	25512.06
741.444	25324.94
741.784	25331.04
742.124	25414.43
742.464	25354.77
742.804	25253.3
743.143	25182.57
743.483	25243.59
743.823	25054.44
744.162	25126.08
744.502	25131.5
744.841	25004.5
745.181	24966.08
745.52	24967.44
745.86	24943.26
746.199	24867.1
746.538	24850.6
746.877	24892.18
747.216	24859.19
747.556	24688.57
747.895	24805.41
748.234	24641.57
748.573	24573.1
748.911	24528.13
749.25	24589.59
749.589	24438.19
749.928	24555.7
750.267	24419.2
750.605	24385.31
750.944	24298.08
751.283	24345.08
751.621	24355.02
751.96	24197.29
752.298	24117.06
752.636	24057.63
752.975	24003.85
753.313	23901.93
753.651	24022.83
753.989	23891.98
754.327	23860.57
754.666	23674.14
755.004	23772.21
755.342	23726.34
755.679	23681.82
756.017	23545.33
756.355	23668.71
756.693	23499.45
757.031	23455.84
757.368	23320.02
757.706	23311.89
758.044	23184.43
758.381	23252.68
758.719	23179.46
759.056	23176.75
759.394	23081.84
759.731	22904.44
760.068	22974.72
760.405	22799.81
760.743	22727.95
761.08	22744.67
761.417	22612.92
761.754	22654.05
762.091	22588.06
762.428	22467.16
762.765	22303.1
763.102	22374.96
763.438	22191.01
763.775	22179.49
764.112	22145.59
764.449	22202.76
764.785	22116.21
765.122	21987.63
765.458	21855.43
765.795	21874.18
766.131	21768.88
766.467	21697.01
766.804	21647.75
767.14	21563.91
767.476	21455.66
767.812	21344.03
768.148	21468.55
768.485	21277.59
768.821	21203.24
769.157	21165.73
769.492	21110.59
769.828	20989.46
770.164	20960.08
770.5	20821.33
770.836	20874.44
771.171	20655.01
771.507	20621.11
771.842	20449.14
772.178	20573.88
772.513	20468.35
772.849	20373.89
773.184	20260.89
773.519	20204.17
773.855	20120.33
774.19	20126.43
774.525	19950.85
774.86	19974.12
775.195	19894.58
775.53	19927.12
775.865	19740.46
776.2	19639.44
776.535	19516.73
776.87	19508.37
777.205	19411.42
777.539	19305.66
777.874	19371.65
778.209	19174.37
778.543	19198.1
778.878	18991.1
779.212	19038.1
779.547	18931.21
779.881	18941.83
780.215	18865.68
780.55	18923.08
780.884	18779.8
781.218	18768.28
781.552	18636.53
781.886	18620.26
782.22	18479.7
782.554	18346.59
782.888	18335.97
783.222	18188.86
783.556	18045.36
783.889	18093.04
784.223	17940.95
784.557	17945.93
784.89	17923.55
785.224	17888.98
785.557	17725.37
785.891	17698.02
786.224	17594.98
786.558	17665.71
786.891	17505.71
787.224	17418.26
787.557	17463.68
787.891	17284.93
788.224	17238.15
788.557	17195.21
788.89	17204.48
789.223	17126.74
789.556	17069.57
789.888	17014.43
790.221	16977.14
790.554	16816.92
790.887	16754.09
791.219	16735.56
791.552	16709.8
791.884	16619.18
792.217	16612.85
792.549	16488.11
792.882	16390.94
793.214	16281.56
793.546	16283.15
793.879	16259.87
794.211	16170.15
794.543	16249.93
794.875	16054.22
795.207	16195.92
795.539	16116.82
795.871	16081.79
796.203	15886.55
796.535	15826.21
796.867	15830.05
797.198	15786.44
797.53	15754.57
797.862	15638.87
798.193	15669.15
798.525	15522.49
798.856	15604.07
799.188	15530.17
799.519	15282.04
799.85	15287.01
800.182	15304.87
800.513	15251.53
800.844	15165.89
801.175	15189.61
801.506	15200.24
801.837	15051.99
802.168	15047.7
802.499	14960.47
802.83	14944.42
803.161	14880.47
803.491	14871.66
803.822	14863.75
804.153	14835.27
804.483	14601.83
804.814	14599.12
805.145	14658.56
805.475	14554.83
805.805	14459.92
806.136	14534.26
806.466	14465.79
806.796	14378.79
807.126	14353.25
807.457	14277.77
807.787	14269.19
808.117	14271.22
808.447	14169.98
808.777	14246.59
809.107	14135.18
809.436	14068.74
809.766	14109.64
810.096	14082.3
810.426	13972.92
810.755	13943.32
811.085	13839.37
811.414	13891.12
811.744	13851.8
812.073	13781.52
812.403	13738.35
812.732	13685.93
813.061	13642.54
813.39	13625.81
813.719	13573.84
814.049	13630.11
814.378	13615.64
814.707	13481.64
815.036	13492.71
815.365	13508.53
815.693	13292.04
816.022	13390.79
816.351	13245.71
816.68	13230.8
817.008	13290
817.337	13160.29
817.665	13075.77
817.994	13201.87
818.322	13142.44
818.651	13061.76
818.979	12996.9
819.307	13136.34
819.636	13004.36
819.964	12984.02
820.292	12939.96
820.62	12946.51
820.948	12951.48
821.276	12935.44
821.604	12991.03
821.932	12937.92
822.259	12902.67
822.587	12896.34
822.915	12906.51
823.243	12916
823.57	12861.31
823.898	12898.38
824.225	12809.56
824.553	12819.06
824.88	12798.27
825.207	12819.51
825.535	12751.94
825.862	12811.82
826.189	12795.33
826.516	12910.58
826.843	12804.59
827.17	12865.38
827.497	12803.91
827.824	12821.32
828.151	12865.61
828.478	12758.49
828.805	12878.94
829.131	12760.3
829.458	12780.86
829.785	12704.48
830.111	12746.52
830.438	12834.2
830.764	12789.45
831.09	12794.2
831.417	12702.67
831.743	12827.42
832.069	12756.01
832.395	12731.83
832.722	12751.03
833.048	12626.52
833.374	12649.79
833.7	12647.31
834.026	12603.47
834.351	12681.66
834.677	12671.26
835.003	12666.29
835.329	12531.38
835.654	12563.47
835.98	12548.1
836.306	12572.28
836.631	12441.44
836.956	12644.14
837.282	12469.46
837.607	12496.35
837.932	12407.32
838.258	12427.43
838.583	12398.73
838.908	12370.25
839.233	12398.95
839.558	12410.25
839.883	12269.01
840.208	12243.03
840.533	12309.46
840.858	12294.1
841.182	12281.22
841.507	12323.93
841.832	12156.47
842.156	12227.88
842.481	12199.18
842.805	12099.75
843.13	12038.29
843.454	12107.44
843.778	12049.36
844.103	12016.14
844.427	11960.55
844.751	11943.37
845.075	11910.6
845.399	11856.82
845.723	11877.16
846.047	11815.69
846.371	11730.27
846.695	11765.75
847.019	11624.96
847.343	11587
847.666	11590.16
847.99	11459.32
848.313	11507.23
848.637	11384.52
848.96	11306.1
849.284	11323.5
849.607	11267.91
849.931	11215.26
850.254	11158.76
850.577	11112.43
850.9	11054.81
851.223	11035.6
851.546	11002.15
851.869	10954.02
852.192	10960.35
852.515	10897.52
852.838	10837.86
853.161	10854.81
853.483	10757.19
853.806	10709.05
854.129	10737.3
854.451	10613.92
854.774	10588.83
855.096	10508.83
855.419	10598.32
855.741	10521.71
856.063	10514.94
856.385	10422.06
856.708	10382.51
857.03	10391.55
857.352	10351.55
857.674	10347.71
857.996	10301.16
858.318	10246.24
858.64	10222.06
858.961	10212.57
859.283	10181.16
859.605	10110.2
859.926	10144.32
860.248	10121.05
860.57	10036.98
860.891	10096.87
861.212	10061.16
861.534	10023.2
861.855	10008.28
862.176	10005.8
862.498	9919.92
862.819	9998.11
863.14	9869.75
863.461	9970.77
863.782	9796.76
864.103	9924.22
864.424	9887.16
864.745	9856.42
865.065	9837.44
865.386	9761.06
865.707	9721.74
866.027	9783.2
866.348	9676.09
866.668	9724.22
866.989	9655.3
867.309	9596.09
867.63	9675.18
867.95	9595.64
868.27	9607.61
868.59	9591.8
868.91	9605.13
869.23	9598.12
869.55	9519.03
869.87	9539.82
870.19	9475.41
870.51	9524.9
870.83	9492.82
871.15	9435.42
871.469	9404
871.789	9441.07
872.109	9408.98
872.428	9367.39
872.748	9415.3
873.067	9416.66
873.386	9327.62
873.706	9338.7
874.025	9349.32
874.344	9277.45
874.663	9296.21
874.982	9226.38
875.301	9267.74
875.62	9213.5
875.939	9207.4
876.258	9151.81
876.577	9192.03
876.896	9200.85
877.214	9132.15
877.533	9141.41
877.852	9162.65
878.17	9073.84
878.489	9158.36
878.807	9141.19
879.125	9100.06
879.444	9082.2
879.762	9039.72
880.08	9064.13
880.398	8990.46
880.716	9031.36
881.034	8995.88
881.352	8963.79
881.67	8960.63
881.988	8952.94
882.306	8931.93
882.624	8911.81
882.941	8859.39
883.259	8788.65
883.577	8804.92
883.894	8833.85
884.212	8782.78
884.529	8801.53
884.846	8754.3
885.164	8765.38
885.481	8680.63
885.798	8673.85
886.115	8657.36
886.432	8627.3
886.75	8623.23
887.067	8634.08
887.383	8533.07
887.7	8578.94
888.017	8494.2
888.334	8588.21
888.651	8520.64
888.967	8533.97
889.284	8450.58
889.6	8449
889.917	8361.77
890.233	8368.55
890.55	8355.22
890.866	8336.69
891.182	8304.37
891.498	8268.44
891.815	8219.4
892.131	8263.92
892.447	8220.98
892.763	8201.78
893.079	8207.2
893.395	8148.44
893.71	8184.15
894.026	8059.18
894.342	8083.59
894.657	8020.54
894.973	8038.84
895.289	7975.34
895.604	7927.88
895.92	7903.93
896.235	7910.94
896.55	7911.84
896.865	7853.76
897.181	7872.52
897.496	7815.12
897.811	7725.18
898.126	7785.97
898.441	7741.22
898.756	7735.12
899.071	7622.13
899.386	7682.92
899.7	7650.83
900.015	7611.73
900.33	7546.2
900.644	7485.86
900.959	7508.23
901.273	7481.57
901.588	7495.81
901.902	7398.63
902.216	7399.31
902.531	7403.15
902.845	7349.14
903.159	7298.97
903.473	7303.49
903.787	7231.41
904.101	7268.47
904.415	7253.1
904.729	7166.1
905.042	7171.97
905.356	7148.02
905.67	7110.28
905.984	7113.22
906.297	7092.2
906.611	6990.73
906.924	7028.93
907.237	6966.78
907.551	6951.64
907.864	6925.88
908.177	6871.19
908.491	6889.72
908.804	6869.61
909.117	6798.42
909.43	6767.69
909.743	6784.19
910.056	6759.1
910.368	6688.37
910.681	6687.01
910.994	6645.88
911.307	6597.98
911.619	6634.13
911.932	6575.38
912.244	6464.65
912.557	6508.04
912.869	6496.06
913.181	6533.35
913.494	6465.55
913.806	6432.56
914.118	6396.4
914.43	6367.93
914.742	6372.22
915.054	6296.06
915.366	6272.79
915.678	6254.03
915.99	6247.03
916.302	6126.35
916.613	6222.17
916.925	6170.64
917.236	6152.34
917.548	6106.46
917.859	6100.81
918.171	6043.64
918.482	6031.89
918.794	5966.81
919.105	5950.99
919.416	5916.19
919.727	5896.53
920.038	5919.35
920.349	5819.47
920.66	5864.89
920.971	5841.61
921.282	5836.64
921.593	5754.61
921.903	5758.9
922.214	5728.85
922.525	5690.43
922.835	5704.44
923.146	5651.33
923.456	5590.55
923.767	5662.63
924.077	5600.94
924.387	5580.38
924.697	5554.84
925.008	5558.91
925.318	5515.74
925.628	5474.39
925.938	5510.32
926.248	5423.09
926.558	5437.78
926.867	5405.01
927.177	5391.91
927.487	5331.79
927.796	5365.69
928.106	5306.03
928.416	5298.8
928.725	5287.95
929.034	5238.01
929.344	5247.28
929.653	5266.03
929.962	5189.65
930.271	5148.75
930.581	5104.68
930.89	5111.46
931.199	5098.35
931.508	5079.37
931.817	5095.42
932.125	5013.61
932.434	5017.68
932.743	5004.35
933.051	4938.58
933.36	4906.04
933.669	4927.29
933.977	4854.97
934.286	4927.96
934.594	4834.63
934.902	4835.99
935.21	4781.3
935.519	4741.98
935.827	4798.25
936.135	4745.14
936.443	4701.08
936.751	4680.96
937.059	4678.25
937.367	4646.16
937.674	4650.23
937.982	4626.5
938.29	4600.97
938.597	4601.19
938.905	4526.62
939.213	4531.14
939.52	4546.5
939.827	4499.27
940.135	4488.43
940.442	4488.2
940.749	4439.61
941.056	4442.1
941.363	4417.92
941.67	4398.49
941.977	4367.98
942.284	4327.08
942.591	4313.74
942.898	4357.36
943.205	4289.34
943.511	4288.43
943.818	4277.81
944.125	4210.24
944.431	4226.29
944.738	4194.88
945.044	4200.07
945.35	4182.67
945.657	4140.87
945.963	4128.89
946.269	4172.5
946.575	4123.47
946.881	4090.92
947.187	4075.78
947.493	4018.38
947.799	4021.32
948.105	4023.58
948.41	4000.3
948.716	3982.23
949.022	3909.91
949.327	3952.17
949.633	3939.52
949.938	3927.76
950.244	3894.09
950.549	3894.09
950.854	3859.74
951.16	3840.99
951.465	3832.85
951.77	3826.07
952.075	3859.52
952.38	3768.22
952.685	3821.1
952.99	3743.36
953.294	3750.59
953.599	3743.59
953.904	3697.49
954.209	3684.61
954.513	3685.74
954.818	3657.94
955.122	3673.99
955.426	3624.04
955.731	3637.6
956.035	3635.34
956.339	3591.5
956.643	3558.96
956.948	3577.94
957.252	3528.23
957.556	3539.98
957.86	3498.4
958.163	3556.7
958.467	3498.85
958.771	3490.04
959.075	3460.66
959.378	3423.6
959.682	3437.16
959.985	3413.2
960.289	3371.39
960.592	3374.56
960.896	3358.06
961.199	3331.85
961.502	3330.72
961.805	3334.79
962.108	3304.96
962.411	3284.84
962.714	3280.1
963.017	3265.41
963.32	3248.69
963.623	3235.58
963.926	3212.53
964.228	3194
964.531	3187.22
964.833	3212.53
965.136	3188.57
965.438	3163.04
965.741	3156.26
966.043	3164.39
966.345	3112.19
966.648	3114.9
966.95	3075.81
967.252	3034.68
967.554	3048.01
967.856	3026.09
968.158	3054.34
968.46	3036.94
968.761	3001.69
969.063	2994.91
969.365	3004.17
969.666	2918.52
969.968	2957.17
970.269	2965.08
970.571	2919.65
970.872	2879.43
971.174	2885.31
971.475	2899.77
971.776	2861.35
972.077	2875.59
972.378	2849.37
972.679	2853.44
972.98	2796.95
973.281	2812.77
973.582	2811.18
973.883	2788.36
974.183	2781.35
974.484	2735.7
974.785	2699.32
975.085	2744.97
975.386	2751.07
975.686	2705.2
975.986	2674.92
976.287	2703.62
976.587	2678.08
976.887	2681.7
977.187	2694.8
977.487	2670.17
977.787	2631.07
978.087	2624.52
978.387	2603.28
978.687	2606.22
978.987	2609.83
979.286	2581.36
979.586	2567.12
979.885	2548.59
980.185	2536.61
980.484	2530.96
980.784	2529.38
981.083	2508.82
981.382	2520.57
981.682	2510.4
981.981	2492.1
982.28	2469.05
982.579	2421.14
982.878	2424.3
983.177	2451.87
983.475	2412.55
983.774	2414.13
984.073	2446.22
984.372	2387.24
984.67	2382.04
984.969	2401.25
985.267	2370.52
985.566	2352.66
985.864	2358.54
986.162	2341.82
986.461	2341.82
986.759	2324.87
987.057	2303.63
987.355	2266.34
987.653	2250.52
987.951	2281.03
988.249	2301.37
988.547	2282.84
988.844	2247.13
989.142	2216.62
989.44	2206.91
989.737	2231.31
990.035	2182.05
990.332	2212.55
990.63	2175.04
990.927	2151.77
991.224	2130.07
991.521	2147.92
991.819	2151.77
992.116	2153.12
992.413	2113.57
992.71	2107.25
993.006	2137.3
993.303	2094.14
993.6	2083.74
993.897	2092.56
994.193	2076.51
994.49	2066.8
994.787	2048.04
995.083	2040.81
995.379	2036.97
995.676	2006.01
995.972	2017.98
996.268	2020.7
996.565	1945.9
996.861	1972.56
997.157	1982.96
997.453	1957.42
997.749	1928.72
998.044	1929.85
998.34	1933.47
998.636	1954.71
998.932	1895.5
999.227	1907.93
999.523	1887.82
999.818	1876.97
1000.114	1876.97
1000.409	1886.46
1000.704	1854.37
1001	1854.6
1001.295	1848.72
1001.59	1850.3
1001.885	1833.58
1002.18	1791.1
1002.475	1785
1002.77	1774.37
1003.065	1779.35
1003.359	1760.14
1003.654	1759.69
1003.949	1761.04
1004.243	1718.78
1004.538	1744.32
1004.832	1709.74
1005.127	1708.61
1005.421	1696.18
1005.715	1698.67
1006.009	1693.47
1006.304	1675.39
1006.598	1704.55
1006.892	1685.79
1007.186	1658.22
1007.48	1650.31
1007.773	1620.93
1008.067	1639.24
1008.361	1611.89
1008.655	1604.66
1008.948	1583.42
1009.242	1592.68
1009.535	1560.59
1009.829	1595.85
1010.122	1568.96
1010.415	1566.7
1010.708	1536.87
1011.001	1531.22
1011.295	1535.06
1011.588	1507.49
1011.881	1530.99
1012.173	1511.56
1012.466	1500.71
1012.759	1489.18
1013.052	1497.77
1013.344	1461.61
1013.637	1459.35
1013.93	1454.38
1014.222	1440.15
1014.514	1441.28
1014.807	1439.47
1015.099	1420.03
1015.391	1453.7
1015.683	1432.46
1015.976	1407.15
1016.268	1401.73
1016.56	1387.27
1016.851	1357.44
1017.143	1352.01
1017.435	1375.97
1017.727	1330.54
1018.018	1325.12
1018.31	1337.1
1018.602	1349.53
1018.893	1326.02
1019.185	1306.36
1019.476	1294.61
1019.767	1296.42
1020.058	1286.25
1020.35	1302.52
1020.641	1283.77
1020.932	1253.26
1021.223	1259.59
1021.514	1278.79
1021.804	1233.6
1022.095	1237.21
1022.386	1233.15
1022.677	1245.12
1022.967	1210.32
1023.258	1219.81
1023.548	1198.12
1023.839	1177.78
1024.129	1167.16
1024.419	1174.84
1024.709	1137.55
1025	1152.02
1025.29	1148.85
1025.58	1150.66
1025.87	1143.2
1026.16	1147.72
1026.449	1129.19
1026.739	1126.93
1027.029	1114.5
1027.319	1116.31
1027.608	1099.59
1027.898	1070.21
1028.187	1102.08
1028.477	1104.79
1028.766	1069.76
1029.055	1062.3
1029.344	1051.91
1029.634	1059.59
1029.923	1029.99
1030.212	1032.7
1030.501	1056.43
1030.79	1018.91
1031.078	1012.81
1031.367	1000.38
1031.656	1007.61
1031.945	982.98
1032.233	984.56
1032.522	994.96
1032.81	976.43
1033.099	968.07
1033.387	975.07
1033.675	963.77
1033.963	954.73
1034.251	954.51
1034.54	940.72
1034.828	926.71
1035.116	969.42
1035.403	926.94
1035.691	920.61
1035.979	906.83
1036.267	913.15
1036.554	915.41
1036.842	886.71
1037.129	877
1037.417	903.44
1037.704	893.95
1037.992	896.21
1038.279	846.49
1038.566	893.49
1038.853	893.49
1039.14	893.49
