Data from hue_320_FLMS001491_75.txt Node
Date: Mon Feb 06 15:47:40 GMT 2017
User: dcchb
Spectrometer: FLMS00149
Trigger mode: 0
Integration Time (sec): 2.000000E-2
Scans to average: 10
Electric dark correction enabled: true
Nonlinearity correction enabled: false
Boxcar width: 0
XAxis mode: Wavelengths
Number of Pixels in Spectrum: 2048
>>>>>Begin Spectral Data<<<<<
341.393	-16.38
341.776	-16.38
342.16	-16.38
342.543	-71.98
342.927	-57.96
343.31	-77.85
343.693	-65.2
344.077	-61.81
344.46	-74.91
344.843	-60.9
345.226	-45.08
345.61	-34.69
345.993	-22.26
346.376	1.24
346.759	6.44
347.142	30.39
347.525	47.34
347.908	69.49
348.291	84.63
348.674	99.55
349.057	103.61
349.44	111.3
349.823	143.16
350.206	156.95
350.588	183.84
350.971	201.46
351.354	207.57
351.737	235.14
352.119	264.74
352.502	233.78
352.884	270.39
353.267	257.28
353.65	276.49
354.032	295.02
354.414	310.61
354.797	297.96
355.179	319.43
355.562	324.17
355.944	303.61
356.326	347.22
356.709	334.34
357.091	331.4
357.473	325.98
357.855	334.79
358.238	343.61
358.62	317.62
359.002	320.1
359.384	317.17
359.766	325.3
360.148	347.67
360.53	337.51
360.912	316.26
361.294	308.58
361.676	344.06
362.057	339.09
362.439	307.9
362.821	342.02
363.203	338.18
363.584	323.49
363.966	312.65
364.348	325.08
364.729	309.71
365.111	334.12
365.493	311.52
365.874	336.15
366.256	332.99
366.637	309.94
367.019	312.42
367.4	314.68
367.781	316.94
368.163	308.13
368.544	327.56
368.925	316.26
369.306	318.07
369.688	304.29
370.069	313.78
370.45	315.13
370.831	296.15
371.212	311.07
371.593	296.38
371.974	304.29
372.355	311.74
372.736	295.47
373.117	306.09
373.498	324.62
373.879	322.14
374.26	309.71
374.641	320.56
375.021	316.04
375.402	304.74
375.783	307.9
376.163	348.13
376.544	321.91
376.925	316.04
377.305	325.08
377.686	316.26
378.066	312.42
378.447	321.01
378.827	321.01
379.208	318.97
379.588	356.49
379.968	339.99
380.349	309.48
380.729	321.91
381.109	349.71
381.489	315.36
381.87	322.82
382.25	345.19
382.63	337.05
383.01	337.05
383.39	352.19
383.77	355.58
384.15	347
384.53	332.53
384.91	322.14
385.29	345.19
385.67	328.47
386.049	343.15
386.429	371.4
386.809	325.75
387.189	365.75
387.568	366.66
387.948	335.92
388.328	371.4
388.707	357.39
389.087	344.96
389.466	354.91
389.846	362.36
390.225	351.97
390.605	376.37
390.984	356.49
391.363	365.3
391.743	352.19
392.122	361.91
392.501	350.16
392.881	352.65
393.26	356.04
393.639	367.79
394.018	369.14
394.397	381.12
394.776	378.18
395.155	391.74
395.534	388.58
395.913	386.54
396.292	376.15
396.671	368.92
397.05	387
397.429	379.99
397.808	368.01
398.186	395.36
398.565	389.26
398.944	399.65
399.323	388.13
399.701	405.98
400.08	364.85
400.458	389.03
400.837	387.9
401.215	400.33
401.594	399.42
401.972	396.26
402.351	386.09
402.729	384.74
403.107	410.27
403.486	411.63
403.864	418.63
404.242	404.17
404.62	415.47
404.999	410.95
405.377	419.31
405.755	415.92
406.133	416.15
406.511	450.72
406.889	445.75
407.267	418.86
407.645	431.51
408.023	464.96
408.401	433.77
408.779	462.25
409.156	455.92
409.534	463.83
409.912	469.48
410.29	462.93
410.667	451.63
411.045	473.77
411.422	489.82
411.8	478.74
412.178	504.28
412.555	495.47
412.933	486.43
413.31	501.12
413.687	491.4
414.065	519.2
414.442	505.41
414.819	535.69
415.197	526.88
415.574	556.26
415.951	548.35
416.328	534.34
416.705	564.84
417.082	544.51
417.46	555.35
417.837	575.01
418.214	568.46
418.591	603.03
418.967	608.23
419.344	595.8
419.721	595.35
420.098	600.1
420.475	612.07
420.852	609.81
421.228	626.31
421.605	649.36
421.982	621.34
422.358	644.16
422.735	659.53
423.111	661.11
423.488	663.37
423.864	679.42
424.241	685.52
424.617	677.61
424.994	680.55
425.37	682.13
425.746	663.6
426.123	695.69
426.499	720.32
426.875	719.19
427.251	706.99
427.627	725.97
428.003	736.59
428.379	726.65
428.756	771.39
429.132	743.37
429.507	747.89
429.883	774.78
430.259	803.71
430.635	789.24
431.011	799.64
431.387	796.25
431.763	823.59
432.138	838.74
432.514	849.13
432.89	859.75
433.265	849.36
433.641	851.16
434.016	862.69
434.392	877.38
434.767	892.74
435.143	903.82
435.518	898.39
435.894	904.95
436.269	897.72
436.644	912.63
437.02	947.43
437.395	922.8
437.77	916.93
438.145	962.8
438.52	975.91
438.895	970.48
439.271	993.31
439.646	994.44
440.021	1001.89
440.395	981.33
440.77	1003.7
441.145	991.5
441.52	1026.53
441.895	1016.13
442.27	1050.93
442.645	1042.12
443.019	1016.81
443.394	1037.6
443.769	1053.64
444.143	1038.5
444.518	1060.88
444.892	1028.79
445.267	1041.22
445.641	1058.16
446.016	1047.77
446.39	1081.89
446.764	1064.49
447.139	1063.59
447.513	1066.3
447.887	1099.52
448.262	1111.95
448.636	1094.32
449.01	1103.81
449.384	1122.12
449.758	1144.72
450.132	1102.91
450.506	1099.29
450.88	1129.12
451.254	1149.46
451.628	1139.97
452.002	1155.34
452.376	1151.04
452.75	1162.57
453.123	1127.99
453.497	1174.55
453.871	1194.88
454.244	1187.2
454.618	1194.88
454.992	1216.13
455.365	1192.62
455.739	1219.52
456.112	1251.15
456.486	1253.19
456.859	1231.04
457.232	1246.18
457.606	1268.78
457.979	1258.84
458.352	1318.72
458.725	1303.58
459.099	1313.98
459.472	1315.56
459.845	1347.2
460.218	1338.61
460.591	1344.71
460.964	1356.24
461.337	1372.73
461.71	1367.08
462.083	1374.99
462.456	1367.99
462.829	1391.04
463.201	1388.78
463.574	1418.15
463.947	1394.88
464.32	1441.43
464.692	1442.56
465.065	1456.35
465.438	1473.29
465.81	1509.23
466.183	1478.04
466.555	1497.93
466.928	1545.16
467.3	1489.57
467.672	1521.65
468.045	1591.03
468.417	1558.94
468.789	1594.65
469.161	1578.15
469.534	1600.52
469.906	1648.88
470.278	1645.72
470.65	1650.24
471.022	1661.76
471.394	1684.59
471.766	1699.28
472.138	1706.28
472.51	1724.81
472.882	1760.74
473.253	1765.72
473.625	1763.68
473.997	1827.41
474.369	1847.07
474.74	1819.73
475.112	1841.42
475.484	1860.4
475.855	1931.36
476.227	1912.83
476.598	1949.44
476.97	1963.9
477.341	2013.62
477.713	2009.33
478.084	2028.76
478.455	2029.89
478.827	2060.4
479.198	2094.07
479.569	2078.02
479.94	2147.85
480.311	2146.95
480.682	2192.82
481.053	2261.97
481.424	2257.68
481.795	2275.53
482.166	2313.27
482.537	2295.87
482.908	2351.01
483.279	2342.42
483.65	2395.53
484.021	2466.26
484.391	2414.29
484.762	2497
485.133	2508.75
485.503	2492.48
485.874	2519.82
486.244	2572.7
486.615	2613.6
486.985	2624.45
487.356	2673.04
487.726	2654.05
488.097	2713.71
488.467	2709.87
488.837	2755.52
489.207	2779.25
489.578	2790.32
489.948	2844.56
490.318	2846.14
490.688	2860.15
491.058	2896.08
491.428	2930.21
491.798	2932.92
492.168	2987.83
492.538	3033.48
492.908	3024.21
493.278	3052.46
493.648	3060.15
494.017	3077.09
494.387	3121.39
494.757	3144.21
495.126	3158.9
495.496	3141.05
495.866	3223.08
496.235	3165.68
496.605	3202.74
496.974	3267.37
497.344	3251.78
497.713	3278.9
498.082	3296.07
498.452	3315.51
498.821	3330.19
499.19	3324.09
499.559	3356.18
499.928	3354.38
500.298	3381.49
500.667	3385.79
501.036	3427.14
501.405	3402.74
501.774	3444.77
502.143	3465.11
502.512	3534.03
502.88	3483.19
503.249	3494.48
503.618	3510.98
503.987	3556.18
504.356	3527.48
504.724	3538.1
505.093	3507.59
505.462	3585.1
505.83	3574.71
506.199	3564.77
506.567	3623.75
506.936	3626.23
507.304	3646.8
507.672	3637.31
508.041	3693.58
508.409	3664.42
508.777	3682.28
509.145	3715.95
509.514	3725.44
509.882	3717.53
510.25	3697.87
510.618	3686.34
510.986	3767.92
511.354	3772.44
511.722	3794.59
512.09	3827.81
512.458	3792.33
512.826	3847.02
513.193	3854.02
513.561	3823.74
513.929	3843.85
514.297	3888.82
514.664	3867.13
515.032	3905.77
515.4	3989.61
515.767	3925.66
516.135	3895.38
516.502	3923.4
516.869	3896.06
517.237	4029.39
517.604	3971.76
517.972	3963.62
518.339	3969.95
518.706	4008.14
519.073	3988.26
519.44	3999.33
519.808	4032.1
520.175	3992.32
520.542	4025.09
520.909	4058.54
521.276	4068.48
521.643	4078.65
522.009	4084.75
522.376	4138.08
522.743	4182.83
523.11	4151.64
523.477	4205.43
523.843	4204.3
524.21	4266.44
524.577	4253.56
524.943	4256.27
525.31	4293.79
525.676	4310.28
526.043	4344.41
526.409	4363.39
526.776	4347.12
527.142	4371.07
527.508	4354.12
527.874	4414.23
528.241	4428.25
528.607	4449.94
528.973	4448.81
529.339	4515.25
529.705	4522.03
530.071	4526.32
530.437	4572.87
530.803	4574.46
531.169	4607.22
531.535	4584.63
531.901	4587.11
532.267	4640.67
532.632	4683.38
532.998	4632.08
533.364	4733.55
533.73	4726.32
534.095	4718.86
534.461	4735.58
534.826	4788.24
535.192	4798.86
535.557	4824.39
535.923	4801.79
536.288	4846.99
536.653	4862.13
537.019	4885.86
537.384	4891.74
537.749	4854.67
538.114	4936.93
538.479	4966.76
538.845	4979.64
539.21	4977.38
539.575	4979.19
539.94	5047.89
540.305	5059.64
540.67	5070.71
541.034	5068.91
541.399	5044.95
541.764	5091.73
542.129	5177.15
542.494	5149.81
542.858	5188.9
543.223	5179.41
543.587	5218.05
543.952	5244.95
544.316	5221.67
544.681	5259.18
545.045	5290.6
545.41	5307.77
545.774	5319.75
546.138	5373.31
546.503	5424.83
546.867	5391.61
547.231	5420.08
547.595	5492.85
547.959	5420.31
548.324	5493.53
548.688	5498.27
549.052	5494.21
549.416	5504.6
549.779	5560.64
550.143	5551.61
550.507	5588.89
550.871	5597.93
551.235	5664.82
551.599	5657.59
551.962	5692.84
552.326	5720.19
552.689	5720.87
553.053	5742.11
553.417	5766.29
553.78	5753.41
554.143	5752.96
554.507	5777.36
554.87	5800.86
555.234	5847.19
555.597	5802.45
555.96	5870.24
556.323	5920.41
556.686	5910.69
557.05	5912.73
557.413	5869.79
557.776	5911.6
558.139	5949.56
558.502	5955.21
558.865	5980.97
559.228	6046.96
559.59	6052.16
559.953	6063.91
560.316	6085.83
560.679	6121.31
561.041	6121.76
561.404	6178.26
561.767	6188.2
562.129	6179.61
562.492	6230.46
562.854	6221.64
563.217	6228.65
563.579	6211.93
563.941	6248.54
564.304	6365.82
564.666	6300.96
565.028	6295.77
565.39	6408.31
565.753	6431.81
566.115	6398.59
566.477	6432.26
566.839	6418.48
567.201	6471.81
567.563	6498.47
567.925	6547.29
568.287	6532.6
568.648	6557.45
569.01	6590.45
569.372	6608.75
569.734	6584.57
570.095	6657.34
570.457	6696.43
570.819	6748.18
571.18	6764.23
571.542	6806.49
571.903	6802.65
572.265	6831.57
572.626	6867.5
572.987	6951.34
573.349	6928.97
573.71	7008.74
574.071	7037.22
574.432	7063.66
574.794	7173.26
575.155	7238.11
575.516	7225.69
575.877	7346.59
576.238	7324.67
576.599	7430.88
576.96	7493.25
577.32	7543.87
577.681	7594.26
578.042	7657.99
578.403	7753.81
578.763	7793.13
579.124	7956.97
579.485	8018.89
579.845	8018.89
580.206	8255.04
580.566	8351.76
580.927	8340.46
581.287	8518.31
581.648	8603.73
582.008	8816.38
582.368	8890.5
582.728	8948.35
583.089	9133.88
583.449	9265.41
583.809	9445.74
584.169	9643.7
584.529	9739.74
584.889	9984.03
585.249	10075.1
585.609	10310.35
585.969	10528.2
586.329	10632.15
586.688	10883.67
587.048	11060.61
587.408	11341.74
587.768	11432.58
588.127	11677.09
588.487	11895.39
588.846	12197.31
589.206	12351.43
589.565	12590.06
589.925	12916.16
590.284	13167.22
590.643	13386.88
591.003	13698.74
591.362	13935.11
591.721	14134.88
592.08	14447.42
592.44	14796.11
592.799	14955.43
593.158	15302.31
593.517	15611.45
593.876	15899.58
594.235	16131.67
594.593	16344.09
594.952	16700.46
595.311	16937.29
595.67	17251.64
596.029	17603.04
596.387	17899.53
596.746	18202.8
597.104	18431.04
597.463	18742.9
597.822	18994.42
598.18	19259.95
598.538	19491.8
598.897	19856.77
599.255	20033.71
599.613	20573.81
599.972	20716.4
600.33	21028.03
600.688	21082.95
601.046	21636.15
601.404	21945.52
601.762	22251.05
602.12	22527.2
602.478	22802.45
602.836	23014.42
603.194	23181.42
603.552	23425.26
603.91	23636.33
604.268	23999.26
604.625	24099.37
604.983	24556.53
605.341	24621.61
605.698	24976.63
606.056	25306.34
606.413	25389.95
606.771	25754.24
607.128	25978.86
607.485	26192.64
607.843	26312.42
608.2	26745.4
608.557	26991.95
608.914	27102.45
609.272	27427.41
609.629	27661.31
609.986	27981.3
610.343	27951.69
610.7	28348.52
611.057	28507.84
611.414	28667.61
611.771	28880.48
612.127	29231.89
612.484	29196.63
612.841	29575.15
613.198	29530.41
613.554	29779.44
613.911	30022.15
614.267	30111.64
614.624	30326.1
614.98	30484.51
615.337	30806.31
615.693	30907.55
616.05	30940.99
616.406	31352.96
616.762	31342.79
617.118	31450.36
617.475	31577.36
617.831	31893.96
618.187	31997.24
618.543	32087.86
618.899	32432.93
619.255	32385.93
619.611	32637.67
619.967	32735.75
620.323	32888.74
620.678	32907.5
621.034	32899.59
621.39	33031.11
621.746	33155.63
622.101	33623.41
622.457	33361.5
622.812	33592.68
623.168	33815.04
623.523	33775.5
623.879	33932.55
624.234	33798.09
624.589	34095.71
624.945	34154.92
625.3	34164.64
625.655	34290.28
626.01	34382.26
626.365	34532.54
626.72	34391.07
627.075	34616.83
627.43	34811.85
627.785	34616.83
628.14	34737.28
628.495	34715.36
628.85	34788.35
629.205	34831.06
629.559	35121.22
629.914	34966.88
630.269	35065.18
630.623	35092.75
630.978	34983.37
631.332	35242.35
631.687	35386.53
632.041	35164.84
632.396	35233.08
632.75	35203.48
633.104	35236.02
633.459	35088.91
633.813	35120.77
634.167	35264.95
634.521	35254.55
634.875	35359.41
635.229	35319.64
635.583	35144.5
635.937	35308.56
636.291	35333.87
636.645	35300.43
636.999	35352.4
637.352	35447.09
637.706	35146.53
638.06	35396.02
638.413	35302.01
638.767	35319.86
639.121	35385.17
639.474	35283.48
639.828	35283.25
640.181	35279.19
640.534	35259.07
640.888	35290.94
641.241	35132.52
641.594	35341.33
641.947	35348.11
642.301	35174.33
642.654	35147.89
643.007	35278.51
643.36	35190.15
643.713	35189.24
644.066	35353.76
644.419	35165.97
644.771	34963.94
645.124	34622.03
645.477	34669.94
645.83	34382.49
646.182	34282.38
646.535	34143.4
646.888	34225.88
647.24	34146.33
647.593	34293.67
647.945	34255.48
648.298	34199.21
648.65	34061.82
649.002	33995.6
649.355	34077.64
649.707	34081.02
650.059	34269.95
650.411	34710.39
650.763	34664.29
651.115	35162.8
651.467	34908.12
651.819	34878.29
652.171	34943.83
652.523	34829.48
652.875	34793.1
653.227	34761.23
653.578	34845.75
653.93	34896.37
654.282	34847.78
654.633	34799.65
654.985	34746.54
655.337	34774.34
655.688	34810.95
656.039	34812.98
656.391	34572.09
656.742	34600.56
657.094	34613.67
657.445	34945.18
657.796	34784.51
658.147	34668.81
658.498	34678.07
658.849	34649.15
659.2	34692.53
659.551	34658.18
659.902	34590.39
660.253	34585.19
660.604	34678.98
660.955	34469.94
661.306	34751.06
661.656	34507.23
662.007	34525.76
662.358	34517.4
662.708	34520.34
663.059	34455.7
663.409	34410.28
663.76	34533.67
664.11	34494.57
664.461	34594.01
664.811	34676.04
665.161	34507.23
665.511	34426.1
665.862	34531.41
666.212	34787.22
666.562	34575.02
666.912	34523.05
667.262	34454.12
667.612	34444.63
667.962	34495.93
668.312	34396.72
668.662	34660.44
669.011	34573.44
669.361	34443.28
669.711	34336.84
670.06	34457.74
670.41	34312.21
670.76	34316.72
671.109	34447.34
671.459	34425.42
671.808	34336.61
672.157	34447.57
672.507	34295.48
672.856	34219.1
673.205	34434.46
673.554	34348.36
673.904	34194.47
674.253	34423.61
674.602	34309.27
674.951	33912.22
675.3	33807.59
675.649	34205.99
675.998	34209.16
676.346	34212.09
676.695	34278.99
677.044	33962.84
677.393	34024.3
677.741	34115.6
678.09	34049.16
678.438	33911.99
678.787	34098.88
679.135	34072.44
679.484	33756.29
679.832	33912.89
680.181	33724.88
680.529	33889.62
680.877	33795.16
681.225	33763.97
681.573	33922.38
681.922	33734.14
682.27	33525.11
682.618	33582.96
682.966	33497.31
683.314	33701.83
683.661	33520.81
684.009	33401.49
684.357	33436.52
684.705	33402.4
685.053	33328.5
685.4	33316.3
685.748	32914.73
686.095	33136.87
686.443	33033.59
686.79	32979.13
687.138	33071.33
687.485	32937.55
687.832	32915.18
688.18	33053.03
688.527	32702.08
688.874	32728.74
689.221	32632.48
689.568	32441.07
689.915	32561.97
690.262	32327.17
690.609	32267.06
690.956	32339.38
691.303	32144.8
691.65	32104.81
691.997	31996.33
692.344	32014.86
692.69	31842.89
693.037	31873.85
693.383	31670.92
693.73	31889.22
694.077	31492.62
694.423	31536.01
694.769	31440.87
695.116	31518.38
695.462	31469.12
695.808	31331.72
696.155	31401.1
696.501	31088.11
696.847	31151.84
697.193	31009.02
697.539	31012.86
697.885	30800.66
698.231	30682.02
698.577	30650.15
698.923	30593.21
699.269	30416.26
699.614	30291.07
699.96	30267.34
700.306	30386.66
700.651	30209.26
700.997	30148.25
701.342	30017.4
701.688	30027.35
702.033	29954.58
702.379	29888.37
702.724	29759.1
703.069	29824.19
703.415	29429.85
703.76	29501.71
704.105	29473.01
704.45	29463.07
704.795	29191.21
705.14	29243.64
705.485	29252.45
705.83	29165.9
706.175	29202.96
706.52	29103.3
706.865	28861.05
707.209	28937.66
707.554	28969.07
707.899	28949.41
708.243	28746.25
708.588	28737.89
708.932	28510.78
709.277	28510.55
709.621	28494.28
709.966	28386.71
710.31	28441.85
710.654	28256.55
710.998	28237.11
711.342	28249.31
711.687	28139.71
712.031	28041.86
712.375	28009.09
712.719	28049.54
713.063	27937.68
713.407	28096.78
713.75	27831.92
714.094	27816.56
714.438	27617.01
714.782	27797.57
715.125	27591.48
715.469	27631.48
715.812	27486.85
716.156	27350.81
716.499	27401.43
716.843	27433.97
717.186	27154.43
717.53	27336.8
717.873	27266.97
718.216	27102
718.559	27087.08
718.902	27073.53
719.246	26868.11
719.589	26927.99
719.932	26829.69
720.275	26796.24
720.617	26731.61
720.96	26755.79
721.303	26731.16
721.646	26641.9
721.989	26561.22
722.331	26703.37
722.674	26452.52
723.016	26513.99
723.359	26525.97
723.701	26457.72
724.044	26294.79
724.386	26211.18
724.729	26301.34
725.071	26202.59
725.413	26060.9
725.755	26262.25
726.097	26045.98
726.439	25923.73
726.782	25897.74
727.124	26040.78
727.465	25925.31
727.807	25882.6
728.149	25819.55
728.491	25755.82
728.833	25916.04
729.175	25627.46
729.516	25707.46
729.858	25672.21
730.199	25749.72
730.541	25565.54
730.882	25527.58
731.224	25574.13
731.565	25404.42
731.906	25503.62
732.248	25455.49
732.589	25351.99
732.93	25192.22
733.271	25297.53
733.612	25244.19
733.953	25356.73
734.294	25181.82
734.635	25155.61
734.976	25109.96
735.317	25060.25
735.658	25139.34
735.999	25116.06
736.339	24936.18
736.68	24964.65
737.021	24883.3
737.361	24789.52
737.702	24906.58
738.042	24857.54
738.383	24719.24
738.723	24837.43
739.063	24785
739.404	24822.29
739.744	24715.85
740.084	24581.39
740.424	24683.08
740.764	24521.05
741.104	24593.36
741.444	24476.98
741.784	24412.8
742.124	24477.44
742.464	24306.59
742.804	24297.1
743.143	24362.18
743.483	24186.6
743.823	24098.01
744.162	24139.59
744.502	24185.92
744.841	23986.83
745.181	24099.82
745.52	23909.31
745.86	24089.88
746.199	24082.87
746.538	24022.08
746.877	24063.89
747.216	23862.76
747.556	23912.25
747.895	23847.4
748.234	23825.25
748.573	23740.05
748.911	23747.06
749.25	23658.7
749.589	23583.67
749.928	23642.2
750.267	23564.92
750.605	23558.59
750.944	23396.11
751.283	23459.84
751.621	23395.2
751.96	23325.6
752.298	23307.3
752.636	23273.4
752.975	23287.86
753.313	23066.4
753.651	23213.97
753.989	23101.88
754.327	23045.38
754.666	22914.54
755.004	22834.99
755.342	22970.58
755.679	22872.05
756.017	22733.3
756.355	22786.63
756.693	22592.97
757.031	22806.97
757.368	22690.82
757.706	22623.7
758.044	22558.16
758.381	22504.83
758.719	22392.74
759.056	22330.83
759.394	22314.78
759.731	22232.75
760.068	22223.26
760.405	22125.18
760.743	21983.94
761.08	22108.01
761.417	21857.62
761.754	21891.06
762.091	21870.27
762.428	21735.59
762.765	21654.68
763.102	21697.85
763.438	21564.97
763.775	21454.69
764.112	21510.96
764.449	21583.5
764.785	21343.51
765.122	21160.91
765.458	21068.03
765.795	21088.82
766.131	21043.4
766.467	20900.58
766.804	20888.6
767.14	20733.35
767.476	20780.36
767.812	20743.07
768.148	20719.57
768.485	20586.46
768.821	20429.63
769.157	20461.95
769.492	20512.79
769.828	20410.2
770.164	20252.91
770.5	20251.33
770.836	20195.29
771.171	20005.91
771.507	20028.96
771.842	19900.38
772.178	19941.06
772.513	19776.77
772.849	19765.02
773.184	19565.25
773.519	19673.49
773.855	19581.97
774.19	19458.81
774.525	19443.9
774.86	19428.98
775.195	19341.3
775.53	19301.3
775.865	19190.79
776.2	18954.64
776.535	18944.93
776.87	18937.69
777.205	18843.69
777.539	18746.29
777.874	18864.7
778.209	18667.64
778.543	18556.91
778.878	18468.55
779.212	18467.88
779.547	18409.12
779.881	18386.75
780.215	18275.34
780.55	18373.42
780.884	18186.75
781.218	18098.39
781.552	18152.86
781.886	17978.62
782.22	17836.93
782.554	17815.46
782.888	17643.04
783.222	17601.23
783.556	17549.03
783.889	17539.09
784.223	17393.78
784.557	17302.71
784.89	17430.62
785.224	17212.77
785.557	17201.47
785.891	17128.93
786.224	17065.88
786.558	17069.72
786.891	16897.97
787.224	16796.28
787.557	16855.49
787.891	16811.2
788.224	16726.9
788.557	16692.1
788.89	16689.62
789.223	16583.63
789.556	16559.68
789.888	16467.48
790.221	16363.98
790.554	16261.83
790.887	16292.11
791.219	16272.91
791.552	16170.76
791.884	16081.72
792.217	16038.34
792.549	16008.73
792.882	15822.3
793.214	15841.96
793.546	15846.25
793.879	15743.43
794.211	15644.67
794.543	15764.22
794.875	15706.14
795.207	15633.83
795.539	15608.29
795.871	15448.75
796.203	15411.01
796.535	15358.58
796.867	15332.82
797.198	15328.52
797.53	15247.85
797.862	15189.54
798.193	15245.14
798.525	15026.16
798.856	15041.07
799.188	14907.74
799.519	14866.84
799.85	14765.83
800.182	14800.4
800.513	14719.27
800.844	14630.69
801.175	14715.21
801.506	14655.55
801.837	14593.63
802.168	14541.2
802.499	14565.83
802.83	14493.97
803.161	14463.46
803.491	14364.71
803.822	14393.41
804.153	14347.76
804.483	14148.44
804.814	14145.96
805.145	14220.53
805.475	14173.3
805.805	14079.29
806.136	14087.88
806.466	14104.15
806.796	13917.94
807.126	13900.99
807.457	13872.29
807.787	13826.64
808.117	13826.42
808.447	13767.43
808.777	13724.27
809.107	13749.58
809.436	13646.99
809.766	13672.52
810.096	13615.12
810.426	13638.85
810.755	13519.08
811.085	13494
811.414	13543.03
811.744	13348.01
812.073	13425.75
812.403	13311.85
812.732	13319.31
813.061	13339.88
813.39	13252.65
813.719	13173.33
814.049	13233.89
814.378	13140.11
814.707	13084.74
815.036	13098.3
815.365	13048.58
815.693	12944.63
816.022	12955.7
816.351	12910.73
816.68	12822.37
817.008	12871.19
817.337	12703.96
817.665	12753.9
817.994	12772.21
818.322	12757.52
818.651	12681.59
818.979	12600.46
819.307	12647.69
819.636	12652.44
819.964	12588.71
820.292	12562.27
820.62	12522.95
820.948	12508.03
821.276	12462.16
821.604	12539.67
821.932	12464.19
822.259	12418.54
822.587	12459.45
822.915	12449.28
823.243	12507.35
823.57	12447.92
823.898	12476.62
824.225	12365.66
824.553	12453.57
824.88	12456.73
825.207	12503.97
825.535	12468.94
825.862	12431.65
826.189	12416.74
826.516	12509.84
826.843	12486.56
827.17	12529.28
827.497	12550.52
827.824	12502.38
828.151	12469.39
828.478	12398.88
828.805	12383.74
829.131	12386.45
829.458	12370.86
829.785	12289.51
830.111	12369.73
830.438	12398.88
830.764	12429.62
831.09	12394.36
831.417	12347.36
831.743	12426
832.069	12400.01
832.395	12321.82
832.722	12325.89
833.048	12250.19
833.374	12297.42
833.7	12253.35
834.026	12261.49
834.351	12301.94
834.677	12325.44
835.003	12281.6
835.329	12338.77
835.654	12309.85
835.98	12218.1
836.306	12185.56
836.631	12171.32
836.956	12184.2
837.282	12247.25
837.607	12029.4
837.932	12104.88
838.258	12073.02
838.583	12077.31
838.908	12051.1
839.233	11971.32
839.558	12015.16
839.883	12010.64
840.208	11982.62
840.533	11958.44
840.858	11988.05
841.182	11925.45
841.507	11894.26
841.832	11913.92
842.156	11781.05
842.481	11845.23
842.805	11786.92
843.13	11729.52
843.454	11725.23
843.778	11608.4
844.103	11658.34
844.427	11636.42
844.751	11597.32
845.075	11548.28
845.399	11500.83
845.723	11466.25
846.047	11543.09
846.371	11351.45
846.695	11383.32
847.019	11277.1
847.343	11284.56
847.666	11221.06
847.99	11127.28
848.313	11129.76
848.637	11070.78
848.96	11043.66
849.284	10986.94
849.607	10934.97
849.931	10884.57
850.254	10817.68
850.577	10832.82
850.9	10647.29
851.223	10704.92
851.546	10676.44
851.869	10577.46
852.192	10637.12
852.515	10526.16
852.838	10545.15
853.161	10536.33
853.483	10401.65
853.806	10417.47
854.129	10416.56
854.451	10255.89
854.774	10322.33
855.096	10247.98
855.419	10233.52
855.741	10264.7
856.063	10137.47
856.385	10123.46
856.708	10020.64
857.03	10036.23
857.352	10101.09
857.674	9993.75
857.996	9995.56
858.318	9960.53
858.64	9989.23
858.961	9944.26
859.283	9917.82
859.605	9926.18
859.926	9880.98
860.248	9812.06
860.57	9767.99
860.891	9817.71
861.212	9710.37
861.534	9688.45
861.855	9736.35
862.176	9695
862.498	9660.88
862.819	9725.96
863.14	9614.78
863.461	9619.75
863.782	9630.82
864.103	9611.84
864.424	9537.04
864.745	9553.31
865.065	9582.91
865.386	9413.42
865.707	9480.32
866.027	9476.02
866.348	9415.91
866.668	9474.67
866.989	9414.78
867.309	9272.86
867.63	9323.03
867.95	9346.08
868.27	9343.82
868.59	9299.98
868.91	9313.09
869.23	9238.97
869.55	9265.63
869.87	9305.86
870.19	9219.31
870.51	9217.72
870.83	9189.02
871.15	9220.21
871.469	9178.85
871.789	9173.21
872.109	9125.52
872.428	9136.6
872.748	9165.52
873.067	9087.33
873.386	9075.13
873.706	9088.24
874.025	9020.44
874.344	9001.91
874.663	8960.33
874.982	9013.89
875.301	9049.59
875.62	9015.7
875.939	8918.97
876.258	8914
876.577	8934.79
876.896	8891.4
877.214	8825.19
877.533	8969.59
877.852	8892.08
878.17	8878.3
878.489	8888.24
878.807	8849.37
879.125	8842.37
879.444	8786.32
879.762	8778.41
880.08	8773.67
880.398	8747.68
880.716	8735.48
881.034	8661.35
881.352	8750.39
881.67	8677.62
881.988	8659.32
882.306	8670.17
882.624	8614.12
882.941	8600.34
883.259	8522.15
883.577	8548.36
883.894	8550.62
884.212	8484.41
884.529	8520.79
884.846	8522.37
885.164	8504.75
885.481	8487.8
885.798	8456.39
886.115	8407.12
886.432	8417.07
886.75	8387.46
887.067	8416.39
887.383	8283.29
887.7	8297.52
888.017	8261.14
888.334	8262.72
888.651	8195.83
888.967	8249.39
889.284	8133.23
889.6	8169.39
889.917	8167.58
890.233	8109.28
890.55	8091.2
890.866	8053.01
891.182	8030.18
891.498	8027.7
891.815	8017.98
892.131	7984.76
892.447	7953.12
892.763	7973.46
893.079	7935.5
893.395	7923.52
893.71	7863.41
894.026	7832.68
894.342	7868.61
894.657	7789.96
894.973	7803.75
895.289	7724.66
895.604	7744.77
895.92	7672.91
896.235	7648.27
896.55	7695.28
896.865	7627.71
897.181	7610.53
897.496	7604.21
897.811	7523.08
898.126	7555.39
898.441	7546.58
898.756	7477.43
899.071	7428.17
899.386	7473.14
899.7	7382.07
900.015	7357.89
900.33	7280.37
900.644	7295.74
900.959	7262.75
901.273	7235.18
901.588	7221.62
901.902	7225.91
902.216	7262.29
902.531	7207.38
902.845	7178.23
903.159	7110.21
903.473	7074.73
903.787	7044.22
904.101	7032.7
904.415	6998.8
904.729	6993.38
905.042	6864.79
905.356	6954.05
905.67	6922.19
905.984	6936.43
906.297	6822.98
906.611	6866.15
906.924	6828.86
907.237	6807.17
907.551	6749.54
907.864	6741.18
908.177	6803.32
908.491	6686.26
908.804	6637.68
909.117	6629.32
909.43	6597.91
909.743	6587.96
910.056	6567.62
910.368	6547.74
910.681	6543.67
910.994	6491.24
911.307	6427.29
911.619	6425.71
911.932	6405.37
912.244	6373.5
912.557	6371.02
912.869	6286.5
913.181	6329.66
913.494	6309.78
913.806	6279.5
914.118	6166.05
914.43	6166.96
914.742	6161.08
915.054	6169.44
915.366	6142.55
915.678	6110.01
915.99	6035.89
916.302	6056.9
916.613	6005.6
916.925	5986.85
917.236	5999.28
917.548	5942.33
917.859	5937.81
918.171	5894.2
918.482	5824.82
918.794	5856.91
919.105	5871.37
919.416	5799.51
919.727	5738.04
920.038	5809
920.349	5699.4
920.66	5673.64
920.971	5657.59
921.282	5654.43
921.593	5561.77
921.903	5640.64
922.214	5575.33
922.525	5572.17
922.835	5576.01
923.146	5524.04
923.456	5516.58
923.767	5471.16
924.077	5460.31
924.387	5451.5
924.697	5373.98
925.008	5433.64
925.318	5400.87
925.628	5333.08
925.938	5290.37
926.248	5283.82
926.558	5269.8
926.867	5237.26
927.177	5230.26
927.487	5185.06
927.796	5125.63
928.106	5153.42
928.416	5120.43
928.725	5119.98
929.034	5123.37
929.344	5096.7
929.653	5077.27
929.962	5039.08
930.271	5020.77
930.581	4982.81
930.89	4922.24
931.199	4948.91
931.508	4907.78
931.817	4888.35
932.125	4921.34
932.434	4875.01
932.743	4854
933.051	4821.46
933.36	4790.72
933.669	4788.69
933.977	4745.75
934.286	4741.23
934.594	4731.97
934.902	4713.44
935.21	4698.97
935.519	4644.06
935.827	4641.8
936.135	4654.45
936.443	4578.52
936.751	4603.38
937.059	4546.66
937.367	4557.96
937.674	4529.71
937.982	4491.97
938.29	4489.71
938.597	4496.49
938.905	4398.42
939.213	4431.63
939.52	4414.69
939.827	4362.71
940.135	4384.63
940.442	4376.04
940.749	4318.19
941.056	4364.74
941.363	4280.23
941.67	4283.84
941.977	4265.76
942.284	4251.75
942.591	4289.27
942.898	4207.46
943.205	4190.51
943.511	4209.95
943.818	4190.29
944.125	4105.32
944.431	4135.37
944.738	4094.69
945.044	4096.05
945.35	4053.79
945.657	4042.27
945.963	4026.67
946.269	3997.07
946.575	3991.65
946.881	3960.46
947.187	3963.85
947.493	3997.3
947.799	3970.4
948.105	3924.3
948.41	3907.13
948.716	3898.09
949.022	3881.37
949.327	3875.04
949.633	3870.52
949.938	3827.81
950.244	3822.39
950.549	3808.15
950.854	3726.12
951.16	3755.72
951.465	3727.02
951.77	3740.13
952.075	3710.75
952.38	3701.48
952.685	3649.28
952.99	3645.67
953.294	3609.74
953.599	3635.27
953.904	3597.31
954.209	3533.58
954.513	3564.54
954.818	3554.82
955.122	3524.09
955.426	3508.5
955.731	3517.99
956.035	3507.14
956.339	3486.8
956.643	3494.26
956.948	3457.65
957.252	3436.63
957.556	3428.5
957.86	3415.62
958.163	3420.14
958.467	3385.11
958.771	3383.98
959.075	3376.75
959.378	3325.9
959.682	3347.14
959.985	3306.92
960.289	3292
960.592	3306.92
960.896	3281.83
961.199	3256.98
961.502	3265.34
961.805	3229.63
962.108	3205.23
962.411	3216.3
962.714	3172.46
963.017	3197.09
963.32	3178.79
963.623	3160.26
963.926	3159.13
964.228	3111.9
964.531	3112.57
964.833	3106.02
965.136	3091.78
965.438	3063.76
965.741	3076.42
966.043	3035.29
966.345	3027.38
966.648	2994.84
966.95	3024.44
967.252	2992.35
967.554	2998.9
967.856	2987.15
968.158	2914.16
968.46	2905.8
968.761	2947.38
969.063	2912.13
969.365	2889.98
969.666	2866.7
969.968	2859.92
970.269	2848.17
970.571	2845.01
970.872	2858.12
971.174	2843.43
971.475	2828.06
971.776	2778.8
972.077	2766.37
972.378	2770.21
972.679	2840.04
972.98	2753.49
973.281	2746.71
973.582	2752.81
973.883	2725.47
974.183	2686.37
974.484	2720.49
974.785	2656.99
975.085	2694.51
975.386	2677.78
975.686	2639.14
975.986	2612.25
976.287	2665.35
976.587	2631.91
976.887	2593.94
977.187	2600.95
977.487	2620.84
977.787	2571.34
978.087	2585.81
978.387	2569.08
978.687	2529.31
978.987	2544
979.286	2522.98
979.586	2509.88
979.885	2488.86
980.185	2476.21
980.484	2463.55
980.784	2471.46
981.083	2460.61
981.382	2454.29
981.682	2411.12
981.981	2434.4
982.28	2447.96
982.579	2407.06
982.878	2403.67
983.177	2412.03
983.475	2422.2
983.774	2355.76
984.073	2380.16
984.372	2310.79
984.67	2360.28
984.969	2348.53
985.267	2309.88
985.566	2280.28
985.864	2302.65
986.162	2293.16
986.461	2257.45
986.759	2253.16
987.057	2221.98
987.355	2233.73
987.653	2220.62
987.951	2216.1
988.249	2237.79
988.547	2209.55
988.844	2197.34
989.142	2196.89
989.44	2167.97
989.737	2176.33
990.035	2154.18
990.332	2146.27
990.63	2127.06
990.927	2123.45
991.224	2133.16
991.521	2110.11
991.819	2064.47
992.116	2083
992.413	2070.12
992.71	2080.74
993.006	2049.78
993.303	2024.47
993.6	2057.46
993.897	2017.24
994.193	2045.93
994.49	1995.31
994.787	2005.71
995.083	2002.77
995.379	2026.73
995.676	1971.13
995.972	1987.63
996.268	1968.42
996.565	1963
996.861	1961.87
997.157	1941.98
997.453	1962.77
997.749	1930.68
998.044	1915.54
998.34	1908.76
998.636	1906.73
998.932	1857.69
999.227	1860.63
999.523	1863.11
999.818	1831.25
1000.114	1847.3
1000.409	1870.12
1000.704	1821.08
1001	1813.85
1001.295	1821.99
1001.59	1796.22
1001.885	1777.69
1002.18	1755.55
1002.475	1738.37
1002.77	1786.96
1003.065	1751.71
1003.359	1757.58
1003.654	1750.58
1003.949	1696.34
1004.243	1726.4
1004.538	1694.08
1004.832	1685.94
1005.127	1681.2
1005.421	1678.49
1005.715	1667.41
1006.009	1645.72
1006.304	1619.51
1006.598	1644.36
1006.892	1617.7
1007.186	1606.4
1007.48	1639.17
1007.773	1614.99
1008.067	1620.18
1008.361	1574.53
1008.655	1579.05
1008.948	1548.77
1009.242	1572.05
1009.535	1553.52
1009.829	1555.78
1010.122	1539.06
1010.415	1522.33
1010.708	1505.38
1011.001	1495.89
1011.295	1490.92
1011.588	1508.55
1011.881	1496.12
1012.173	1475.55
1012.466	1464.93
1012.759	1468.1
1013.052	1478.27
1013.344	1453.86
1013.637	1458.38
1013.93	1414.31
1014.222	1423.58
1014.514	1423.8
1014.807	1418.61
1015.099	1391.26
1015.391	1400.53
1015.683	1367.76
1015.976	1380.42
1016.268	1349.23
1016.56	1344.03
1016.851	1357.14
1017.143	1347.42
1017.435	1318.95
1017.727	1327.54
1018.018	1292.51
1018.31	1309.46
1018.602	1335.9
1018.893	1303.58
1019.185	1294.32
1019.476	1262.23
1019.767	1250.7
1020.058	1275.56
1020.35	1274.66
1020.641	1254.09
1020.932	1242.57
1021.223	1220.42
1021.514	1226.3
1021.804	1215.45
1022.095	1212.74
1022.386	1186.3
1022.677	1197.37
1022.967	1189.23
1023.258	1179.74
1023.548	1161.44
1023.839	1182
1024.129	1169.35
1024.419	1168.9
1024.709	1144.72
1025	1157.14
1025.29	1123.25
1025.58	1136.81
1025.87	1132.51
1026.16	1109.46
1026.449	1126.41
1026.739	1108.78
1027.029	1083.02
1027.319	1099.52
1027.608	1061.55
1027.898	1081.67
1028.187	1061.1
1028.477	1050.25
1028.766	1064.49
1029.055	1032.18
1029.344	1033.53
1029.634	1026.98
1029.923	1016.58
1030.212	978.39
1030.501	1003.7
1030.79	982.23
1031.078	1003.02
1031.367	997.83
1031.656	991.95
1031.945	984.95
1032.233	984.95
1032.522	957.83
1032.81	952.63
1033.099	957.38
1033.387	942.46
1033.675	951.5
1033.963	916.25
1034.251	961.22
1034.54	929.13
1034.828	928.68
1035.116	930.48
1035.403	915.57
1035.691	915.57
1035.979	906.08
1036.267	904.95
1036.554	873.54
1036.842	878.73
1037.129	874.44
1037.417	876.47
1037.704	882.12
1037.992	857.49
1038.279	880.32
1038.566	861.56
1038.853	861.56
1039.14	861.56
