Data from hue_50_FLMS001491_91.txt Node
Date: Mon Feb 06 15:11:21 GMT 2017
User: dcchb
Spectrometer: FLMS00149
Trigger mode: 0
Integration Time (sec): 2.000000E-2
Scans to average: 10
Electric dark correction enabled: true
Nonlinearity correction enabled: false
Boxcar width: 0
XAxis mode: Wavelengths
Number of Pixels in Spectrum: 2048
>>>>>Begin Spectral Data<<<<<
341.393	-11.04
341.776	-11.04
342.16	-11.04
342.543	-78.61
342.927	-77.48
343.31	-64.83
343.693	-70.03
344.077	-42.46
344.46	-74.09
344.843	-72.74
345.226	-42.23
345.61	-28.9
345.993	-17.6
346.376	1.16
346.759	5.45
347.142	16.07
347.525	41.84
347.908	55.62
348.291	82.06
348.674	91.78
349.057	118.9
349.44	130.19
349.823	158.67
350.206	173.81
350.588	212
350.971	213.36
351.354	220.59
351.737	255.39
352.119	252.45
352.502	254.48
352.884	262.62
353.267	270.08
353.65	287.93
354.032	302.62
354.414	309.85
354.797	311.21
355.179	324.31
355.562	327.7
355.944	341.94
356.326	330.64
356.709	327.93
357.091	354.37
357.473	347.36
357.855	340.81
358.238	330.19
358.62	352.56
359.002	360.92
359.384	367.7
359.766	356.63
360.148	326.12
360.53	350.3
360.912	352.79
361.294	355.5
361.676	341.94
362.057	345.56
362.439	356.63
362.821	352.79
363.203	334.93
363.584	330.64
363.966	320.02
364.348	323.41
364.729	318.44
365.111	321.83
365.493	321.83
365.874	325.22
366.256	322.28
366.637	317.31
367.019	306.46
367.4	337.65
367.781	334.26
368.163	323.41
368.544	321.6
368.925	315.05
369.306	326.35
369.688	322.96
370.069	327.7
370.45	305.78
370.831	313.24
371.212	322.96
371.593	320.92
371.974	309.62
372.355	313.24
372.736	324.09
373.117	311.21
373.498	327.48
373.879	327.7
374.26	322.51
374.641	320.25
375.021	305.33
375.402	339.45
375.783	311.21
376.163	334.48
376.544	326.8
376.925	325.9
377.305	343.07
377.686	340.81
378.066	353.24
378.447	324.77
378.827	333.13
379.208	343.52
379.588	350.3
379.968	337.19
380.349	346.91
380.729	329.06
381.109	367.25
381.489	322.28
381.87	342.17
382.25	350.08
382.63	345.56
383.01	331.54
383.39	360.24
383.77	344.88
384.15	346.91
384.53	346.23
384.91	339.68
385.29	358.44
385.67	361.83
386.049	360.92
386.429	369.28
386.809	356.63
387.189	358.21
387.568	372
387.948	345.78
388.328	381.26
388.707	358.44
389.087	362.73
389.466	372.9
389.846	366.57
390.225	382.17
390.605	362.28
390.984	361.6
391.363	355.73
391.743	390.98
392.122	376.06
392.501	363.63
392.881	368.61
393.26	381.04
393.639	374.71
394.018	372.45
394.397	373.13
394.776	392.11
395.155	385.1
395.534	381.26
395.913	400.24
396.292	398.44
396.671	416.97
397.05	405.67
397.429	417.64
397.808	406.8
398.186	404.76
398.565	399.79
398.944	407.7
399.323	415.16
399.701	409.51
400.08	422.62
400.458	419.23
400.837	396.4
401.215	428.04
401.594	410.19
401.972	422.62
402.351	419
402.729	427.59
403.107	440.69
403.486	437.76
403.864	443.18
404.242	404.31
404.62	430.75
404.999	423.29
405.377	417.87
405.755	443.86
406.133	455.16
406.511	438.21
406.889	454.25
407.267	433.69
407.645	473.01
408.023	461.94
408.401	446.34
408.779	456.74
409.156	465.33
409.534	475.72
409.912	480.24
410.29	477.98
410.667	479.34
411.045	468.72
411.422	468.94
411.8	490.86
412.178	478.66
412.555	481.82
412.933	483.63
413.31	495.16
413.687	501.03
414.065	524.53
414.442	515.72
414.819	520.47
415.197	530.41
415.574	517.53
415.951	522.27
416.328	541.26
416.705	532.67
417.082	520.92
417.46	541.03
417.837	529.05
418.214	524.53
418.591	549.84
418.967	525.89
419.344	540.58
419.721	536.29
420.098	541.03
420.475	550.75
420.852	549.62
421.228	562.95
421.605	555.95
421.982	583.52
422.358	590.75
422.735	596.62
423.111	578.77
423.488	595.94
423.864	611.31
424.241	576.06
424.617	605.44
424.994	607.02
425.37	633.46
425.746	602.5
426.123	597.75
426.499	609.96
426.875	616.96
427.251	641.59
427.627	638.66
428.003	625.77
428.379	654.93
428.756	640.46
429.132	658.54
429.507	654.02
429.883	665.32
430.259	679.56
430.635	685.66
431.011	687.69
431.387	681.14
431.763	709.61
432.138	687.92
432.514	706.68
432.89	700.35
433.265	723.63
433.641	710.29
434.016	734.92
434.392	746.68
434.767	731.08
435.143	759.1
435.518	758.65
435.894	778.31
436.269	773.34
436.644	767.92
437.02	787.13
437.395	794.13
437.77	799.78
438.145	788.93
438.52	823.96
438.895	826.9
439.271	804.98
439.646	843.85
440.021	816.05
440.395	833.9
440.77	830.74
441.145	842.49
441.52	846.33
441.895	831.42
442.27	859.67
442.645	848.14
443.019	868.93
443.394	889.04
443.769	884.98
444.143	891.76
444.518	888.14
444.892	884.52
445.267	883.62
445.641	909.61
446.016	896.28
446.39	920.91
446.764	917.74
447.139	913.22
447.513	927.01
447.887	922.72
448.262	939.89
448.636	953.9
449.01	932.66
449.384	958.2
449.758	972.66
450.132	968.59
450.506	971.53
450.88	1004.97
451.254	983.28
451.628	1003.62
452.002	1005.65
452.376	1052.66
452.75	1018.08
453.123	1024.86
453.497	1062.37
453.871	1044.07
454.244	1072.77
454.618	1067.57
454.992	1081.36
455.365	1091.07
455.739	1115.03
456.112	1104.86
456.486	1134.24
456.859	1131.75
457.232	1143.28
457.606	1147.12
457.979	1170.62
458.352	1195.03
458.725	1193.67
459.099	1239.32
459.472	1223.95
459.845	1257.62
460.218	1258.3
460.591	1266.89
460.964	1285.19
461.337	1283.16
461.71	1315.25
462.083	1326.1
462.456	1356.15
462.829	1339.2
463.201	1363.16
463.574	1391.63
463.947	1410.84
464.32	1392.76
464.692	1410.16
465.065	1424.4
465.438	1448.35
465.81	1513.21
466.183	1495.81
466.555	1533.55
466.928	1552.3
467.3	1568.12
467.672	1605.64
468.045	1632.08
468.417	1648.12
468.789	1654
469.161	1645.41
469.534	1748
469.906	1753.43
470.278	1741.9
470.65	1800.66
471.022	1848.79
471.394	1841.11
471.766	1880.66
472.138	1917.27
472.51	1951.62
472.882	2029.13
473.253	2033.2
473.625	2063.48
473.997	2126.75
474.369	2128.11
474.74	2168.11
475.112	2235.45
475.484	2280.87
475.855	2349.8
476.227	2377.37
476.598	2419.63
476.97	2459.85
477.341	2534.2
477.713	2629.34
478.084	2651.94
478.455	2728.09
478.827	2808.09
479.198	2919.05
479.569	2928.31
479.94	3051.47
480.311	3124.47
480.682	3229.32
481.053	3298.47
481.424	3352.71
481.795	3453.95
482.166	3558.58
482.537	3616.43
482.908	3700.27
483.279	3780.72
483.65	3879.47
484.021	4039.02
484.391	4108.62
484.762	4188.17
485.133	4233.59
485.503	4408.73
485.874	4536.18
486.244	4596.74
486.615	4798.32
486.985	4850.97
487.356	5031.53
487.726	5101.59
488.097	5280.34
488.467	5331.87
488.837	5495.25
489.207	5613.89
489.578	5768.24
489.948	5909.25
490.318	6014.33
490.688	6082.13
491.058	6289.81
491.428	6372.29
491.798	6568.22
492.168	6729.34
492.538	6858.6
492.908	6963.23
493.278	7123
493.648	7249.78
494.017	7400.74
494.387	7539.72
494.757	7708.98
495.126	7871.91
495.496	7920.5
495.866	8093.15
496.235	8170.89
496.605	8314.84
496.974	8480.94
497.344	8677.99
497.713	8735.17
498.082	8898.55
498.452	9084.31
498.821	9106.68
499.19	9223.97
499.559	9398.88
499.928	9523.85
500.298	9633.67
500.667	9851.75
501.036	9858.98
501.405	10017.17
501.774	10064.4
502.143	10244.5
502.512	10324.5
502.88	10581.22
503.249	10582.8
503.618	10690.82
503.987	10806.75
504.356	10949.8
504.724	11005.39
505.093	11178.72
505.462	11258.72
505.83	11408.32
506.199	11498.26
506.567	11685.82
506.936	11734.63
507.304	11913.16
507.672	11994.52
508.041	12162.19
508.409	12233.38
508.777	12420.72
509.145	12523.99
509.514	12565.12
509.882	12668.17
510.25	12817.54
510.618	13011.44
510.986	13041.95
511.354	13163.07
511.722	13332.56
512.09	13475.61
512.458	13424.99
512.826	13612.1
513.193	13716.96
513.561	13737.07
513.929	13893.9
514.297	14028.36
514.664	14198.75
515.032	14265.64
515.4	14383.6
515.767	14437.39
516.135	14587.89
516.502	14581.79
516.869	14754.67
517.237	14876.93
517.604	14893.87
517.972	14991.27
518.339	15194.66
518.706	15248.89
519.073	15440.3
519.44	15547.64
519.808	15668.32
520.175	15672.84
520.542	15804.81
520.909	15976.11
521.276	16021.08
521.643	16183.11
522.009	16261.3
522.376	16470.78
522.743	16548.75
523.11	16676.65
523.477	16892.01
523.843	16971.11
524.21	17191.67
524.577	17295.39
524.943	17295.62
525.31	17382.62
525.676	17619.45
526.043	17781.71
526.409	17886.34
526.776	17976.96
527.142	18067.35
527.508	18205.88
527.874	18362.26
528.241	18468.24
528.607	18477.96
528.973	18748.24
529.339	18641.8
529.705	18949.36
530.071	19043.37
530.437	19075.91
530.803	19291.95
531.169	19379.63
531.535	19387.32
531.901	19524.49
532.267	19523.58
532.632	19635.22
532.998	19777.36
533.364	19885.16
533.73	19933.74
534.095	20130.12
534.461	20262.09
534.826	20302.09
535.192	20332.37
535.557	20445.37
535.923	20546.38
536.288	20672.25
536.653	20745.02
537.019	20624.34
537.384	20760.84
537.749	20956.09
538.114	21100.72
538.479	20995.18
538.845	21293.71
539.21	21154.95
539.575	21168.51
539.94	21243.76
540.305	21469.75
540.67	21431.78
541.034	21546.58
541.399	21776.86
541.764	21758.55
542.129	21826.35
542.494	21840.13
542.858	21956.29
543.223	22066.34
543.587	22221.36
543.952	22121.93
544.316	22264.53
544.681	22169.16
545.045	22442.83
545.41	22427.69
545.774	22537.51
546.138	22542.49
546.503	22605.08
546.867	22649.15
547.231	22907.22
547.595	22854.57
547.959	22982.02
548.324	22975.24
548.688	23093.66
549.052	23182.47
549.416	23267.67
549.779	23232.64
550.143	23318.06
550.507	23530.03
550.871	23613.42
551.235	23569.8
551.599	23747.2
551.962	23732.29
552.326	23914.88
552.689	24163.46
553.053	24068.32
553.417	24084.59
553.78	24506.73
554.143	24318.03
554.507	24314.42
554.87	24523.9
555.234	24728.64
555.597	24548.76
555.96	24718.47
556.323	24870.79
556.686	24842.54
557.05	25137.45
557.413	24981.74
557.776	25165.92
558.139	25351.45
558.502	25387.38
558.865	25536.53
559.228	25568.4
559.59	25626.93
559.953	25659.69
560.316	25891.32
560.679	25979.68
561.041	26153.01
561.404	26331.99
561.767	26506
562.129	26418.32
562.492	26698.54
562.854	26654.02
563.217	26703.05
563.579	26855.37
563.941	27028.47
564.304	27131.97
564.666	27340.1
565.028	27304.85
565.39	27392.75
565.753	27563.15
566.115	27687.89
566.477	27752.52
566.839	27792.52
567.201	28038.39
567.563	28019.4
567.925	28056.24
568.287	28088.33
568.648	28333.75
569.01	28341.88
569.372	28492.16
569.734	28574.64
570.095	28713.62
570.457	28879.95
570.819	28948.87
571.18	29006.05
571.542	29189.09
571.903	29236.77
572.265	29346.83
572.626	29361.52
572.987	29481.74
573.349	29636.99
573.71	29658.46
574.071	29826.14
574.432	30011.22
574.794	30076.98
575.155	30277.65
575.516	30087.82
575.877	30253.7
576.238	30405.56
576.599	30648.71
576.96	30624.08
577.32	30525.78
577.681	30811.2
578.042	30963.28
578.403	31048.93
578.763	31130.28
579.124	31220.22
579.485	31478.75
579.845	31486.43
580.206	31533.89
580.566	31691.85
580.927	31763.03
581.287	31872.86
581.648	31786.09
582.008	31980.88
582.368	32045.06
582.728	32221.33
583.089	32359.63
583.449	32443.92
583.809	32590.13
584.169	32573.86
584.529	32699.96
584.889	32912.16
585.249	32885.27
585.609	32987.64
585.969	33102.43
586.329	33211.36
586.688	33295.2
587.048	33336.55
587.408	33325.48
587.768	33559.6
588.127	33631.46
588.487	33695.87
588.846	34169.3
589.206	33812.25
589.565	34041.62
589.925	34253.82
590.284	34281.84
590.643	34456.3
591.003	34565.67
591.362	34733.58
591.721	34627.14
592.08	34732
592.44	34928.83
592.799	35028.71
593.158	35197.07
593.517	35130.86
593.876	35371.53
594.235	35333.79
594.593	35462.15
594.952	35525.2
595.311	35504.63
595.67	35656.72
596.029	35797.05
596.387	36123.37
596.746	36133.09
597.104	36062.13
597.463	36144.84
597.822	36340.99
598.18	36302.58
598.538	36333.08
598.897	36582.34
599.255	36409.01
599.613	36860.75
599.972	36785.28
600.33	36915.89
600.688	36759.74
601.046	37004.93
601.404	37098.49
601.762	37135.77
602.12	37468.87
602.478	37508.42
602.836	37645.37
603.194	37470.46
603.552	37557.91
603.91	37604.92
604.268	37777.79
604.625	37822.99
604.983	37886.04
605.341	37908.18
605.698	38070.21
606.056	38219.81
606.413	38166.26
606.771	38424.1
607.128	38417.55
607.485	38380.04
607.843	38490.09
608.2	38754.72
608.557	38873.13
608.914	38773.92
609.272	38878.33
609.629	39039.68
609.986	38986.57
610.343	38934.37
610.7	39394.25
611.057	39402.83
611.414	39358.54
611.771	39526.22
612.127	39476.28
612.484	39637.4
612.841	39725.31
613.198	39542.04
613.554	39679.66
613.911	40034.23
614.267	39902.03
614.624	39996.94
614.98	40098.86
615.337	40342.7
615.693	40268.12
616.05	40212.08
616.406	40442.58
616.762	40437.16
617.118	40453.2
617.475	40491.62
617.831	40617.27
618.187	40612.52
618.543	40615.46
618.899	41064.03
619.255	40929.57
619.611	40834.89
619.967	41059.29
620.323	41183.8
620.678	40965.28
621.034	40989.23
621.39	40971.15
621.746	40986.52
622.101	41473.74
622.457	41200.07
622.812	41232.62
623.168	41315.33
623.523	41353.29
623.879	41457.02
624.234	41294.99
624.589	41501.54
624.945	41461.08
625.3	41406.4
625.655	41420.41
626.01	41597.58
626.365	41462.67
626.72	41482.33
627.075	41600.29
627.43	41575.43
627.785	41537.02
628.14	41585.38
628.495	41623.34
628.85	41544.92
629.205	41504.02
629.559	41747.86
629.914	41551.25
630.269	41622.89
630.623	41672.15
630.978	41555.55
631.332	41617.24
631.687	41840.28
632.041	41651.59
632.396	41784.01
632.75	41551.25
633.104	41675.32
633.459	41469.22
633.813	41489.33
634.167	41551.03
634.521	41545.38
634.875	41561.2
635.229	41431.71
635.583	41309.9
635.937	41292.73
636.291	41313.97
636.645	41334.08
636.999	41352.39
637.352	41317.81
637.706	41166.18
638.06	41248.44
638.413	40989.68
638.767	41166.86
639.121	41260.41
639.474	40880.99
639.828	41049.8
640.181	41275.1
640.534	41093.19
640.888	40928.22
641.241	40885.73
641.594	40822.68
641.947	41144.94
642.301	40891.61
642.654	40984.04
643.007	41013.41
643.36	40795.11
643.713	40669.02
644.066	40935.9
644.419	40586.53
644.771	40471.05
645.124	40136.37
645.477	40188.35
645.83	39765.99
646.182	39679.21
646.535	39573.68
646.888	39686.67
647.24	39306.57
647.593	39733.45
647.945	39533.9
648.298	39371.2
648.65	39329.39
649.002	39208.04
649.355	39395.15
649.707	39288.03
650.059	39436.96
650.411	39825.2
650.763	39962.59
651.115	40309.48
651.467	40132.53
651.819	40182.93
652.171	40106.09
652.523	40042.14
652.875	40180.89
653.227	39996.49
653.578	40152.87
653.93	40062.25
654.282	39920.11
654.633	39638.31
654.985	39868.81
655.337	39981.8
655.688	39854.12
656.039	40005.98
656.391	39664.3
656.742	39900.67
657.094	39884.4
657.445	39965.98
657.796	39881.92
658.147	39866.55
658.498	39797.85
658.849	39762.6
659.2	39849.15
659.551	39621.13
659.902	39758.3
660.253	39825.2
660.604	39735.48
660.955	39550.17
661.306	39702.71
661.656	39701.13
662.007	39689.15
662.358	39673.11
662.708	39672.43
663.059	39511.31
663.409	39309.28
663.76	39702.94
664.11	39533
664.461	39622.72
664.811	39653.9
665.161	39592.66
665.511	39486.9
665.862	39476.96
666.212	39532.32
666.562	39676.5
666.912	39493.68
667.262	39468.59
667.612	39552.89
667.962	39509.72
668.312	39410.74
668.662	39643.73
669.011	39496.62
669.361	39353.34
669.711	39444.87
670.06	39316.96
670.41	39316.96
670.76	39306.11
671.109	39449.61
671.459	39372.55
671.808	39257.08
672.157	39251.88
672.507	39036.29
672.856	39094.82
673.205	39023.63
673.554	39238.77
673.904	38999.68
674.253	39236.51
674.602	39159
674.951	38594.04
675.3	38318.12
675.649	39021.38
675.998	38978.66
676.346	38952
676.695	39017.53
677.044	38900.02
677.393	38905.9
677.741	39043.52
678.09	38897.99
678.438	38809.18
678.787	38872.68
679.135	38884.66
679.484	38782.74
679.832	38814.83
680.181	38479.69
680.529	38669.97
680.877	38595.4
681.225	38526.25
681.573	38885.33
681.922	38429.07
682.27	38500.26
682.618	38428.4
682.966	38265.91
683.314	38487.15
683.661	38256.42
684.009	38069.54
684.357	37995.87
684.705	37999.26
685.053	38164.67
685.4	37973.27
685.748	37775.76
686.095	37737.57
686.443	37619.6
686.79	37694.4
687.138	37566.5
687.485	37672.03
687.832	37466.39
688.18	37373.51
688.527	37309.78
688.874	37284.7
689.221	37228.88
689.568	37179.84
689.915	37011.48
690.262	36967.42
690.609	36905.05
690.956	36869.34
691.303	36812.62
691.65	36725.39
691.997	36689.01
692.344	36416.92
692.69	36379.64
693.037	36404.27
693.383	36168.57
693.73	36352.74
694.077	36044.28
694.423	36024.62
694.769	35999.99
695.116	35823.95
695.462	35822.82
695.808	35646.77
696.155	35657.4
696.501	35533.33
696.847	35564.06
697.193	35273.23
697.539	35540.34
697.885	35265.09
698.231	35055.6
698.577	35097.41
698.923	35012.89
699.269	34832.56
699.614	34692.22
699.96	34661.72
700.306	34681.83
700.651	34412
700.997	34331.78
701.342	34252.23
701.688	34260.37
702.033	34221.5
702.379	34132.46
702.724	34084.1
703.069	34120.71
703.415	33686.37
703.76	33694.96
704.105	33816.99
704.45	33642.31
704.795	33395.99
705.14	33529.54
705.485	33291.81
705.83	33177.46
706.175	33354.41
706.52	32954.42
706.865	32970.46
707.209	33019.27
707.554	32914.19
707.899	32999.84
708.243	32741.99
708.588	32742.44
708.932	32408.67
709.277	32428.1
709.621	32538.61
709.966	32303.13
710.31	32352.4
710.654	32169.35
710.998	32178.39
711.342	32101.56
711.687	32013.42
712.031	31999.64
712.375	31774.56
712.719	31757.61
713.063	31936.36
713.407	31658.4
713.75	31677.84
714.094	31643.94
714.438	31477.84
714.782	31578.41
715.125	31532.53
715.469	31531.18
715.812	31267.45
716.156	31137.51
716.499	31239.66
716.843	31130.96
717.186	30936.39
717.53	31129.61
717.873	31098.42
718.216	31118.53
718.559	30861.82
718.902	30663.4
719.246	30767.81
719.589	30639.22
719.932	30461.6
720.275	30601.94
720.617	30540.02
720.96	30413.01
721.303	30315.16
721.646	30425.67
721.989	30106.36
722.331	30306.35
722.674	30128.5
723.016	30271.1
723.359	30245.79
723.701	30093.47
724.044	30026.13
724.386	29779.36
724.729	30024.32
725.071	29827.49
725.413	29871.11
725.755	29835.4
726.097	29679.7
726.439	29636.31
726.782	29516.31
727.124	29784.1
727.465	29416.66
727.807	29491.91
728.149	29241.29
728.491	29303.21
728.833	29234.97
729.175	29188.64
729.516	29239.49
729.858	29124.23
730.199	29248.98
730.541	29095.76
730.882	29020.51
731.224	29080.85
731.565	28948.65
731.906	28898.93
732.248	28922.88
732.589	28755.88
732.93	28686.51
733.271	28806.73
733.612	28727.63
733.953	28735.54
734.294	28653.51
734.635	28617.35
734.976	28595.66
735.317	28498.04
735.658	28571.71
735.999	28396.8
736.339	28340.07
736.68	28484.7
737.021	28355.67
737.361	28300.53
737.702	28364.48
738.042	28372.84
738.383	28163.36
738.723	28276.57
739.063	28039.97
739.404	28049.23
739.744	27989.8
740.084	27991.61
740.424	27930.82
740.764	27839.97
741.104	27899.41
741.444	27818.05
741.784	27682.24
742.124	27672.75
742.464	27592.52
742.804	27628
743.143	27595.01
743.483	27550.72
743.823	27583.48
744.162	27456.48
744.502	27493.77
744.841	27352.08
745.181	27472.07
745.52	27350.04
745.86	27214.68
746.199	27272.08
746.538	27189.82
746.877	27409.03
747.216	27376.94
747.556	27071.18
747.895	27202.7
748.234	27015.82
748.573	26924.74
748.911	26910.96
749.25	26926.1
749.589	26921.81
749.928	26891.3
750.267	26800
750.605	26641.81
750.944	26712.09
751.283	26584.64
751.621	26623.06
751.96	26449.28
752.298	26457.41
752.636	26410.63
752.975	26292.44
753.313	26248.6
753.651	26284.08
753.989	26173.8
754.327	26175.39
754.666	26088.16
755.004	26083.41
755.342	26071.66
755.679	25955.73
756.017	25857.2
756.355	25922.51
756.693	25704.66
757.031	25829.41
757.368	25635.06
757.706	25615.85
758.044	25464.67
758.381	25552.8
758.719	25485.01
759.056	25480.94
759.394	25359.36
759.731	25235.07
760.068	25224.9
760.405	25050.89
760.743	25010.67
761.08	25033.27
761.417	24957.56
761.754	24851.58
762.091	24791.24
762.428	24716.44
762.765	24529.1
763.102	24701.98
763.438	24489.78
763.775	24382.89
764.112	24332.95
764.449	24335.21
764.785	24207.08
765.122	24104.25
765.458	23986.97
765.795	24003.24
766.131	23998.04
766.467	23886.18
766.804	23790.82
767.14	23625.4
767.476	23606.19
767.812	23534.32
768.148	23517.6
768.485	23403.48
768.821	23353.54
769.157	23261.56
769.492	23177.72
769.828	23147.44
770.164	22963.04
770.5	22905.64
770.836	22913.78
771.171	22821.58
771.507	22767.34
771.842	22547.91
772.178	22619.32
772.513	22464.75
772.849	22484.86
773.184	22264.08
773.519	22236.51
773.855	22182.72
774.19	22081.93
774.525	21962.84
774.86	21937.53
775.195	21911.32
775.53	21915.38
775.865	21744.09
776.2	21473.14
776.535	21520.82
776.87	21425.91
777.205	21307.26
777.539	21248.74
777.874	21314.04
778.209	21033.83
778.543	21067.72
778.878	20894.62
779.212	20944.11
779.547	20831.12
779.881	20869.54
780.215	20796.77
780.55	20745.92
780.884	20534.4
781.218	20445.14
781.552	20463.9
781.886	20452.82
782.22	20320.85
782.554	20257.57
782.888	20035.43
783.222	20005.15
783.556	19927.19
783.889	19892.16
784.223	19678.83
784.557	19734.42
784.89	19771.03
785.224	19660.08
785.557	19506.63
785.891	19464.38
786.224	19405.85
786.558	19439.97
786.891	19161.11
787.224	19115.91
787.557	19140.09
787.891	19030.49
788.224	19021
788.557	18934.9
788.89	18870.72
789.223	18863.26
789.556	18698.07
789.888	18659.42
790.221	18678.41
790.554	18409.94
790.887	18486.1
791.219	18288.13
791.552	18454.01
791.884	18270.73
792.217	18174.69
792.549	18088.14
792.882	18020.12
793.214	17969.27
793.546	17981.02
793.879	17927.69
794.211	17807.7
794.543	17793.91
794.875	17761.37
795.207	17710.97
795.539	17670.75
795.871	17623.75
796.203	17512.79
796.535	17390.08
796.867	17398.21
797.198	17380.81
797.53	17317.31
797.862	17141.27
798.193	17203.19
798.525	17088.84
798.856	17102.4
799.188	16996.19
799.519	16887.04
799.85	16834.39
800.182	16843.88
800.513	16776.08
800.844	16568.86
801.175	16743.99
801.506	16695.63
801.837	16566.15
802.168	16549.88
802.499	16432.82
802.83	16482.31
803.161	16296.55
803.491	16327.28
803.822	16268.3
804.153	16148.53
804.483	16128.64
804.814	16115.08
805.145	16050.23
805.475	15944.24
805.805	15926.84
806.136	15887.29
806.466	15986.73
806.796	15810.69
807.126	15782.44
807.457	15633.74
807.787	15728.43
808.117	15647.98
808.447	15574.08
808.777	15544.7
809.107	15534.76
809.436	15461.32
809.766	15460.41
810.096	15408.44
810.426	15384.03
810.755	15327.99
811.085	15350.13
811.414	15250.25
811.744	15137.71
812.073	15090.48
812.403	15105.62
812.732	15044.38
813.061	14970.03
813.39	14926.19
813.719	14927.32
814.049	15066.98
814.378	14893.87
814.707	14855.46
815.036	14873.54
815.365	14796.48
815.693	14629.02
816.022	14712.86
816.351	14585.41
816.68	14494.56
817.008	14509.48
817.337	14420.89
817.665	14506.54
817.994	14415.24
818.322	14410.72
818.651	14356.49
818.979	14218.64
819.307	14358.97
819.636	14226.32
819.964	14221.58
820.292	14237.39
820.62	14204.63
820.948	14185.19
821.276	14232.87
821.604	14116.27
821.932	14257.96
822.259	14157.62
822.587	14168.7
822.915	14098.41
823.243	14203.04
823.57	14051.41
823.898	14170.05
824.225	14083.05
824.553	14045.99
824.88	14141.13
825.207	14178.64
825.535	14086.89
825.862	14161.69
826.189	14036.04
826.516	14120.79
826.843	14188.81
827.17	14153.33
827.497	14074.46
827.824	14140.45
828.151	14107.68
828.478	14069.04
828.805	14121.69
829.131	14049.15
829.458	14092.31
829.785	14036.5
830.111	14041.01
830.438	14124.85
830.764	14012.32
831.09	14089.6
831.417	13980.68
831.743	14038.3
832.069	14022.94
832.395	13982.49
832.722	14026.78
833.048	14019.55
833.374	13948.59
833.7	13926.67
834.026	13956.05
834.351	13927.35
834.677	13925.54
835.003	13925.76
835.329	13949.27
835.654	13906.33
835.98	13791.3
836.306	13776.84
836.631	13686
836.956	13792.21
837.282	13791.53
837.607	13677.18
837.932	13771.42
838.258	13624.08
838.583	13638.77
838.908	13550.41
839.233	13576.62
839.558	13620.69
839.883	13590.63
840.208	13450.97
840.533	13471.99
840.858	13470.86
841.182	13535.94
841.507	13388.38
841.832	13359.68
842.156	13432.67
842.481	13390.41
842.805	13317.19
843.13	13262.96
843.454	13270.64
843.778	13188.38
844.103	13182.73
844.427	13163.52
844.751	13214.6
845.075	13026.35
845.399	13008.5
845.723	12934.15
846.047	13058.89
846.371	12849.63
846.695	12941.38
847.019	12837.88
847.343	12754.72
847.666	12682.41
847.99	12547.72
848.313	12557.21
848.637	12540.94
848.96	12555.86
849.284	12479.7
849.607	12381.62
849.931	12366.48
850.254	12307.05
850.577	12236.32
850.9	12153.16
851.223	12152.48
851.546	12080.39
851.869	11976.44
852.192	12060.05
852.515	11958.81
852.838	11880.85
853.161	11915.87
853.483	11880.85
853.806	11713.39
854.129	11786.61
854.451	11722.88
854.774	11620.29
855.096	11613.06
855.419	11577.8
855.741	11565.6
856.063	11497.81
856.385	11526.5
856.708	11406.28
857.03	11334.19
857.352	11447.64
857.674	11396.79
857.996	11348.66
858.318	11293.97
858.64	11312.95
858.961	11244.7
859.283	11138.27
859.605	11094.65
859.926	11163.58
860.248	11052.62
860.57	11072.28
860.891	11050.13
861.212	11005.16
861.534	11009
861.855	10953.19
862.176	11074.77
862.498	10998.38
862.819	10902.57
863.14	10842
863.461	10850.82
863.782	10819.63
864.103	10839.74
864.424	10816.47
864.745	10750.25
865.065	10738.05
865.386	10703.25
865.707	10717.03
866.027	10660.76
866.348	10721.55
866.668	10677.04
866.989	10537.6
867.309	10554.78
867.63	10598.62
867.95	10561.78
868.27	10509.36
868.59	10541.45
868.91	10584.61
869.23	10554.55
869.55	10464.39
869.87	10424.39
870.19	10437.95
870.51	10419.19
870.83	10359.53
871.15	10369.7
871.469	10347.1
871.789	10385.29
872.109	10293.77
872.428	10334.22
872.748	10356.37
873.067	10284.73
873.386	10270.94
873.706	10237.05
874.025	10267.33
874.344	10237.27
874.663	10116.82
874.982	10129.93
875.301	10216.26
875.62	10125.86
875.939	10135.35
876.258	10120.21
876.577	10024.17
876.896	10119.99
877.214	10055.58
877.533	10016.71
877.852	10028.24
878.17	10068.24
878.489	9968.13
878.807	10011.74
879.125	9954.79
879.444	10001.57
879.762	9895.59
880.08	9919.99
880.398	9916.83
880.716	9866.21
881.034	9869.15
881.352	9843.84
881.67	9766.78
881.988	9788.47
882.306	9762.48
882.624	9826.89
882.941	9753.22
883.259	9671.19
883.577	9703.5
883.894	9687.68
884.212	9596.84
884.529	9657.18
884.846	9608.59
885.164	9571.98
885.481	9556.84
885.798	9523.39
886.115	9479.33
886.432	9528.59
886.75	9461.7
887.067	9435.94
887.383	9363.4
887.7	9443.17
888.017	9338.09
888.334	9330.4
888.651	9292.67
888.967	9329.5
889.284	9225.77
889.6	9219.9
889.917	9252.89
890.233	9191.88
890.55	9124.08
890.866	9209.5
891.182	9086.34
891.498	9099.9
891.815	8985.78
892.131	9022.84
892.447	9033.69
892.763	8913.24
893.079	9014.71
893.395	8924.99
893.71	8909.17
894.026	8881.38
894.342	8864.88
894.657	8840.25
894.973	8833.69
895.289	8776.97
895.604	8805.9
895.92	8717.77
896.235	8673.25
896.55	8624.66
896.865	8690.42
897.181	8621.95
897.496	8586.7
897.811	8565
898.126	8511.89
898.441	8521.84
898.756	8475.06
899.071	8452.24
899.386	8433.25
899.7	8348.74
900.015	8348.06
900.33	8288.62
900.644	8273.03
900.959	8247.27
901.273	8195.29
901.588	8153.49
901.902	8158.91
902.216	8100.15
902.531	8116.65
902.845	8124.11
903.159	8031.91
903.473	7967.95
903.787	7972.25
904.101	7950.55
904.415	7916.43
904.729	7897.22
905.042	7875.98
905.356	7832.59
905.67	7860.84
905.984	7838.69
906.297	7767.28
906.611	7741.29
906.924	7711.01
907.237	7740.62
907.551	7671.69
907.864	7635.31
908.177	7563.67
908.491	7566.83
908.804	7558.25
909.117	7449.32
909.43	7451.13
909.743	7381.76
910.056	7398.48
910.368	7414.75
910.681	7287.29
910.994	7334.3
911.307	7237.13
911.619	7249.33
911.932	7214.08
912.244	7179.5
912.557	7146.06
912.869	7129.78
913.181	7064.7
913.494	7053.85
913.806	7025.38
914.118	6992.16
914.43	6918.49
914.742	6960.75
915.054	6936.34
915.366	6880.07
915.678	6887.98
915.99	6892.28
916.302	6767.53
916.613	6804.37
916.925	6764.14
917.236	6717.14
917.548	6657.25
917.859	6647.31
918.171	6624.71
918.482	6614.77
918.794	6542
919.105	6604.6
919.416	6562.57
919.727	6498.39
920.038	6470.59
920.349	6486.41
920.66	6415.45
920.971	6410.71
921.282	6351.5
921.593	6314.21
921.903	6289.13
922.214	6316.02
922.525	6272.63
922.835	6220.43
923.146	6257.26
923.456	6233.76
923.767	6153.09
924.077	6140.88
924.387	6174.33
924.697	6091.17
925.008	6052.75
925.318	6010.94
925.628	6025.86
925.938	6007.55
926.248	5988.57
926.558	5931.17
926.867	5909.03
927.177	5889.59
927.487	5889.14
927.796	5842.59
928.106	5831.74
928.416	5796.71
928.725	5780.89
929.034	5757.17
929.344	5748.35
929.653	5767.79
929.962	5648.47
930.271	5609.6
930.581	5640.33
930.89	5582.25
931.199	5523.95
931.508	5531.41
931.817	5524.18
932.125	5496.83
932.434	5466.55
932.743	5434.69
933.051	5459.32
933.36	5413.22
933.669	5371.86
933.977	5353.79
934.286	5329.83
934.594	5299.1
934.902	5275.14
935.21	5190.4
935.519	5244.18
935.827	5226.78
936.135	5201.93
936.443	5183.39
936.751	5184.07
937.059	5140.91
937.367	5133.23
937.674	5076.05
937.982	5101.36
938.29	5082.15
938.597	5023.17
938.905	4998.54
939.213	4986.56
939.52	4957.86
939.827	4948.82
940.135	4951.99
940.442	4900.01
940.749	4913.35
941.056	4899.33
941.363	4820.01
941.67	4862.05
941.977	4801.71
942.284	4829.73
942.591	4785.67
942.898	4729.4
943.205	4729.85
943.511	4686.46
943.818	4683.97
944.125	4646.91
944.431	4657.76
944.738	4648.95
945.044	4572.79
945.35	4534.82
945.657	4522.4
945.963	4554.03
946.269	4498.44
946.575	4505.9
946.881	4477.2
947.187	4475.62
947.493	4470.42
947.799	4441.49
948.105	4421.83
948.41	4387.26
948.716	4377.54
949.022	4340.25
949.327	4276.75
949.633	4309.75
949.938	4277.2
950.244	4257.54
950.549	4292.8
950.854	4224.55
951.16	4220.93
951.465	4261.61
951.77	4205.34
952.075	4165.57
952.38	4117.21
952.685	4150.43
952.99	4115.17
953.294	4051
953.599	4076.98
953.904	4012.13
954.209	3997.66
954.513	4013.26
954.818	4040.83
955.122	4040.37
955.426	3988.17
955.731	3970.55
956.035	3916.76
956.339	3903.88
956.643	3902.75
956.948	3900.94
957.252	3834.05
957.556	3853.03
957.86	3854.16
958.163	3799.48
958.467	3825.46
958.771	3826.37
959.075	3803.77
959.378	3737.33
959.682	3750.89
959.985	3720.16
960.289	3711.12
960.592	3706.37
960.896	3654.85
961.199	3683.77
961.502	3620.72
961.805	3616.66
962.108	3586.83
962.411	3580.05
962.714	3541.63
963.017	3605.36
963.32	3567.62
963.623	3548.18
963.926	3499.6
964.228	3514.74
964.531	3495.98
964.833	3478.81
965.136	3417.57
965.438	3418.7
965.741	3415.98
966.043	3376.44
966.345	3403.55
966.648	3394.52
966.95	3354.74
967.252	3355.87
967.554	3321.52
967.856	3331.47
968.158	3319.26
968.46	3290.79
968.761	3270
969.063	3266.16
969.365	3244.46
969.666	3213.28
969.968	3218.93
970.269	3195.42
970.571	3222.32
970.872	3169.89
971.174	3188.64
971.475	3126.5
971.776	3133.73
972.077	3109.33
972.378	3106.61
972.679	3114.3
972.98	3072.04
973.281	3078.82
973.582	3060.96
973.883	3063
974.183	3025.03
974.484	3038.14
974.785	3028.42
975.085	3006.28
975.386	3011.25
975.686	2972.61
975.986	2945.94
976.287	2927.86
976.587	2915.21
976.887	2926.5
977.187	2940.29
977.487	2931.93
977.787	2858.48
978.087	2842.21
978.387	2841.76
978.687	2838.37
978.987	2813.74
979.286	2792.5
979.586	2794.53
979.885	2820.29
980.185	2749.11
980.484	2766.28
980.784	2779.39
981.083	2740.75
981.382	2725.38
981.682	2698.26
981.981	2694.19
982.28	2711.37
982.579	2691.03
982.878	2670.24
983.177	2611.71
983.475	2660.98
983.774	2612.84
984.073	2637.02
984.372	2599.73
984.67	2571.94
984.969	2570.36
985.267	2587.08
985.566	2598.6
985.864	2556.57
986.162	2554.31
986.461	2538.72
986.759	2509.57
987.057	2506.18
987.355	2463.69
987.653	2492.17
987.951	2486.74
988.249	2474.54
988.547	2463.92
988.844	2440.87
989.142	2423.24
989.44	2415.56
989.737	2415.33
990.035	2433.86
990.332	2383.47
990.63	2369.91
990.927	2381.43
991.224	2353.86
991.521	2312.74
991.819	2347.31
992.116	2339.18
992.413	2286.97
992.71	2333.53
993.006	2328.1
993.303	2293.53
993.6	2281.1
993.897	2290.36
994.193	2293.75
994.49	2237.94
994.787	2215.79
995.083	2223.25
995.379	2177.6
995.676	2178.05
995.972	2180.54
996.268	2181.67
996.565	2159.07
996.861	2175.11
997.157	2132.85
997.453	2130.37
997.749	2128.33
998.044	2113.87
998.34	2132.4
998.636	2098.5
998.932	2031.84
999.227	2076.81
999.523	2077.26
999.818	2045.62
1000.114	2064.83
1000.409	2046.98
1000.704	2047.88
1001	1989.58
1001.295	2017.38
1001.59	2005.63
1001.885	1971.5
1002.18	1957.94
1002.475	1943.93
1002.77	1988.45
1003.065	1947.77
1003.359	1913.88
1003.654	1925.63
1003.949	1896.93
1004.243	1904.61
1004.538	1880.88
1004.832	1887.44
1005.127	1892.18
1005.421	1844.95
1005.715	1851.05
1006.009	1826.19
1006.304	1842.24
1006.598	1829.58
1006.892	1818.96
1007.186	1801.34
1007.48	1812.86
1007.773	1768.12
1008.067	1770.38
1008.361	1758.85
1008.655	1730.6
1008.948	1759.98
1009.242	1747.78
1009.535	1695.35
1009.829	1712.53
1010.122	1712.75
1010.415	1675.46
1010.708	1678.63
1011.001	1614.68
1011.295	1682.02
1011.588	1677.27
1011.881	1648.8
1012.173	1636.6
1012.466	1647.67
1012.759	1635.47
1013.052	1598.63
1013.344	1569.93
1013.637	1583.26
1013.93	1587.11
1014.222	1556.15
1014.514	1545.75
1014.807	1551.63
1015.099	1505.75
1015.391	1563.15
1015.683	1489.71
1015.976	1514.34
1016.268	1483.15
1016.56	1467.56
1016.851	1491.74
1017.143	1465.53
1017.435	1479.09
1017.727	1463.04
1018.018	1409.93
1018.31	1454.45
1018.602	1447.22
1018.893	1427.34
1019.185	1414.68
1019.476	1402.7
1019.767	1403.16
1020.058	1380.78
1020.35	1354.12
1020.641	1358.64
1020.932	1367.9
1021.223	1360.9
1021.514	1333.33
1021.804	1331.07
1022.095	1323.16
1022.386	1311.86
1022.677	1301.91
1022.967	1300.56
1023.258	1272.54
1023.548	1302.37
1023.839	1285.42
1024.129	1279.54
1024.419	1240.45
1024.709	1260.56
1025	1225.08
1025.29	1242.03
1025.58	1218.75
1025.87	1211.75
1026.16	1208.58
1026.449	1191.64
1026.739	1184.63
1027.029	1189.15
1027.319	1201.8
1027.608	1176.72
1027.898	1187.57
1028.187	1154.8
1028.477	1162.03
1028.766	1175.14
1029.055	1121.81
1029.344	1126.1
1029.634	1105.31
1029.923	1127.91
1030.212	1105.08
1030.501	1102.37
1030.79	1103.5
1031.078	1065.99
1031.367	1082.49
1031.656	1097.4
1031.945	1053.11
1032.233	1070.73
1032.522	1067.8
1032.81	1071.86
1033.099	1034.35
1033.387	1045.65
1033.675	1054.01
1033.963	1014.69
1034.251	1002.04
1034.54	1013.11
1034.828	1016.95
1035.116	991.19
1035.403	966.1
1035.691	997.97
1035.979	996.61
1036.267	982.15
1036.554	960
1036.842	954.13
1037.129	961.58
1037.417	954.13
1037.704	935.37
1037.992	947.35
1038.279	924.3
1038.566	931.3
1038.853	931.3
1039.14	931.3
