Data from hue_320_FLMS001491_49.txt Node
Date: Mon Feb 06 15:47:16 GMT 2017
User: dcchb
Spectrometer: FLMS00149
Trigger mode: 0
Integration Time (sec): 2.000000E-2
Scans to average: 10
Electric dark correction enabled: true
Nonlinearity correction enabled: false
Boxcar width: 0
XAxis mode: Wavelengths
Number of Pixels in Spectrum: 2048
>>>>>Begin Spectral Data<<<<<
341.393	1.03
341.776	1.03
342.16	1.03
342.543	-65.63
342.927	-65.41
343.31	-51.62
343.693	-66.09
344.077	-69.02
344.46	-57.27
344.843	-32.64
345.226	-51.85
345.61	-43.04
345.993	-20.66
346.376	-24.96
346.759	-12.53
347.142	29.5
347.525	57.3
347.908	53.91
348.291	79.45
348.674	107.69
349.057	101.82
349.44	129.16
349.823	137.3
350.206	160.35
350.588	190.86
350.971	208.94
351.354	222.27
351.737	246.45
352.119	269.27
352.502	264.75
352.884	280.8
353.267	264.75
353.65	298.65
354.032	293.45
354.414	306.56
354.797	320.12
355.179	334.13
355.562	306.79
355.944	321.25
356.326	336.16
356.709	347.24
357.091	327.35
357.473	327.12
357.855	322.6
358.238	327.8
358.62	336.39
359.002	346.33
359.384	328.71
359.766	345.65
360.148	315.37
360.53	358.99
360.912	338.88
361.294	346.11
361.676	319.44
362.057	328.03
362.439	313.11
362.821	313.79
363.203	332.32
363.584	295.49
363.966	335.49
364.348	317.41
364.729	318.76
365.111	331.42
365.493	311.53
365.874	318.54
366.256	297.97
366.637	303.62
367.019	308.37
367.4	299.33
367.781	334.36
368.163	307.01
368.544	303.85
368.925	319.89
369.306	320.34
369.688	308.59
370.069	302.04
370.45	301.36
370.831	299.55
371.212	299.33
371.593	296.16
371.974	290.51
372.355	304.53
372.736	314.02
373.117	319.21
373.498	318.54
373.879	319.89
374.26	315.6
374.641	318.99
375.021	307.92
375.402	321.93
375.783	311.76
376.163	309.5
376.544	344.75
376.925	328.03
377.305	318.54
377.686	330.97
378.066	312.44
378.447	342.27
378.827	324.41
379.208	335.71
379.588	323.96
379.968	319.67
380.349	328.48
380.729	324.64
381.109	326.9
381.489	330.06
381.87	303.17
382.25	326.67
382.63	331.19
383.01	337.97
383.39	321.47
383.77	338.88
384.15	310.4
384.53	358.99
384.91	334.58
385.29	351.53
385.67	355.6
386.049	332.77
386.429	338.2
386.809	348.59
387.189	349.04
387.568	338.65
387.948	337.29
388.328	334.13
388.707	342.94
389.087	349.5
389.466	359.21
389.846	342.72
390.225	341.81
390.605	348.59
390.984	330.97
391.363	365.99
391.743	363.51
392.122	345.65
392.501	372.77
392.881	353.79
393.26	355.37
393.639	351.98
394.018	351.76
394.397	393.11
394.776	347.69
395.155	388.37
395.534	375.03
395.913	353.79
396.292	364.19
396.671	356.95
397.05	386.11
397.429	362.83
397.808	373
398.186	379.33
398.565	398.53
398.944	379.78
399.323	383.62
399.701	392.89
400.08	387.69
400.458	368.48
400.837	398.08
401.215	401.02
401.594	400.57
401.972	389.04
402.351	367.12
402.729	396.5
403.107	376.16
403.486	403.05
403.864	403.05
404.242	403.28
404.62	424.97
404.999	406.22
405.377	388.82
405.755	414.35
406.133	403.28
406.511	414.35
406.889	398.08
407.267	451.41
407.645	459.78
408.023	434.47
408.401	437.63
408.779	461.58
409.156	446.22
409.534	465.65
409.912	440.57
410.29	464.97
410.667	453.22
411.045	480.34
411.422	485.99
411.8	479.21
412.178	476.05
412.555	492.54
412.933	501.36
413.31	497.06
413.687	484.86
414.065	500.45
414.442	512.66
414.819	505.88
415.197	516.05
415.574	538.87
415.951	526.67
416.328	528.93
416.705	538.87
417.082	563.05
417.46	572.54
417.837	569.38
418.214	562.82
418.591	566.89
418.967	577.74
419.344	594.69
419.721	565.54
420.098	612.54
420.475	610.73
420.852	611.64
421.228	601.02
421.605	650.05
421.982	628.13
422.358	636.27
422.735	634.69
423.111	666.32
423.488	637.85
423.864	645.76
424.241	655.25
424.617	673.1
424.994	669.71
425.37	692.54
425.746	670.39
426.123	699.32
426.499	706.55
426.875	716.94
427.251	720.56
427.627	707.45
428.003	728.92
428.379	740.67
428.756	732.76
429.132	770.05
429.507	776.15
429.883	771.86
430.259	803.72
430.635	769.15
431.011	772.76
431.387	817.28
431.763	811.86
432.138	826.32
432.514	849.82
432.89	827.45
433.265	832.42
433.641	844.4
434.016	868.13
434.392	873.32
434.767	903.83
435.143	893.89
435.518	905.19
435.894	903.83
436.269	925.3
436.644	904.96
437.02	953.1
437.395	934.57
437.77	939.76
438.145	956.03
438.52	970.95
438.895	970.05
439.271	950.84
439.646	972.08
440.021	1005.3
440.395	985.86
440.77	968.92
441.145	999.42
441.52	1009.82
441.895	1012.76
442.27	1016.37
442.645	1024.28
443.019	1041
443.394	1044.39
443.769	1040.1
444.143	1048.91
444.518	1063.15
444.892	1055.01
445.267	1042.59
445.641	1026.99
446.016	1048.46
446.39	1097.5
446.764	1084.39
447.139	1041.68
447.513	1100.21
447.887	1085.75
448.262	1095.92
448.636	1105.18
449.01	1112.19
449.384	1113.54
449.758	1104.96
450.132	1096.37
450.506	1134.11
450.88	1109.48
451.254	1084.84
451.628	1089.59
452.002	1149.7
452.376	1144.96
452.75	1166.65
453.123	1136.59
453.497	1177.72
453.871	1168.23
454.244	1181.56
454.618	1166.2
454.992	1199.87
455.365	1189.02
455.739	1217.5
456.112	1230.15
456.486	1237.38
456.859	1231.06
457.232	1219.98
457.606	1255.46
457.979	1262.47
458.352	1268.57
458.725	1282.35
459.099	1296.59
459.472	1275.12
459.845	1311.28
460.218	1319.19
460.591	1311.96
460.964	1317.61
461.337	1343.14
461.71	1367.77
462.083	1372.29
462.456	1375.46
462.829	1346.98
463.201	1381.56
463.574	1405.74
463.947	1401.67
464.32	1453.42
464.692	1420.43
465.065	1445.74
465.438	1441.9
465.81	1485.96
466.183	1466.3
466.555	1489.81
466.928	1515.12
467.3	1518.73
467.672	1507.43
468.045	1530.71
468.417	1544.72
468.789	1532.29
469.161	1543.36
469.534	1574.1
469.906	1592.4
470.278	1598.5
470.65	1632.17
471.022	1649.12
471.394	1633.08
471.766	1690.7
472.138	1695.22
472.51	1715.11
472.882	1731.16
473.253	1729.35
473.625	1747.88
473.997	1778.39
474.369	1791.72
474.74	1799.18
475.112	1798.5
475.484	1837.59
475.855	1881.89
476.227	1883.92
476.598	1917.36
476.97	1918.49
477.341	1935.22
477.713	1964.14
478.084	1967.31
478.455	2008.44
478.827	2030.36
479.198	2086.85
479.569	2080.98
479.94	2096.34
480.311	2133.18
480.682	2161.43
481.053	2196.68
481.424	2184.93
481.795	2233.74
482.166	2212.95
482.537	2231.71
482.908	2287.07
483.279	2311.48
483.65	2349.9
484.021	2389.89
484.391	2373.62
484.762	2419.5
485.133	2407.97
485.503	2418.14
485.874	2475.09
486.244	2499.27
486.615	2515.99
486.985	2529.78
487.356	2560.51
487.726	2604.35
488.097	2633.05
488.467	2648.65
488.837	2732.48
489.207	2687.29
489.578	2723.67
489.948	2746.04
490.318	2794.86
490.688	2789.21
491.058	2818.36
491.428	2829.66
491.798	2839.37
492.168	2866.94
492.538	2894.97
492.908	2939.94
493.278	2979.71
493.648	2922.08
494.017	3020.39
494.387	3027.62
494.757	3024.23
495.126	3017.67
495.496	3048.63
495.866	3073.04
496.235	3118.69
496.605	3153.72
496.974	3154.39
497.344	3185.81
497.713	3164.56
498.082	3166.37
498.452	3187.61
498.821	3214.73
499.19	3233.71
499.559	3207.05
499.928	3286.59
500.298	3280.49
500.667	3289.53
501.036	3266.48
501.405	3319.81
501.774	3324.11
502.143	3371.56
502.512	3348.51
502.88	3341.28
503.249	3413.6
503.618	3362.3
503.987	3385.57
504.356	3445.46
504.724	3404.33
505.093	3442.07
505.462	3417.89
505.83	3468.28
506.199	3487.95
506.567	3511.67
506.936	3520.71
507.304	3518.45
507.672	3502.18
508.041	3499.02
508.409	3573.37
508.777	3590.99
509.145	3607.26
509.514	3583.54
509.882	3596.87
510.25	3577.89
510.618	3608.62
510.986	3634.61
511.354	3608.85
511.722	3623.53
512.09	3694.27
512.458	3647.04
512.826	3676.64
513.193	3649.52
513.561	3708.28
513.929	3692.69
514.297	3721.61
514.664	3752.34
515.032	3739.92
515.4	3783.08
515.767	3766.58
516.135	3748.96
516.502	3769.97
516.869	3763.64
517.237	3783.98
517.604	3789.41
517.972	3816.75
518.339	3856.97
518.706	3793.93
519.073	3830.99
519.44	3855.39
519.808	3857.88
520.175	3854.72
520.542	3855.84
520.909	3900.14
521.276	3883.64
521.643	3884.32
522.009	3931.78
522.376	3949.85
522.743	3969.29
523.11	3942.62
523.477	4013.35
523.843	4043.86
524.21	4028.27
524.577	4067.59
524.943	4052.45
525.31	4074.6
525.676	4084.77
526.043	4114.82
526.409	4127.93
526.776	4165.67
527.142	4175.38
527.508	4188.94
527.874	4167.25
528.241	4218.32
528.607	4244.76
528.973	4271.2
529.339	4285.89
529.705	4295.38
530.071	4345.55
530.437	4331.76
530.803	4343.29
531.169	4349.62
531.535	4368.83
531.901	4388.49
532.267	4389.62
532.632	4426
532.998	4437.3
533.364	4446.11
533.73	4470.74
534.095	4534.92
534.461	4501.93
534.826	4549.39
535.192	4546.22
535.557	4581.48
535.923	4604.75
536.288	4611.76
536.653	4640.01
537.019	4642.49
537.384	4658.54
537.749	4681.36
538.114	4685.65
538.479	4686.11
538.845	4736.5
539.21	4738.76
539.575	4747.35
539.94	4782.15
540.305	4785.99
540.67	4823.05
541.034	4842.26
541.399	4856.72
541.764	4884.29
542.129	4939.88
542.494	4880.45
542.858	4929.04
543.223	4927.68
543.587	4953.9
543.952	4928.81
544.316	4951.18
544.681	4960.9
545.045	5036.38
545.41	5067.11
545.774	5114.12
546.138	5126.77
546.503	5127
546.867	5096.72
547.231	5181.46
547.595	5176.04
547.959	5207
548.324	5189.6
548.688	5220.78
549.052	5243.61
549.416	5231.18
549.779	5236.15
550.143	5223.72
550.507	5354.56
550.871	5371.06
551.235	5324.05
551.599	5417.39
551.962	5397.5
552.326	5361.12
552.689	5417.84
553.053	5426.2
553.417	5388.91
553.78	5466.42
554.143	5439.31
554.507	5503.71
554.87	5518.17
555.234	5521.56
555.597	5544.39
555.96	5568.12
556.323	5616.93
556.686	5578.96
557.05	5606.08
557.413	5670.71
557.776	5616.48
558.139	5701.45
558.502	5618.28
558.865	5679.53
559.228	5722.24
559.59	5687.44
559.953	5719.75
560.316	5791.39
560.679	5776.47
561.041	5819.18
561.404	5786.64
561.767	5821.89
562.129	5840.65
562.492	5891.72
562.854	5869.35
563.217	5900.76
563.579	5929.24
563.941	5933.08
564.304	5956.35
564.666	5965.62
565.028	5986.18
565.39	6027.77
565.753	5998.39
566.115	6058.5
566.477	6044.94
566.839	6133.75
567.201	6097.82
567.563	6085.16
567.925	6172.85
568.287	6105.96
568.648	6153.86
569.01	6227.99
569.372	6253.52
569.734	6272.5
570.095	6305.05
570.457	6351.6
570.819	6379.39
571.18	6344.59
571.542	6380.3
571.903	6426.85
572.265	6471.6
572.626	6559.05
572.987	6526.96
573.349	6613.96
573.71	6596.11
574.071	6646.05
574.432	6721.08
574.794	6724.92
575.155	6806.05
575.516	6798.37
575.877	6914.3
576.238	6937.57
576.599	7027.96
576.96	7085.36
577.32	7121.75
577.681	7241.97
578.042	7277.68
578.403	7366.94
578.763	7407.84
579.124	7406.49
579.485	7603.99
579.845	7678.34
580.206	7787.27
580.566	7884.21
580.927	7978.67
581.287	8160.14
581.648	8158.33
582.008	8430.64
582.368	8492.79
582.728	8646.45
583.089	8778.43
583.449	8867.92
583.809	9034.69
584.169	9244.86
584.529	9344.74
584.889	9635.13
585.249	9713.32
585.609	9806.87
585.969	10124.61
586.329	10239.41
586.688	10477.82
587.048	10673.07
587.408	10894.3
587.768	11145.6
588.127	11309.66
588.487	11496.1
588.846	11856.99
589.206	12032.13
589.565	12181.95
589.925	12576.75
590.284	12785.55
590.643	13041.37
591.003	13284.75
591.362	13628.92
591.721	13789.82
592.08	14118.4
592.44	14370.6
592.799	14632.51
593.158	14914.99
593.517	15172.16
593.876	15493.73
594.235	15745.02
594.593	15966.26
594.952	16329.19
595.311	16566.7
595.67	16875.62
596.029	17401.7
596.387	17587.46
596.746	17929.83
597.104	18018.18
597.463	18365.29
597.822	18779.29
598.18	18938.61
598.538	19223.12
598.897	19670.12
599.255	19728.65
599.613	20313.49
599.972	20432.13
600.33	20751.9
600.688	20990.76
601.046	21385.33
601.404	21688.14
601.762	21926.78
602.12	22256.27
602.478	22369.48
602.836	22831.62
603.194	22898.73
603.552	23150.48
603.91	23291.94
604.268	23711.14
604.625	23852.16
604.983	24336.89
605.341	24471.12
605.698	24808.06
606.056	24989.75
606.413	25347.03
606.771	25514.26
607.128	25781.82
607.485	25880.58
607.843	26110.85
608.2	26543.84
608.557	26737.05
608.914	26902.7
609.272	27221.56
609.629	27547.65
609.986	27685.05
610.343	27852.05
610.7	28200.29
611.057	28400.28
611.414	28454.29
611.771	28723.44
612.127	29005.47
612.484	29122.98
612.841	29373.14
613.198	29463.31
613.554	29621.27
613.911	29978.55
614.267	29945.33
614.624	30138.09
614.98	30415.6
615.337	30677.74
615.693	30782.82
616.05	30861.91
616.406	31175.58
616.762	31211.28
617.118	31332.64
617.475	31544.61
617.831	31731.5
618.187	31846.75
618.543	32051.04
618.899	32296.68
619.255	32164.25
619.611	32420.07
619.967	32617.35
620.323	32821.41
620.678	32706.61
621.034	32828.42
621.39	32966.94
621.746	33079.48
622.101	33490.32
622.457	33226.82
622.812	33382.07
623.168	33478.12
623.523	33609.64
623.879	33791.78
624.234	33626.36
624.589	33928.95
624.945	34134.82
625.3	34162.39
625.655	34243.97
626.01	34296.63
626.365	34324.2
626.72	34460.24
627.075	34393.8
627.43	34540.69
627.785	34405.1
628.14	34709.5
628.495	34753.34
628.85	34631.31
629.205	34616.84
629.559	34911.07
629.914	34776.61
630.269	34954.91
630.623	34791.53
630.978	34901.13
631.332	35106.77
631.687	35190.16
632.041	35068.81
632.396	35170.73
632.75	35001.01
633.104	35048.92
633.459	35024.52
633.813	34987.46
634.167	35081.92
634.521	35153.1
634.875	35127.57
635.229	35166.43
635.583	35151.52
635.937	35253.89
636.291	35143.16
636.645	35172.08
636.999	35147.9
637.352	35269.03
637.706	35045.99
638.06	35184.06
638.413	35136.38
638.767	35200.11
639.121	35167.79
639.474	35040.79
639.828	35100
640.181	35213.66
640.534	35175.25
640.888	35108.58
641.241	34967.8
641.594	35079.66
641.947	35169.6
642.301	35039.21
642.654	35131.18
643.007	35106.77
643.36	35047.79
643.713	35048.25
644.066	35184.74
644.419	34977.29
644.771	34839.89
645.124	34490.07
645.477	34416.17
645.83	34243.97
646.182	34032.68
646.535	34018.44
646.888	34193.35
647.24	33937.77
647.593	34257.76
647.945	34121.26
648.298	33886.69
648.65	33919.91
649.002	33881.5
649.355	34016.41
649.707	33956.52
650.059	34082.62
650.411	34366
650.763	34526.9
651.115	34865.88
651.467	34795.6
651.819	34799.21
652.171	34696.84
652.523	34638.54
652.875	34692.32
653.227	34489.62
653.578	34768.48
653.93	34741.13
654.282	34681.93
654.633	34420.69
654.985	34543.17
655.337	34502.72
655.688	34523.97
656.039	34609.61
656.391	34457.07
656.742	34402.39
657.094	34465.44
657.445	34617.75
657.796	34446.45
658.147	34488.71
658.498	34495.27
658.849	34459.56
659.2	34437.19
659.551	34340.47
659.902	34580.69
660.253	34466.11
660.604	34444.87
660.955	34345.89
661.306	34417.3
661.656	34263.41
662.007	34311.54
662.358	34319.68
662.708	34468.6
663.059	34396.06
663.409	34164.65
663.76	34446.9
664.11	34336.63
664.461	34384.53
664.811	34415.27
665.161	34343.18
665.511	34299.79
665.862	34374.82
666.212	34276.97
666.562	34517.86
666.912	34268.38
667.262	34354.03
667.612	34293.24
667.962	34217.76
668.312	34329.39
668.662	34504.98
669.011	34331.65
669.361	34333.69
669.711	34236.74
670.06	34182.51
670.41	34120.59
670.76	34152.68
671.109	34335.72
671.459	34240.36
671.808	34077.42
672.157	34066.12
672.507	34027.93
672.856	34105.9
673.205	34170.53
673.554	34221.6
673.904	34094.15
674.253	34166.01
674.602	34111.77
674.951	33535.97
675.3	33376.2
675.649	34050.08
675.998	33955.84
676.346	34006.92
676.695	34063.64
677.044	33697.77
677.393	33826.13
677.741	33936.18
678.09	33882.63
678.438	33714.72
678.787	33926.24
679.135	33819.12
679.484	33655.29
679.832	33701.84
680.181	33545.69
680.529	33699.35
680.877	33440.83
681.225	33428.4
681.573	33772.57
681.922	33436.76
682.27	33390.21
682.618	33417.78
682.966	33348.85
683.314	33432.47
683.661	33263.21
684.009	33210.1
684.357	33037.68
684.705	33175.07
685.053	33019.6
685.4	32948.64
685.748	32970.79
686.095	32747.29
686.443	32825.7
686.79	32807.4
687.138	32840.85
687.485	32844.01
687.832	32606.5
688.18	32659.61
688.527	32528.54
688.874	32484.24
689.221	32339.39
689.568	32321.76
689.915	32402.89
690.262	32340.29
690.609	32119.06
690.956	31938.27
691.303	32132.39
691.65	31966.07
691.997	31914.77
692.344	31686.3
692.69	31724.94
693.037	31824.15
693.383	31562.91
693.73	31686.53
694.077	31533.54
694.423	31460.99
694.769	31178.29
695.116	31151.4
695.462	31026.66
695.808	31059.42
696.155	31294.45
696.501	30984.17
696.847	30807.9
697.193	30795.7
697.539	30888.58
697.885	30622.82
698.231	30532.66
698.577	30569.94
698.923	30483.17
699.269	30220.8
699.614	30202.5
699.96	30157.75
700.306	30150.75
700.651	29981.26
700.997	29973.35
701.342	29899.23
701.688	29808.38
702.033	29727.71
702.379	29698.33
702.724	29648.61
703.069	29633.92
703.415	29420.6
703.76	29382.41
704.105	29379.47
704.45	29336.3
704.795	29171.79
705.14	29175.41
705.485	29072.36
705.83	28983.09
706.175	28957.33
706.52	29062.64
706.865	28758.92
707.209	28665.36
707.554	28712.82
707.899	28705.59
708.243	28479.38
708.588	28409.55
708.932	28295.88
709.277	28303.56
709.621	28463.56
709.966	28174.3
710.31	28258.82
710.654	27956.91
710.998	28146.73
711.342	28003.23
711.687	27907.87
712.031	27949.67
712.375	27640.76
712.719	27736.8
713.063	27658.38
713.407	27796.91
713.75	27599.4
714.094	27592.17
714.438	27436.92
714.782	27427.43
715.125	27351.95
715.469	27527.76
715.812	27235.12
716.156	27083.93
716.499	27099.08
716.843	27181.56
717.186	26949.48
717.53	27084.39
717.873	27169.81
718.216	26928.91
718.559	26866.09
718.902	26687.79
719.246	26759.2
719.589	26715.13
719.932	26610.27
720.275	26651.18
720.617	26694.57
720.96	26643.49
721.303	26477.4
721.646	26445.99
721.989	26329.83
722.331	26451.86
722.674	26300.45
723.016	26326.44
723.359	26268.81
723.701	26261.81
724.044	26002.61
724.386	25982.72
724.729	26070.4
725.071	26074.02
725.413	25895.27
725.755	25918.09
726.097	25896.17
726.439	25772.56
726.782	25697.08
727.124	25879.45
727.465	25733.69
727.807	25616.85
728.149	25625.67
728.491	25630.19
728.833	25588.15
729.175	25489.4
729.516	25494.37
729.858	25496.86
730.199	25473.13
730.541	25396.07
730.882	25326.24
731.224	25502.73
731.565	25293.47
731.906	25228.62
732.248	25266.81
732.589	25208.73
732.93	25134.38
733.271	25050.54
733.612	25051.67
733.953	25162.4
734.294	25007.61
734.635	24881.96
734.976	24943.88
735.317	24908.4
735.658	24823.88
735.999	24875.63
736.339	24737.56
736.68	24838.34
737.021	24635.86
737.361	24632.47
737.702	24737.33
738.042	24623.21
738.383	24671.57
738.723	24654.39
739.063	24488.75
739.404	24524
739.744	24432.71
740.084	24423.89
740.424	24521.52
740.764	24333.95
741.104	24435.19
741.444	24209.89
741.784	24103.67
742.124	24182.09
742.464	24234.52
742.804	24113.39
743.143	24073.17
743.483	24095.99
743.823	23968.54
744.162	23975.77
744.502	24033.85
744.841	23881.99
745.181	23889.67
745.52	23832.95
745.86	23926.28
746.199	23793.85
746.538	23798.82
746.877	23834.53
747.216	23750.46
747.556	23720.18
747.895	23740.07
748.234	23591.82
748.573	23558.15
748.911	23575.1
749.25	23482.9
749.589	23384.6
749.928	23445.39
750.267	23502.33
750.605	23251.27
750.944	23370.36
751.283	23211.27
751.621	23369.46
751.96	23076.58
752.298	23125.39
752.636	23173.3
752.975	23062.57
753.313	22924.04
753.651	22948
753.989	22907.55
754.327	22873.88
754.666	22753.65
755.004	22786.19
755.342	22804.73
755.679	22693.54
756.017	22564.05
756.355	22609.48
756.693	22527.67
757.031	22559.31
757.368	22373.55
757.706	22260.56
758.044	22276.38
758.381	22309.37
758.719	22150.28
759.056	22188.47
759.394	22030.51
759.731	22008.81
760.068	22000.23
760.405	21855.6
760.743	21844.07
761.08	21874.35
761.417	21744.41
761.754	21735.37
762.091	21698.31
762.428	21511.43
762.765	21410.41
763.102	21485.44
763.438	21457.64
763.775	21293.8
764.112	21311.43
764.449	21318.89
764.785	21215.16
765.122	21089.97
765.458	20970.2
765.795	20980.14
766.131	20980.59
766.467	20881.39
766.804	20700.37
767.14	20567.95
767.476	20579.02
767.812	20495.63
768.148	20573.6
768.485	20414.51
768.821	20191.01
769.157	20247.73
769.492	20251.8
769.828	20173.61
770.164	20040.5
770.5	20013.39
770.836	20015.65
771.171	19857.46
771.507	19763.9
771.842	19757.12
772.178	19724.58
772.513	19621.98
772.849	19674.64
773.184	19453.85
773.519	19340.86
773.855	19321.65
774.19	19315.55
774.525	19184.93
774.86	19119.85
775.195	19188.1
775.53	19063.13
775.865	18949.91
776.2	18820.2
776.535	18731.61
776.87	18702.69
777.205	18600.32
777.539	18602.12
777.874	18588.11
778.209	18376.14
778.543	18460.88
778.878	18314.9
779.212	18202.36
779.547	18139.54
779.881	18196.48
780.215	18029.48
780.55	18158.97
780.884	17965.08
781.218	17965.98
781.552	17968.69
781.886	17748.14
782.22	17781.35
782.554	17684.86
782.888	17542.26
783.222	17434.47
783.556	17380.24
783.889	17370.52
784.223	17270.41
784.557	17259.33
784.89	17227.7
785.224	17004.43
785.557	17132.11
785.891	16994.03
786.224	17003.97
786.558	16848.05
786.891	16734.38
787.224	16719.46
787.557	16662.29
787.891	16643.53
788.224	16629.97
788.557	16588.17
788.89	16561.27
789.223	16442.41
789.556	16382.07
789.888	16315.86
790.221	16292.58
790.554	16073.38
790.887	16084.9
791.219	16082.64
791.552	16049.65
791.884	15905.25
792.217	15871.12
792.549	15850.56
792.882	15793.16
793.214	15637.46
793.546	15649.21
793.879	15527.4
794.211	15578.02
794.543	15539.61
794.875	15517.69
795.207	15571.02
795.539	15383
795.871	15367.18
796.203	15229.78
796.535	15219.84
796.867	15159.28
797.198	15148.43
797.53	15059.62
797.862	14997.02
798.193	15003.8
798.525	14994.99
798.856	14939.4
799.188	14837.7
799.519	14732.17
799.85	14749.12
800.182	14712.28
800.513	14660.31
800.844	14475.68
801.175	14591.16
801.506	14579.18
801.837	14401.1
802.168	14461.67
802.499	14413.31
802.83	14418.28
803.161	14299.64
803.491	14328.11
803.822	14259.87
804.153	14214.22
804.483	14072.75
804.814	13950.49
805.145	13971.51
805.475	13981.45
805.805	13939.87
806.136	13938.29
806.466	13957.27
806.796	13898.52
807.126	13854.9
807.457	13793.21
807.787	13841.35
808.117	13574.23
808.447	13621.24
808.777	13738.07
809.107	13659.2
809.436	13521.13
809.766	13490.62
810.096	13508.25
810.426	13431.64
810.755	13410.85
811.085	13427.57
811.414	13344.63
811.744	13253.79
812.073	13244.07
812.403	13246.56
812.732	13172.89
813.061	13188.48
813.39	12991.88
813.719	13115.71
814.049	13065.55
814.378	13023.06
814.707	12943.29
815.036	12958.88
815.365	12851.54
815.693	12835.04
816.022	12866.23
816.351	12788.27
816.68	12609.97
817.008	12677.31
817.337	12635.95
817.665	12628.72
817.994	12618.1
818.322	12625.78
818.651	12534.94
818.979	12487.03
819.307	12537.42
819.636	12509.4
819.964	12419.91
820.292	12447.03
820.62	12449.52
820.948	12453.58
821.276	12461.95
821.604	12375.17
821.932	12402.51
822.259	12475.51
822.587	12410.65
822.915	12336.53
823.243	12386.47
823.57	12409.52
823.898	12407.26
824.225	12303.31
824.553	12312.35
824.88	12318.9
825.207	12376.52
825.535	12351.89
825.862	12429.63
826.189	12251.33
826.516	12446.35
826.843	12347.37
827.17	12360.93
827.497	12337.66
827.824	12266.02
828.151	12303.98
828.478	12300.14
828.805	12357.77
829.131	12259.01
829.458	12355.73
829.785	12233.93
830.111	12238.68
830.438	12318.22
830.764	12269.64
831.09	12293.59
831.417	12293.82
831.743	12244.1
832.069	12252.01
832.395	12169.52
832.722	12246.58
833.048	12124.78
833.374	12188.51
833.7	12078.68
834.026	12185.34
834.351	12169.3
834.677	12234.83
835.003	12218.79
835.329	12182.18
835.654	12116.19
835.98	12014.5
836.306	12071.22
836.631	12085.91
836.956	12054.73
837.282	12088.62
837.607	11978.34
837.932	11997.78
838.258	11956.87
838.583	11898.8
838.908	11886.37
839.233	11902.41
839.558	11907.38
839.883	11847.5
840.208	11794.62
840.533	11710.78
840.858	11789.2
841.182	11806.6
841.507	11713.27
841.832	11702.42
842.156	11678.24
842.481	11700.61
842.805	11627.39
843.13	11552.59
843.454	11571.8
843.778	11577
844.103	11531.35
844.427	11524.8
844.751	11511.91
845.075	11529.54
845.399	11395.99
845.723	11412.93
846.047	11335.87
846.371	11250
846.695	11318.02
847.019	11152.15
847.343	11195.31
847.666	11045.49
847.99	11097.01
848.313	11059.72
848.637	10946.73
848.96	10965.04
849.284	10935.66
849.607	10894.53
849.931	10833.06
850.254	10778.37
850.577	10727.3
850.9	10684.14
851.223	10640.53
851.546	10587.19
851.869	10554.65
852.192	10533.41
852.515	10507.2
852.838	10354.88
853.161	10403.92
853.483	10346.3
853.806	10259.07
854.129	10324.83
854.451	10234.66
854.774	10152.4
855.096	10137.94
855.419	10149.24
855.741	10084.38
856.063	10030.82
856.385	10016.59
856.708	10039.19
857.03	9994.21
857.352	10025.85
857.674	9958.96
857.996	9886.42
858.318	9891.62
858.64	9880.77
858.961	9805.97
859.283	9786.76
859.605	9747.44
859.926	9738.85
860.248	9758.51
860.57	9712.64
860.891	9663.83
861.212	9702.7
861.534	9627.22
861.855	9623.15
862.176	9642.81
862.498	9601.46
862.819	9655.01
863.14	9601
863.461	9498.18
863.782	9511.06
864.103	9541.35
864.424	9452.53
864.745	9451.18
865.065	9389.71
865.386	9384.97
865.707	9402.59
866.027	9393.1
866.348	9370.5
866.668	9373.21
866.989	9320.11
867.309	9269.49
867.63	9265.19
867.95	9277.85
868.27	9156.95
868.59	9250.28
868.91	9238.53
869.23	9237.4
869.55	9142.26
869.87	9214.8
870.19	9150.17
870.51	9175.93
870.83	9227
871.15	9068.59
871.469	9063.62
871.789	9098.19
872.109	9021.36
872.428	9038.53
872.748	9073.79
873.067	9005.54
873.386	9034.69
873.706	9039.21
874.025	8950.4
874.344	8943.62
874.663	9017.52
874.982	8957.63
875.301	8960.12
875.62	8935.71
875.939	8891.87
876.258	8873.79
876.577	8855.26
876.896	8843.28
877.214	8771.65
877.533	8806.22
877.852	8873.79
878.17	8789.95
878.489	8818.43
878.807	8747.24
879.125	8749.28
879.444	8738.88
879.762	8718.32
880.08	8744.08
880.398	8689.62
880.716	8642.16
881.034	8574.14
881.352	8635.38
881.67	8524.87
881.988	8594.03
882.306	8584.76
882.624	8562.39
882.941	8504.76
883.259	8507.25
883.577	8448.94
883.894	8485.78
884.212	8380.7
884.529	8419.34
884.846	8452.79
885.164	8401.26
885.481	8387.93
885.798	8373.47
886.115	8285.78
886.432	8360.81
886.75	8263.19
887.067	8239.01
887.383	8273.58
887.7	8281.04
888.017	8156.52
888.334	8247.82
888.651	8197.43
888.967	8173.25
889.284	8133.92
889.6	8132.12
889.917	8094.38
890.233	8078.11
890.55	8031.78
890.866	8068.39
891.182	7992.01
891.498	7965.12
891.815	8016.41
892.131	7884.21
892.447	7953.82
892.763	7896.42
893.079	7841.73
893.395	7829.3
893.71	7822.97
894.026	7844.44
894.342	7753.37
894.657	7743.65
894.973	7756.76
895.289	7679.7
895.604	7714.5
895.92	7638.57
896.235	7584.79
896.55	7593.15
896.865	7534.84
897.181	7524.45
897.496	7599.7
897.811	7511.34
898.126	7482.42
898.441	7486.94
898.756	7380.05
899.071	7417.33
899.386	7419.37
899.7	7328.3
900.015	7328.07
900.33	7304.34
900.644	7260.95
900.959	7281.97
901.273	7263.89
901.588	7214.85
901.902	7138.24
902.216	7174.4
902.531	7112.71
902.845	7081.07
903.159	7031.13
903.473	6976.21
903.787	6995.65
904.101	6940.06
904.415	6935.54
904.729	6953.84
905.042	6887.4
905.356	6887.63
905.67	6869.1
905.984	6887.86
906.297	6847.86
906.611	6754.75
906.924	6786.39
907.237	6743.9
907.551	6685.38
907.864	6678.6
908.177	6695.54
908.491	6613.51
908.804	6671.36
909.117	6529.45
909.43	6488.77
909.743	6496.23
910.056	6518.15
910.368	6489.67
910.681	6434.99
910.994	6396.8
911.307	6379.85
911.619	6333.07
911.932	6346.63
912.244	6300.75
912.557	6286.52
912.869	6262.79
913.181	6186.41
913.494	6222.56
913.806	6124.26
914.118	6176.01
914.43	6149.12
914.742	6145.5
915.054	6065.73
915.366	6046.3
915.678	6054.43
915.99	6028.44
916.302	5908.9
916.613	5966.07
916.925	5908.45
917.236	5934.21
917.548	5889.24
917.859	5875.23
918.171	5853.31
918.482	5806.08
918.794	5769.24
919.105	5743.03
919.416	5703.25
919.727	5693.54
920.038	5730.82
920.349	5703.93
920.66	5665.06
920.971	5565.86
921.282	5586.42
921.593	5562.69
921.903	5535.57
922.214	5563.82
922.525	5534.44
922.835	5467.55
923.146	5443.83
923.456	5449.93
923.767	5435.46
924.077	5393.66
924.387	5389.59
924.697	5381.23
925.008	5335.81
925.318	5348.01
925.628	5283.15
925.938	5258.97
926.248	5188.69
926.558	5237.05
926.867	5226.43
927.177	5180.56
927.487	5141.46
927.796	5146.43
928.106	5089.03
928.416	5069.37
928.725	5080.9
929.034	5028.02
929.344	5007
929.653	5019.66
929.962	4996.61
930.271	4962.03
930.581	4963.84
930.89	4960.67
931.199	4896.72
931.508	4893.78
931.817	4867.12
932.125	4829.6
932.434	4856.72
932.743	4829.6
933.051	4798.65
933.36	4726.56
933.669	4677.74
933.977	4722.04
934.286	4715.03
934.594	4645.65
934.902	4635.49
935.21	4636.84
935.519	4662.83
935.827	4595.03
936.135	4551.65
936.443	4550.97
936.751	4516.17
937.059	4531.53
937.367	4459.67
937.674	4475.49
937.982	4484.98
938.29	4432.33
938.597	4482.04
938.905	4398.66
939.213	4391.65
939.52	4371.76
939.827	4352.1
940.135	4341.93
940.442	4295.38
940.749	4316.85
941.056	4310.97
941.363	4258.77
941.67	4256.74
941.977	4244.76
942.284	4194.59
942.591	4195.27
942.898	4137.42
943.205	4200.24
943.511	4126.12
943.818	4103.52
944.125	4106.01
944.431	4090.19
944.738	4090.64
945.044	4027.14
945.35	4028.95
945.657	4020.13
945.963	4040.47
946.269	3978.1
946.575	3975.84
946.881	3901.72
947.187	3938.33
947.493	3925.67
947.799	3878.9
948.105	3892.68
948.41	3885.45
948.716	3775.85
949.022	3830.76
949.327	3848.84
949.633	3794.38
949.938	3804.77
950.244	3837.99
950.549	3732.68
950.854	3710.76
951.16	3731.1
951.465	3702.63
951.77	3671.89
952.075	3648.84
952.38	3703.31
952.685	3604.55
952.99	3598.68
953.294	3651.78
953.599	3642.29
953.904	3593.03
954.209	3581.73
954.513	3553.48
954.818	3506.25
955.122	3527.49
955.426	3486.82
955.731	3478.68
956.035	3469.64
956.339	3482.3
956.643	3497.44
956.948	3400.94
957.252	3412.47
957.556	3357.1
957.86	3398.91
958.163	3366.37
958.467	3323.2
958.771	3352.13
959.075	3364.11
959.378	3322.3
959.682	3321.4
959.985	3257.22
960.289	3277.78
960.592	3275.52
960.896	3221.06
961.199	3236.2
961.502	3198.91
961.805	3207.5
962.108	3176.09
962.411	3194.39
962.714	3152.81
963.017	3121.63
963.32	3142.19
963.623	3095.86
963.926	3089.31
964.228	3115.98
964.531	3103.77
964.833	3068.75
965.136	2997.34
965.438	3035.08
965.741	3023.1
966.043	3013.16
966.345	2954.85
966.648	2984.91
966.95	2983.1
967.252	2975.87
967.554	2937.23
967.856	2929.99
968.158	2884.12
968.46	2921.86
968.761	2907.4
969.063	2899.71
969.365	2850.9
969.666	2857.45
969.968	2864.68
970.269	2839.6
970.571	2808.19
970.872	2808.87
971.174	2803.22
971.475	2810.45
971.776	2776.1
972.077	2786.72
972.378	2760.96
972.679	2772.26
972.98	2741.3
973.281	2727.74
973.582	2748.53
973.883	2684.35
974.183	2660.85
974.484	2631.92
974.785	2656.1
975.085	2674.63
975.386	2632.15
975.686	2647.74
975.986	2608.65
976.287	2612.04
976.587	2603.9
976.887	2569.33
977.187	2616.78
977.487	2590.79
977.787	2539.27
978.087	2532.26
978.387	2548.76
978.687	2527.07
978.987	2532.49
979.286	2498.14
979.586	2479.61
979.885	2442.55
980.185	2455.2
980.484	2426.5
980.784	2443.23
981.083	2434.64
981.382	2446.62
981.682	2425.37
981.981	2433.51
982.28	2388.31
982.579	2385.38
982.878	2392.38
983.177	2352.83
983.475	2357.35
983.774	2304.25
984.073	2310.8
984.372	2339.95
984.67	2302.21
984.969	2333.4
985.267	2314.42
985.566	2284.36
985.864	2305.83
986.162	2255.21
986.461	2247.53
986.759	2269.67
987.057	2212.05
987.355	2219.28
987.653	2231.03
987.951	2193.97
988.249	2167.3
988.547	2211.14
988.844	2134.08
989.142	2177.7
989.44	2101.09
989.737	2132.5
990.035	2110.58
990.332	2139.51
990.63	2119.17
990.927	2092.73
991.224	2069.23
991.521	2082.56
991.819	2067.42
992.116	2062.9
992.413	2047.76
992.71	2045.95
993.006	2066.06
993.303	2023.35
993.6	2019.51
993.897	2019.51
994.193	2011.37
994.49	1976.35
994.787	1977.25
995.083	1962.34
995.379	1935.9
995.676	1968.21
995.972	1943.58
996.268	1928.66
996.565	1926.4
996.861	1904.48
997.157	1932.73
997.453	1867.65
997.749	1878.5
998.044	1840.76
998.34	1882.34
998.636	1875.56
998.932	1872.85
999.227	1839.63
999.523	1836.24
999.818	1828.55
1000.114	1819.74
1000.409	1793.3
1000.704	1811.6
1001	1781.78
1001.295	1792.17
1001.59	1787.65
1001.885	1755.56
1002.18	1744.04
1002.475	1756.01
1002.77	1741.78
1003.065	1708.56
1003.359	1713.98
1003.654	1714.21
1003.949	1678.95
1004.243	1690.03
1004.538	1705.84
1004.832	1671.95
1005.127	1671.5
1005.421	1659.97
1005.715	1649.8
1006.009	1655
1006.304	1645.06
1006.598	1621.1
1006.892	1601.67
1007.186	1604.15
1007.48	1579.52
1007.773	1568.45
1008.067	1572.74
1008.361	1571.39
1008.655	1549.46
1008.948	1552.85
1009.242	1548.11
1009.535	1551.72
1009.829	1534.78
1010.122	1539.75
1010.415	1533.19
1010.708	1514.44
1011.001	1474.89
1011.295	1479.86
1011.588	1489.58
1011.881	1487.55
1012.173	1469.24
1012.466	1478.05
1012.759	1449.35
1013.052	1448.68
1013.344	1414.55
1013.637	1429.69
1013.93	1412.75
1014.222	1430.6
1014.514	1413.88
1014.807	1397.83
1015.099	1404.61
1015.391	1356.7
1015.683	1362.8
1015.976	1380.2
1016.268	1340.88
1016.56	1348.34
1016.851	1348.57
1017.143	1349.47
1017.435	1309.47
1017.727	1302.47
1018.018	1316.02
1018.31	1287.1
1018.602	1321.22
1018.893	1305.86
1019.185	1271.96
1019.476	1268.34
1019.767	1278.29
1020.058	1244.39
1020.35	1248.46
1020.641	1245.29
1020.932	1219.76
1021.223	1229.25
1021.514	1191.51
1021.804	1213.2
1022.095	1173.88
1022.386	1188.57
1022.677	1215.24
1022.967	1166.88
1023.258	1191.73
1023.548	1192.19
1023.839	1145.63
1024.129	1164.62
1024.419	1140.66
1024.709	1125.52
1025	1122.81
1025.29	1121.45
1025.58	1122.81
1025.87	1118.06
1026.16	1098.18
1026.449	1093.21
1026.739	1077.39
1027.029	1082.81
1027.319	1063.15
1027.608	1067.67
1027.898	1057.5
1028.187	1042.81
1028.477	1047.78
1028.766	1037.39
1029.055	1029.7
1029.344	1030.16
1029.634	1013.21
1029.923	1035.81
1030.212	1015.02
1030.501	1005.98
1030.79	1006.43
1031.078	988.58
1031.367	984.96
1031.656	983.6
1031.945	994.68
1032.233	961.46
1032.522	976.82
1032.81	953.77
1033.099	962.14
1033.387	949.93
1033.675	917.62
1033.963	939.76
1034.251	913.78
1034.54	916.04
1034.828	932.31
1035.116	902.25
1035.403	917.84
1035.691	887.56
1035.979	904.06
1036.267	894.11
1036.554	885.53
1036.842	887.56
1037.129	890.73
1037.417	848.47
1037.704	884.17
1037.992	863.83
1038.279	821.8
1038.566	846.43
1038.853	846.43
1039.14	846.43
