Data from hue_80_FLMS001491_48.txt Node
Date: Mon Feb 06 15:23:03 GMT 2017
User: dcchb
Spectrometer: FLMS00149
Trigger mode: 0
Integration Time (sec): 2.000000E-2
Scans to average: 10
Electric dark correction enabled: true
Nonlinearity correction enabled: false
Boxcar width: 0
XAxis mode: Wavelengths
Number of Pixels in Spectrum: 2048
>>>>>Begin Spectral Data<<<<<
341.393	-17.08
341.776	-17.08
342.16	-17.08
342.543	-57.98
342.927	-63.18
343.31	-67.02
343.693	-50.52
344.077	-81.71
344.46	-61.82
344.843	-50.97
345.226	-41.48
345.61	-38.09
345.993	-26.12
346.376	17.5
346.759	20.66
347.142	31.96
347.525	36.93
347.908	57.95
348.291	80.55
348.674	79.19
349.057	92.98
349.44	101.57
349.823	123.49
350.206	149.47
350.588	170.72
350.971	184.95
351.354	226.99
351.737	227.21
352.119	248.23
352.502	272.41
352.884	261.79
353.267	267.44
353.65	280.09
354.032	309.24
354.414	308.57
354.797	309.7
355.179	334.33
355.562	329.58
355.944	319.41
356.326	329.13
356.709	322.35
357.091	330.03
357.473	339.07
357.855	325.06
358.238	330.71
358.62	331.16
359.002	328
359.384	325.74
359.766	327.77
360.148	341.11
360.53	342.91
360.912	329.13
361.294	328.23
361.676	347.21
362.057	312.18
362.439	332.52
362.821	307.66
363.203	313.76
363.584	312.86
363.966	321.9
364.348	306.08
364.729	318.73
365.111	299.98
365.493	326.87
365.874	319.86
366.256	306.76
366.637	320.99
367.019	298.85
367.4	320.09
367.781	289.13
368.163	291.16
368.544	298.62
368.925	300.88
369.306	332.52
369.688	297.94
370.069	303.82
370.45	315.12
370.831	323.25
371.212	324.16
371.593	306.98
371.974	292.07
372.355	296.14
372.736	311.73
373.117	300.88
373.498	316.93
373.879	314.89
374.26	310.15
374.641	303.59
375.021	322.58
375.402	319.19
375.783	335.91
376.163	313.31
376.544	316.7
376.925	318.28
377.305	311.28
377.686	323.25
378.066	327.77
378.447	314.21
378.827	333.2
379.208	312.63
379.588	315.34
379.968	322.12
380.349	341.56
380.729	332.07
381.109	348.11
381.489	313.31
381.87	342.91
382.25	318.96
382.63	336.81
383.01	329.58
383.39	320.77
383.77	336.14
384.15	333.2
384.53	331.39
384.91	356.7
385.29	340.2
385.67	336.36
386.049	332.75
386.429	352.41
386.809	353.99
387.189	356.02
387.568	326.42
387.948	350.37
388.328	335.46
388.707	354.67
389.087	350.15
389.466	365.74
389.846	369.81
390.225	354.21
390.605	362.12
390.984	362.35
391.363	379.3
391.743	362.35
392.122	358.96
392.501	346.08
392.881	365.74
393.26	359.86
393.639	354.89
394.018	371.39
394.397	387.21
394.776	369.58
395.155	359.64
395.534	367.55
395.913	373.42
396.292	378.62
396.671	382.01
397.05	372.52
397.429	400.99
397.808	377.26
398.186	387.89
398.565	389.02
398.944	385.4
399.323	397.83
399.701	386.53
400.08	396.47
400.458	391.95
400.837	394.66
401.215	392.86
401.594	406.64
401.972	391.95
402.351	391.5
402.729	411.39
403.107	379.3
403.486	406.19
403.864	402.8
404.242	417.26
404.62	400.77
404.999	410.71
405.377	404.83
405.755	420.43
406.133	410.03
406.511	433.31
406.889	416.36
407.267	402.12
407.645	435.12
408.023	416.81
408.401	415.46
408.779	453.19
409.156	423.82
409.534	446.87
409.912	438.96
410.29	426.08
410.667	447.32
411.045	450.26
411.422	436.47
411.8	448.9
412.178	442.35
412.555	456.36
412.933	470.37
413.31	458.84
413.687	451.16
414.065	459.75
414.442	464.72
414.819	471.72
415.197	475.34
415.574	485.06
415.951	488.45
416.328	471.72
416.705	517.15
417.082	481.67
417.46	498.62
417.837	480.54
418.214	489.58
418.591	516.92
418.967	485.28
419.344	506.53
419.721	489.8
420.098	490.48
420.475	518.5
420.852	525.96
421.228	548.33
421.605	518.96
421.982	530.71
422.358	541.1
422.735	525.51
423.111	547.43
423.488	528.45
423.864	538.62
424.241	536.81
424.617	555.79
424.994	551.27
425.37	555.79
425.746	576.81
426.123	579.74
426.499	556.92
426.875	558.28
427.251	593.98
427.627	599.41
428.003	584.72
428.379	582.68
428.756	583.13
429.132	593.76
429.507	620.42
429.883	620.87
430.259	608.9
430.635	633.53
431.011	606.18
431.387	626.3
431.763	642.12
432.138	639.4
432.514	646.86
432.89	651.38
433.265	660.65
433.641	669.69
434.016	676.69
434.392	678.27
434.767	659.52
435.143	671.95
435.518	693.41
435.894	662.91
436.269	692.06
436.644	707.65
437.02	731.15
437.395	733.86
437.77	725.96
438.145	738.61
438.52	739.97
438.895	727.99
439.271	734.99
439.646	737.25
440.021	734.32
440.395	734.09
440.77	734.99
441.145	757.14
441.52	776.8
441.895	766.18
442.27	765.95
442.645	786.29
443.019	770.25
443.394	777.48
443.769	780.19
444.143	796.91
444.518	806.41
444.892	822.22
445.267	825.16
445.641	811.83
446.016	823.58
446.39	832.62
446.764	830.36
447.139	839.4
447.513	822
447.887	838.72
448.262	852.73
448.636	859.06
449.01	852.28
449.384	860.64
449.758	905.39
450.132	883.47
450.506	862.45
450.88	898.83
451.254	893.41
451.628	914.88
452.002	917.14
452.376	926.4
452.75	930.47
453.123	903.35
453.497	947.42
453.871	948.1
454.244	953.07
454.618	958.27
454.992	1005.95
455.365	971.6
455.739	1025.16
456.112	1004.82
456.486	1023.8
456.859	1041.2
457.232	1038.49
457.606	1057.7
457.979	1065.83
458.352	1058.38
458.725	1090.92
459.099	1115.55
459.472	1109
459.845	1118.04
460.218	1161.2
460.591	1143.8
460.964	1148.54
461.337	1174.31
461.71	1173.4
462.083	1209.33
462.456	1214.3
462.829	1215.21
463.201	1256.79
463.574	1259.95
463.947	1257.69
464.32	1307.18
464.692	1299.95
465.065	1335.21
465.438	1347.86
465.81	1348.99
466.183	1382.66
466.555	1371.14
466.928	1402.55
467.3	1431.7
467.672	1466.5
468.045	1486.84
468.417	1503.56
468.789	1535.65
469.161	1506.95
469.534	1602.09
469.906	1591.92
470.278	1619.04
470.65	1665.59
471.022	1666.5
471.394	1715.53
471.766	1745.36
472.138	1765.25
472.51	1826.94
472.882	1826.94
473.253	1881.63
473.625	1914.85
473.997	1946.71
474.369	2019.25
474.74	2054.73
475.112	2061.51
475.484	2141.96
475.855	2164.34
476.227	2210.21
476.598	2280.49
476.97	2359.13
477.341	2381.05
477.713	2420.6
478.084	2471.9
478.455	2585.12
478.827	2618.34
479.198	2735.17
479.569	2726.81
479.94	2870.08
480.311	2897.2
480.682	3033.24
481.053	3092.9
481.424	3167.93
481.795	3290.41
482.166	3347.58
482.537	3396.17
482.908	3532.66
483.279	3608.37
483.65	3722.03
484.021	3832.31
484.391	3914.35
484.762	4015.36
485.133	4107.79
485.503	4220.78
485.874	4329.7
486.244	4448.34
486.615	4529.25
486.985	4689.69
487.356	4768.34
487.726	4905.73
488.097	5045.16
488.467	5180.98
488.837	5261.66
489.207	5395.89
489.578	5575.32
489.948	5719.5
490.318	5779.83
490.688	5902.09
491.058	6053.05
491.428	6190.44
491.798	6364.9
492.168	6535.75
492.538	6577.33
492.908	6742.75
493.278	6884.89
493.648	7011.67
494.017	7152
494.387	7278.1
494.757	7472.44
495.126	7519
495.496	7682.38
495.866	7846.45
496.235	7980
496.605	8096.38
496.974	8234.46
497.344	8415.92
497.713	8441.01
498.082	8647.33
498.452	8807.55
498.821	8846.65
499.19	8923.93
499.559	9050.71
499.928	9156.24
500.298	9337.93
500.667	9456.8
501.036	9512.39
501.405	9599.39
501.774	9715.32
502.143	9869.67
502.512	9977.46
502.88	10022.89
503.249	10150.11
503.618	10241.64
503.987	10364.57
504.356	10463.33
504.724	10584.45
505.093	10687.73
505.462	10782.19
505.83	10876.2
506.199	10964.78
506.567	11181.27
506.936	11154.61
507.304	11394.83
507.672	11391.66
508.041	11496.07
508.409	11607.25
508.777	11751.2
509.145	11883.85
509.514	11831.65
509.882	11973.8
510.25	12030.97
510.618	12096.5
510.986	12161.14
511.354	12331.07
511.722	12394.35
512.09	12576.27
512.458	12496.72
512.826	12706.66
513.193	12740.78
513.561	12727
513.929	12877.5
514.297	13040.89
514.664	13091.51
515.032	13077.95
515.4	13282.91
515.767	13223.25
516.135	13342.12
516.502	13282.69
516.869	13551.83
517.237	13577.82
517.604	13525.62
517.972	13729.91
518.339	13796.35
518.706	13844.93
519.073	13842.9
519.44	13937.13
519.808	14083.57
520.175	13995.21
520.542	14211.25
520.909	14352.94
521.276	14269.33
521.643	14439.95
522.009	14500.73
522.376	14555.87
522.743	14694.85
523.11	14686.72
523.477	14839.48
523.843	14904.57
524.21	15023.43
524.577	15077.22
524.943	15102.3
525.31	15146.37
525.676	15361.5
526.043	15423.65
526.409	15354.72
526.776	15440.14
527.142	15497.77
527.508	15600.59
527.874	15738.67
528.241	15608.05
528.607	15650.76
528.973	15819.57
529.339	15793.13
529.705	15832.68
530.071	16005.33
530.437	16057.76
530.803	16001.26
531.169	16177.3
531.535	15986.57
531.901	16022.05
532.267	16137.3
532.632	16228.6
532.998	16216.17
533.364	16282.38
533.73	16308.14
534.095	16355.15
534.461	16377.75
534.826	16437.86
535.192	16454.13
535.557	16482.6
535.923	16458.88
536.288	16537.29
536.653	16487.12
537.019	16407.58
537.384	16495.03
537.749	16516.27
538.114	16535.94
538.479	16573.22
538.845	16618.64
539.21	16474.69
539.575	16550.17
539.94	16491.64
540.305	16651.86
540.67	16569.15
541.034	16623.84
541.399	16544.52
541.764	16591.53
542.129	16602.6
542.494	16575.71
542.858	16643.96
543.223	16576.61
543.587	16671.52
543.952	16694.35
544.316	16580.68
544.681	16620.9
545.045	16622.49
545.41	16627.46
545.774	16568.25
546.138	16646.21
546.503	16602.83
546.867	16622.49
547.231	16694.8
547.595	16637.63
547.959	16616.39
548.324	16587.01
548.688	16646.21
549.052	16635.59
549.416	16561.92
549.779	16591.75
550.143	16625.42
550.507	16588.82
550.871	16634.92
551.235	16595.82
551.599	16657.06
551.962	16577.29
552.326	16675.14
552.689	16638.53
553.053	16630.4
553.417	16620.23
553.78	16923.04
554.143	16759.43
554.507	16737.29
554.87	16740.22
555.234	16794.23
555.597	16765.08
555.96	16669.94
556.323	16730.51
556.686	16700
557.05	16842.14
557.413	16828.58
557.776	16787
558.139	16805.53
558.502	16812.76
558.865	16906.32
559.228	16987.67
559.59	17013.21
559.953	17079.88
560.316	17119.2
560.679	17156.48
561.041	17172.53
561.404	17235.8
561.767	17319.87
562.129	17191.06
562.492	17315.12
562.854	17318.06
563.217	17236.03
563.579	17378.17
563.941	17324.84
564.304	17383.82
564.666	17396.48
565.028	17438.96
565.39	17516.7
565.753	17537.72
566.115	17610.26
566.477	17584.95
566.839	17663.14
567.201	17670.82
567.563	17739.75
567.925	17793.76
568.287	17770.71
568.648	17853.41
569.01	17852.96
569.372	17918.05
569.734	18004.6
570.095	17948.33
570.457	18057.93
570.819	18060.87
571.18	18024.03
571.542	18043.47
571.903	18117.36
572.265	18194.65
572.626	18124.82
572.987	18189.9
573.349	18196
573.71	18313.74
574.071	18320.3
574.432	18219.96
574.794	18456.11
575.155	18414.76
575.516	18330.01
575.877	18426.06
576.238	18433.29
576.599	18548.76
576.96	18448.2
577.32	18449.56
577.681	18393.29
578.042	18536.33
578.403	18493.17
578.763	18504.02
579.124	18584.02
579.485	18582.89
579.845	18681.87
580.206	18572.72
580.566	18595.54
580.927	18519.39
581.287	18630.8
581.648	18538.14
582.008	18715.54
582.368	18617.24
582.728	18656.11
583.089	18603.68
583.449	18553.74
583.809	18641.42
584.169	18663.79
584.529	18665.14
584.889	18727.06
585.249	18677.8
585.609	18581.08
585.969	18669.21
586.329	18554.64
586.688	18571.14
587.048	18576.33
587.408	18598.03
587.768	18574.07
588.127	18499.73
588.487	18563.45
588.846	18671.7
589.206	18463.34
589.565	18512.38
589.925	18580.63
590.284	18512.83
590.643	18469.44
591.003	18497.69
591.362	18586.73
591.721	18551.02
592.08	18577.46
592.44	18651.36
592.799	18580.4
593.158	18528.65
593.517	18506.96
593.876	18533.62
594.235	18566.39
594.593	18523.23
594.952	18617.91
595.311	18442.33
595.67	18495.43
596.029	18591.25
596.387	18610.68
596.746	18589.67
597.104	18496.79
597.463	18551.25
597.822	18513.51
598.18	18487.3
598.538	18483.45
598.897	18577.69
599.255	18405.04
599.613	18699.72
599.972	18533.85
600.33	18684.58
600.688	18569.33
601.046	18661.08
601.404	18554.19
601.762	18650.46
602.12	18649.1
602.478	18700.4
602.836	18738.14
603.194	18579.05
603.552	18609.33
603.91	18618.14
604.268	18612.04
604.625	18560.06
604.983	18685.48
605.341	18508.99
605.698	18749.44
606.056	18737.91
606.413	18715.31
606.771	18693.17
607.128	18726.16
607.485	18664.01
607.843	18661.53
608.2	18744.01
608.557	18839.83
608.914	18759.83
609.272	18898.59
609.629	18761.19
609.986	18866.04
610.343	18763
610.7	18997.34
611.057	18867.63
611.414	18892.26
611.771	19012.03
612.127	18941.3
612.484	19023.55
612.841	19085.92
613.198	19085.47
613.554	19026.72
613.911	19176.77
614.267	19038.69
614.624	19086.6
614.98	19117.56
615.337	19237.11
615.693	19111.23
616.05	19187.84
616.406	19239.14
616.762	19229.42
617.118	19176.32
617.475	19274.39
617.831	19309.2
618.187	19207.96
618.543	19196.43
618.899	19334.73
619.255	19332.7
619.611	19266.48
619.967	19283.89
620.323	19429.64
620.678	19342.87
621.034	19324.11
621.39	19347.16
621.746	19291.57
622.101	19469.87
622.457	19355.07
622.812	19419.93
623.168	19435.29
623.523	19500.6
623.879	19540.83
624.234	19392.13
624.589	19431.45
624.945	19407.95
625.3	19503.09
625.655	19424.22
626.01	19470.1
626.365	19498.8
626.72	19385.35
627.075	19502.18
627.43	19401.4
627.785	19438.23
628.14	19459.47
628.495	19402.75
628.85	19425.8
629.205	19385.8
629.559	19504.22
629.914	19407.95
630.269	19389.87
630.623	19368.4
630.978	19275.07
631.332	19319.59
631.687	19372.24
632.041	19398.46
632.396	19361.17
632.75	19315.07
633.104	19296.31
633.459	19188.97
633.813	19167.96
634.167	19264.23
634.521	19193.04
634.875	19217.45
635.229	19062.65
635.583	19153.72
635.937	19073.95
636.291	19122.99
636.645	19054.97
636.999	19096.32
637.352	19043.67
637.706	18885.48
638.06	19071.91
638.413	19028.3
638.767	18981.97
639.121	18942.43
639.474	18807.29
639.828	18839.15
640.181	18981.52
640.534	18957.79
640.888	18798.93
641.241	18813.39
641.594	18777.91
641.947	18847.74
642.301	18781.3
642.654	18823.11
643.007	18755.99
643.36	18781.75
643.713	18691.58
644.066	18764.35
644.419	18695.65
644.771	18607.97
645.124	18405.94
645.477	18464.02
645.83	18231.26
646.182	18212.28
646.535	18083.24
646.888	18219.73
647.24	18073.97
647.593	18184.25
647.945	18176.34
648.298	17979.51
648.65	18035.56
649.002	17981.32
649.355	18087.98
649.707	18097.48
650.059	18121.88
650.411	18277.36
650.763	18445.04
651.115	18567.52
651.467	18552.15
651.819	18466.96
652.171	18483.23
652.523	18476.22
652.875	18443.23
653.227	18405.49
653.578	18487.75
653.93	18461.99
654.282	18459.73
654.633	18404.13
654.985	18431.48
655.337	18355.32
655.688	18472.16
656.039	18527.75
656.391	18371.37
656.742	18421.31
657.094	18469.44
657.445	18456.79
657.796	18516
658.147	18426.51
658.498	18329.33
658.849	18432.83
659.2	18412.95
659.551	18442.55
659.902	18404.59
660.253	18432.83
660.604	18460.63
660.955	18349.22
661.306	18479.61
661.656	18414.08
662.007	18407.07
662.358	18460.4
662.708	18458.37
663.059	18470.8
663.409	18280.75
663.76	18519.16
664.11	18555.09
664.461	18448.43
664.811	18520.97
665.161	18436.9
665.511	18493.17
665.862	18496.11
666.212	18520.06
666.562	18614.52
666.912	18445.49
667.262	18513.96
667.612	18530.69
667.962	18401.2
668.312	18469.9
668.662	18532.49
669.011	18449.78
669.361	18343.8
669.711	18445.94
670.06	18423.12
670.41	18378.15
670.76	18341.54
671.109	18309.22
671.459	18316.45
671.808	18414.53
672.157	18431.93
672.507	18379.5
672.856	18342.22
673.205	18282.78
673.554	18382.67
673.904	18231.26
674.253	18358.94
674.602	18345.61
674.951	18023.58
675.3	17975.22
675.649	18228.09
675.998	18213.41
676.346	18171.6
676.695	18316.91
677.044	18116.91
677.393	18181.32
677.741	18150.36
678.09	18110.13
678.438	18115.1
678.787	18169.79
679.135	18184.48
679.484	17971.15
679.832	18049.79
680.181	17948.1
680.529	17957.37
680.877	17953.75
681.225	18076.23
681.573	17889.35
681.922	17828.33
682.27	17876.92
682.618	17870.82
682.966	17735
683.314	17785.17
683.661	17761.67
684.009	17671.05
684.357	17559.86
684.705	17522.8
685.053	17538.17
685.4	17490.71
685.748	17437.61
686.095	17514.67
686.443	17416.82
686.79	17295.46
687.138	17368.23
687.485	17396.25
687.832	17277.16
688.18	17219.08
688.527	17136.37
688.874	17099.31
689.221	17047.33
689.568	17078.52
689.915	17089.14
690.262	16969.82
690.609	16974.57
690.956	16843.27
691.303	16914.46
691.65	16791.97
691.997	16805.53
692.344	16710.17
692.69	16688.7
693.037	16594.69
693.383	16468.82
693.73	16546.78
694.077	16378.43
694.423	16494.13
694.769	16429.72
695.116	16269.95
695.462	16233.8
695.808	16213.68
696.155	16215.94
696.501	16117.64
696.847	16093.46
697.193	15970.07
697.539	16028.6
697.885	15865.44
698.231	15855.28
698.577	15814.6
698.923	15752.45
699.269	15629.74
699.614	15647.6
699.96	15585.45
700.306	15568.05
700.651	15462.74
700.997	15365.8
701.342	15431.78
701.688	15375.97
702.033	15250.55
702.379	15232.01
702.724	15264.1
703.069	15225.24
703.415	15099.14
703.76	15057.78
704.105	14960.84
704.45	14920.61
704.795	14901.18
705.14	14862.76
705.485	14884.23
705.83	14647.62
706.175	14755.87
706.52	14689.66
706.865	14650.79
707.209	14607.17
707.554	14594.52
707.899	14540.28
708.243	14525.14
708.588	14440.17
708.932	14285.82
709.277	14335.77
709.621	14281.98
709.966	14202.44
710.31	14296.22
710.654	14099.39
710.998	14235.43
711.342	14152.95
711.687	14123.8
712.031	14088.09
712.375	14024.59
712.719	13963.8
713.063	14010.58
713.407	14013.06
713.75	13893.97
714.094	13912.95
714.438	13914.08
714.782	13907.3
715.125	13773.3
715.469	13799.96
715.812	13696.46
716.156	13720.42
716.499	13717.93
716.843	13705.28
717.186	13586.86
717.53	13648.1
717.873	13622.79
718.216	13611.27
718.559	13580.98
718.902	13450.37
719.246	13515.45
719.589	13488.33
719.932	13359.07
720.275	13404.72
720.617	13409.46
720.96	13345.74
721.303	13380.54
721.646	13398.39
721.989	13329.24
722.331	13366.53
722.674	13387.54
723.016	13363.36
723.359	13340.31
723.701	13305.74
724.044	13176.7
724.386	13127.44
724.729	13252.18
725.071	13108.45
725.413	13215.57
725.755	13179.64
726.097	13105.29
726.439	12984.62
726.782	13126.76
727.124	13124.05
727.465	13071.62
727.807	13149.36
728.149	13062.35
728.491	13010.38
728.833	13057.83
729.175	12970.61
729.516	12955.24
729.858	12967.67
730.199	12930.61
730.541	12948.46
730.882	13023.26
731.224	12962.24
731.565	12950.04
731.906	12939.65
732.248	12959.76
732.589	12878.18
732.93	12861.46
733.271	12885.64
733.612	12952.75
733.953	12942.81
734.294	12867.78
734.635	12821
734.976	12910.95
735.317	12833.89
735.658	12924.5
735.999	12845.86
736.339	12821
736.68	12816.71
737.021	12891.29
737.361	12805.19
737.702	12908.69
738.042	12902.58
738.383	12861
738.723	12801.8
739.063	12954.79
739.404	12923.83
739.744	12911.85
740.084	12838.86
740.424	12907.56
740.764	12882.7
741.104	13004.28
741.444	12898.06
741.784	12880.21
742.124	13008.12
742.464	12944.84
742.804	12914.34
743.143	12928.35
743.483	12968.57
743.823	12955.24
744.162	12983.26
744.502	12980.1
744.841	13016.48
745.181	13122.92
745.52	13071.62
745.86	13099.42
746.199	13129.7
746.538	13179.41
746.877	13239.3
747.216	13283.82
747.556	13323.59
747.895	13359.97
748.234	13333.53
748.573	13364.95
748.911	13470.25
749.25	13509.35
749.589	13478.16
749.928	13522.46
750.267	13704.15
750.605	13675.67
750.944	13811.26
751.283	13776.01
751.621	13935.55
751.96	13957.7
752.298	14132.16
752.636	14170.35
752.975	14181.87
753.313	14134.87
753.651	14396.78
753.989	14372.15
754.327	14466.61
754.666	14559.49
755.004	14732.59
755.342	14760.16
755.679	14869.09
756.017	14956.54
756.355	15160.6
756.693	15134.84
757.031	15243.99
757.368	15248.51
757.706	15301.62
758.044	15363.99
758.381	15707.03
758.719	15647.82
759.056	15812.34
759.394	15843.07
759.731	15946.12
760.068	16057.98
760.405	16068.6
760.743	16257.07
761.08	16362.83
761.417	16407.13
761.754	16567.57
762.091	16563.51
762.428	16742.26
762.765	16770.28
763.102	16949.48
763.438	17020.22
763.775	16988.8
764.112	17172.3
764.449	17270.38
764.785	17229.93
765.122	17275.8
765.458	17416.59
765.795	17493.88
766.131	17585.4
766.467	17627.88
766.804	17617.49
767.14	17693.42
767.476	17738.84
767.812	17782.46
768.148	17957.37
768.485	17879.4
768.821	17989.46
769.157	17992.62
769.492	18102.45
769.828	18142.9
770.164	18044.82
770.5	18140.86
770.836	18147.64
771.171	18079.17
771.507	18244.36
771.842	18132.96
772.178	18197.13
772.513	18186.51
772.849	18259.51
773.184	18151.26
773.519	18231.26
773.855	18274.87
774.19	18272.61
774.525	18236.23
774.86	18258.15
775.195	18202.33
775.53	18304.93
775.865	18142.22
776.2	18245.27
776.535	18001.66
776.87	18153.75
777.205	18083.24
777.539	18094.54
777.874	18191.48
778.209	17944.03
778.543	18036.46
778.878	17911.27
779.212	18023.13
779.547	17956.01
779.881	18035.1
780.215	17890.48
780.55	17899.29
780.884	17856.58
781.218	17835.79
781.552	17841.44
781.886	17816.81
782.22	17756.69
782.554	17716.7
782.888	17506.31
783.222	17544.5
783.556	17493.2
783.889	17433.09
784.223	17331.62
784.557	17394.9
784.89	17499.75
785.224	17213.21
785.557	17243.26
785.891	17237.16
786.224	17217.05
786.558	17194.45
786.891	17137.95
787.224	17014.57
787.557	16996.71
787.891	17009.82
788.224	16921.91
788.557	16992.87
788.89	16908.81
789.223	16931.41
789.556	16784.06
789.888	16801.24
790.221	16736.61
790.554	16585.43
790.887	16607.12
791.219	16533.22
791.552	16551.75
791.884	16527.12
792.217	16367.13
792.549	16334.36
792.882	16321.93
793.214	16215.94
793.546	16288.03
793.879	16170.3
794.211	16071.54
794.543	16194.25
794.875	16082.84
795.207	16033.58
795.539	16008.94
795.871	16081.94
796.203	15881.26
796.535	15811.43
796.867	15807.37
797.198	15780.25
797.53	15777.99
797.862	15724.43
798.193	15758.78
798.525	15553.36
798.856	15609.63
799.188	15462.52
799.519	15419.81
799.85	15247.38
800.182	15288.06
800.513	15360.15
800.844	15231.34
801.175	15306.82
801.506	15300.04
801.837	15096.65
802.168	15099.81
802.499	15000.61
802.83	15079.7
803.161	14987.95
803.491	15002.42
803.822	14984.34
804.153	14870.67
804.483	14847.62
804.814	14761.97
805.145	14687.17
805.475	14730.11
805.805	14757
806.136	14706.38
806.466	14705.25
806.796	14701.18
807.126	14497.34
807.457	14474.52
807.787	14498.47
808.117	14413.73
808.447	14376.67
808.777	14420.28
809.107	14363.34
809.436	14353.85
809.766	14250.57
810.096	14253.28
810.426	14207.18
810.755	14186.62
811.085	14082.21
811.414	14046.74
811.744	13918.38
812.073	13886.06
812.403	13980.07
812.732	13824.59
813.061	13833.18
813.39	13728.55
813.719	13835.89
814.049	13832.96
814.378	13802.22
814.707	13760.64
815.036	13785.05
815.365	13690.81
815.693	13544.6
816.022	13602.23
816.351	13562.68
816.68	13508.9
817.008	13522
817.337	13399.07
817.665	13295.57
817.994	13375.11
818.322	13338.51
818.651	13179.19
818.979	13215.12
819.307	13362.69
819.636	13341.22
819.964	13193.88
820.292	13291.73
820.62	13240.88
820.948	13233.42
821.276	13220.99
821.604	13110.94
821.932	13210.6
822.259	13222.12
822.587	13169.92
822.915	13125.4
823.243	13172.18
823.57	13167.21
823.898	13105.07
824.225	13064.61
824.553	13092.86
824.88	13118.17
825.207	13155.23
825.535	13101.9
825.862	13106.19
826.189	13053.54
826.516	13182.13
826.843	13154.56
827.17	13110.04
827.497	13088.79
827.824	13115.46
828.151	13161.33
828.478	13174.89
828.805	13104.39
829.131	13088.57
829.458	13112.07
829.785	13055.12
830.111	13084.95
830.438	13140.09
830.764	13011.96
831.09	13028.23
831.417	12979.87
831.743	13184.38
832.069	13065.29
832.395	13020.32
832.722	13065.74
833.048	12973.32
833.374	13076.14
833.7	12937.61
834.026	12988.91
834.351	12959.53
834.677	13009.93
835.003	12961.57
835.329	12952.07
835.654	12896.48
835.98	12874.79
836.306	12841.57
836.631	12909.36
836.956	12903.49
837.282	12849.25
837.607	12724.96
837.932	12747.79
838.258	12849.03
838.583	12778.52
838.908	12644.74
839.233	12747.56
839.558	12777.62
839.883	12633.89
840.208	12638.41
840.533	12679.54
840.858	12623.95
841.182	12629.82
841.507	12513.44
841.832	12541.92
842.156	12554.35
842.481	12486.55
842.805	12550.05
843.13	12489.04
843.454	12470.28
843.778	12356.84
844.103	12272.32
844.427	12286.56
844.751	12349.83
845.075	12287.69
845.399	12227.57
845.723	12224.86
846.047	12201.13
846.371	12051.31
846.695	12093.11
847.019	11976.06
847.343	11940.58
847.666	11858.09
847.99	11993.23
848.313	11845.44
848.637	11824.87
848.96	11716.85
849.284	11699.9
849.607	11587.59
849.931	11582.39
850.254	11496.29
850.577	11423.3
850.9	11348.5
851.223	11315.51
851.546	11375.17
851.869	11236.41
852.192	11275.96
852.515	11140.14
852.838	11108.96
853.161	11163.65
853.483	11100.6
853.806	10972.92
854.129	11057.66
854.451	10977.21
854.774	10908.96
855.096	10888.63
855.419	10789.42
855.741	10873.94
856.063	10799.81
856.385	10776.09
856.708	10760.27
857.03	10668.74
857.352	10717.11
857.674	10658.35
857.996	10619.03
858.318	10589.88
858.64	10526.38
858.961	10504
859.283	10534.06
859.605	10448.41
859.926	10473.27
860.248	10396.66
860.57	10422.42
860.891	10393.72
861.212	10314.4
861.534	10370.67
861.855	10240.28
862.176	10382.88
862.498	10260.62
862.819	10258.81
863.14	10206.84
863.461	10215.88
863.782	10130.45
864.103	10190.79
864.424	10146.72
864.745	10158.93
865.065	10026.73
865.386	10017.91
865.707	10023.11
866.027	10013.85
866.348	10015.65
866.668	10010.23
866.989	9941.76
867.309	9953.06
867.63	9913.06
867.95	9945.83
868.27	9883.91
868.59	9936.56
868.91	9889.56
869.23	9881.87
869.55	9767.07
869.87	9886.62
870.19	9786.06
870.51	9796.68
870.83	9751.93
871.15	9688.43
871.469	9706.28
871.789	9717.13
872.109	9689.56
872.428	9668.77
872.748	9722.33
873.067	9672.61
873.386	9665.61
873.706	9592.16
874.025	9561.43
874.344	9561.88
874.663	9607.3
874.982	9593.74
875.301	9583.35
875.62	9532.28
875.939	9491.37
876.258	9519.85
876.577	9468.55
876.896	9440.75
877.214	9502
877.533	9395.56
877.852	9433.3
878.17	9421.55
878.489	9457.25
878.807	9400.76
879.125	9333.64
879.444	9397.14
879.762	9296.13
880.08	9321.89
880.398	9302.23
880.716	9266.97
881.034	9235.34
881.352	9275.34
881.67	9198.5
881.988	9230.14
882.306	9132.97
882.624	9121.44
882.941	9166.41
883.259	9085.96
883.577	9069.46
883.894	9125.06
884.212	9080.99
884.529	9026.75
884.846	8976.59
885.164	9041.9
885.481	8904.27
885.798	8993.99
886.115	8936.81
886.432	8896.36
886.75	8901.56
887.067	8914.89
887.383	8851.17
887.7	8836.02
888.017	8794.44
888.334	8753.77
888.651	8792.64
888.967	8739.76
889.284	8666.76
889.6	8666.99
889.917	8621.57
890.233	8638.74
890.55	8557.84
890.866	8596.03
891.182	8604.84
891.498	8518.29
891.815	8510.61
892.131	8477.62
892.447	8452.08
892.763	8437.39
893.079	8356.49
893.395	8347.45
893.71	8365.98
894.026	8365.98
894.342	8370.73
894.657	8321.46
894.973	8295.93
895.289	8188.36
895.604	8244.63
895.92	8167.79
896.235	8142.71
896.55	8150.62
896.865	8087.57
897.181	8101.35
897.496	8082.15
897.811	8022.49
898.126	8032.66
898.441	7964.64
898.756	7925.54
899.071	7849.38
899.386	7884.64
899.7	7830.63
900.015	7863.62
900.33	7735.49
900.644	7731.2
900.959	7723.51
901.273	7687.58
901.588	7680.35
901.902	7623.18
902.216	7556.51
902.531	7671.08
902.845	7539.79
903.159	7485.33
903.473	7493.01
903.787	7461.15
904.101	7513.12
904.415	7443.07
904.729	7382.28
905.042	7366.46
905.356	7308.61
905.67	7341.37
905.984	7280.36
906.297	7261.6
906.611	7265.67
906.924	7212.11
907.237	7179.8
907.551	7130.08
907.864	7152.68
908.177	7059.12
908.491	7094.6
908.804	7061.83
909.117	7040.14
909.43	7015.96
909.743	6940.48
910.056	6919.69
910.368	6876.53
910.681	6903.19
910.994	6838.34
911.307	6797.21
911.619	6763.76
911.932	6763.76
912.244	6742.97
912.557	6730.32
912.869	6703.65
913.181	6632.47
913.494	6731.67
913.806	6643.77
914.118	6612.58
914.43	6533.03
914.742	6505.69
915.054	6517.22
915.366	6528.74
915.678	6472.02
915.99	6439.03
916.302	6377.56
916.613	6328.97
916.925	6360.16
917.236	6356.09
917.548	6321.29
917.859	6274.96
918.171	6248.97
918.482	6214.17
918.794	6232.93
919.105	6154.29
919.416	6127.62
919.727	6147.96
920.038	6109.77
920.349	6044.91
920.66	6009.43
920.971	6081.07
921.282	5990.9
921.593	5935.76
921.903	5944.12
922.214	5909.1
922.525	5872.94
922.835	5916.1
923.146	5831.81
923.456	5805.14
923.767	5766.73
924.077	5747.74
924.387	5785.94
924.697	5721.98
925.008	5676.11
925.318	5677.46
925.628	5700.06
925.938	5625.26
926.248	5580.07
926.558	5535.55
926.867	5572.38
927.177	5521.99
927.487	5481.08
927.796	5512.27
928.106	5461.65
928.416	5453.74
928.725	5437.92
929.034	5403.57
929.344	5412.61
929.653	5400.41
929.962	5349.34
930.271	5315.44
930.581	5271.82
930.89	5278.38
931.199	5251.94
931.508	5230.02
931.817	5231.15
932.125	5191.15
932.434	5279.51
932.743	5147.08
933.051	5114.99
933.36	5082.68
933.669	5047.88
933.977	5029.57
934.286	5026.86
934.594	5023.02
934.902	5006.07
935.21	4935.11
935.519	4988.44
935.827	4926.97
936.135	4892.85
936.443	4823.25
936.751	4834.55
937.059	4822.8
937.367	4818.96
937.674	4807.43
937.982	4789.13
938.29	4802.23
938.597	4825.73
938.905	4724.49
939.213	4662.12
939.52	4678.17
939.827	4680.2
940.135	4630.03
940.442	4574.89
940.749	4620.77
941.056	4600.66
941.363	4550.71
941.67	4564.72
941.977	4524.95
942.284	4465.97
942.591	4478.4
942.898	4457.83
943.205	4468.23
943.511	4461.9
943.818	4449.02
944.125	4418.51
944.431	4413.77
944.738	4353.88
945.044	4299.42
945.35	4312.75
945.657	4255.13
945.963	4303.49
946.269	4276.6
946.575	4250.61
946.881	4207.67
947.187	4219.65
947.493	4209.25
947.799	4215.81
948.105	4148.24
948.41	4096.04
948.716	4127.9
949.022	4144.17
949.327	4097.39
949.633	4058.75
949.938	4044.06
950.244	4049.71
950.549	4047
950.854	4007.9
951.16	3949.37
951.465	3991.41
951.77	3975.59
952.075	3946.21
952.38	3940.33
952.685	3949.6
952.99	3881.8
953.294	3846.55
953.599	3859.66
953.904	3822.6
954.209	3825.08
954.513	3795.93
954.818	3730.4
955.122	3810.17
955.426	3723.84
955.731	3699.66
956.035	3719.1
956.339	3694.69
956.643	3679.55
956.948	3665.99
957.252	3673.9
957.556	3666.67
957.86	3627.35
958.163	3578.08
958.467	3607.24
958.771	3655.37
959.075	3614.69
959.378	3562.49
959.682	3539.44
959.985	3541.7
960.289	3522.04
960.592	3473.68
960.896	3428.26
961.199	3452.89
961.502	3447.47
961.805	3414.02
962.108	3411.53
962.411	3414.47
962.714	3389.39
963.017	3346.9
963.32	3363.17
963.623	3367.69
963.926	3353.46
964.228	3305.77
964.531	3289.05
964.833	3312.33
965.136	3266.91
965.438	3271.2
965.741	3231.43
966.043	3254.93
966.345	3234.82
966.648	3224.42
966.95	3198.66
967.252	3182.84
967.554	3165.44
967.856	3176.29
968.158	3108.04
968.46	3125.44
968.761	3071.2
969.063	3092.22
969.365	3096.06
969.666	3094.93
969.968	3062.62
970.269	3015.39
970.571	3021.49
970.872	3014.03
971.174	2987.82
971.475	2994.6
971.776	2977.42
972.077	2946.46
972.378	2950.3
972.679	2969.96
972.98	2933.81
973.281	2864.2
973.582	2922.96
973.883	2887.03
974.183	2896.29
974.484	2867.37
974.785	2861.49
975.085	2821.72
975.386	2853.81
975.686	2813.36
975.986	2815.62
976.287	2834.83
976.587	2790.08
976.887	2732.23
977.187	2760.25
977.487	2739.91
977.787	2728.84
978.087	2734.49
978.387	2724.32
978.687	2715.51
978.987	2652.91
979.286	2661.72
979.586	2649.29
979.885	2664.89
980.185	2620.37
980.484	2590.77
980.784	2604.1
981.083	2607.26
981.382	2575.4
981.682	2564.78
981.981	2556.19
982.28	2599.35
982.579	2523.87
982.878	2541.73
983.177	2506.7
983.475	2522.07
983.774	2491.56
984.073	2492.91
984.372	2458.34
984.67	2458.11
984.969	2467.38
985.267	2426.7
985.566	2438.45
985.864	2428.96
986.162	2439.81
986.461	2391.9
986.759	2395.52
987.057	2381.51
987.355	2371.56
987.653	2336.53
987.951	2382.64
988.249	2330.21
988.547	2340.6
988.844	2305.35
989.142	2330.89
989.44	2322.07
989.737	2296.31
990.035	2294.95
990.332	2250.66
990.63	2266.25
990.927	2249.76
991.224	2233.49
991.521	2198.91
991.819	2235.75
992.116	2193.49
992.413	2198.23
992.71	2178.8
993.006	2166.6
993.303	2143.55
993.6	2156.65
993.897	2132.7
994.193	2170.89
994.49	2100.83
994.787	2109.87
995.083	2113.72
995.379	2110.55
995.676	2039.82
995.972	2100.61
996.268	2064
996.565	2071.91
996.861	2061.74
997.157	2033.94
997.453	2027.39
997.749	2020.61
998.044	2007.05
998.34	1978.58
998.636	1991.46
998.932	1980.61
999.227	1969.54
999.523	1940.39
999.818	1946.49
1000.114	1957.79
1000.409	1965.02
1000.704	1897.45
1001	1919.14
1001.295	1885.25
1001.59	1871.69
1001.885	1890.67
1002.18	1875.98
1002.475	1873.72
1002.77	1832.14
1003.065	1851.12
1003.359	1821.75
1003.654	1815.64
1003.949	1820.16
1004.243	1789.2
1004.538	1788.98
1004.832	1808.19
1005.127	1785.81
1005.421	1743.78
1005.715	1731.8
1006.009	1758.02
1006.304	1749.21
1006.598	1710.56
1006.892	1714.86
1007.186	1680.96
1007.48	1706.27
1007.773	1678.25
1008.067	1682.54
1008.361	1678.92
1008.655	1634.41
1008.948	1648.42
1009.242	1646.61
1009.535	1643.22
1009.829	1609.32
1010.122	1614.97
1010.415	1611.81
1010.708	1593.96
1011.001	1580.4
1011.295	1591.92
1011.588	1582.43
1011.881	1549.21
1012.173	1547.85
1012.466	1506.95
1012.759	1532.04
1013.052	1518.93
1013.344	1528.65
1013.637	1511.25
1013.93	1505.14
1014.222	1506.73
1014.514	1483
1014.807	1475.31
1015.099	1445.26
1015.391	1455.88
1015.683	1450.46
1015.976	1454.98
1016.268	1408.42
1016.56	1406.84
1016.851	1416.11
1017.143	1433.51
1017.435	1417.46
1017.727	1361.64
1018.018	1381.31
1018.31	1387.41
1018.602	1361.42
1018.893	1335.43
1019.185	1374.3
1019.476	1315.54
1019.767	1347.18
1020.058	1315.09
1020.35	1311.25
1020.641	1319.84
1020.932	1286.84
1021.223	1299.27
1021.514	1283
1021.804	1255.43
1022.095	1253.63
1022.386	1252.95
1022.677	1258.6
1022.967	1245.26
1023.258	1226.51
1023.548	1205.49
1023.839	1213.63
1024.129	1220.41
1024.419	1182.44
1024.709	1198.71
1025	1204.59
1025.29	1186.06
1025.58	1169.11
1025.87	1161.65
1026.16	1160.52
1026.449	1177.24
1026.739	1132.72
1027.029	1166.62
1027.319	1175.21
1027.608	1128.66
1027.898	1134.98
1028.187	1107.41
1028.477	1108.54
1028.766	1082.1
1029.055	1066.51
1029.344	1095.66
1029.634	1050.01
1029.923	1075.32
1030.212	1038.04
1030.501	1057.25
1030.79	1058.38
1031.078	1045.72
1031.367	1038.94
1031.656	1010.92
1031.945	1040.52
1032.233	1013.63
1032.522	1022.44
1032.81	982.45
1033.099	982.45
1033.387	986.74
1033.675	974.99
1033.963	970.24
1034.251	963.46
1034.54	978.83
1034.828	978.6
1035.116	954.88
1035.403	951.94
1035.691	934.76
1035.979	949.9
1036.267	918.94
1036.554	932.05
1036.842	911.94
1037.129	919.85
1037.417	908.32
1037.704	884.6
1037.992	882.11
1038.279	866.97
1038.566	868.1
1038.853	868.1
1039.14	868.1
