Data from hue_120_FLMS001491_00056.txt Node
Date: Tue Feb 07 16:59:40 GMT 2017
User: dcchb
Spectrometer: FLMS00149
Trigger mode: 0
Integration Time (sec): 2.000000E-2
Scans to average: 10
Electric dark correction enabled: true
Nonlinearity correction enabled: false
Boxcar width: 0
XAxis mode: Wavelengths
Number of Pixels in Spectrum: 2048
>>>>>Begin Spectral Data<<<<<
341.393	-31.31
341.776	-31.31
342.16	-31.31
342.543	-77.41
342.927	-67.7
343.31	-67.47
343.693	-60.01
344.077	-85.55
344.46	-49.62
344.843	-59.33
345.226	-50.52
345.61	-42.84
345.993	-16.62
346.376	16.37
346.759	3.26
347.142	22.02
347.525	24.96
347.908	76.71
348.291	88.91
348.674	89.59
349.057	110.15
349.44	120.1
349.823	135.69
350.206	146.76
350.588	180.43
350.971	224.73
351.354	235.8
351.737	237.61
352.119	251.17
352.502	251.17
352.884	288.23
353.267	287.77
353.65	285.52
354.032	309.7
354.414	310.37
354.797	320.54
355.179	317.83
355.562	325.74
355.944	315.57
356.326	332.07
356.709	342.24
357.091	329.13
357.473	341.78
357.855	340.43
358.238	341.33
358.62	329.13
359.002	338.85
359.384	346.76
359.766	345.4
360.148	353.31
360.53	346.53
360.912	324.16
361.294	345.4
361.676	326.87
362.057	339.98
362.439	323.03
362.821	328.68
363.203	334.33
363.584	304.72
363.966	339.98
364.348	315.12
364.729	343.37
365.111	334.33
365.493	311.96
365.874	321.67
366.256	319.64
366.637	311.5
367.019	325.06
367.4	310.37
367.781	303.82
368.163	337.72
368.544	307.89
368.925	301.79
369.306	317.83
369.688	330.26
370.069	295.01
370.45	316.93
370.831	308.57
371.212	333.2
371.593	304.95
371.974	308.57
372.355	305.18
372.736	322.58
373.117	305.85
373.498	303.59
373.879	310.15
374.26	307.44
374.641	318.51
375.021	305.18
375.402	313.99
375.783	334.78
376.163	310.6
376.544	343.14
376.925	325.29
377.305	320.77
377.686	358.51
378.066	335.68
378.447	329.58
378.827	332.75
379.208	330.03
379.588	332.07
379.968	338.85
380.349	364.38
380.729	325.97
381.109	340.88
381.489	324.61
381.87	340.2
382.25	338.4
382.63	338.85
383.01	347.21
383.39	345.4
383.77	342.91
384.15	333.65
384.53	358.96
384.91	341.56
385.29	363.03
385.67	359.19
386.049	358.06
386.429	359.41
386.809	358.28
387.189	349.92
387.568	363.25
387.948	349.69
388.328	349.69
388.707	334.1
389.087	366.87
389.466	363.71
389.846	367.55
390.225	369.58
390.605	366.42
390.984	359.64
391.363	354.21
391.743	356.47
392.122	391.5
392.501	370.26
392.881	345.4
393.26	364.38
393.639	362.12
394.018	366.42
394.397	375.91
394.776	388.34
395.155	386.08
395.534	388.34
395.913	377.72
396.292	392.4
396.671	378.17
397.05	385.85
397.429	372.52
397.808	377.94
398.186	379.75
398.565	396.02
398.944	380.65
399.323	389.02
399.701	420.43
400.08	400.99
400.458	389.92
400.837	405.74
401.215	406.64
401.594	409.13
401.972	410.94
402.351	413.42
402.729	400.31
403.107	412.74
403.486	422.91
403.864	412.97
404.242	436.02
404.62	416.81
404.999	418.84
405.377	433.53
405.755	408.68
406.133	431.5
406.511	424.27
406.889	433.99
407.267	438.51
407.645	420.65
408.023	441.22
408.401	439.41
408.779	430.37
409.156	442.8
409.534	437.83
409.912	464.95
410.29	453.65
410.667	470.14
411.045	436.02
411.422	471.5
411.8	479.18
412.178	479.63
412.555	467.66
412.933	466.3
413.31	508.11
413.687	468.56
414.065	475.11
414.442	497.26
414.819	478.05
415.197	493.65
415.574	496.58
415.951	504.49
416.328	485.06
416.705	479.18
417.082	500.65
417.46	499.29
417.837	502.91
418.214	505.17
418.591	509.46
418.967	525.51
419.344	502.68
419.721	532.29
420.098	529.8
420.475	519.18
420.852	519.18
421.228	525.51
421.605	542.01
421.982	541.1
422.358	546.3
422.735	546.98
423.111	557.37
423.488	564.15
423.864	546.75
424.241	576.13
424.617	554.66
424.994	588.78
425.37	562.12
425.746	600.08
426.123	571.16
426.499	598.95
426.875	587.88
427.251	600.31
427.627	601.89
428.003	604.15
428.379	600.99
428.756	605.51
429.132	621.1
429.507	635.34
429.883	624.49
430.259	635.34
430.635	625.62
431.011	634.21
431.387	650.93
431.763	638.95
432.138	629.46
432.514	653.87
432.89	645.51
433.265	665.84
433.641	694.77
434.016	663.36
434.392	668.56
434.767	709.91
435.143	700.65
435.518	691.38
435.894	709.91
436.269	716.46
436.644	727.54
437.02	698.84
437.395	714.88
437.77	734.99
438.145	742.23
438.52	746.07
438.895	774.54
439.271	756.92
439.646	761.89
440.021	762.79
440.395	763.24
440.77	758.72
441.145	773.64
441.52	793.52
441.895	769.57
442.27	783.13
442.645	781.55
443.019	798.95
443.394	810.25
443.769	790.81
444.143	810.47
444.518	813.64
444.892	830.81
445.267	816.12
445.641	837.82
446.016	810.7
446.39	836.24
446.764	850.7
447.139	874.43
447.513	850.92
447.887	878.27
448.262	845.73
448.636	888.21
449.01	854.31
449.384	877.82
449.758	869.23
450.132	899.96
450.506	909.91
450.88	890.24
451.254	920.75
451.628	918.94
452.002	939.96
452.376	926.85
452.75	946.74
453.123	930.02
453.497	965.27
453.871	977.02
454.244	989.68
454.618	974.31
454.992	1000.52
455.365	1012.5
455.739	1019.06
456.112	1012.5
456.486	1019.51
456.859	1048.43
457.232	1090.24
457.606	1066.74
457.979	1078.49
458.352	1113.74
458.725	1111.48
459.099	1123.91
459.472	1120.97
459.845	1128.2
460.218	1181.99
460.591	1170.92
460.964	1183.12
461.337	1214.53
461.71	1173.4
462.083	1236.68
462.456	1224.93
462.829	1233.06
463.201	1245.72
463.574	1256.79
463.947	1269.67
464.32	1301.53
464.692	1325.49
465.065	1315.77
465.438	1324.81
465.81	1382.44
466.183	1404.58
466.555	1400.29
466.928	1435.99
467.3	1477.8
467.672	1460.4
468.045	1507.86
468.417	1511.7
468.789	1521.64
469.161	1545.59
469.534	1579.27
469.906	1617.46
470.278	1634.63
470.65	1657.46
471.022	1708.08
471.394	1731.58
471.766	1752.14
472.138	1776.78
472.51	1822.65
472.882	1869.88
473.253	1897.9
473.625	1931.12
473.997	1963.44
474.369	1968.63
474.74	2018.12
475.112	2099.7
475.484	2125.24
475.855	2164.11
476.227	2222.87
476.598	2294.28
476.97	2312.58
477.341	2390.32
477.713	2481.62
478.084	2493.59
478.455	2594.38
478.827	2641.39
479.198	2719.35
479.569	2786.24
479.94	2841.83
480.311	2934.71
480.682	3016.29
481.053	3090.41
481.424	3176.96
481.795	3261.93
482.166	3358.2
482.537	3401.82
482.908	3515.26
483.279	3566.33
483.65	3693.34
484.021	3844.97
484.391	3882.71
484.762	3995.02
485.133	4104.17
485.503	4175.58
485.874	4324.73
486.244	4411.51
486.615	4591.84
486.985	4648.34
487.356	4764.04
487.726	4856.69
488.097	4981.44
488.467	5122.9
488.837	5223.46
489.207	5387.53
489.578	5494.64
489.948	5649.44
490.318	5780.96
490.688	5879.94
491.058	6017.34
491.428	6152.48
491.798	6263.44
492.168	6458.46
492.538	6533.71
492.908	6679.92
493.278	6796.98
493.648	6874.49
494.017	7028.39
494.387	7170.08
494.757	7273.58
495.126	7471.09
495.496	7441.71
495.866	7601.25
496.235	7733.23
496.605	7862.49
496.974	7964.86
497.344	8114.46
497.713	8148.81
498.082	8324.17
498.452	8480.55
498.821	8564.17
499.19	8655.69
499.559	8718.06
499.928	8889.58
500.298	8941.33
500.667	9114.21
501.036	9153.08
501.405	9269.46
501.774	9267.65
502.143	9418.61
502.512	9550.81
502.88	9674.42
503.249	9653.4
503.618	9775.21
503.987	9854.76
504.356	9920.74
504.724	10047.74
505.093	10089.1
505.462	10149.21
505.83	10226.04
506.199	10290.45
506.567	10477.56
506.936	10537.67
507.304	10676.65
507.672	10703.77
508.041	10720.27
508.409	10793.49
508.777	10859.7
509.145	10951.22
509.514	10962.07
509.882	11050.88
510.25	11135.85
510.618	11138.56
510.986	11132.91
511.354	11289.52
511.722	11354.6
512.09	11432.57
512.458	11438.22
512.826	11477.76
513.193	11579.23
513.561	11616.29
513.929	11613.13
514.297	11736.51
514.664	11796.62
515.032	11768.6
515.4	11796.17
515.767	11915.04
516.135	11942.38
516.502	11867.13
516.869	12116.39
517.237	12113.68
517.604	12054.47
517.972	12171.08
518.339	12186.67
518.706	12178.08
519.073	12167.69
519.44	12266.44
519.808	12323.39
520.175	12264.64
520.542	12427.34
520.909	12470.51
521.276	12380.11
521.643	12521.8
522.009	12527.91
522.376	12646.09
522.743	12521.35
523.11	12659.2
523.477	12750.05
523.843	12753.66
524.21	12831.63
524.577	12877.5
524.943	12803.6
525.31	12851.74
525.676	12973.09
526.043	12951.62
526.409	12921.12
526.776	13068
527.142	13008.8
527.508	13014.67
527.874	13039.53
528.241	13084.27
528.607	13127.89
528.973	13150.71
529.339	13076.14
529.705	13206.08
530.071	13185.74
530.437	13161.56
530.803	13180.77
531.169	13175.12
531.535	13198.85
531.901	13145.06
532.267	13149.36
532.632	13204.72
532.998	13166.98
533.364	13195.91
533.73	13090.15
534.095	13204.05
534.461	13101.45
534.826	13178.96
535.192	13171.96
535.557	13167.66
535.923	13050.15
536.288	13117.04
536.653	13078.85
537.019	12996.82
537.384	13030.26
537.749	12905.52
538.114	13019.64
538.479	12967.44
538.845	12930.83
539.21	12843.83
539.575	12847.44
539.94	12888.35
540.305	12857.16
540.67	12831.85
541.034	12804.96
541.399	12824.17
541.764	12733.55
542.129	12691.29
542.494	12692.19
542.858	12640.9
543.223	12606.32
543.587	12660.33
543.952	12536.72
544.316	12497.62
544.681	12527
545.045	12529.49
545.41	12517.28
545.774	12464.63
546.138	12395.48
546.503	12478.41
546.867	12325.65
547.231	12383.05
547.595	12335.82
547.959	12368.14
548.324	12247.23
548.688	12190.74
549.052	12204.75
549.416	12218.08
549.779	12150.06
550.143	12038.88
550.507	12168.82
550.871	12087.46
551.235	12053.57
551.599	12034.36
551.962	12073.68
552.326	11977.41
552.689	12051.76
553.053	11898.54
553.417	11880.24
553.78	12024.64
554.143	11866.68
554.507	11816.29
554.87	11847.7
555.234	11934.47
555.597	11804.31
555.96	11847.92
556.323	11823.74
556.686	11864.19
557.05	11886.11
557.413	11798.43
557.776	11775.61
558.139	11740.36
558.502	11808.15
558.865	11762.28
559.228	11828.71
559.59	11797.53
559.953	11814.7
560.316	11924.53
560.679	11829.17
561.041	11881.59
561.404	11841.14
561.767	11874.14
562.129	11733.8
562.492	11889.73
562.854	11835.49
563.217	11779.68
563.579	11860.8
563.941	11824.19
564.304	11895.83
564.666	11883.85
565.028	11856.74
565.39	11855.61
565.753	11999.33
566.115	11940.35
566.477	11988.26
566.839	11917.3
567.201	11962.5
567.563	11970.18
567.925	12045.88
568.287	11955.94
568.648	11978.99
569.01	12054.47
569.372	12070.06
569.734	11976.51
570.095	12086.11
570.457	12091.76
570.819	12122.49
571.18	12108.93
571.542	12255.14
571.903	12122.27
572.265	12158.42
572.626	12148.03
572.987	12116.84
573.349	12193.68
573.71	12203.39
574.071	12204.07
574.432	12273.9
574.794	12280.68
575.155	12250.17
575.516	12192.77
575.877	12220.57
576.238	12282.49
576.599	12272.09
576.96	12197.74
577.32	12270.28
577.681	12278.87
578.042	12308.48
578.403	12296.72
578.763	12314.35
579.124	12267.57
579.485	12365.2
579.845	12374.69
580.206	12381.47
580.566	12328.81
580.927	12296.27
581.287	12316.61
581.648	12255.37
582.008	12375.82
582.368	12299.66
582.728	12272.32
583.089	12333.79
583.449	12279.32
583.809	12270.06
584.169	12207.01
584.529	12270.74
584.889	12325.42
585.249	12198.65
585.609	12270.06
585.969	12291.75
586.329	12246.78
586.688	12291.08
587.048	12197.97
587.408	12186.22
587.768	12188.48
588.127	12250.17
588.487	12114.81
588.846	12276.61
589.206	12117.52
589.565	12143.73
589.925	12174.24
590.284	12116.62
590.643	12156.84
591.003	12133.57
591.362	12127.24
591.721	12091.98
592.08	12047.92
592.44	12140.34
592.799	12104.87
593.158	12172.21
593.517	12075.94
593.876	12154.13
594.235	12010.86
594.593	12122.49
594.952	12078.65
595.311	12051.76
595.67	12064.41
596.029	12135.6
596.387	12145.32
596.746	12085.2
597.104	12011.31
597.463	12021.48
597.822	12045.21
598.18	11989.39
598.538	12015.6
598.897	12089.72
599.255	11949.39
599.613	12081.36
599.972	12033.45
600.33	12032.78
600.688	11933.12
601.046	12066.22
601.404	12036.62
601.762	12068.48
602.12	12096.96
602.478	12085.2
602.836	12068.48
603.194	11993.23
603.552	12036.62
603.91	12053.57
604.268	11986.68
604.625	12006.11
604.983	12088.37
605.341	11960.01
605.698	12017.18
606.056	12042.95
606.413	12088.37
606.771	12089.95
607.128	12040.23
607.485	11984.64
607.843	11983.74
608.2	12129.72
608.557	12074.81
608.914	12068.26
609.272	12133.79
609.629	12131.08
609.986	12152.55
610.343	12139.67
610.7	12321.58
611.057	12240.45
611.414	12168.14
611.771	12152.1
612.127	12090.85
612.484	12291.08
612.841	12200.46
613.198	12197.29
613.554	12173.56
613.911	12252.21
614.267	12270.51
614.624	12233.45
614.98	12236.61
615.337	12222.83
615.693	12343.73
616.05	12337.85
616.406	12425.76
616.762	12279.55
617.118	12293.11
617.475	12372.43
617.831	12374.69
618.187	12301.24
618.543	12363.39
618.899	12423.5
619.255	12373.11
619.611	12391.64
619.967	12480.67
620.323	12441.35
620.678	12392.09
621.034	12380.56
621.39	12413.33
621.746	12352.99
622.101	12463.05
622.457	12423.05
622.812	12485.87
623.168	12453.78
623.523	12419.66
623.879	12427.34
624.234	12421.92
624.589	12421.02
624.945	12426.89
625.3	12431.41
625.655	12407.68
626.01	12403.84
626.365	12423.73
626.72	12435.03
627.075	12446.78
627.43	12405.87
627.785	12318.19
628.14	12419.21
628.495	12342.37
628.85	12354.35
629.205	12361.81
629.559	12431.64
629.914	12296.5
630.269	12388.25
630.623	12274.58
630.978	12243.17
631.332	12297.4
631.687	12324.97
632.041	12248.14
632.396	12268.7
632.75	12252.43
633.104	12223.96
633.459	12138.76
633.813	12245.2
634.167	12214.02
634.521	12198.87
634.875	12158.42
635.229	12153.68
635.583	12089.95
635.937	12065.77
636.291	12123.85
636.645	12118.2
636.999	12080.23
637.352	12125.66
637.706	12097.86
638.06	12054.25
638.413	11980.57
638.767	11996.17
639.121	12074.81
639.474	11976.06
639.828	11994.81
640.181	11922.27
640.534	12054.7
640.888	11921.37
641.241	11867.58
641.594	11899.9
641.947	11916.17
642.301	11824.42
642.654	11849.73
643.007	11886.57
643.36	11844.76
643.713	11918.43
644.066	11899.9
644.419	11744.2
644.771	11734.48
645.124	11582.62
645.477	11602.51
645.83	11507.82
646.182	11466.92
646.535	11456.97
646.888	11486.58
647.24	11442.96
647.593	11493.58
647.945	11501.49
648.298	11422.62
648.65	11431.89
649.002	11415.84
649.355	11405.67
649.707	11430.08
650.059	11456.29
650.411	11675.27
650.763	11645.67
651.115	11756.63
651.467	11679.34
651.819	11675.95
652.171	11741.03
652.523	11666.23
652.875	11604.77
653.227	11655.16
653.578	11729.73
653.93	11695.16
654.282	11695.61
654.633	11602.96
654.985	11646.35
655.337	11725.89
655.688	11691.09
656.039	11713.24
656.391	11654.26
656.742	11680.02
657.094	11728.83
657.445	11735.84
657.796	11723.86
658.147	11690.86
658.498	11760.24
658.849	11730.19
659.2	11687.93
659.551	11587.59
659.902	11772.67
660.253	11639.11
660.604	11694.48
660.955	11663.97
661.306	11717.53
661.656	11688.83
662.007	11779
662.358	11677.31
662.708	11798.66
663.059	11725.89
663.409	11736.74
663.76	11845.21
664.11	11795.27
664.461	11797.53
664.811	11749.62
665.161	11794.37
665.511	11742.16
665.862	11754.37
666.212	11721.37
666.562	11768.38
666.912	11817.42
667.262	11765.21
667.612	11735.38
667.962	11764.76
668.312	11742.84
668.662	11789.39
669.011	11711.2
669.361	11792.11
669.711	11671.88
670.06	11734.48
670.41	11674.82
670.76	11699.9
671.109	11784.87
671.459	11659.45
671.808	11711.2
672.157	11674.14
672.507	11590.98
672.856	11624.65
673.205	11613.58
673.554	11649.28
673.904	11593.24
674.253	11684.31
674.602	11564.77
674.951	11433.92
675.3	11406.8
675.649	11562.51
675.998	11595.95
676.346	11607.25
676.695	11554.82
677.044	11554.6
677.393	11546.91
677.741	11540.81
678.09	11516.41
678.438	11493.58
678.787	11417.88
679.135	11457.88
679.484	11382.4
679.832	11468.27
680.181	11358.22
680.529	11364.09
680.877	11343.08
681.225	11274.38
681.573	11378.1
681.922	11355.96
682.27	11188.05
682.618	11252.46
682.966	11215.62
683.314	11207.49
683.661	11269.63
684.009	11155.29
684.357	11130.2
684.705	11136.76
685.053	11230.76
685.4	11085.01
685.748	10985.8
686.095	11052.01
686.443	11016.76
686.79	10998.91
687.138	11028.51
687.485	10916.65
687.832	10948.29
688.18	10970.43
688.527	10892.47
688.874	10875.07
689.221	10845.46
689.568	10859.25
689.915	10793.94
690.262	10763.21
690.609	10692.02
690.956	10665.58
691.303	10733.38
691.65	10647.28
691.997	10604.11
692.344	10490.22
692.69	10515.08
693.037	10498.81
693.383	10420.16
693.73	10478.69
694.077	10330.22
694.423	10337.45
694.769	10332.03
695.116	10278.92
695.462	10271.47
695.808	10207.97
696.155	10259.49
696.501	10192.37
696.847	10145.14
697.193	10049.78
697.539	10085.94
697.885	10064.92
698.231	9957.8
698.577	9989.44
698.923	9965.94
699.269	9909.89
699.614	9847.07
699.96	9803.68
700.306	9838.26
700.651	9753.97
700.997	9786.51
701.342	9788.54
701.688	9641.88
702.033	9720.07
702.379	9676
702.724	9577.93
703.069	9614.31
703.415	9468.55
703.76	9499.51
704.105	9518.04
704.45	9454.31
704.795	9395.56
705.14	9417.48
705.485	9378.61
705.83	9238.95
706.175	9325.28
706.52	9242.34
706.865	9224.72
707.209	9211.61
707.554	9144.72
707.899	9125.06
708.243	9106.75
708.588	9080.54
708.932	9065.17
709.277	9075.11
709.621	9068.34
709.966	8939.52
710.31	9027.88
710.654	8931.84
710.998	8889.36
711.342	8933.88
711.687	8880.32
712.031	8848
712.375	8830.6
712.719	8826.31
713.063	8852.52
713.407	8867.89
713.75	8748.8
714.094	8780.21
714.438	8767.1
714.782	8693.88
715.125	8718.51
715.469	8674
715.812	8652.98
716.156	8662.92
716.499	8615.69
716.843	8633.09
717.186	8554
717.53	8609.59
717.873	8597.61
718.216	8604.62
718.559	8595.13
718.902	8549.03
719.246	8521.46
719.589	8512.19
719.932	8435.36
720.275	8475.13
720.617	8486.2
720.96	8454.34
721.303	8474.68
721.646	8492.08
721.989	8415.7
722.331	8523.94
722.674	8428.13
723.016	8447.33
723.359	8378.86
723.701	8402.59
724.044	8405.3
724.386	8346.09
724.729	8361.46
725.071	8371.63
725.413	8308.81
725.755	8374.12
726.097	8292.31
726.439	8234.23
726.782	8326.21
727.124	8357.17
727.465	8265.42
727.807	8272.2
728.149	8297.06
728.491	8327.56
728.833	8273.78
729.175	8340.67
729.516	8238.75
729.858	8252.09
730.199	8222.03
730.541	8226.78
730.882	8198.75
731.224	8300.67
731.565	8187.45
731.906	8187.68
732.248	8243.95
732.589	8175.93
732.93	8186.32
733.271	8163.95
733.612	8247.34
733.953	8155.36
734.294	8168.02
734.635	8165.08
734.976	8264.74
735.317	8152.43
735.658	8182.03
735.999	8187.23
736.339	8194.91
736.68	8230.16
737.021	8194.01
737.361	8144.07
737.702	8210.73
738.042	8198.53
738.383	8215.93
738.723	8235.36
739.063	8266.1
739.404	8247.79
739.744	8250.96
740.084	8213.89
740.424	8297.28
740.764	8274.23
741.104	8399.43
741.444	8332.31
741.784	8269.26
742.124	8377.73
742.464	8346.55
742.804	8383.83
743.143	8405.98
743.483	8452.53
743.823	8361.01
744.162	8416.83
744.502	8504.28
744.841	8527.11
745.181	8502.02
745.52	8533.21
745.86	8601.91
746.199	8598.97
746.538	8614.34
746.877	8714.22
747.216	8734.11
747.556	8785.18
747.895	8773.43
748.234	8843.03
748.573	8889.13
748.911	8914.44
749.25	8974.33
749.589	9024.95
749.928	9105.62
750.267	9196.47
750.605	9199.63
750.944	9271.49
751.283	9356.46
751.621	9470.13
751.96	9508.78
752.298	9608.21
752.636	9715.32
752.975	9764.36
753.313	9848.65
753.651	10016.78
753.989	10061.53
754.327	10153.73
754.666	10269.66
755.004	10387.62
755.342	10515.08
755.679	10590.1
756.017	10603.66
756.355	10858.57
756.693	10993.48
757.031	11106.93
757.368	11178.11
757.706	11382.17
758.044	11497.88
758.381	11690.64
758.719	11779.22
759.056	11914.14
759.394	12118.65
759.731	12134.92
760.068	12346.21
760.405	12457.4
760.743	12578.75
761.08	12785.75
761.417	12990.72
761.754	13155.46
762.091	13279.98
762.428	13396.58
762.765	13529.91
763.102	13821.2
763.438	13874.08
763.775	13931.03
764.112	14130.57
764.449	14351.13
764.785	14472.49
765.122	14538.93
765.458	14759.48
765.795	14877.9
766.131	15046.71
766.467	15098.91
766.804	15145.46
767.14	15337.55
767.476	15476.3
767.812	15622.96
768.148	15761.49
768.485	15884.2
768.821	15907.93
769.157	16037.64
769.492	16209.62
769.828	16264.98
770.164	16290.52
770.5	16435.6
770.836	16529.61
771.171	16487.57
771.507	16695.48
771.842	16619.1
772.178	16834.46
772.513	16952.65
772.849	17021.35
773.184	17054.11
773.519	17234.67
773.855	17233.54
774.19	17279.19
774.525	17278.51
774.86	17423.37
775.195	17433.09
775.53	17416.59
775.865	17512.63
776.2	17518.96
776.535	17514.21
776.87	17656.58
777.205	17515.12
777.539	17664.95
777.874	17712.18
778.209	17666.3
778.543	17705.4
778.878	17723.93
779.212	17860.42
779.547	17746.3
779.881	17791.72
780.215	17756.92
780.55	17958.04
780.884	17692.29
781.218	17821.33
781.552	17789.46
781.886	17804.83
782.22	17727.09
782.554	17765.28
782.888	17685.74
783.222	17698.39
783.556	17734.32
783.889	17751.5
784.223	17630.14
784.557	17617.94
784.89	17737.71
785.224	17572.52
785.557	17608
785.891	17619.3
786.224	17548.56
786.558	17612.52
786.891	17528
787.224	17485.74
787.557	17445.52
787.891	17522.58
788.224	17482.58
788.557	17504.95
788.89	17516.47
789.223	17465.4
789.556	17278.97
789.888	17337.72
790.221	17328.68
790.554	17188.12
790.887	17200.78
791.219	17187.67
791.552	17185.64
791.884	17124.85
792.217	17088.24
792.549	17047.11
792.882	16979.09
793.214	16929.82
793.546	16987.67
793.879	16875.59
794.211	16894.57
794.543	16897.28
794.875	16808.92
795.207	16906.32
795.539	16758.08
795.871	16708.13
796.203	16638.08
796.535	16589.04
796.867	16581.81
797.198	16511.08
797.53	16581.13
797.862	16422.27
798.193	16494.58
798.525	16397.86
798.856	16478.99
799.188	16245.1
799.519	16270.86
799.85	16182.5
800.182	16304.98
800.513	16170.3
800.844	16168.49
801.175	16189.96
801.506	16171.43
801.837	15992.9
802.168	16028.83
802.499	16051.65
802.83	15891.66
803.161	15909.29
803.491	15877.87
803.822	15977.53
804.153	15779.34
804.483	15732.57
804.814	15638.33
805.145	15659.35
805.475	15575.06
805.805	15604.43
806.136	15580.48
806.466	15572.57
806.796	15538.22
807.126	15423.42
807.457	15403.31
807.787	15406.93
808.117	15304.56
808.447	15318.79
808.777	15318.34
809.107	15218.91
809.436	15155.63
809.766	15148.63
810.096	15112.02
810.426	15140.27
810.755	15036.77
811.085	15041.06
811.414	15083.32
811.744	14964.9
812.073	14975.75
812.403	14936.43
812.732	14884.91
813.061	14949.31
813.39	14811.23
813.719	14719.03
814.049	14820.73
814.378	14776.43
814.707	14720.39
815.036	14650.79
815.365	14608.08
815.693	14516.33
816.022	14566.04
816.351	14488.53
816.68	14447.18
817.008	14529.21
817.337	14436.1
817.665	14382.09
817.994	14352.49
818.322	14340.06
818.651	14340.96
818.979	14198.6
819.307	14388.65
819.636	14236.56
819.964	14267.29
820.292	14301.87
820.62	14316.11
820.948	14177.35
821.276	14273.85
821.604	14187.75
821.932	14238.37
822.259	14187.3
822.587	14258.48
822.915	14085.38
823.243	14250.8
823.57	14159.95
823.898	14311.14
824.225	14055.1
824.553	14114.98
824.88	14156.56
825.207	14227.07
825.535	14199.73
825.862	14238.82
826.189	14114.76
826.516	14280.63
826.843	14194.98
827.17	14190.46
827.497	14141.2
827.824	14158.82
828.151	14250.12
828.478	14224.81
828.805	14214.41
829.131	14067.07
829.458	14148.65
829.785	14133.29
830.111	14069.11
830.438	14233.62
830.764	14218.93
831.09	14210.57
831.417	14101.87
831.743	14112.04
832.069	14122.21
832.395	14056.45
832.722	14204.7
833.048	14075.21
833.374	14101.2
833.7	14014.65
834.026	14012.84
834.351	14086.28
834.677	14023.01
835.003	14108.2
835.329	14035.44
835.654	14045.38
835.98	13991.6
836.306	13979.84
836.631	13972.84
836.956	13979.17
837.282	13964.7
837.607	13949.11
837.932	13921.77
838.258	13882.22
838.583	13848.1
838.908	13749.12
839.233	13868.43
839.558	13745.95
839.883	13780.08
840.208	13724.48
840.533	13723.58
840.858	13659.63
841.182	13592.06
841.507	13631.83
841.832	13541.66
842.156	13552.74
842.481	13518.61
842.805	13577.82
843.13	13570.36
843.454	13466.86
843.778	13452.63
844.103	13400.2
844.427	13439.97
844.751	13332.4
845.075	13324.95
845.399	13287.66
845.723	13237.04
846.047	13258.06
846.371	13134.89
846.695	13126.99
847.019	13025.52
847.343	12994.33
847.666	12966.76
847.99	12872.3
848.313	12905.07
848.637	12826.43
848.96	12779.42
849.284	12727.9
849.607	12581.24
849.931	12727.9
850.254	12460.34
850.577	12505.76
850.9	12307.12
851.223	12275.26
851.546	12308.25
851.869	12176.5
852.192	12285.2
852.515	12167.01
852.838	12111.42
853.161	12080.23
853.483	12071.19
853.806	11992.78
854.129	11998.2
854.451	11899
854.774	11914.14
855.096	11863.29
855.419	11862.16
855.741	11773.57
856.063	11799.79
856.385	11700.58
856.708	11682.73
857.03	11691.99
857.352	11660.36
857.674	11577.2
857.996	11555.5
858.318	11459.01
858.64	11486.8
858.961	11419.46
859.283	11402.74
859.605	11299.46
859.926	11343.53
860.248	11331.1
860.57	11283.42
860.891	11305.79
861.212	11226.24
861.534	11189.41
861.855	11151.9
862.176	11182.86
862.498	11190.99
862.819	11115.29
863.14	11099.69
863.461	11058.11
863.782	11002.3
864.103	11106.47
864.424	10976.53
864.745	11021.05
865.065	10947.16
865.386	10943.77
865.707	10902.41
866.027	10975.18
866.348	10861.96
866.668	10849.76
866.989	10857.21
867.309	10828.97
867.63	10792.81
867.95	10769.31
868.27	10691.8
868.59	10698.57
868.91	10764.34
869.23	10683.66
869.55	10734.05
869.87	10668.74
870.19	10682.3
870.51	10693.6
870.83	10694.05
871.15	10600.5
871.469	10620.61
871.789	10602.98
872.109	10554.17
872.428	10500.39
872.748	10553.27
873.067	10560.27
873.386	10511.46
873.706	10598.46
874.025	10446.83
874.344	10447.73
874.663	10457.68
874.982	10402.76
875.301	10390.11
875.62	10388.3
875.939	10373.16
876.258	10421.52
876.577	10267.63
876.896	10325.93
877.214	10334.74
877.533	10281.64
877.852	10267.85
878.17	10228.98
878.489	10194.41
878.807	10265.82
879.125	10161.41
879.444	10172.49
879.762	10214.97
880.08	10174.97
880.398	10065.14
880.716	10191.47
881.034	10053.17
881.352	10133.62
881.67	10081.87
881.988	10066.95
882.306	10000.51
882.624	9967.52
882.941	9961.64
883.259	9887.07
883.577	9895.43
883.894	9873.51
884.212	9847.98
884.529	9904.47
884.846	9850.91
885.164	9841.2
885.481	9781.54
885.798	9761.88
886.115	9748.32
886.432	9716.23
886.75	9694.99
887.067	9672.61
887.383	9683.23
887.7	9643.69
888.017	9608.66
888.334	9673.74
888.651	9601.88
888.967	9556.68
889.284	9479.85
889.6	9435.33
889.917	9435.33
890.233	9420.87
890.55	9379.97
890.866	9383.35
891.182	9388.1
891.498	9214.32
891.815	9301.1
892.131	9216.13
892.447	9231.95
892.763	9141.55
893.079	9165.28
893.395	9129.58
893.71	9099.07
894.026	9141.33
894.342	9028.56
894.657	8979.98
894.973	8989.92
895.289	8993.31
895.604	9031.05
895.92	8867.21
896.235	8877.15
896.55	8862.92
896.865	8787.44
897.181	8801.45
897.496	8765.29
897.811	8705.86
898.126	8721
898.441	8624.73
898.756	8621.34
899.071	8552.42
899.386	8615.47
899.7	8516.03
900.015	8484.62
900.33	8485.53
900.644	8450.5
900.959	8465.41
901.273	8406.43
901.588	8373.89
901.902	8295.02
902.216	8332.99
902.531	8288.24
902.845	8236.04
903.159	8193.78
903.473	8135.93
903.787	8157.4
904.101	8101.81
904.415	8104.29
904.729	8047.57
905.042	7942.04
905.356	8074.91
905.67	7957.86
905.984	8003.5
906.297	7924.18
906.611	7854.81
906.924	7859.78
907.237	7777.75
907.551	7764.87
907.864	7804.87
908.177	7705.21
908.491	7720.35
908.804	7614.36
909.117	7570.3
909.43	7620.46
909.743	7553.12
910.056	7529.84
910.368	7462.05
910.681	7493.24
910.994	7409.4
911.307	7432.22
911.619	7324.2
911.932	7311.77
912.244	7295.73
912.557	7332.56
912.869	7252.34
913.181	7249.4
913.494	7233.81
913.806	7167.37
914.118	7120.36
914.43	7092.34
914.742	7094.38
915.054	7042.85
915.366	6992.23
915.678	6952.46
915.99	6949.29
916.302	6851.9
916.613	6862.07
916.925	6878.79
917.236	6934.83
917.548	6808.73
917.859	6820.94
918.171	6762.41
918.482	6721.28
918.794	6694.16
919.105	6671.56
919.416	6578.68
919.727	6635.63
920.038	6603.54
920.349	6560.6
920.66	6552.24
920.971	6568.74
921.282	6564.45
921.593	6476.99
921.903	6446.71
922.214	6421.85
922.525	6344.79
922.835	6401.74
923.146	6299.37
923.456	6305.92
923.767	6268.86
924.077	6241.97
924.387	6229.99
924.697	6195.19
925.008	6182.31
925.318	6184.12
925.628	6151.58
925.938	6148.19
926.248	6047.17
926.558	6074.29
926.867	6035.87
927.177	6030.22
927.487	6015.99
927.796	5910
928.106	5900.28
928.416	5898.93
928.725	5893.28
929.034	5871.36
929.344	5865.93
929.653	5856.89
929.962	5790.23
930.271	5770.79
930.581	5748.65
930.89	5704.81
931.199	5702.1
931.508	5660.52
931.817	5616.67
932.125	5648.99
932.434	5555.43
932.743	5564.92
933.051	5585.04
933.36	5559.27
933.669	5434.76
933.977	5466.85
934.286	5489.67
934.594	5464.14
934.902	5403.57
935.21	5376.68
935.519	5402.44
935.827	5334.65
936.135	5340.07
936.443	5307.3
936.751	5234.54
937.059	5260.75
937.367	5272.05
937.674	5213.97
937.982	5181.88
938.29	5193.18
938.597	5216.23
938.905	5093.98
939.213	5107.08
939.52	5074.99
939.827	5086.74
940.135	5070.02
940.442	5033.19
940.749	5025.28
941.056	4998.84
941.363	4935.56
941.67	4939.63
941.977	4951.38
942.284	4853.98
942.591	4859.41
942.898	4873.19
943.205	4807.88
943.511	4839.07
943.818	4777.15
944.125	4769.24
944.431	4771.27
944.738	4772.63
945.044	4693.53
945.35	4679.75
945.657	4684.04
945.963	4648.34
946.269	4623.48
946.575	4644.04
946.881	4627.32
947.187	4582.35
947.493	4553.2
947.799	4544.39
948.105	4504.84
948.41	4474.78
948.716	4550.04
949.022	4479.76
949.327	4503.71
949.633	4444.73
949.938	4405.41
950.244	4388.68
950.549	4352.75
950.854	4353.2
951.16	4337.16
951.465	4305.52
951.77	4251.06
952.075	4294
952.38	4250.38
952.685	4220.1
952.99	4227.56
953.294	4195.47
953.599	4143.49
953.904	4180.33
954.209	4094.91
954.513	4101.01
954.818	4094.68
955.122	4106.43
955.426	4083.38
955.731	4084.29
956.035	4064.62
956.339	4016.26
956.643	4030.05
956.948	3989.37
957.252	3941.46
957.556	3931.97
957.86	3887.45
958.163	3922.48
958.467	3918.19
958.771	3884.06
959.075	3888.36
959.378	3861.01
959.682	3836.83
959.985	3809.49
960.289	3785.08
960.592	3774.24
960.896	3758.87
961.199	3758.64
961.502	3729.04
961.805	3711.87
962.108	3677.74
962.411	3664.64
962.714	3654.92
963.017	3662.15
963.32	3651.53
963.623	3601.59
963.926	3596.61
964.228	3580.12
964.531	3616.5
964.833	3534.47
965.136	3546.45
965.438	3530.18
965.741	3523.85
966.043	3507.13
966.345	3523.4
966.648	3480.46
966.95	3431.87
967.252	3435.71
967.554	3440.46
967.856	3410.4
968.158	3358.65
968.46	3341.03
968.761	3418.77
969.063	3376.96
969.365	3374.02
969.666	3297.41
969.968	3325.21
970.269	3276.85
970.571	3288.15
970.872	3294.93
971.174	3233.91
971.475	3218.32
971.776	3248.6
972.077	3248.83
972.378	3194.37
972.679	3195.95
972.98	3203.18
973.281	3153.91
973.582	3136.51
973.883	3148.94
974.183	3062.84
974.484	3122.95
974.785	3052
975.085	3059
975.386	3048.83
975.686	3050.19
975.986	3041.83
976.287	3030.3
976.587	3008.61
976.887	2989.4
977.187	2971.09
977.487	2975.39
977.787	2959.57
978.087	2954.82
978.387	2943.52
978.687	2951.43
978.987	2890.42
979.286	2902.4
979.586	2869.63
979.885	2868.05
980.185	2855.39
980.484	2829.85
980.784	2826.01
981.083	2807.26
981.382	2784.88
981.682	2792.12
981.981	2774.26
982.28	2773.36
982.579	2712.34
982.878	2755.28
983.177	2738.11
983.475	2746.24
983.774	2672.12
984.073	2690.42
984.372	2676.64
984.67	2646.36
984.969	2656.07
985.267	2659.01
985.566	2652.01
985.864	2632.8
986.162	2596.64
986.461	2623.98
986.759	2579.01
987.057	2590.77
987.355	2574.95
987.653	2547.15
987.951	2570.65
988.249	2538.79
988.547	2516.19
988.844	2515.96
989.142	2498.34
989.44	2485.01
989.737	2478.23
990.035	2451.56
990.332	2440.26
990.63	2471.22
990.927	2419.47
991.224	2408.17
991.521	2394.61
991.819	2389.64
992.116	2388.06
992.413	2387.61
992.71	2353.03
993.006	2358.45
993.303	2343.54
993.6	2369.75
993.897	2340.6
994.193	2332.47
994.49	2256.08
994.787	2285.69
995.083	2262.86
995.379	2264.9
995.676	2213.15
995.972	2239.59
996.268	2241.17
996.565	2261.06
996.861	2209.76
997.157	2204.56
997.453	2196.2
997.749	2176.31
998.044	2171.57
998.34	2148.29
998.636	2186.93
998.932	2124.56
999.227	2096.77
999.523	2117.33
999.818	2115.52
1000.114	2135.64
1000.409	2051.34
1000.704	2100.61
1001	2052.25
1001.295	2049.99
1001.59	2038.01
1001.885	2000.27
1002.18	2028.29
1002.475	2031.91
1002.77	1980.39
1003.065	1991.46
1003.359	2000.5
1003.654	1957.11
1003.949	1921.18
1004.243	1949.88
1004.538	1898.81
1004.832	1908.75
1005.127	1899.03
1005.421	1888.86
1005.715	1883.44
1006.009	1873.04
1006.304	1878.02
1006.598	1873.95
1006.892	1841.41
1007.186	1818.81
1007.48	1819.94
1007.773	1819.71
1008.067	1799.6
1008.361	1797.11
1008.655	1784.91
1008.948	1753.95
1009.242	1733.84
1009.535	1779.71
1009.829	1756.21
1010.122	1734.52
1010.415	1682.99
1010.708	1708.08
1011.001	1688.64
1011.295	1688.42
1011.588	1663.56
1011.881	1677.34
1012.173	1657.91
1012.466	1644.12
1012.759	1658.81
1013.052	1638.02
1013.344	1645.25
1013.637	1621.3
1013.93	1585.37
1014.222	1590.57
1014.514	1622.88
1014.807	1580.4
1015.099	1558.02
1015.391	1536.78
1015.683	1564.35
1015.976	1585.37
1016.268	1553.05
1016.56	1533.84
1016.851	1509.21
1017.143	1505.37
1017.435	1469.66
1017.727	1479.83
1018.018	1471.47
1018.31	1487.07
1018.602	1455.2
1018.893	1472.15
1019.185	1480.29
1019.476	1428.76
1019.767	1402.32
1020.058	1391.25
1020.35	1415.43
1020.641	1391.7
1020.932	1386.05
1021.223	1358.71
1021.514	1369.55
1021.804	1374.75
1022.095	1360.74
1022.386	1356.22
1022.677	1369.55
1022.967	1345.37
1023.258	1333.62
1023.548	1296.56
1023.839	1289.56
1024.129	1310.8
1024.419	1302.21
1024.709	1250.01
1025	1281.2
1025.29	1274.42
1025.58	1255.66
1025.87	1230.57
1026.16	1222.44
1026.449	1224.02
1026.739	1202.55
1027.029	1202.55
1027.319	1199.84
1027.608	1198.03
1027.898	1197.36
1028.187	1177.02
1028.477	1176.79
1028.766	1187.19
1029.055	1155.55
1029.344	1152.61
1029.634	1131.37
1029.923	1110.35
1030.212	1131.59
1030.501	1117.58
1030.79	1116.68
1031.078	1087.75
1031.367	1106.74
1031.656	1085.95
1031.945	1094.99
1032.233	1099.28
1032.522	1071.26
1032.81	1062.22
1033.099	1076.23
1033.387	1064.03
1033.675	1043.01
1033.963	1031.03
1034.251	1029
1034.54	1019.51
1034.828	1031.03
1035.116	1014.54
1035.403	991.94
1035.691	988.32
1035.979	1011.37
1036.267	1005.27
1036.554	994.2
1036.842	980.19
1037.129	984.48
1037.417	968.21
1037.704	962.33
1037.992	941.09
1038.279	953.29
1038.566	917.81
1038.853	917.81
1039.14	917.81
