Data from hue_190_FLMS001491_00057.txt Node
Date: Tue Feb 07 16:45:29 GMT 2017
User: dcchb
Spectrometer: FLMS00149
Trigger mode: 0
Integration Time (sec): 2.000000E-2
Scans to average: 10
Electric dark correction enabled: true
Nonlinearity correction enabled: false
Boxcar width: 0
XAxis mode: Wavelengths
Number of Pixels in Spectrum: 2048
>>>>>Begin Spectral Data<<<<<
341.393	1.64
341.776	1.64
342.16	1.64
342.543	-57.34
342.927	-67.74
343.31	-34.07
343.693	-62.77
344.077	-80.17
344.46	-66.83
344.843	-49.66
345.226	-45.37
345.61	-18.02
345.993	-37
346.376	-14.18
346.759	22.88
347.142	29.43
347.525	53.16
347.908	48.19
348.291	58.59
348.674	90.22
349.057	105.59
349.44	129.32
349.823	144.23
350.206	168.19
350.588	225.14
350.971	226.04
351.354	235.53
351.737	234.4
352.119	258.81
352.502	265.81
352.884	286.6
353.267	276.43
353.65	295.87
354.032	308.52
354.414	326.6
354.797	323.89
355.179	319.14
355.562	314.85
355.944	308.07
356.326	332.93
356.709	335.41
357.091	333.83
357.473	348.75
357.855	322.31
358.238	348.07
358.62	326.38
359.002	314.4
359.384	342.42
359.766	335.19
360.148	343.55
360.53	339.03
360.912	340.61
361.294	361.18
361.676	350.56
362.057	339.48
362.439	314.17
362.821	320.73
363.203	308.52
363.584	315.98
363.966	321.63
364.348	317.56
364.729	312.36
365.111	322.31
365.493	310.78
365.874	323.89
366.256	319.82
366.637	316.88
367.019	320.05
367.4	281.63
367.781	328.64
368.163	306.04
368.544	300.16
368.925	316.43
369.306	295.87
369.688	309.43
370.069	299.26
370.45	311.46
370.831	310.33
371.212	292.7
371.593	314.17
371.974	288.64
372.355	306.72
372.736	296.77
373.117	322.08
373.498	315.98
373.879	306.26
374.26	334.06
374.641	324.57
375.021	313.27
375.402	315.53
375.783	301.07
376.163	306.72
376.544	320.27
376.925	316.21
377.305	322.53
377.686	321.86
378.066	341.29
378.447	338.35
378.827	356.66
379.208	341.52
379.588	331.8
379.968	334.28
380.349	336.09
380.729	327.96
381.109	342.19
381.489	341.06
381.87	320.05
382.25	343.78
382.63	322.76
383.01	335.19
383.39	337.67
383.77	316.21
384.15	318.47
384.53	346.26
384.91	332.25
385.29	327.73
385.67	351.91
386.049	353.49
386.429	354.4
386.809	351.91
387.189	363.66
387.568	351.23
387.948	358.92
388.328	353.49
388.707	366.83
389.087	358.47
389.466	365.7
389.846	343.78
390.225	374.28
390.605	368.86
390.984	353.04
391.363	377.45
391.743	360.72
392.122	365.24
392.501	375.41
392.881	372.25
393.26	371.12
393.639	376.54
394.018	399.59
394.397	395.3
394.776	378.13
395.155	390.33
395.534	388.75
395.913	377.67
396.292	401.4
396.671	376.54
397.05	400.5
397.429	405.24
397.808	386.26
398.186	386.71
398.565	412.02
398.944	402.53
399.323	414.06
399.701	405.7
400.08	402.98
400.458	407.5
400.837	401.4
401.215	414.96
401.594	382.19
401.972	402.31
402.351	412.7
402.729	419.03
403.107	442.08
403.486	443.43
403.864	428.97
404.242	417.45
404.62	424
404.999	441.4
405.377	462.87
405.755	430.78
406.133	447.5
406.511	454.28
406.889	460.84
407.267	452.7
407.645	488.63
408.023	499.25
408.401	491.12
408.779	475.07
409.156	494.51
409.534	488.63
409.912	514.17
410.29	523.66
410.667	523.66
411.045	535.18
411.422	515.52
411.8	535.86
412.178	542.19
412.555	571.79
412.933	563.88
413.31	579.02
413.687	587.16
414.065	595.97
414.442	604.33
414.819	618.57
415.197	609.76
415.574	629.19
415.951	624.9
416.328	662.41
416.705	643.43
417.082	643.43
417.46	647.72
417.837	658.57
418.214	690.21
418.591	683.88
418.967	678.46
419.344	706.03
419.721	704.44
420.098	699.93
420.475	732.24
420.852	734.5
421.228	747.83
421.605	756.65
421.982	768.17
422.358	760.49
422.735	793.93
423.111	804.56
423.488	828.96
423.864	858.56
424.241	847.72
424.617	855.18
424.994	861.05
425.37	885.68
425.746	901.28
426.123	916.19
426.499	907.6
426.875	934.04
427.251	939.92
427.627	945.34
428.003	950.09
428.379	974.95
428.756	1009.52
429.132	995.28
429.507	1012.69
429.883	1013.59
430.259	1058.56
430.635	1071.44
431.011	1061.72
431.387	1090.65
431.763	1087.03
432.138	1100.82
432.514	1111.44
432.89	1124.77
433.265	1164.32
433.641	1186.24
434.016	1203.87
434.392	1216.97
434.767	1252.9
435.143	1271.89
435.518	1280.47
435.894	1307.59
436.269	1334.71
436.644	1350.98
437.02	1335.84
437.395	1386.91
437.77	1400.7
438.145	1455.61
438.52	1468.72
438.895	1503.97
439.271	1486.57
439.646	1506.23
440.021	1519.56
440.395	1553.01
440.77	1564.08
441.145	1574.25
441.52	1629.84
441.895	1616.74
442.27	1650.86
442.645	1686.34
443.019	1708.94
443.394	1694.48
443.769	1718.88
444.143	1713.68
444.518	1752.55
444.892	1768.82
445.267	1792.1
445.641	1793.91
446.016	1784.64
446.39	1839.78
446.764	1827.58
447.139	1877.07
447.513	1860.8
447.887	1873.23
448.262	1911.87
448.636	1886.33
449.01	1918.42
449.384	1957.29
449.758	1955.94
450.132	2005.88
450.506	2027.12
450.88	2001.13
451.254	2030.06
451.628	2056.95
452.002	2082.04
452.376	2099.89
452.75	2119.32
453.123	2154.58
453.497	2152.32
453.871	2211.52
454.244	2239.32
454.618	2201.13
454.992	2280.22
455.365	2279.77
455.739	2353.89
456.112	2350.5
456.486	2369.94
456.859	2389.6
457.232	2452.2
457.606	2455.13
457.979	2454.91
458.352	2548.24
458.725	2521.12
459.099	2557.05
459.472	2628.69
459.845	2661.91
460.218	2635.69
460.591	2675.69
460.964	2699.42
461.337	2772.41
461.71	2806.54
462.083	2835.46
462.456	2883.14
462.829	2872.07
463.201	2959.75
463.574	2931.05
463.947	2992.29
464.32	3048.56
464.692	3081.11
465.065	3129.69
465.438	3150.48
465.81	3194.1
466.183	3228.9
466.555	3319.29
466.928	3319.52
467.3	3347.99
467.672	3387.31
468.045	3491.94
468.417	3495.33
468.789	3512.51
469.161	3559.96
469.534	3649.23
469.906	3757.7
470.278	3719.05
470.65	3801.76
471.022	3856.9
471.394	3970.8
471.766	4022.78
472.138	4019.16
472.51	4148.65
472.882	4189.55
473.253	4208.08
473.625	4269.77
473.997	4388.42
474.369	4408.98
474.74	4493.5
475.112	4549.09
475.484	4640.39
475.855	4672.93
476.227	4776.88
476.598	4955.18
476.97	4898.23
477.341	5045.8
477.713	5139.36
478.084	5148.85
478.455	5247.15
478.827	5361.27
479.198	5489.18
479.569	5603.75
479.94	5625.9
480.311	5694.6
480.682	5823.18
481.053	5978.88
481.424	6050.29
481.795	6103.62
482.166	6217.97
482.537	6280.12
482.908	6438.53
483.279	6533.22
483.65	6620.67
484.021	6761.69
484.391	6829.03
484.762	6897.05
485.133	6973.88
485.503	7148.57
485.874	7305.63
486.244	7260.43
486.615	7407.77
486.985	7541.78
487.356	7728.89
487.726	7676.46
488.097	7898.61
488.467	7933.86
488.837	8034.2
489.207	8165.04
489.578	8260.86
489.948	8411.59
490.318	8489.55
490.688	8527.74
491.058	8656.78
491.428	8758.7
491.798	8813.38
492.168	8974.06
492.538	9016.77
492.908	9121.17
493.278	9255.86
493.648	9267.84
494.017	9367.72
494.387	9395.29
494.757	9500.82
495.126	9632.35
495.496	9607.94
495.866	9694.72
496.235	9785.11
496.605	9843.87
496.974	9897.2
497.344	9983.52
497.713	10021.04
498.082	10135.61
498.452	10127.02
498.821	10157.53
499.19	10205.44
499.559	10311.2
499.928	10327.69
500.298	10373.34
500.667	10520.23
501.036	10442.49
501.405	10570.17
501.774	10547.12
502.143	10593.68
502.512	10573.34
502.88	10736.95
503.249	10697.18
503.618	10749.6
503.987	10763.39
504.356	10816.27
504.724	10843.39
505.093	10877.74
505.462	10901.69
505.83	10900.79
506.199	11029.82
506.567	11101.69
506.936	11023.27
507.304	11194.34
507.672	11172.19
508.041	11247.67
508.409	11274.34
508.777	11325.41
509.145	11345.52
509.514	11246.77
509.882	11332.19
510.25	11298.29
510.618	11341
510.986	11340.55
511.354	11442.69
511.722	11501.9
512.09	11578.96
512.458	11507.55
512.826	11576.25
513.193	11569.7
513.561	11581.9
513.929	11533.99
514.297	11686.98
514.664	11799.07
515.032	11679.07
515.4	11715.23
515.767	11729.24
516.135	11718.62
516.502	11677.72
516.869	11858.5
517.237	11802.68
517.604	11743.25
517.972	11825.06
518.339	11816.69
518.706	11787.77
519.073	11812.63
519.44	11910.7
519.808	11966.07
520.175	11888.11
520.542	11914.32
520.909	11884.94
521.276	11850.14
521.643	11939.18
522.009	12018.72
522.376	11999.74
522.743	11940.53
523.11	12013.53
523.477	12060.76
523.843	12063.92
524.21	12090.59
524.577	12098.95
524.943	12081.77
525.31	12070.47
525.676	12070.47
526.043	12126.97
526.409	12152.28
526.776	12194.54
527.142	12107.76
527.508	12178.95
527.874	12166.52
528.241	12187.08
528.607	12173.07
528.973	12150.7
529.339	12042.9
529.705	12128.78
530.071	12101.66
530.437	12134.2
530.803	12047.88
531.169	12057.14
531.535	12000.87
531.901	11947.09
532.267	11959.06
532.632	12031.83
532.998	12037.71
533.364	11914.32
533.73	11883.36
534.095	11915
534.461	11864.38
534.826	11849.24
535.192	11818.5
535.557	11812.4
535.923	11684.5
536.288	11671.16
536.653	11595.46
537.019	11635.68
537.384	11560.2
537.749	11542.58
538.114	11498.96
538.479	11472.07
538.845	11378.97
539.21	11352.98
539.575	11305.3
539.94	11259.65
540.305	11271.4
540.67	11148.24
541.034	11131.52
541.399	11111.85
541.764	11075.02
542.129	11015.81
542.494	10996.38
542.858	10968.81
543.223	10885.19
543.587	10867.34
543.952	10822.37
544.316	10746.21
544.681	10694.24
545.045	10680.23
545.41	10645.65
545.774	10609.27
546.138	10463.06
546.503	10512.1
546.867	10447.01
547.231	10399.56
547.595	10430.74
547.959	10355.72
548.324	10348.71
548.688	10200.47
549.052	10206.79
549.416	10127.47
549.779	10085.44
550.143	10096.29
550.507	10009.74
550.871	10017.19
551.235	9932.22
551.599	9934.71
551.962	9880.25
552.326	9783.3
552.689	9835.5
553.053	9712.8
553.417	9699.69
553.78	9702.17
554.143	9612.91
554.507	9568.17
554.87	9518.22
555.234	9631.44
555.597	9471.22
555.96	9407.94
556.323	9443.42
556.686	9405.01
557.05	9427.61
557.413	9386.48
557.776	9353.03
558.139	9347.61
558.502	9330.88
558.865	9285.01
559.228	9241.17
559.59	9245.24
559.953	9186.93
560.316	9267.61
560.679	9246.37
561.041	9202.98
561.404	9221.28
561.767	9204.56
562.129	9147.16
562.492	9149.87
562.854	9099.7
563.217	9059.93
563.579	9101.74
563.941	9143.54
564.304	9087.5
564.666	9109.42
565.028	9045.69
565.39	9082.98
565.753	9005.7
566.115	9058.12
566.477	9082.08
566.839	9084.11
567.201	9074.62
567.563	9069.65
567.925	9059.03
568.287	9081.85
568.648	9082.3
569.01	9058.8
569.372	9091.79
569.734	9061.97
570.095	9098.57
570.457	9054.06
570.819	9069.87
571.18	8963.66
571.542	9054.73
571.903	9070.78
572.265	9050.44
572.626	9087.95
572.987	9066.48
573.349	9029.2
573.71	9025.36
574.071	9000.95
574.432	9032.36
574.794	9094.05
575.155	9035.3
575.516	9009.99
575.877	9054.73
576.238	9032.81
576.599	9037.33
576.96	9025.81
577.32	9049.54
577.681	9040.04
578.042	9041.85
578.403	9063.32
578.763	9097.67
579.124	8986.49
579.485	9042.98
579.845	9042.3
580.206	8975.41
580.566	9016.32
580.927	9002.31
581.287	9060.84
581.648	9021.74
582.008	8984.9
582.368	9008.41
582.728	8962.76
583.089	9007.96
583.449	8963.44
583.809	8913.04
584.169	8942.65
584.529	8901.97
584.889	8978.13
585.249	8932.03
585.609	8812.71
585.969	8957.56
586.329	8906.49
586.688	8960.27
587.048	8867.17
587.408	8857.9
587.768	8875.3
588.127	8806.15
588.487	8798.24
588.846	8814.29
589.206	8839.82
589.565	8760.28
589.925	8804.34
590.284	8810.45
590.643	8744.69
591.003	8833.5
591.362	8798.92
591.721	8779.26
592.08	8788.53
592.44	8797.34
592.799	8781.07
593.158	8738.36
593.517	8682.31
593.876	8708.08
594.235	8697.68
594.593	8709.88
594.952	8711.92
595.311	8673.27
595.67	8701.97
596.029	8653.16
596.387	8671.24
596.746	8750.33
597.104	8709.43
597.463	8642.77
597.822	8654.07
598.18	8583.56
598.538	8613.16
598.897	8741.52
599.255	8577.91
599.613	8744.23
599.972	8660.17
600.33	8648.87
600.688	8533.39
601.046	8677.12
601.404	8705.82
601.762	8660.62
602.12	8644.57
602.478	8673.05
602.836	8632.6
603.194	8529.78
603.552	8622.65
603.91	8608.42
604.268	8597.34
604.625	8553.73
604.983	8645.7
605.341	8596.21
605.698	8586.72
606.056	8592.37
606.413	8598.25
606.771	8605.93
607.128	8627.63
607.485	8628.76
607.843	8627.4
608.2	8635.99
608.557	8697.23
608.914	8607.29
609.272	8653.61
609.629	8652.48
609.986	8607.97
610.343	8670.11
610.7	8660.39
611.057	8634.18
611.414	8638.93
611.771	8656.1
612.127	8694.97
612.484	8686.83
612.841	8693.61
613.198	8681.86
613.554	8664.46
613.911	8737.23
614.267	8675.08
614.624	8686.83
614.98	8648.64
615.337	8679.6
615.693	8658.36
616.05	8666.04
616.406	8735.65
616.762	8698.58
617.118	8708.3
617.475	8660.39
617.831	8740.17
618.187	8775.42
618.543	8760.96
618.899	8753.05
619.255	8751.24
619.611	8710.34
619.967	8794.4
620.323	8813.61
620.678	8713.73
621.034	8720.05
621.39	8767.28
621.746	8652.94
622.101	8771.13
622.457	8738.81
622.812	8728.64
623.168	8766.15
623.523	8766.15
623.879	8761.41
624.234	8752.14
624.589	8768.41
624.945	8742.43
625.3	8741.97
625.655	8749.88
626.01	8757.79
626.365	8709.88
626.72	8766.83
627.075	8793.5
627.43	8809.09
627.785	8757.79
628.14	8717.79
628.495	8708.08
628.85	8736.1
629.205	8699.94
629.559	8765.48
629.914	8679.38
630.269	8700.17
630.623	8661.52
630.978	8657.68
631.332	8697.23
631.687	8701.3
632.041	8619.72
632.396	8617.91
632.75	8627.85
633.104	8602.77
633.459	8574.52
633.813	8522.54
634.167	8534.3
634.521	8509.66
634.875	8571.81
635.229	8548.98
635.583	8487.74
635.937	8522.77
636.291	8501.53
636.645	8540.17
636.999	8470.34
637.352	8464.69
637.706	8420.63
638.06	8480.29
638.413	8475.54
638.767	8466.95
639.121	8501.98
639.474	8395.09
639.828	8400.51
640.181	8414.3
640.534	8440.06
640.888	8405.71
641.241	8325.49
641.594	8384.24
641.947	8388.08
642.301	8332.49
642.654	8381.08
643.007	8388.08
643.36	8312.61
643.713	8308.09
644.066	8345.83
644.419	8320.06
644.771	8290.69
645.124	8173.85
645.477	8214.98
645.83	8149.22
646.182	8149.22
646.535	8080.75
646.888	8099.5
647.24	8036.68
647.593	8064.25
647.945	8094.53
648.298	7956.46
648.65	8014.31
649.002	8049.11
649.355	8027.42
649.707	8088.66
650.059	8086.17
650.411	8224.7
650.763	8209.33
651.115	8159.16
651.467	8224.02
651.819	8245.26
652.171	8278.71
652.523	8241.2
652.875	8213.17
653.227	8254.75
653.578	8264.47
653.93	8241.65
654.282	8186.28
654.633	8217.02
654.985	8158.26
655.337	8255.21
655.688	8187.64
656.039	8226.28
656.391	8177.92
656.742	8194.19
657.094	8222.44
657.445	8212.27
657.796	8162.33
658.147	8156.68
658.498	8179.05
658.849	8232.61
659.2	8254.75
659.551	8226.28
659.902	8258.82
660.253	8238.26
660.604	8252.72
660.955	8237.81
661.306	8252.49
661.656	8249.11
662.007	8252.95
662.358	8287.07
662.708	8273.74
663.059	8271.93
663.409	8233.74
663.76	8281.42
664.11	8240.07
664.461	8318.93
664.811	8283.23
665.161	8271.25
665.511	8272.83
665.862	8298.14
666.212	8311.7
666.562	8311.25
666.912	8292.49
667.262	8284.58
667.612	8331.36
667.962	8276.45
668.312	8283.23
668.662	8330.68
669.011	8327.52
669.361	8318.26
669.711	8283.23
670.06	8300.86
670.41	8284.58
670.76	8242.78
671.109	8330.01
671.459	8258.6
671.808	8265.15
672.157	8346.5
672.507	8229.22
672.856	8215.66
673.205	8250.01
673.554	8265.83
673.904	8218.15
674.253	8246.39
674.602	8181.54
674.951	8075.1
675.3	8010.24
675.649	8218.6
675.998	8154.64
676.346	8186.51
676.695	8208.88
677.044	8170.69
677.393	8146.51
677.741	8080.07
678.09	8115.1
678.438	8130.46
678.787	8071.71
679.135	8093.4
679.484	8072.16
679.832	8051.37
680.181	8028.09
680.529	8058.6
680.877	7955.55
681.225	8037.59
681.573	8019.28
681.922	8008.66
682.27	7918.04
682.618	7913.52
682.966	7892.73
683.314	7900.64
683.661	7937.25
684.009	7840.08
684.357	7873.75
684.705	7843.92
685.053	7847.99
685.4	7821.55
685.748	7780.42
686.095	7797.37
686.443	7696.58
686.79	7699.97
687.138	7718.5
687.485	7710.81
687.832	7713.75
688.18	7658.39
688.527	7657.93
688.874	7669.23
689.221	7651.15
689.568	7584.49
689.915	7586.3
690.262	7564.38
690.609	7504.49
690.956	7501.33
691.303	7517.15
691.65	7490.48
691.997	7493.19
692.344	7380.65
692.69	7396.02
693.037	7391.95
693.383	7322.8
693.73	7346.98
694.077	7255.46
694.423	7269.7
694.769	7233.76
695.116	7268.11
695.462	7232.86
695.808	7192.41
696.155	7171.62
696.501	7192.64
696.847	7061.79
697.193	7077.38
697.539	7001.91
697.885	6989.48
698.231	6992.64
698.577	7012.98
698.923	6938.63
699.269	6904.06
699.614	6907.67
699.96	6778.41
700.306	6863.38
700.651	6800.56
700.997	6770.27
701.342	6754.68
701.688	6758.97
702.033	6747
702.379	6690.05
702.724	6656.38
703.069	6644.85
703.415	6611.41
703.76	6674.68
704.105	6615.25
704.45	6541.13
704.795	6541.35
705.14	6483.28
705.485	6493.22
705.83	6442.37
706.175	6418.87
706.52	6434.24
706.865	6369.38
707.209	6374.35
707.554	6390.85
707.899	6415.93
708.243	6359.89
708.588	6366.67
708.932	6289.16
709.277	6289.38
709.621	6257.52
709.966	6235.6
710.31	6248.25
710.654	6220.23
710.998	6193.57
711.342	6213.68
711.687	6148.6
712.031	6119.67
712.375	6171.42
712.719	6130.74
713.063	6108.14
713.407	6085.09
713.75	6076.28
714.094	6065.89
714.438	6070.41
714.782	6076.28
715.125	6015.94
715.469	6069.73
715.812	6072.44
716.156	5994.02
716.499	6017.53
716.843	5959.45
717.186	6005.32
717.53	5995.83
717.873	5993.8
718.216	5972.33
718.559	5916.06
718.902	5906.79
719.246	5904.08
719.589	5942.95
719.932	5917.64
720.275	5940.69
720.617	5852.11
720.96	5893.46
721.303	5891.43
721.646	5877.87
721.989	5795.61
722.331	5884.42
722.674	5927.13
723.016	5875.61
723.359	5930.3
723.701	5859.34
724.044	5875.61
724.386	5864.99
724.729	5881.71
725.071	5840.58
725.413	5824.76
725.755	5844.2
726.097	5824.54
726.439	5823.63
726.782	5831.09
727.124	5848.04
727.465	5757.87
727.807	5775.5
728.149	5793.58
728.491	5760.36
728.833	5756.97
729.175	5747.93
729.516	5765.33
729.858	5774.82
730.199	5799.9
730.541	5808.94
730.882	5802.84
731.224	5797.64
731.565	5753.35
731.906	5781.15
732.248	5782.96
732.589	5788.83
732.93	5794.03
733.271	5753.35
733.612	5745.44
733.953	5802.39
734.294	5809.4
734.635	5811.66
734.976	5801.03
735.317	5759.23
735.658	5800.13
735.999	5763.97
736.339	5779.57
736.68	5833.35
737.021	5833.35
737.361	5829.06
737.702	5838.77
738.042	5788.83
738.383	5879
738.723	5855.04
739.063	5883.97
739.404	5859.56
739.744	5891.43
740.084	5883.74
740.424	5921.26
740.764	5952.44
741.104	5998.77
741.444	5884.2
741.784	5924.65
742.124	5941.14
742.464	5996.96
742.804	6013.23
743.143	6012.55
743.483	6020.92
743.823	6005.1
744.162	6113.34
744.502	6097.07
744.841	6068.6
745.181	6152.44
745.52	6133.68
745.86	6217.75
746.199	6223.85
746.538	6252.1
746.877	6322.38
747.216	6389.49
747.556	6370.06
747.895	6398.98
748.234	6454.35
748.573	6516.04
748.911	6594.91
749.25	6653.89
749.589	6612.76
749.928	6772.31
750.267	6789.26
750.605	6884.17
750.944	6904.51
751.283	6958.74
751.621	7072.19
751.96	7134.78
752.298	7278.96
752.636	7333.65
752.975	7485.74
753.313	7448.67
753.651	7678.27
753.989	7765.05
754.327	7761.66
754.666	7925.27
755.004	8089.56
755.342	8217.69
755.679	8348.76
756.017	8390.12
756.355	8603.22
756.693	8737.91
757.031	8837.11
757.368	8978.8
757.706	9129.31
758.044	9332.69
758.381	9441.62
758.719	9595.06
759.056	9747.37
759.394	9947.37
759.731	10010.19
760.068	10190.52
760.405	10352.33
760.743	10568.82
761.08	10709.83
761.417	10926.55
761.754	11040.67
762.091	11239.99
762.428	11341.45
762.765	11504.61
763.102	11762.23
763.438	11944.83
763.775	12065.05
764.112	12239.06
764.449	12484.47
764.785	12629.1
765.122	12735.31
765.458	12905.93
765.795	13060.73
766.131	13210.1
766.467	13362.42
766.804	13491.91
767.14	13659.81
767.476	13810.31
767.812	13907.26
768.148	14127.37
768.485	14254.82
768.821	14302.05
769.157	14569.39
769.492	14636.73
769.828	14844.64
770.164	14923.51
770.5	14981.81
770.836	15169.15
771.171	15247.79
771.507	15351.74
771.842	15506.77
772.178	15590.83
772.513	15688.01
772.849	15808
773.184	15779.75
773.519	15976.13
773.855	16095.68
774.19	16154.43
774.525	16193.75
774.86	16333.41
775.195	16391.72
775.53	16408.66
775.865	16424.48
776.2	16543.8
776.535	16461.32
776.87	16624.93
777.205	16625.61
777.539	16763.91
777.874	16721.42
778.209	16727.07
778.543	16924.36
778.878	16805.04
779.212	16925.49
779.547	16915.09
779.881	17184.46
780.215	16981.76
780.55	17077.35
780.884	17064.47
781.218	17066.27
781.552	17173.62
781.886	17091.58
782.22	17057.01
782.554	17181.3
782.888	17049.1
783.222	17096.56
783.556	17033.73
783.889	17066.27
784.223	17000.74
784.557	17082.32
784.89	17158.02
785.224	17054.07
785.557	17072.6
785.891	17035.31
786.224	17052.49
786.558	17164.12
786.891	16995.77
787.224	16963.68
787.557	17033.28
787.891	16990.12
788.224	17086.16
788.557	17079.61
788.89	17073.28
789.223	16950.8
789.556	16981.76
789.888	17002.32
790.221	16878.93
790.554	16834.42
790.887	16836.22
791.219	16812.04
791.552	16779.95
791.884	16736.79
792.217	16812.95
792.549	16779.5
792.882	16634.65
793.214	16703.35
793.546	16699.73
793.879	16619.28
794.211	16511.71
794.543	16545.61
794.875	16575.89
795.207	16585.38
795.539	16690.47
795.871	16547.87
796.203	16343.36
796.535	16348.1
796.867	16322.79
797.198	16272.4
797.53	16374.09
797.862	16209.57
798.193	16270.82
798.525	16142.23
798.856	16203.02
799.188	16022.46
799.519	16037.83
799.85	15928.45
800.182	16018.84
800.513	16079.18
800.844	15882.58
801.175	15958.28
801.506	15917.15
801.837	15828.11
802.168	15830.83
802.499	15788.79
802.83	15728
803.161	15730.94
803.491	15640.32
803.822	15660.66
804.153	15597.61
804.483	15520.78
804.814	15452.31
805.145	15511.97
805.475	15465.86
805.805	15424.06
806.136	15403.49
806.466	15452.76
806.796	15411.85
807.126	15319.43
807.457	15290.73
807.787	15233.1
808.117	15196.49
808.447	15156.49
808.777	15164.4
809.107	15147.68
809.436	15024.52
809.766	15064.29
810.096	15018.42
810.426	15009.61
810.755	15072.2
811.085	14962.6
811.414	14948.59
811.744	14846.22
812.073	14880.34
812.403	14820.46
812.732	14768.03
813.061	14857.97
813.39	14745.21
813.719	14730.74
814.049	14778.65
814.378	14763.74
814.707	14700.23
815.036	14614.81
815.365	14559.9
815.693	14475.83
816.022	14562.61
816.351	14545.89
816.68	14514.25
817.008	14443.07
817.337	14344.76
817.665	14259.34
817.994	14421.82
818.322	14276.29
818.651	14280.13
818.979	14177.54
819.307	14226.35
819.636	14323.3
819.964	14128.27
820.292	14250.98
820.62	14156.07
820.948	14141.61
821.276	14282.17
821.604	14185.67
821.932	14190.42
822.259	14180.93
822.587	14113.81
822.915	14130.31
823.243	14194.94
823.57	14161.72
823.898	14120.59
824.225	14072.45
824.553	14161.27
824.88	14142.74
825.207	14228.16
825.535	14122.62
825.862	14189.74
826.189	14088.27
826.516	14177.31
826.843	14219.34
827.17	14239.46
827.497	14203.52
827.824	14209.63
828.151	14195.39
828.478	14239
828.805	14286.69
829.131	14169.4
829.458	14182.51
829.785	14112.45
830.111	14149.97
830.438	14200.14
830.764	14110.19
831.09	14212.11
831.417	14081.72
831.743	14257.53
832.069	14169.4
832.395	14090.53
832.722	14177.31
833.048	14133.24
833.374	14189.97
833.7	14198.78
834.026	14062.51
834.351	14103.64
834.677	14113.81
835.003	14113.58
835.329	14122.62
835.654	14067.03
835.98	14072.91
836.306	13976.64
836.631	13975.96
836.956	13927.83
837.282	14053.25
837.607	13964.66
837.932	13893.7
838.258	13865
838.583	13897.32
838.908	13790.65
839.233	13828.39
839.558	13846.47
839.883	13715.4
840.208	13819.13
840.533	13673.14
840.858	13746.14
841.182	13701.39
841.507	13730.99
841.832	13596.31
842.156	13665.91
842.481	13557.44
842.805	13524.67
843.13	13552.47
843.454	13483.32
843.778	13498.01
844.103	13381.63
844.427	13473.15
844.751	13434.51
845.075	13344.79
845.399	13397.67
845.723	13282.65
846.047	13208.97
846.371	13137.11
846.695	13224.12
847.019	13074.06
847.343	12926.72
847.666	12948.42
847.99	12887.63
848.313	12854.41
848.637	12774.18
848.96	12774.41
849.284	12728.31
849.607	12645.37
849.931	12629.78
850.254	12571.25
850.577	12509.33
850.9	12393.18
851.223	12413.97
851.546	12388.88
851.869	12231.15
852.192	12346.4
852.515	12190.7
852.838	12205.61
853.161	12184.59
853.483	12119.96
853.806	12099.17
854.129	12062.56
854.451	11932.4
854.774	11929.01
855.096	11887.2
855.419	11874.32
855.741	11797.26
856.063	11801.33
856.385	11766.3
856.708	11706.19
857.03	11705.74
857.352	11727.21
857.674	11609.02
857.996	11541.45
858.318	11540.32
858.64	11541.45
858.961	11517.49
859.283	11414.9
859.605	11412.19
859.926	11431.17
860.248	11358.18
860.57	11343.94
860.891	11309.59
861.212	11264.17
861.534	11220.33
861.855	11244.05
862.176	11218.07
862.498	11240.89
862.819	11216.94
863.14	11084.28
863.461	11152.08
863.782	11036.15
864.103	11039.31
864.424	11019.88
864.745	11039.54
865.065	10904.18
865.386	10943.5
865.707	10990.95
866.027	10895.82
866.348	10955.7
866.668	10933.78
866.989	10904.85
867.309	10802.03
867.63	10859.66
867.95	10823.95
868.27	10778.3
868.59	10830.05
868.91	10784.63
869.23	10734.01
869.55	10682.26
869.87	10764.29
870.19	10759.32
870.51	10724.29
870.83	10724.97
871.15	10610.85
871.469	10641.13
871.789	10675.03
872.109	10743.05
872.428	10608.82
872.748	10617.63
873.067	10557.52
873.386	10551.87
873.706	10530.4
874.025	10437.97
874.344	10447.92
874.663	10522.04
874.982	10420.35
875.301	10455.37
875.62	10456.73
875.939	10404.98
876.258	10366.11
876.577	10333.12
876.896	10356.17
877.214	10362.04
877.533	10353.46
877.852	10307.81
878.17	10327.02
878.489	10348.48
878.807	10292.22
879.125	10195.49
879.444	10237.53
879.762	10230.07
880.08	10213.57
880.398	10158.21
880.716	10228.71
881.034	10157.08
881.352	10153.24
881.67	10064.88
881.988	10122.5
882.306	10007.03
882.624	10077.53
882.941	10029.85
883.259	10018.78
883.577	9950.98
883.894	9883.41
884.212	9954.82
884.529	9900.59
884.846	9943.98
885.164	9908.04
885.481	9817.43
885.798	9875.96
886.115	9660.14
886.432	9762.06
886.75	9693.81
887.067	9719.35
887.383	9680.25
887.7	9708.95
888.017	9656.53
888.334	9634.83
888.651	9562.29
888.967	9573.59
889.284	9568.17
889.6	9525
889.917	9458.56
890.233	9470.77
890.55	9426.48
890.866	9428.74
891.182	9427.61
891.498	9337.21
891.815	9352.35
892.131	9264.9
892.447	9241.17
892.763	9222.86
893.079	9283.43
893.395	9188.52
893.71	9160.27
894.026	9117.78
894.342	9142.19
894.657	9066.03
894.973	8984.9
895.289	9040.72
895.604	9030.78
895.92	8971.12
896.235	8860.84
896.55	8932.25
896.865	8867.62
897.181	8822.88
897.496	8816.32
897.811	8796.44
898.126	8835.53
898.441	8758.24
898.756	8664.46
899.071	8707.4
899.386	8611.36
899.7	8576.1
900.015	8512.6
900.33	8527.74
900.644	8476.22
900.959	8482.09
901.273	8466.27
901.588	8505.6
901.902	8300.63
902.216	8296.34
902.531	8288.88
902.845	8318.93
903.159	8249.11
903.473	8210.69
903.787	8198.48
904.101	8150.58
904.415	8147.64
904.729	8055.44
905.042	8019.05
905.356	7972.73
905.67	7982.45
905.984	7983.58
906.297	8006.4
906.611	7928.89
906.924	7869
907.237	7903.8
907.551	7821.55
907.864	7732.73
908.177	7774.54
908.491	7710.81
908.804	7645.96
909.117	7683.24
909.43	7605.28
909.743	7604.83
910.056	7516.24
910.368	7546.3
910.681	7474.21
910.994	7478.96
911.307	7419.07
911.619	7319.19
911.932	7393.08
912.244	7273.76
912.557	7291.62
912.869	7226.99
913.181	7245.52
913.494	7228.34
913.806	7144.28
914.118	7148.57
914.43	7080.55
914.742	7122.58
915.054	7018.4
915.366	7045.97
915.678	6987.22
915.99	6957.39
916.302	6939.08
916.613	6954.68
916.925	6946.77
917.236	6881.68
917.548	6847.11
917.859	6839.2
918.171	6766.43
918.482	6750.39
918.794	6719.2
919.105	6758.3
919.416	6632.88
919.727	6653.44
920.038	6652.54
920.349	6617.06
920.66	6576.83
920.971	6618.19
921.282	6562.37
921.593	6522.6
921.903	6495.48
922.214	6468.14
922.525	6402.15
922.835	6420
923.146	6366.89
923.456	6319.66
923.767	6371.87
924.077	6340
924.387	6307.46
924.697	6243.73
925.008	6224.75
925.318	6186.79
925.628	6212.77
925.938	6128.03
926.248	6128.03
926.558	6096.17
926.867	6124.87
927.177	6070.18
927.487	6013.46
927.796	6004.64
928.106	5987.92
928.416	5985.66
928.725	5909.51
929.034	5863.86
929.344	5892.33
929.653	5891.65
929.962	5808.04
930.271	5754.48
930.581	5775.72
930.89	5745.44
931.199	5735.27
931.508	5753.13
931.817	5690.98
932.125	5671.09
932.434	5675.84
932.743	5623.19
933.051	5629.06
933.36	5565.33
933.669	5458.67
933.977	5513.81
934.286	5488.5
934.594	5468.16
934.902	5493.47
935.21	5435.39
935.519	5457.54
935.827	5400.59
936.135	5430.87
936.443	5314.27
936.751	5269.52
937.059	5322.63
937.367	5226.59
937.674	5274.95
937.982	5293.02
938.29	5189.75
938.597	5194.5
938.905	5152.24
939.213	5210.99
939.52	5137.77
939.827	5144.1
940.135	5116.31
940.442	5091.22
940.749	5017.1
941.056	5107.94
941.363	4941.17
941.67	4968.74
941.977	4940.04
942.284	4954.95
942.591	4907.05
942.898	4898.68
943.205	4888.74
943.511	4858.91
943.818	4818.46
944.125	4797.9
944.431	4799.7
944.738	4771
945.044	4793.15
945.35	4736.88
945.657	4705.92
945.963	4655.98
946.269	4652.59
946.575	4631.12
946.881	4657.11
947.187	4617.56
947.493	4606.26
947.799	4531.91
948.105	4563.78
948.41	4483.33
948.716	4466.38
949.022	4476.77
949.327	4474.97
949.633	4410.79
949.938	4426.61
950.244	4430.22
950.549	4414.4
950.854	4373.5
951.16	4354.52
951.465	4328.3
951.77	4332.6
952.075	4319.72
952.38	4298.93
952.685	4242.2
952.99	4184.35
953.294	4241.3
953.599	4216.89
953.904	4196.1
954.209	4158.37
954.513	4157.91
954.818	4148.87
955.122	4114.52
955.426	4111.81
955.731	4094.86
956.035	4060.06
956.339	4047.18
956.643	4020.97
956.948	4049.44
957.252	3997.01
957.556	4013.96
957.86	3969.22
958.163	3996.79
958.467	3915.89
958.771	3955.88
959.075	3900.74
959.378	3868.2
959.682	3893.29
959.985	3876.11
960.289	3830.24
960.592	3814.87
960.896	3820.07
961.199	3778.04
961.502	3772.61
961.805	3756.12
962.108	3719.05
962.411	3709.79
962.714	3690.35
963.017	3697.36
963.32	3657.36
963.623	3629.79
963.926	3670.69
964.228	3593.63
964.531	3604.93
964.833	3563.35
965.136	3592.5
965.438	3551.15
965.741	3564.26
966.043	3537.14
966.345	3527.65
966.648	3483.81
966.95	3475.45
967.252	3471.15
967.554	3444.71
967.856	3452.62
968.158	3453.98
968.46	3445.84
968.761	3394.77
969.063	3368.78
969.365	3351.83
969.666	3382.34
969.968	3360.19
970.269	3342.57
970.571	3301.44
970.872	3324.49
971.174	3279.74
971.475	3249.24
971.776	3256.92
972.077	3227.77
972.378	3202.91
972.679	3206.3
972.98	3205.62
973.281	3184.38
973.582	3208.56
973.883	3199.75
974.183	3143.93
974.484	3124.49
974.785	3157.71
975.085	3128.56
975.386	3085.4
975.686	3087.43
975.986	3089.92
976.287	3059.86
976.587	3038.39
976.887	3032.75
977.187	3048.34
977.487	3000.43
977.787	2987.77
978.087	2959.98
978.387	2968.11
978.687	2945.29
978.987	2932.41
979.286	2940.32
979.586	2967.89
979.885	2881.56
980.185	2867.55
980.484	2885.18
980.784	2855.57
981.083	2832.75
981.382	2831.85
981.682	2806.54
981.981	2775.12
982.28	2794.11
982.579	2788.68
982.878	2734
983.177	2745.75
983.475	2715.92
983.774	2724.05
984.073	2669.14
984.372	2731.28
984.67	2655.81
984.969	2657.16
985.267	2684.96
985.566	2639.76
985.864	2629.59
986.162	2649.25
986.461	2622.36
986.759	2611.29
987.057	2597.28
987.355	2628.69
987.653	2576.94
987.951	2609.48
988.249	2574
988.547	2553.66
988.844	2570.38
989.142	2534.23
989.44	2504.17
989.737	2483.83
990.035	2442.7
990.332	2461.23
990.63	2440.67
990.927	2471.18
991.224	2420.11
991.521	2408.13
991.819	2445.64
992.116	2409.03
992.413	2404.29
992.71	2359.09
993.006	2381.46
993.303	2350.28
993.6	2314.8
993.897	2306.21
994.193	2334.68
994.49	2356.83
994.787	2291.75
995.083	2286.55
995.379	2288.81
995.676	2253.78
995.972	2268.02
996.268	2249.49
996.565	2241.81
996.861	2212.2
997.157	2249.04
997.453	2203.61
997.749	2183.28
998.044	2214.46
998.34	2141.92
998.636	2176.72
998.932	2156.38
999.227	2113.45
999.523	2138.53
999.818	2110.74
1000.114	2110.96
1000.409	2084.97
1000.704	2095.82
1001	2093.79
1001.295	2072.09
1001.59	2066.89
1001.885	2059.21
1002.18	2036.39
1002.475	2002.49
1002.77	1986.22
1003.065	2012.21
1003.359	1967.91
1003.654	1974.02
1003.949	1950.74
1004.243	1964.98
1004.538	1938.08
1004.832	1924.07
1005.127	1924.53
1005.421	1895.15
1005.715	1894.92
1006.009	1897.86
1006.304	1876.39
1006.598	1870.29
1006.892	1873.91
1007.186	1851.08
1007.48	1829.84
1007.773	1829.61
1008.067	1842.49
1008.361	1807.92
1008.655	1794.59
1008.948	1804.75
1009.242	1752.33
1009.535	1756.39
1009.829	1746.45
1010.122	1760.69
1010.415	1740.35
1010.708	1709.84
1011.001	1726.11
1011.295	1720.92
1011.588	1670.97
1011.881	1682.95
1012.173	1678.66
1012.466	1675.27
1012.759	1639.79
1013.052	1647.47
1013.344	1653.12
1013.637	1613.35
1013.93	1597.3
1014.222	1591.2
1014.514	1585.33
1014.807	1573.8
1015.099	1568.83
1015.391	1571.09
1015.683	1544.2
1015.976	1522.73
1016.268	1547.36
1016.56	1506.46
1016.851	1519.56
1017.143	1505.33
1017.435	1499.23
1017.727	1496.29
1018.018	1489.06
1018.31	1476.18
1018.602	1463.52
1018.893	1443.18
1019.185	1433.24
1019.476	1418.1
1019.767	1426.23
1020.058	1397.08
1020.35	1415.39
1020.641	1377.42
1020.932	1413.58
1021.223	1357.08
1021.514	1400.7
1021.804	1381.26
1022.095	1396.63
1022.386	1349.85
1022.677	1366.8
1022.967	1346.91
1023.258	1306.46
1023.548	1298.78
1023.839	1284.32
1024.129	1272.34
1024.419	1315.5
1024.709	1291.55
1025	1302.62
1025.29	1260.14
1025.58	1259.91
1025.87	1261.49
1026.16	1244.77
1026.449	1243.64
1026.739	1220.59
1027.029	1224.21
1027.319	1235.28
1027.608	1220.14
1027.898	1211.32
1028.187	1164.32
1028.477	1167.48
1028.766	1162.51
1029.055	1170.42
1029.344	1170.42
1029.634	1152.34
1029.923	1129.97
1030.212	1134.94
1030.501	1120.03
1030.79	1133.36
1031.078	1088.62
1031.367	1114.83
1031.656	1101.04
1031.945	1115.73
1032.233	1070.08
1032.522	1076.41
1032.81	1094.04
1033.099	1053.14
1033.387	1060.37
1033.675	1050.42
1033.963	1052.46
1034.251	1049.07
1034.54	1008.62
1034.828	1016.53
1035.116	1046.13
1035.403	1009.3
1035.691	1000.71
1035.979	1040.03
1036.267	1003.42
1036.554	997.54
1036.842	981.27
1037.129	974.49
1037.417	987.6
1037.704	952.8
1037.992	948.73
1038.279	945.79
1038.566	944.89
1038.853	944.89
1039.14	944.89
