Data from hue_230_FLMS001491_00099.txt Node
Date: Tue Feb 07 16:38:01 GMT 2017
User: dcchb
Spectrometer: FLMS00149
Trigger mode: 0
Integration Time (sec): 2.000000E-2
Scans to average: 10
Electric dark correction enabled: true
Nonlinearity correction enabled: false
Boxcar width: 0
XAxis mode: Wavelengths
Number of Pixels in Spectrum: 2048
>>>>>Begin Spectral Data<<<<<
341.393	-20.03
341.776	-20.03
342.16	-20.03
342.543	-64.09
342.927	-62.51
343.31	-83.08
343.693	-68.61
344.077	-78.11
344.46	-47.37
344.843	-43.98
345.226	-61.38
345.61	-41.27
345.993	-27.03
346.376	-5.11
346.759	25.17
347.142	33.3
347.525	41.21
347.908	68.11
348.291	78.95
348.674	95.22
349.057	113.98
349.44	120.99
349.823	146.07
350.206	141.55
350.588	176.35
350.971	198.05
351.354	189.46
351.737	221.32
352.119	219.97
352.502	256.35
352.884	278.27
353.267	264.94
353.65	280.53
354.032	278.95
354.414	293.41
354.797	287.08
355.179	314.43
355.562	315.1
355.944	311.04
356.326	318.49
356.709	326.18
357.091	320.08
357.473	333.18
357.855	331.15
358.238	315.56
358.62	324.82
359.002	335.9
359.384	312.17
359.766	320.3
360.148	323.24
360.53	334.54
360.912	338.38
361.294	325.73
361.676	312.84
362.057	311.04
362.439	316.01
362.821	309.91
363.203	333.64
363.584	311.04
363.966	304.03
364.348	327.99
364.729	318.49
365.111	307.87
365.493	294.54
365.874	311.04
366.256	311.71
366.637	306.29
367.019	308.33
367.4	313.75
367.781	320.08
368.163	287.76
368.544	309
368.925	302
369.306	287.31
369.688	295.67
370.069	285.05
370.45	308.78
370.831	327.31
371.212	297.48
371.593	320.3
371.974	301.77
372.355	307.65
372.736	307.42
373.117	307.87
373.498	301.55
373.879	285.05
374.26	306.07
374.641	308.33
375.021	310.81
375.402	289.57
375.783	304.71
376.163	291.15
376.544	297.03
376.925	299.74
377.305	313.97
377.686	309.46
378.066	281.21
378.447	318.72
378.827	318.72
379.208	316.69
379.588	312.84
379.968	317.82
380.349	313.75
380.729	330.47
381.109	342.67
381.489	314.65
381.87	321.43
382.25	324.14
382.63	332.05
383.01	310.81
383.39	328.44
383.77	310.59
384.15	328.44
384.53	327.76
384.91	326.4
385.29	332.51
385.67	348.1
386.049	338.15
386.429	355.1
386.809	337.7
387.189	364.37
387.568	342.67
387.948	332.51
388.328	336.12
388.707	332.73
389.087	328.44
389.466	346.97
389.846	357.82
390.225	349.23
390.605	362.79
390.984	351.71
391.363	340.87
391.743	350.36
392.122	371.6
392.501	360.98
392.881	370.7
393.26	352.39
393.639	352.39
394.018	371.83
394.397	371.83
394.776	363.24
395.155	362.34
395.534	351.94
395.913	372.5
396.292	353.52
396.671	348.1
397.05	389.91
397.429	379.96
397.808	355.1
398.186	395.1
398.565	385.84
398.944	372.28
399.323	396.01
399.701	390.58
400.08	387.42
400.458	381.32
400.837	396.91
401.215	395.78
401.594	398.27
401.972	396.68
402.351	412.73
402.729	393.52
403.107	395.33
403.486	393.97
403.864	427.87
404.242	404.14
404.62	414.09
404.999	390.13
405.377	427.19
405.755	426.29
406.133	435.78
406.511	422.22
406.889	455.89
407.267	432.39
407.645	415.67
408.023	416.34
408.401	442.56
408.779	452.05
409.156	462.22
409.534	472.39
409.912	464.71
410.29	485.95
410.667	470.58
411.045	479.62
411.422	469
411.8	480.98
412.178	510.13
412.555	504.03
412.933	509.45
413.31	515.78
413.687	533.63
414.065	539.05
414.442	548.54
414.819	554.87
415.197	531.14
415.574	554.19
415.951	593.06
416.328	552.84
416.705	556.45
417.082	569.56
417.46	568.21
417.837	581.09
418.214	599.17
418.591	594.87
418.967	599.62
419.344	619.05
419.721	618.37
420.098	617.7
420.475	630.12
420.852	663.12
421.228	645.72
421.605	659.5
421.982	651.82
422.358	681.65
422.735	678.94
423.111	700.41
423.488	710.12
423.864	743.57
424.241	719.16
424.617	724.36
424.994	746.51
425.37	755.55
425.746	739.27
426.123	751.7
426.499	784.24
426.875	797.13
427.251	778.6
427.627	791.25
428.003	804.81
428.379	818.37
428.756	818.14
429.132	811.59
429.507	874.86
429.883	865.82
430.259	881.19
430.635	894.98
431.011	890.23
431.387	918.03
431.763	920.06
432.138	944.01
432.514	920.74
432.89	925.26
433.265	962.32
433.641	959.61
434.016	987.86
434.392	1013.84
434.767	1026.5
435.143	1047.51
435.518	1048.64
435.894	1078.47
436.269	1068.31
436.644	1118.93
437.02	1095.2
437.395	1117.12
437.77	1126.16
438.145	1153.95
438.52	1165.48
438.895	1186.49
439.271	1184.01
439.646	1231.69
440.021	1230.79
440.395	1225.59
440.77	1248.19
441.145	1271.46
441.52	1257
441.895	1282.08
442.27	1295.87
442.645	1322.76
443.019	1344
443.394	1332.25
443.769	1378.35
444.143	1349.43
444.518	1390.1
444.892	1339.26
445.267	1398.24
445.641	1386.94
446.016	1399.6
446.39	1428.52
446.764	1428.52
447.139	1421.97
447.513	1451.8
447.887	1458.13
448.262	1452.02
448.636	1466.49
449.01	1505.58
449.384	1525.69
449.758	1496.54
450.132	1517.56
450.506	1547.84
450.88	1564.34
451.254	1529.31
451.628	1568.41
452.002	1573.6
452.376	1612.02
452.75	1599.36
453.123	1596.88
453.497	1609.31
453.871	1654.5
454.244	1678.68
454.618	1691.11
454.992	1692.47
455.365	1703.09
455.739	1753.71
456.112	1755.52
456.486	1788.51
456.859	1828.74
457.232	1842.52
457.606	1793.26
457.979	1838.68
458.352	1885.23
458.725	1923.88
459.099	1918.9
459.472	1941.05
459.845	1925.91
460.218	1962.97
460.591	1982.63
460.964	1967.94
461.337	2032.12
461.71	2037.77
462.083	2066.7
462.456	2081.16
462.829	2075.28
463.201	2110.54
463.574	2146.69
463.947	2122.06
464.32	2220.14
464.692	2224.43
465.065	2237.54
465.438	2259.01
465.81	2282.51
466.183	2283.64
466.555	2376.52
466.928	2357.76
467.3	2345.79
467.672	2423.07
468.045	2442.05
468.417	2463.75
468.789	2455.84
469.161	2508.27
469.534	2558.89
469.906	2577.87
470.278	2543.29
470.65	2611.09
471.022	2678.66
471.394	2713.91
471.766	2736.06
472.138	2722.73
472.51	2812.67
472.882	2777.19
473.253	2863.74
473.625	2906
473.997	2944.19
474.369	2942.15
474.74	2991.42
475.112	3023.73
475.484	3066.67
475.855	3130.62
476.227	3136.27
476.598	3214.24
476.97	3202.26
477.341	3272.77
477.713	3342.37
478.084	3358.41
478.455	3392.99
478.827	3499.65
479.198	3532.87
479.569	3512.31
479.94	3648.8
480.311	3671.85
480.682	3750.49
481.053	3788.69
481.424	3815.35
481.795	3889.25
482.166	3920.89
482.537	3915.01
482.908	4005.18
483.279	4042.69
483.65	4112.97
484.021	4213.99
484.391	4220.76
484.762	4254.44
485.133	4278.39
485.503	4313.42
485.874	4436.13
486.244	4420.76
486.615	4526.29
486.985	4542.56
487.356	4644.26
487.726	4647.87
488.097	4704.37
488.467	4769.68
488.837	4868.43
489.207	4864.59
489.578	4933.29
489.948	4940.75
490.318	5057.58
490.688	5048.09
491.058	5142.55
491.428	5181.87
491.798	5214.18
492.168	5306.84
492.538	5257.57
492.908	5419.38
493.278	5386.61
493.648	5427.06
494.017	5481.3
494.387	5535.53
494.757	5601.52
495.126	5593.61
495.496	5591.8
495.866	5631.35
496.235	5746.15
496.605	5719.26
496.974	5725.36
497.344	5806.49
497.713	5849.2
498.082	5846.94
498.452	5896.2
498.821	5896.65
499.19	5909.53
499.559	5919.25
499.928	5977.78
500.298	6003.09
500.667	6007.16
501.036	6011.45
501.405	6041.06
501.774	6091.9
502.143	6121.28
502.512	6086.25
502.88	6179.13
503.249	6185.23
503.618	6202.41
503.987	6211.67
504.356	6209.19
504.724	6272.24
505.093	6255.51
505.462	6216.87
505.83	6340.26
506.199	6320.6
506.567	6436.07
506.936	6391.1
507.304	6389.52
507.672	6443.53
508.041	6458.22
508.409	6509.07
508.777	6508.84
509.145	6545
509.514	6530.76
509.882	6554.04
510.25	6467.03
510.618	6560.59
510.986	6543.87
511.354	6587.48
511.722	6608.95
512.09	6711.55
512.458	6674.03
512.826	6670.19
513.193	6719.23
513.561	6717.87
513.929	6747.48
514.297	6765.78
514.664	6786.12
515.032	6729.85
515.4	6785.44
515.767	6785.44
516.135	6864.54
516.502	6761.94
516.869	6828.83
517.237	6874.71
517.604	6810.98
517.972	6874.25
518.339	6890.3
518.706	6902.73
519.073	6926.46
519.44	6868.6
519.808	6976.85
520.175	6858.89
520.542	6956.74
520.909	6939.56
521.276	6962.39
521.643	6942.5
522.009	7018.88
522.376	7016.17
522.743	7030.63
523.11	7130.07
523.477	7097.3
523.843	7119.9
524.21	7109.73
524.577	7117.86
524.943	7119.22
525.31	7151.08
525.676	7202.61
526.043	7146.11
526.409	7171.87
526.776	7248.03
527.142	7193.12
527.508	7206.45
527.874	7268.82
528.241	7217.52
528.607	7274.24
528.973	7245.54
529.339	7297.75
529.705	7318.76
530.071	7266.33
530.437	7311.3
530.803	7332.1
531.169	7285.09
531.535	7253.23
531.901	7227.01
532.267	7288.25
532.632	7266.33
532.998	7246.45
533.364	7306.56
533.73	7297.07
534.095	7319.67
534.461	7328.48
534.826	7307.46
535.192	7273.79
535.557	7278.09
535.923	7209.16
536.288	7230.86
536.653	7222.27
537.019	7224.3
537.384	7193.57
537.749	7268.59
538.114	7244.87
538.479	7198.77
538.845	7158.77
539.21	7176.39
539.575	7203.96
539.94	7207.13
540.305	7166.22
540.67	7136.85
541.034	7116.06
541.399	7165.55
541.764	7121.93
542.129	7113.8
542.494	7080.12
542.858	7078.09
543.223	7083.29
543.587	7081.48
543.952	7043.06
544.316	7013.91
544.681	7048.94
545.045	7047.13
545.41	7043.97
545.774	7031.76
546.138	7036.74
546.503	6974.82
546.867	6979.56
547.231	6994.7
547.595	6981.6
547.959	6965.55
548.324	6945.44
548.688	6917.87
549.052	6947.7
549.416	6893.46
549.779	6903.63
550.143	6881.49
550.507	6888.27
550.871	6872.45
551.235	6850.53
551.599	6888.27
551.962	6862.73
552.326	6799
552.689	6852.11
553.053	6822.73
553.417	6803.52
553.78	6911.77
554.143	6815.5
554.507	6812.79
554.87	6799.91
555.234	6860.7
555.597	6784.77
555.96	6815.5
556.323	6812.34
556.686	6784.77
557.05	6813.92
557.413	6817.31
557.776	6775.95
558.139	6794.93
558.502	6756.52
558.865	6810.08
559.228	6824.31
559.59	6766.69
559.953	6800.36
560.316	6860.7
560.679	6834.93
561.041	6859.11
561.404	6862.5
561.767	6927.59
562.129	6831.77
562.492	6864.09
562.854	6879.9
563.217	6880.58
563.579	6886.01
563.941	6930.52
564.304	6883.29
564.666	6915.38
565.028	6911.54
565.39	6957.42
565.753	6971.2
566.115	6982.73
566.477	6951.31
566.839	6953.57
567.201	7031.54
567.563	6924.65
567.925	7042.16
568.287	7071.99
568.648	7041.93
569.01	7038.77
569.372	7158.09
569.734	7084.87
570.095	7127.13
570.457	7093.23
570.819	7151.99
571.18	7151.76
571.542	7125.77
571.903	7100.24
572.265	7190.18
572.626	7212.32
572.987	7178.88
573.349	7226.79
573.71	7211.19
574.071	7297.97
574.432	7322.38
574.794	7325.77
575.155	7322.15
575.516	7304.98
575.877	7320.34
576.238	7347.69
576.599	7358.08
576.96	7316.05
577.32	7387.46
577.681	7386.33
578.042	7416.39
578.403	7409.16
578.763	7465.65
579.124	7487.35
579.485	7485.31
579.845	7490.96
580.206	7548.59
580.566	7537.06
580.927	7524.63
581.287	7511.98
581.648	7567.8
582.008	7594.01
582.368	7603.95
582.728	7608.92
583.089	7634.69
583.449	7563.73
583.809	7614.57
584.169	7641.01
584.529	7646.44
584.889	7673.56
585.249	7657.51
585.609	7715.14
585.969	7700.9
586.329	7745.64
586.688	7721.46
587.048	7763.27
587.408	7727.79
587.768	7749.71
588.127	7763.5
588.487	7780.67
588.846	7832.65
589.206	7721.24
589.565	7790.39
589.925	7835.81
590.284	7862.48
590.643	7836.49
591.003	7827.45
591.362	7896.15
591.721	7849.37
592.08	7866.77
592.44	7850.05
592.799	7872.87
593.158	7920.33
593.517	7860.9
593.876	7881.01
594.235	7909.71
594.593	7912.87
594.952	7916.94
595.311	7891.4
595.67	7948.8
596.029	8005.3
596.387	7967.56
596.746	8036.94
597.104	7896.83
597.463	7981.34
597.822	8016.37
598.18	7961.46
598.538	8019.53
598.897	8083.49
599.255	8005.75
599.613	8060.89
599.972	7984.73
600.33	7981.12
600.688	8021.79
601.046	8056.82
601.404	8057.05
601.762	8072.87
602.12	8074.45
602.478	8130.27
602.836	8112.87
603.194	8027.44
603.552	8089.82
603.91	8026.09
604.268	8162.13
604.625	8093.21
604.983	8086.43
605.341	8127.33
605.698	8143.15
606.056	8148.35
606.413	8104.73
606.771	8144.05
607.128	8181.79
607.485	8091.62
607.843	8191.06
608.2	8178.4
608.557	8151.73
608.914	8102.02
609.272	8155.58
609.629	8193.99
609.986	8181.34
610.343	8233.77
610.7	8316.25
611.057	8229.7
611.414	8214.56
611.771	8207.55
612.127	8298.4
612.484	8328.45
612.841	8250.72
613.198	8272.64
613.554	8271.51
613.911	8320.54
614.267	8281.67
614.624	8343.14
614.98	8365.29
615.337	8303.37
615.693	8341.79
616.05	8320.77
616.406	8402.35
616.762	8414.1
617.118	8340.2
617.475	8339.3
617.831	8393.54
618.187	8415.91
618.543	8377.72
618.899	8366.19
619.255	8416.13
619.611	8449.58
619.967	8458.39
620.323	8377.94
620.678	8421.11
621.034	8391.5
621.39	8368.45
621.746	8411.61
622.101	8490.03
622.457	8399.86
622.812	8381.11
623.168	8447.55
623.523	8405.06
623.879	8466.75
624.234	8379.3
624.589	8408.23
624.945	8392.86
625.3	8459.52
625.655	8449.58
626.01	8403.48
626.365	8489.58
626.72	8380.43
627.075	8384.05
627.43	8364.84
627.785	8354.89
628.14	8430.15
628.495	8432.18
628.85	8433.08
629.205	8337.72
629.559	8471.95
629.914	8351.73
630.269	8340.2
630.623	8403.93
630.978	8310.15
631.332	8322.13
631.687	8326.19
632.041	8281.67
632.396	8372.07
632.75	8282.35
633.104	8298.62
633.459	8285.06
633.813	8283.71
634.167	8256.14
634.521	8230.15
634.875	8295.23
635.229	8236.93
635.583	8214.11
635.937	8216.59
636.291	8184.5
636.645	8242.81
636.999	8206.87
637.352	8218.85
637.706	8152.41
638.06	8189.7
638.413	8151.73
638.767	8155.12
639.121	8228.79
639.474	8136.59
639.828	8123.04
640.181	8178.85
640.534	8151.96
640.888	8150.38
641.241	8053.21
641.594	8124.39
641.947	8151.96
642.301	8079.87
642.654	8120.55
643.007	8043.26
643.36	8083.04
643.713	8081.45
644.066	8138.85
644.419	8072.64
644.771	8017.05
645.124	7909.26
645.477	7941.8
645.83	7862.25
646.182	7841.23
646.535	7769.15
646.888	7817.28
647.24	7737.28
647.593	7838.3
647.945	7774.34
648.298	7791.74
648.65	7670.84
649.002	7708.13
649.355	7767.34
649.707	7754.91
650.059	7845.08
650.411	7920.33
650.763	7910.84
651.115	7929.59
651.467	7953.77
651.819	7930.72
652.171	7941.34
652.523	7914.45
652.875	7954.45
653.227	7885.53
653.578	7974.11
653.93	7953.77
654.282	7859.09
654.633	7892.31
654.985	7907.9
655.337	7893.89
655.688	7955.36
656.039	7958.29
656.391	7913.1
656.742	7936.6
657.094	7929.14
657.445	7943.6
657.796	7959.42
658.147	7910.39
658.498	7934.57
658.849	7899.76
659.2	7885.3
659.551	7894.79
659.902	7936.83
660.253	7912.42
660.604	7920.78
660.955	7860.67
661.306	7949.93
661.656	7908.58
662.007	7881.91
662.358	7900.22
662.708	7863.38
663.059	7956.26
663.409	7918.97
663.76	7950.16
664.11	7922.59
664.461	7922.14
664.811	7918.52
665.161	7965.07
665.511	7932.53
665.862	7909.48
666.212	7893.44
666.562	7970.27
666.912	7896.83
667.262	7939.99
667.612	7944.96
667.962	7894.79
668.312	7888.69
668.662	8028.8
669.011	7930.5
669.361	7904.28
669.711	7911.97
670.06	7875.81
670.41	7866.77
670.76	7894.57
671.109	7924.4
671.459	7915.58
671.808	7932.98
672.157	7926.88
672.507	7797.17
672.856	7864.96
673.205	7856.38
673.554	7962.59
673.904	7825.87
674.253	7975.47
674.602	7874.45
674.951	7704.97
675.3	7717.62
675.649	7841.69
675.998	7783.83
676.346	7802.37
676.695	7863.61
677.044	7815.47
677.393	7808.69
677.741	7780.45
678.09	7743.84
678.438	7761.24
678.787	7805.53
679.135	7754.68
679.484	7665.65
679.832	7706.1
680.181	7673.33
680.529	7798.75
680.877	7646.66
681.225	7690.05
681.573	7790.16
681.922	7662.71
682.27	7627.68
682.618	7663.61
682.966	7612.54
683.314	7629.26
683.661	7548.81
684.009	7574.57
684.357	7511.75
684.705	7534.58
685.053	7558.98
685.4	7569.83
685.748	7442.6
686.095	7430.17
686.443	7482.83
686.79	7427.01
687.138	7443.5
687.485	7394.01
687.832	7362.83
688.18	7391.53
688.527	7316.05
688.874	7353.34
689.221	7331.64
689.568	7271.31
689.915	7266.11
690.262	7305.88
690.609	7258.88
690.956	7239.22
691.303	7178.88
691.65	7227.24
691.997	7140.46
692.344	7091.42
692.69	7153.79
693.037	7160.12
693.383	7053.91
693.73	7112.44
694.077	7043.52
694.423	7056.62
694.769	6970.75
695.116	6968.04
695.462	6937.98
695.808	6962.39
696.155	6939.11
696.501	6894.14
696.847	6854.59
697.193	6800.13
697.539	6830.87
697.885	6819.57
698.231	6786.35
698.577	6752.45
698.923	6733.24
699.269	6738.66
699.614	6660.25
699.96	6703.64
700.306	6662.96
700.651	6634.49
700.997	6603.98
701.342	6650.76
701.688	6619.35
702.033	6552.45
702.379	6508.84
702.724	6533.47
703.069	6528.27
703.415	6440.14
703.76	6444.89
704.105	6411.44
704.45	6354.27
704.795	6394.04
705.14	6394.27
705.485	6411.22
705.83	6303.2
706.175	6329.41
706.52	6270.43
706.865	6244.89
707.209	6268.17
707.554	6221.39
707.899	6230.43
708.243	6245.12
708.588	6180.71
708.932	6162.41
709.277	6184.78
709.621	6168.28
709.966	6070.21
710.31	6151.56
710.654	6084.9
710.998	6055.74
711.342	6103.65
711.687	6062.75
712.031	6048.06
712.375	6003.99
712.719	6022.3
713.063	5995.18
713.407	6071.11
713.75	5966.03
714.094	5944.34
714.438	5933.71
714.782	5933.94
715.125	5899.14
715.469	5951.34
715.812	5944.56
716.156	5915.18
716.499	5858.91
716.843	5877.9
717.186	5888.29
717.53	5866.82
717.873	5880.16
718.216	5785.24
718.559	5836.99
718.902	5826.6
719.246	5867.28
719.589	5807.62
719.932	5813.27
720.275	5861.63
720.617	5830.21
720.96	5712.02
721.303	5688.07
721.646	5760.84
721.989	5764.23
722.331	5757
722.674	5702.76
723.016	5829.31
723.359	5749.09
723.701	5737.79
724.044	5692.14
724.386	5681.74
724.729	5715.64
725.071	5740.95
725.413	5746.15
725.755	5710.9
726.097	5711.35
726.439	5627.06
726.782	5695.75
727.124	5686.49
727.465	5651.46
727.807	5686.71
728.149	5664.79
728.491	5648.98
728.833	5646.72
729.175	5663.21
729.516	5645.13
729.858	5647.85
730.199	5620.73
730.541	5667.51
730.882	5567.85
731.224	5666.38
731.565	5575.53
731.906	5611.91
732.248	5585.25
732.589	5620.5
732.93	5599.49
733.271	5647.39
733.612	5608.52
733.953	5625.7
734.294	5632.48
734.635	5629.99
734.976	5641.29
735.317	5580.28
735.658	5629.54
735.999	5634.29
736.339	5656.89
736.68	5665.47
737.021	5650.11
737.361	5608.52
737.702	5658.47
738.042	5672.7
738.383	5649.88
738.723	5639.03
739.063	5657.79
739.404	5624.8
739.744	5652.82
740.084	5638.35
740.424	5646.49
740.764	5659.6
741.104	5733.72
741.444	5722.19
741.784	5706.38
742.124	5710.22
742.464	5772.14
742.804	5743.21
743.143	5757.45
743.483	5798.8
743.823	5795.19
744.162	5772.59
744.502	5874.05
744.841	5812.59
745.181	5838.12
745.52	5831.57
745.86	5869.31
746.199	5901.62
746.538	5907.5
746.877	5951.11
747.216	6046.93
747.556	6000.6
747.895	6083.77
748.234	6094.61
748.573	6105.01
748.911	6196.98
749.25	6203.31
749.589	6171
749.928	6284.21
750.267	6358.79
750.605	6378.67
750.944	6383.42
751.283	6447.6
751.621	6520.59
751.96	6566.69
752.298	6653.92
752.636	6703.41
752.975	6748.16
753.313	6775.05
753.651	6913.8
753.989	6967.81
754.327	7027.92
754.666	7054.36
755.004	7219.1
755.342	7272.21
755.679	7380.23
756.017	7441.92
756.355	7544.75
756.693	7617.51
757.031	7707.23
757.368	7827.45
757.706	7899.31
758.044	8010.72
758.381	8126.88
758.719	8188.34
759.056	8368.9
759.394	8368.23
759.731	8481.67
760.068	8703.13
760.405	8797.59
760.743	8802.34
761.08	8987.42
761.417	9068.55
761.754	9204.81
762.091	9274.19
762.428	9440.97
762.765	9464.69
763.102	9671.02
763.438	9780.39
763.775	9845.93
764.112	10034.4
764.449	10132.47
764.785	10210.44
765.122	10265.13
765.458	10345.12
765.795	10502.41
766.131	10534.5
766.467	10704.89
766.804	10808.61
767.14	10880.02
767.476	10921.38
767.812	10981.72
768.148	11118.89
768.485	11210.86
768.821	11265.33
769.157	11406.79
769.492	11470.07
769.828	11554.81
770.164	11595.03
770.5	11678.65
770.836	11783.5
771.171	11754.35
771.507	11849.94
771.842	11896.5
772.178	11959.54
772.513	12002.03
772.849	12115.92
773.184	12125.64
773.519	12186.21
773.855	12235.47
774.19	12266.88
774.525	12256.49
774.86	12309.14
775.195	12385.07
775.53	12442.7
775.865	12459.42
776.2	12439.53
776.535	12418.52
776.87	12441.79
777.205	12477.5
777.539	12505.97
777.874	12568.79
778.209	12564.5
778.543	12537.61
778.878	12593.88
779.212	12580.77
779.547	12545.97
779.881	12710.26
780.215	12583.71
780.55	12631.17
780.884	12630.71
781.218	12613.09
781.552	12615.35
781.886	12625.29
782.22	12656.7
782.554	12634.33
782.888	12579.42
783.222	12590.04
783.556	12496.93
783.889	12503.26
784.223	12489.47
784.557	12529.7
784.89	12562.47
785.224	12442.92
785.557	12524.95
785.891	12547.78
786.224	12498.74
786.558	12510.72
786.891	12380.32
787.224	12337.84
787.557	12305.75
787.891	12413.77
788.224	12367.9
788.557	12367.9
788.89	12347.56
789.223	12354.79
789.556	12376.26
789.888	12311.85
790.221	12276.82
790.554	12183.27
790.887	12245.41
791.219	12155.25
791.552	12169.71
791.884	12111.4
792.217	12096.26
792.549	12065.53
792.882	12073.44
793.214	12068.02
793.546	12009.71
793.879	11982.14
794.211	11906.21
794.543	12048.36
794.875	11998.41
795.207	11971.07
795.539	11901.69
795.871	11969.04
796.203	11801.81
796.535	11769.94
796.867	11771.98
797.198	11754.13
797.53	11741.24
797.862	11622.6
798.193	11660.57
798.525	11583.28
798.856	11634.36
799.188	11531.53
799.519	11464.19
799.85	11404.08
800.182	11488.37
800.513	11497.18
800.844	11387.81
801.175	11496.51
801.506	11428.71
801.837	11356.62
802.168	11341.93
802.499	11374.25
802.83	11308.71
803.161	11272.33
803.491	11221.94
803.822	11277.98
804.153	11274.59
804.483	11211.09
804.814	11125.22
805.145	11135.16
805.475	11081.6
805.805	11034.82
806.136	11075.73
806.466	11074.6
806.796	11086.8
807.126	11001.83
807.457	11014.48
807.787	10961.83
808.117	10839.8
808.447	10877.76
808.777	10966.12
809.107	10834.38
809.436	10786.47
809.766	10756.86
810.096	10776.07
810.426	10755.28
810.755	10743.98
811.085	10744.89
811.414	10723.64
811.744	10612.01
812.073	10582.63
812.403	10668.73
812.732	10527.27
813.061	10600.71
813.39	10499.24
813.719	10480.26
814.049	10555.97
814.378	10570.65
814.707	10463.76
815.036	10458.11
815.365	10456.76
815.693	10310.77
816.022	10344.22
816.351	10321.85
816.68	10255.86
817.008	10330.89
817.337	10187.61
817.665	10242.75
817.994	10256.09
818.322	10235.97
818.651	10179.03
818.979	10126.6
819.307	10177.67
819.636	10129.54
819.964	10035.98
820.292	10107.62
820.62	10178.57
820.948	10051.57
821.276	10149.2
821.604	10078.69
821.932	10161.63
822.259	10055.87
822.587	10089.99
822.915	10108.29
823.243	10125.69
823.57	10088.41
823.898	10066.26
824.225	10055.87
824.553	10076.43
824.88	10089.99
825.207	10169.31
825.535	10077.79
825.862	10130.21
826.189	10038.24
826.516	10102.64
826.843	10153.04
827.17	10177.9
827.497	10193.04
827.824	10073.94
828.151	10150.33
828.478	10099.93
828.805	10201.17
829.131	10074.85
829.458	10151.68
829.785	10071.91
830.111	10144.22
830.438	10159.37
830.764	10090.67
831.09	10118.01
831.417	10004.79
831.743	10158.01
832.069	10057.67
832.395	10031.69
832.722	10066.49
833.048	10008.64
833.374	10112.14
833.7	10086.83
834.026	10072.59
834.351	10077.79
834.677	10034.85
835.003	10070.55
835.329	10007.73
835.654	9994.17
835.98	9894.97
836.306	9956.66
836.631	10021.52
836.956	9967.96
837.282	9951.91
837.607	9885.25
837.932	9898.13
838.258	9930.45
838.583	9932.25
838.908	9802.99
839.233	9888.64
839.558	9847.51
839.883	9770.68
840.208	9786.04
840.533	9744.24
840.858	9755.99
841.182	9791.92
841.507	9796.21
841.832	9687.74
842.156	9649.1
842.481	9697.23
842.805	9629.89
843.13	9714.18
843.454	9619.94
843.778	9581.3
844.103	9541.08
844.427	9529.78
844.751	9615.2
845.075	9462.89
845.399	9475.09
845.723	9532.72
846.047	9435.77
846.371	9367.07
846.695	9414.53
847.019	9337.24
847.343	9313.96
847.666	9169.56
847.99	9190.35
848.313	9153.06
848.637	9103.35
848.96	9145.83
849.284	9023.35
849.607	9042.33
849.931	9009.79
850.254	8976.35
850.577	8927.08
850.9	8886.18
851.223	8799.63
851.546	8844.6
851.869	8791.49
852.192	8809.12
852.515	8725.05
852.838	8744.26
853.161	8665.85
853.483	8634.21
853.806	8610.48
854.129	8590.82
854.451	8529.58
854.774	8507.21
855.096	8451.16
855.419	8449.35
855.741	8492.52
856.063	8421.56
856.385	8405.51
856.708	8335.91
857.03	8345.4
857.352	8357.61
857.674	8331.84
857.996	8218.63
858.318	8220.21
858.64	8321.67
858.961	8178.85
859.283	8225.18
859.605	8065.41
859.926	8211.39
860.248	8175.01
860.57	8125.29
860.891	8130.27
861.212	8081.91
861.534	8090.27
861.855	8011.63
862.176	8026.31
862.498	8026.54
862.819	8018.4
863.14	8009.82
863.461	7980.21
863.782	7970.5
864.103	7989.03
864.424	7874.91
864.745	7921.46
865.065	7886.88
865.386	7829.71
865.707	7776.6
866.027	7822.93
866.348	7865.41
866.668	7847.34
866.989	7817.96
867.309	7848.24
867.63	7718.3
867.95	7742.25
868.27	7751.97
868.59	7728.7
868.91	7695.7
869.23	7667
869.55	7632.65
869.87	7667.45
870.19	7672.65
870.51	7723.72
870.83	7662.48
871.15	7593.78
871.469	7602.37
871.789	7698.87
872.109	7588.36
872.428	7577.96
872.748	7545.65
873.067	7519.89
873.386	7542.26
873.706	7560.11
874.025	7469.94
874.344	7486.22
874.663	7501.36
874.982	7470.62
875.301	7472.2
875.62	7463.62
875.939	7449.61
876.258	7467.69
876.577	7459.78
876.896	7427.23
877.214	7394.69
877.533	7436.27
877.852	7406.22
878.17	7331.42
878.489	7383.85
878.807	7332.77
879.125	7360.12
879.444	7382.72
879.762	7337.07
880.08	7298.42
880.398	7294.13
880.716	7324.86
881.034	7257.3
881.352	7312.21
881.67	7251.19
881.988	7236.5
882.306	7204.64
882.624	7200.8
882.941	7198.09
883.259	7196.05
883.577	7121.71
883.894	7173.68
884.212	7118.99
884.529	7087.58
884.846	7114.02
885.164	7088.94
885.481	7041.48
885.798	7040.8
886.115	7013.23
886.432	6992.44
886.75	6949.05
887.067	7010.07
887.383	6923.97
887.7	6943.86
888.017	6942.95
888.334	6899.11
888.651	6871.99
888.967	6850.75
889.284	6815.5
889.6	6793.13
889.917	6783.86
890.233	6764.88
890.55	6744.09
890.866	6811.43
891.182	6741.15
891.498	6701.83
891.815	6670.87
892.131	6692.34
892.447	6664.09
892.763	6645.56
893.079	6662.06
893.395	6611.44
893.71	6552
894.026	6518.11
894.342	6563.08
894.657	6469.52
894.973	6479.91
895.289	6476.07
895.604	6475.17
895.92	6410.99
896.235	6414.61
896.55	6408.96
896.865	6428.16
897.181	6342.29
897.496	6387.26
897.811	6308.39
898.126	6297.77
898.441	6215.97
898.756	6219.36
899.071	6203.09
899.386	6267.49
899.7	6175.52
900.015	6129.42
900.33	6119.7
900.644	6126.7
900.959	6115.63
901.273	6078.34
901.588	6036.99
901.902	6093.03
902.216	6004.45
902.531	6000.83
902.845	5972.81
903.159	6001.06
903.473	5932.13
903.787	5956.76
904.101	5893.04
904.415	5893.04
904.729	5857.78
905.042	5773.49
905.356	5780.05
905.67	5712.7
905.984	5815.98
906.297	5747.05
906.611	5721.74
906.924	5752.93
907.237	5713.15
907.551	5638.58
907.864	5655.98
908.177	5604.01
908.491	5622.54
908.804	5571.69
909.117	5519.49
909.43	5489.88
909.743	5426.61
910.056	5475.65
910.368	5415.31
910.681	5436.33
910.994	5371.92
911.307	5386.16
911.619	5367.85
911.932	5395.65
912.244	5310
912.557	5326.72
912.869	5313.17
913.181	5247.18
913.494	5256.22
913.806	5202.21
914.118	5211.02
914.43	5173.96
914.742	5200.85
915.054	5148.88
915.366	5150.68
915.678	5111.81
915.99	5099.39
916.302	5027.3
916.613	5072.27
916.925	5034.75
917.236	5049.67
917.548	4977.58
917.859	4984.36
918.171	4993.4
918.482	4913.4
918.794	4896.68
919.105	4916.57
919.416	4895.55
919.727	4863.69
920.038	4850.35
920.349	4845.83
920.66	4749.79
920.971	4784.82
921.282	4783.46
921.593	4715.22
921.903	4733.07
922.214	4731.26
922.525	4698.94
922.835	4616.46
923.146	4644.71
923.456	4644.93
923.767	4583.69
924.077	4658.04
924.387	4573.52
924.697	4572.62
925.008	4551.83
925.318	4527.65
925.628	4515.45
925.938	4461.66
926.248	4434.77
926.558	4454.43
926.867	4485.84
927.177	4412.85
927.487	4392.96
927.796	4318.39
928.106	4350.48
928.416	4307.77
928.725	4341.67
929.034	4287.88
929.344	4264.61
929.653	4322.01
929.962	4197.94
930.271	4228.22
930.581	4222.8
930.89	4208.79
931.199	4184.61
931.508	4176.25
931.817	4138.51
932.125	4132.86
932.434	4118.39
932.743	4108.45
933.051	4099.86
933.36	4095.57
933.669	4060.99
933.977	4023.03
934.286	4007.44
934.594	4061.9
934.902	3983.93
935.21	3985.52
935.519	3953.88
935.827	3960.66
936.135	3928.12
936.443	3901.45
936.751	3929.7
937.059	3888.8
937.367	3885.18
937.674	3833.88
937.982	3820.55
938.29	3828.91
938.597	3833.2
938.905	3798.4
939.213	3792.75
939.52	3764.05
939.827	3790.95
940.135	3735.58
940.442	3707.33
940.749	3720.44
941.056	3700.1
941.363	3701
941.67	3646.99
941.977	3588.24
942.284	3578.97
942.591	3630.27
942.898	3585.75
943.205	3597.05
943.511	3539.88
943.818	3552.31
944.125	3538.3
944.431	3505.3
944.738	3517.51
945.044	3494.23
945.35	3471.63
945.657	3444.74
945.963	3410.39
946.269	3412.65
946.575	3428.24
946.881	3355.93
947.187	3373.1
947.493	3368.36
947.799	3355.93
948.105	3334.46
948.41	3315.25
948.716	3351.41
949.022	3307.79
949.327	3299.66
949.633	3292.2
949.938	3283.39
950.244	3257.17
950.549	3197.51
950.854	3230.06
951.16	3215.37
951.465	3236.38
951.77	3185.54
952.075	3161.13
952.38	3155.48
952.685	3160.68
952.99	3107.35
953.294	3127.23
953.599	3129.49
953.904	3072.09
954.209	3052.21
954.513	3061.93
954.818	3043.17
955.122	3030.97
955.426	3046.11
955.731	3045.2
956.035	3026.45
956.339	3001.36
956.643	2989.61
956.948	2953.91
957.252	2959.55
957.556	2945.77
957.86	2898.54
958.163	2927.24
958.467	2899.9
958.771	2901.48
959.075	2874.81
959.378	2848.15
959.682	2847.69
959.985	2833.91
960.289	2826.9
960.592	2842.27
960.896	2793.46
961.199	2823.51
961.502	2790.29
961.805	2759.11
962.108	2752.78
962.411	2790.52
962.714	2741.48
963.017	2694.03
963.32	2755.04
963.623	2673.91
963.926	2715.95
964.228	2702.16
964.531	2672.1
964.833	2605.67
965.136	2612.45
965.438	2669.39
965.741	2639.79
966.043	2625.1
966.345	2625.33
966.648	2583.07
966.95	2566.57
967.252	2595.04
967.554	2524.76
967.856	2551.43
968.158	2543.97
968.46	2545.78
968.761	2518.89
969.063	2492.22
969.365	2489.74
969.666	2477.99
969.968	2498.1
970.269	2447.48
970.571	2491.32
970.872	2471.21
971.174	2415.61
971.475	2443.18
971.776	2403.64
972.077	2391.66
972.378	2429.85
972.679	2397.08
972.98	2384.65
973.281	2381.49
973.582	2386.91
973.883	2346.92
974.183	2360.93
974.484	2339.01
974.785	2374.49
975.085	2333.58
975.386	2318.44
975.686	2283.87
975.986	2288.61
976.287	2268.05
976.587	2250.65
976.887	2287.48
977.187	2235.96
977.487	2273.92
977.787	2245
978.087	2203.42
978.387	2217.88
978.687	2221.72
978.987	2202.51
979.286	2216.07
979.586	2169.07
979.885	2164.77
980.185	2177.65
980.484	2138.33
980.784	2155.06
981.083	2124.55
981.382	2136.75
981.682	2105.34
981.981	2136.98
982.28	2079.13
982.579	2083.19
982.878	2102.63
983.177	2042.97
983.475	2089.52
983.774	2059.47
984.073	2051.56
984.372	2012.46
984.67	2040.48
984.969	2021.95
985.267	1986.47
985.566	2004.33
985.864	1980.82
986.162	1985.57
986.461	1970.65
986.759	1968.17
987.057	1961.84
987.355	1976.53
987.653	1924.1
987.951	1952.12
988.249	1955.06
988.547	1932.69
988.844	1909.19
989.142	1903.99
989.44	1891.79
989.737	1880.04
990.035	1864.22
990.332	1838.23
990.63	1828.06
990.927	1859.92
991.224	1853.37
991.521	1833.26
991.819	1865.8
992.116	1829.87
992.413	1805.46
992.71	1793.71
993.006	1782.64
993.303	1800.94
993.6	1817.44
993.897	1790.55
994.193	1795.29
994.49	1751
994.787	1755.52
995.083	1739.93
995.379	1708.74
995.676	1744.45
995.972	1723.88
996.268	1745.12
996.565	1709.64
996.861	1683.66
997.157	1683.43
997.453	1663.77
997.749	1662.41
998.044	1659.7
998.34	1623.32
998.636	1652.24
998.932	1638.91
999.227	1628.52
999.523	1640.27
999.818	1597.56
1000.114	1608.63
1000.409	1588.29
1000.704	1580.61
1001	1589.42
1001.295	1591.46
1001.59	1544.45
1001.885	1551.23
1002.18	1559.82
1002.475	1553.94
1002.77	1537.67
1003.065	1538.8
1003.359	1508.07
1003.654	1527.73
1003.949	1504.68
1004.243	1476.43
1004.538	1463.55
1004.832	1460.84
1005.127	1476.66
1005.421	1443.89
1005.715	1482.53
1006.009	1435.98
1006.304	1435.53
1006.598	1397.34
1006.892	1425.36
1007.186	1427.84
1007.48	1422.42
1007.773	1425.81
1008.067	1396.43
1008.361	1363.21
1008.655	1408.18
1008.948	1379.71
1009.242	1377
1009.535	1360.5
1009.829	1341.07
1010.122	1368.41
1010.415	1343.78
1010.708	1346.72
1011.001	1329.09
1011.295	1313.27
1011.588	1314.4
1011.881	1284.12
1012.173	1287.51
1012.466	1281.18
1012.759	1284.12
1013.052	1269.2
1013.344	1272.37
1013.637	1273.95
1013.93	1242.09
1014.222	1247.74
1014.514	1255.64
1014.807	1241.41
1015.099	1235.08
1015.391	1246.38
1015.683	1246.15
1015.976	1215.42
1016.268	1195.08
1016.56	1189.43
1016.851	1203.89
1017.143	1162.09
1017.435	1172.71
1017.727	1165.7
1018.018	1162.09
1018.31	1113.28
1018.602	1162.31
1018.893	1147.17
1019.185	1122.99
1019.476	1134.97
1019.767	1087.06
1020.058	1101.07
1020.35	1127.51
1020.641	1097.91
1020.932	1077.12
1021.223	1078.93
1021.514	1054.75
1021.804	1080.73
1022.095	1077.12
1022.386	1086.61
1022.677	1040.96
1022.967	1054.52
1023.258	1030.57
1023.548	1040.74
1023.839	1031.7
1024.129	1021.98
1024.419	1023.11
1024.709	1030.57
1025	986.73
1025.29	998.7
1025.58	1023.33
1025.87	982.21
1026.16	1003.22
1026.449	998.48
1026.739	975.88
1027.029	962.55
1027.319	965.71
1027.608	977.23
1027.898	961.42
1028.187	963.9
1028.477	947.18
1028.766	940.62
1029.055	924.13
1029.344	932.72
1029.634	925.94
1029.923	923
1030.212	913.06
1030.501	889.33
1030.79	890.68
1031.078	907.63
1031.367	913.28
1031.656	867.63
1031.945	868.08
1032.233	859.95
1032.522	878.93
1032.81	867.63
1033.099	864.47
1033.387	866.28
1033.675	833.96
1033.963	847.75
1034.251	828.54
1034.54	821.08
1034.828	841.64
1035.116	796.22
1035.403	824.24
1035.691	817.92
1035.979	801.87
1036.267	823.11
1036.554	801.42
1036.842	778.6
1037.129	799.61
1037.417	801.19
1037.704	788.09
1037.992	764.58
1038.279	771.59
1038.566	758.26
1038.853	758.26
1039.14	758.26
