Data from hue_30_FLMS001491_39.txt Node
Date: Mon Feb 06 15:05:12 GMT 2017
User: dcchb
Spectrometer: FLMS00149
Trigger mode: 0
Integration Time (sec): 2.000000E-2
Scans to average: 10
Electric dark correction enabled: true
Nonlinearity correction enabled: false
Boxcar width: 0
XAxis mode: Wavelengths
Number of Pixels in Spectrum: 2048
>>>>>Begin Spectral Data<<<<<
341.393	-23.98
341.776	-23.98
342.16	-23.98
342.543	-67.6
342.927	-49.29
343.31	-58.11
343.693	-55.85
344.077	-74.15
344.46	-72.34
344.843	-55.39
345.226	-43.87
345.61	-26.69
345.993	-15.85
346.376	-7.49
346.759	13.98
347.142	28.45
347.525	32.29
347.908	63.47
348.291	63.7
348.674	95.34
349.057	112.51
349.44	106.64
349.823	148.22
350.206	156.8
350.588	199.74
350.971	229.8
351.354	247.42
351.737	239.51
352.119	247.2
352.502	247.2
352.884	262.34
353.267	263.92
353.65	278.83
354.032	303.24
354.414	305.73
354.797	309.34
355.179	314.09
355.562	312.73
355.944	327.19
356.326	333.75
356.709	339.85
357.091	336.91
357.473	322
357.855	330.36
358.238	315.44
358.62	323.13
359.002	320.42
359.384	358.61
359.766	331.94
360.148	328.1
360.53	326.06
360.912	337.36
361.294	319.29
361.676	321.77
362.057	317.7
362.439	321.09
362.821	340.08
363.203	292.17
363.584	331.71
363.966	305.73
364.348	314.77
364.729	312.51
365.111	303.24
365.493	329.23
365.874	311.83
366.256	301.88
366.637	305.27
367.019	306.63
367.4	322.68
367.781	326.06
368.163	303.92
368.544	287.87
368.925	329
369.306	320.87
369.688	316.12
370.069	309.79
370.45	302.11
370.831	317.7
371.212	322.45
371.593	313.41
371.974	309.34
372.355	309.57
372.736	315.9
373.117	287.65
373.498	325.61
373.879	315.9
374.26	309.34
374.641	291.49
375.021	321.77
375.402	312.05
375.783	313.64
376.163	308.66
376.544	322.68
376.925	326.74
377.305	307.53
377.686	317.93
378.066	302.11
378.447	315.67
378.827	316.12
379.208	317.03
379.588	328.1
379.968	332.17
380.349	335.1
380.729	312.51
381.109	317.03
381.489	322.22
381.87	332.84
382.25	320.42
382.63	333.97
383.01	334.65
383.39	331.26
383.77	338.04
384.15	331.71
384.53	332.62
384.91	341.43
385.29	311.38
385.67	334.2
386.049	347.76
386.429	349.57
386.809	339.4
387.189	357.93
387.568	324.48
387.948	344.14
388.328	337.82
388.707	356.12
389.087	330.58
389.466	346.4
389.846	364.48
390.225	352.5
390.605	349.12
390.984	344.82
391.363	349.79
391.743	350.7
392.122	339.85
392.501	354.99
392.881	366.52
393.26	363.13
393.639	369.23
394.018	342.34
394.397	361.09
394.776	363.13
395.155	360.87
395.534	359.51
395.913	375.78
396.292	369
396.671	374.88
397.05	377.36
397.429	398.61
397.808	391.83
398.186	381.2
398.565	394.76
398.944	374.65
399.323	381.2
399.701	371.04
400.08	380.75
400.458	374.65
400.837	379.4
401.215	394.09
401.594	387.98
401.972	388.44
402.351	397.93
402.729	409.23
403.107	390.24
403.486	388.66
403.864	404.25
404.242	394.99
404.62	407.19
404.999	396.35
405.377	399.74
405.755	408.77
406.133	421.43
406.511	407.42
406.889	403.8
407.267	406.29
407.645	417.59
408.023	415.55
408.401	430.92
408.779	435.89
409.156	439.96
409.534	437.25
409.912	441.32
410.29	437.93
410.667	449.45
411.045	427.53
411.422	433.86
411.8	429.56
412.178	418.49
412.555	453.07
412.933	456.91
413.31	458.94
413.687	433.63
414.065	461.2
414.442	450.36
414.819	447.42
415.197	458.72
415.574	485.16
415.951	498.72
416.328	474.99
416.705	470.69
417.082	478.38
417.46	457.36
417.837	462.33
418.214	469.56
418.591	480.64
418.967	489.45
419.344	493.74
419.721	488.55
420.098	481.32
420.475	498.94
420.852	501.43
421.228	514.99
421.605	510.01
421.982	489
422.358	505.95
422.735	517.02
423.111	504.59
423.488	512.27
423.864	514.76
424.241	526.29
424.617	519.28
424.994	529.68
425.37	524.7
425.746	529.22
426.123	543.46
426.499	555.66
426.875	517.7
427.251	538.71
427.627	558.38
428.003	533.07
428.379	552.73
428.756	554.76
429.132	559.28
429.507	585.95
429.883	554.76
430.259	589.56
430.635	576.68
431.011	555.21
431.387	595.89
431.763	591.14
432.138	602.44
432.514	601.54
432.89	586.4
433.265	619.62
433.641	606.74
434.016	626.4
434.392	621.2
434.767	641.08
435.143	657.81
435.518	633.4
435.894	644.93
436.269	649.45
436.644	653.51
437.02	682.44
437.395	663.46
437.77	643.8
438.145	662.55
438.52	669.33
438.895	685.38
439.271	673.85
439.646	705.49
440.021	699.16
440.395	688.99
440.77	695.32
441.145	714.3
441.52	702.78
441.895	709.33
442.27	738.26
442.645	712.95
443.019	732.61
443.394	737.81
443.769	718.14
444.143	742.33
444.518	752.27
444.892	743.68
445.267	753.4
445.641	750.69
446.016	739.16
446.39	757.47
446.764	747.52
447.139	771.02
447.513	754.75
447.887	764.25
448.262	770.35
448.636	769.9
449.01	784.81
449.384	780.29
449.758	790.69
450.132	811.25
450.506	806.28
450.88	787.52
451.254	778.93
451.628	812.61
452.002	814.19
452.376	836.33
452.75	808.99
453.123	838.14
453.497	842.66
453.871	861.64
454.244	857.8
454.618	870.91
454.992	894.41
455.365	904.13
455.739	914.75
456.112	911.13
456.486	921.3
456.859	923.56
457.232	952.49
457.606	931.02
457.979	946.84
458.352	950.23
458.725	963.34
459.099	940.96
459.472	992.26
459.845	980.28
460.218	988.42
460.591	1034.07
460.964	1007.4
461.337	1047.63
461.71	1023.67
462.083	1060.51
462.456	1067.29
462.829	1072.71
463.201	1061.41
463.574	1092.15
463.947	1107.29
464.32	1080.62
464.692	1128.53
465.065	1148.64
465.438	1147.29
465.81	1170.34
466.183	1164.46
466.555	1187.29
466.928	1198.81
467.3	1205.82
467.672	1223.89
468.045	1258.92
468.417	1262.31
468.789	1283.33
469.161	1271.8
469.534	1302.99
469.906	1304.8
470.278	1303.67
470.65	1353.38
471.022	1407.17
471.394	1402.87
471.766	1384.79
472.138	1432.48
472.51	1465.92
472.882	1492.14
473.253	1494.85
473.625	1530.55
473.997	1565.81
474.369	1585.01
474.74	1592.92
475.112	1629.76
475.484	1646.26
475.855	1686.26
476.227	1701.62
476.598	1751.34
476.97	1771.45
477.341	1813.94
477.713	1830.43
478.084	1872.69
478.455	1904.33
478.827	1936.42
479.198	1998.79
479.569	1986.59
479.94	2062.06
480.311	2079.01
480.682	2132.57
481.053	2209.86
481.424	2246.24
481.795	2266.58
482.166	2321.72
482.537	2340.48
482.908	2432.45
483.279	2468.38
483.65	2478.32
484.021	2536.63
484.391	2609.62
484.762	2631.09
485.133	2677.19
485.503	2744.98
485.874	2782.72
486.244	2864.08
486.615	2910.18
486.985	2937.97
487.356	3007.8
487.726	3041.25
488.097	3152.43
488.467	3154.01
488.837	3239.66
489.207	3265.42
489.578	3367.57
489.948	3392.2
490.318	3443.72
490.688	3460.45
491.058	3584.96
491.428	3652.98
491.798	3668.12
492.168	3757.39
492.538	3749.7
492.908	3840.32
493.278	3871.51
493.648	3920.55
494.017	3960.77
494.387	4064.72
494.757	4038.96
495.126	4106.3
495.496	4150.82
495.866	4196.92
496.235	4269.92
496.605	4309.24
496.974	4347.43
497.344	4434.66
497.713	4429.46
498.082	4503.13
498.452	4553.3
498.821	4618.38
499.19	4620.64
499.559	4676.91
499.928	4694.76
500.298	4706.06
500.667	4735.67
501.036	4795.33
501.405	4863.35
501.774	4910.58
502.143	4967.75
502.512	4989.45
502.88	5020.86
503.249	5014.08
503.618	5066.28
503.987	5088.43
504.356	5171.36
504.724	5158.03
505.093	5190.34
505.462	5199.61
505.83	5263.11
506.199	5318.93
506.567	5425.59
506.936	5418.59
507.304	5485.03
507.672	5454.07
508.041	5542.88
508.409	5572.71
508.777	5615.64
509.145	5606.38
509.514	5667.17
509.882	5771.12
510.25	5704
510.618	5728.63
510.986	5813.15
511.354	5839.14
511.722	5883.21
512.09	5866.71
512.458	5841.17
512.826	5934.73
513.193	5948.06
513.561	6014.95
513.929	6024.45
514.297	6086.82
514.664	6076.2
515.032	6134.5
515.4	6110.77
515.767	6187.83
516.135	6184.22
516.502	6115.52
516.869	6294.72
517.237	6260.37
517.604	6269.19
517.972	6374.49
518.339	6397.54
518.706	6390.31
519.073	6402.06
519.44	6452.23
519.808	6506.02
520.175	6463.3
520.542	6623.3
520.909	6568.39
521.276	6607.71
521.643	6637.31
522.009	6691.1
522.376	6687.25
522.743	6779.23
523.11	6845.67
523.477	6824.65
523.843	6868.04
524.21	6986
524.577	6964.53
524.943	6975.38
525.31	7032.78
525.676	7019
526.043	7097.86
526.409	7215.38
526.776	7197.07
527.142	7249.5
527.508	7250.4
527.874	7364.3
528.241	7345.09
528.607	7398.87
528.973	7423.96
529.339	7410.17
529.705	7500.34
530.071	7537.17
530.437	7550.06
530.803	7633.22
531.169	7657.17
531.535	7664.85
531.901	7698.53
532.267	7741.92
532.632	7807
532.998	7861.23
533.364	7833.66
533.73	7925.87
534.095	7974.45
534.461	7964.96
534.826	8001.57
535.192	8036.14
535.557	8155.92
535.923	8121.79
536.288	8194.33
536.653	8111.17
537.019	8136.25
537.384	8256.93
537.749	8203.37
538.114	8255.8
538.479	8218.29
538.845	8346.87
539.21	8341.22
539.575	8376.7
539.94	8482.69
540.305	8442.01
540.67	8523.82
541.034	8514.1
541.399	8556.58
541.764	8609.01
542.129	8601.55
542.494	8731.72
542.858	8686.97
543.223	8776.01
543.587	8777.37
543.952	8790.7
544.316	8800.64
544.681	8851.26
545.045	8873.86
545.41	8959.51
545.774	8977.36
546.138	8996.57
546.503	9017.81
546.867	9062.56
547.231	9136.91
547.595	9094.2
547.959	9220.29
548.324	9162.67
548.688	9200.41
549.052	9257.36
549.416	9292.61
549.779	9307.52
550.143	9397.92
550.507	9408.76
550.871	9387.52
551.235	9441.53
551.599	9524.24
551.962	9491.93
552.326	9543.9
552.689	9590
553.053	9579.38
553.417	9519.04
553.78	9675.65
554.143	9639.72
554.507	9672.94
554.87	9701.64
555.234	9829.54
555.597	9773.73
555.96	9830.67
556.323	9898.02
556.686	9830.22
557.05	9900.28
557.413	9949.77
557.776	9959.03
558.139	10051.68
558.502	10071.57
558.865	10041.29
559.228	10131
559.59	10190.21
559.953	10161.51
560.316	10300.49
560.679	10168.07
561.041	10366.48
561.404	10415.97
561.767	10396.76
562.129	10381.85
562.492	10480.83
562.854	10468.62
563.217	10567.83
563.579	10532.58
563.941	10629.07
564.304	10684.21
564.666	10696.19
565.028	10820.03
565.39	10746.58
565.753	10798.33
566.115	10872
566.477	10859.57
566.839	10886.47
567.201	11015.95
567.563	10970.76
567.925	11023.86
568.287	11076.74
568.648	11098.89
569.01	11204.42
569.372	11189.96
569.734	11107.93
570.095	11196.51
570.457	11316.06
570.819	11309.96
571.18	11401.03
571.542	11465.66
571.903	11482.16
572.265	11570.97
572.626	11640.8
572.987	11634.69
573.349	11771.41
573.71	11750.62
574.071	11800.34
574.432	11977.51
574.794	11914.69
575.155	12046.89
575.516	12107.22
575.877	12203.94
576.238	12281
576.599	12383.6
576.96	12429.25
577.32	12454.56
577.681	12640.09
578.042	12689.13
578.403	12749.47
578.763	12909.01
579.124	13006.86
579.485	13082.11
579.845	13220.42
580.206	13288.66
580.566	13377.02
580.927	13469.22
581.287	13716
581.648	13812.04
582.008	13922.54
582.368	14085.93
582.728	14213.38
583.089	14349.65
583.449	14496.31
583.809	14726.82
584.169	14822.63
584.529	15028.05
584.889	15332.22
585.249	15416.06
585.609	15508.04
585.969	15787.13
586.329	15946.9
586.688	16117.06
587.048	16382.37
587.408	16493.1
587.768	16750.27
588.127	16962.46
588.487	17134.66
588.846	17540.53
589.206	17620.53
589.565	17817.58
589.925	18041.08
590.284	18373.95
590.643	18516.1
591.003	18811.23
591.362	19075.63
591.721	19291.67
592.08	19452.79
592.44	19861.37
592.799	20042.61
593.158	20281.47
593.517	20591.97
593.876	20828.58
594.235	21052.3
594.593	21267.89
594.952	21614.32
595.311	21695.9
595.67	21921.2
596.029	22320.97
596.387	22666.72
596.746	22976.77
597.104	23095.86
597.463	23321.84
597.822	23663.76
598.18	23762.96
598.538	24023.07
598.897	24343.74
599.255	24450.63
599.613	24936.72
599.972	25073.44
600.33	25292.19
600.688	25478.85
601.046	25814.21
601.404	26098.04
601.762	26162.9
602.12	26587.07
602.478	26731.25
602.836	26988.41
603.194	27030.67
603.552	27391.12
603.91	27509.98
604.268	27893.02
604.625	27956.98
604.983	28230.87
605.341	28312.22
605.698	28646
606.056	28791.08
606.413	28887.57
606.771	29198.53
607.128	29490.5
607.485	29504.51
607.843	29697.5
608.2	30112.63
608.557	30184.71
608.914	30297.93
609.272	30578.6
609.629	30690.01
609.986	30949.67
610.343	31100.62
610.7	31423.1
611.057	31469.2
611.414	31627.61
611.771	31716.65
612.127	32055.17
612.484	32072.8
612.841	32340.82
613.198	32407.48
613.554	32525.44
613.911	32815.61
614.267	32727.25
614.624	33005.88
614.98	33097.18
615.337	33539.43
615.693	33483.84
616.05	33486.32
616.406	33776.26
616.762	33728.12
617.118	33956.59
617.475	33968.8
617.831	34149.13
618.187	34291.05
618.543	34424.38
618.899	34773.97
619.255	34539.18
619.611	34726.06
619.967	34891.48
620.323	35127.64
620.678	35024.14
621.034	34965.15
621.39	35119.27
621.746	35219.61
622.101	35542.77
622.457	35314.3
622.812	35481.52
623.168	35603.1
623.523	35695.08
623.879	35877.9
624.234	35662.76
624.589	35966.26
624.945	36070.66
625.3	36083.54
625.655	35997.44
626.01	36339.36
626.365	36287.83
626.72	36239.24
627.075	36322.18
627.43	36397.88
627.785	36319.02
628.14	36466.36
628.495	36545.23
628.85	36569.86
629.205	36454.83
629.559	36674.94
629.914	36587.03
630.269	36765.78
630.623	36636.52
630.978	36563.3
631.332	36728.27
631.687	36780.02
632.041	36574.83
632.396	36615.51
632.75	36697.99
633.104	36678.78
633.459	36626.35
633.813	36561.5
634.167	36672.91
634.521	36629.07
634.875	36720.81
635.229	36771.66
635.583	36529.86
635.937	36531.44
636.291	36646.24
636.645	36766.91
636.999	36613.92
637.352	36704.54
637.706	36491.22
638.06	36613.25
638.413	36539.58
638.767	36495.06
639.121	36725.33
639.474	36435.4
639.828	36533.93
640.181	36498.67
640.534	36634.26
640.888	36451.89
641.241	36294.61
641.594	36473.59
641.947	36654.38
642.301	36472.23
642.654	36458.45
643.007	36566.92
643.36	36328.73
643.713	36375.06
644.066	36688.05
644.419	36393.82
644.771	36082.86
645.124	35772.14
645.477	35641.07
645.83	35479.04
646.182	35373.05
646.535	35305.48
646.888	35262.32
647.24	35100.74
647.593	35383.45
647.945	35333.05
648.298	35142.55
648.65	35227.75
649.002	35084.02
649.355	35135.55
649.707	35075.66
650.059	35225.26
650.411	35690.56
650.763	35689.2
651.115	36059.81
651.467	36015.52
651.819	36005.8
652.171	35899.59
652.523	35938.69
652.875	35794.51
653.227	35752.93
653.578	35912.25
653.93	35804.23
654.282	35711.35
654.633	35562.65
654.985	35715.42
655.337	35650.79
655.688	35699.6
656.039	35881.29
656.391	35484.01
656.742	35652.37
657.094	35570.34
657.445	35620.05
657.796	35577.12
658.147	35545.7
658.498	35542.77
658.849	35754.74
659.2	35549.32
659.551	35457.34
659.902	35719.94
660.253	35513.16
660.604	35545.48
660.955	35394.07
661.306	35653.05
661.656	35496.67
662.007	35482.88
662.358	35427.06
662.708	35630
663.059	35546.16
663.409	35276.33
663.76	35584.57
664.11	35680.39
664.461	35514.74
664.811	35534.4
665.161	35571.01
665.511	35364.24
665.862	35395.88
666.212	35533.05
666.562	35464.8
666.912	35515.42
667.262	35289.89
667.612	35273.62
667.962	35458.02
668.312	35315.2
668.662	35468.42
669.011	35333.51
669.361	35390.68
669.711	35380.96
670.06	35243.79
670.41	35266.84
670.76	35119.95
671.109	35407.63
671.459	35213.28
671.808	35238.37
672.157	35349.32
672.507	35138.93
672.856	35162.44
673.205	35152.49
673.554	35177.13
673.904	35196.79
674.253	35404.92
674.602	35188.88
674.951	34586.63
675.3	34466.86
675.649	35045.83
675.998	35030.92
676.346	35087.41
676.695	35089.44
677.044	34891.71
677.393	35007.64
677.741	34971.93
678.09	34890.81
678.438	34841.32
678.787	34903.69
679.135	34914.08
679.484	34720.87
679.832	34761.09
680.181	34523.58
680.529	34765.16
680.877	34660.08
681.225	34528.56
681.573	34764.26
681.922	34425.96
682.27	34385.96
682.618	34381.89
682.966	34331.05
683.314	34349.58
683.661	34176.7
684.009	34160.88
684.357	34171.5
684.705	34032.07
685.053	34077.49
685.4	34071.39
685.748	33822.36
686.095	33919.53
686.443	33766.77
686.79	33691.97
687.138	33748.91
687.485	33716.83
687.832	33531.75
688.18	33680.44
688.527	33415.82
688.874	33425.53
689.221	33406.1
689.568	33355.48
689.915	33329.04
690.262	33294.46
690.609	33009.27
690.956	33046.11
691.303	32929.73
691.65	32766.79
691.997	32899.9
692.344	32785.55
692.69	32656.97
693.037	32647.02
693.383	32438.89
693.73	32460.81
694.077	32302.4
694.423	32419.23
694.769	32155.28
695.116	32166.13
695.462	32066.25
695.808	32071.22
696.155	32045.68
696.501	31781.28
696.847	31779.93
697.193	31518.01
697.539	31744.45
697.885	31496.54
698.231	31383.55
698.577	31333.84
698.923	31191.92
699.269	31235.99
699.614	30948.08
699.96	30986.28
700.306	30960.06
700.651	30754.19
700.997	30812.27
701.342	30678.49
701.688	30706.28
702.033	30492.96
702.379	30653.18
702.724	30381.32
703.069	30438.04
703.415	30236.46
703.76	30136.35
704.105	30130.93
704.45	30075.34
704.795	29887.77
705.14	29880.54
705.485	29881.22
705.83	29681.23
706.175	29730.49
706.52	29722.13
706.865	29633.32
707.209	29575.92
707.554	29469.48
707.899	29498.18
708.243	29252.54
708.588	29355.13
708.932	29116.95
709.277	29012.54
709.621	29194.91
709.966	28917.63
710.31	29006.67
710.654	28801.25
710.998	28786.56
711.342	28742.72
711.687	28643.51
712.031	28558.54
712.375	28518.54
712.719	28488.26
713.063	28414.82
713.407	28510.86
713.75	28324.2
714.094	28277.19
714.438	28201.26
714.782	28099.12
715.125	28127.59
715.469	28081.95
715.812	27928.05
716.156	27836.53
716.499	27786.13
716.843	27926.47
717.186	27593.14
717.53	27837.43
717.873	27708.62
718.216	27689.19
718.559	27614.16
718.902	27438.35
719.246	27504.79
719.589	27429.53
719.932	27327.16
720.275	27391.12
720.617	27134.63
720.96	27241.74
721.303	27142.31
721.646	27204.91
721.989	27018.92
722.331	27138.24
722.674	27009.88
723.016	27063.21
723.359	27008.75
723.701	26916.78
724.044	26890.34
724.386	26816.22
724.729	26844.69
725.071	26668.88
725.413	26669.1
725.755	26658.93
726.097	26580.52
726.439	26435.89
726.782	26438.15
727.124	26614.19
727.465	26490.57
727.807	26326.29
728.149	26311.82
728.491	26306.62
728.833	26380.52
729.175	26179.4
729.516	26077.48
729.858	26116.8
730.199	26068.66
730.541	26082
730.882	26073.18
731.224	26075.67
731.565	25893.75
731.906	25856.47
732.248	25942.11
732.589	25884.49
732.93	25697.6
733.271	25815.79
733.612	25709.8
733.953	25791.38
734.294	25696.7
734.635	25648.79
734.976	25663.93
735.317	25557.49
735.658	25503.48
735.999	25514.78
736.339	25409.93
736.68	25494.89
737.021	25425.74
737.361	25214.45
737.702	25376.93
738.042	25299.65
738.383	25279.08
738.723	25288.57
739.063	25265.52
739.404	25121.8
739.744	25126.32
740.084	25145.75
740.424	25126.77
740.764	24962.71
741.104	25089.26
741.444	24912.09
741.784	24913.44
742.124	24858.98
742.464	24851.75
742.804	24811.97
743.143	24756.16
743.483	24782.6
743.823	24634.13
744.162	24628.48
744.502	24731.07
744.841	24568.14
745.181	24606.33
745.52	24565.65
745.86	24651.53
746.199	24499.44
746.538	24400.46
746.877	24426.45
747.216	24531.76
747.556	24388.48
747.895	24406.56
748.234	24280.01
748.573	24282.27
748.911	24271.88
749.25	24208.6
749.589	24116.17
749.928	24136.51
750.267	24230.07
750.605	24031.2
750.944	23994.82
751.283	23984.65
751.621	23931.77
751.96	23847.93
752.298	23908.04
752.636	23936.97
752.975	23821.27
753.313	23621.72
753.651	23839.57
753.989	23501.95
754.327	23602.97
754.666	23445.46
755.004	23512.8
755.342	23622.85
755.679	23577.66
756.017	23393.71
756.355	23448.39
756.693	23339.02
757.031	23377.21
757.368	23248.85
757.706	23202.75
758.044	23208.85
758.381	23226.25
758.719	23089.53
759.056	23041.17
759.394	23057.9
759.731	22715.08
760.068	22864.68
760.405	22708.53
760.743	22784.23
761.08	22724.12
761.417	22583.56
761.754	22547.85
762.091	22549.44
762.428	22473.96
762.765	22281.87
763.102	22356.22
763.438	22354.86
763.775	22100.63
764.112	22137.69
764.449	22060.18
764.785	21998.72
765.122	21892.96
765.458	21788.1
765.795	21799.17
766.131	21813.41
766.467	21687.99
766.804	21567.99
767.14	21456.36
767.476	21484.83
767.812	21429.46
768.148	21523.93
768.485	21271.28
768.821	21104.28
769.157	21180.43
769.492	21083.94
769.828	21059.98
770.164	20883.72
770.5	20804.17
770.836	20737.28
771.171	20688.24
771.507	20635.59
771.842	20564.85
772.178	20475.59
772.513	20426.33
772.849	20421.13
773.184	20313.34
773.519	20329.38
773.855	20093.23
774.19	20159.22
774.525	20072.66
774.86	19994.7
775.195	19928.71
775.53	19916.06
775.865	19868.6
776.2	19667.48
776.535	19538.89
776.87	19559.91
777.205	19502.74
777.539	19472.23
777.874	19406.92
778.209	19250.09
778.543	19178.45
778.878	19113.59
779.212	19137.77
779.547	18951.11
779.881	19059.36
780.215	18858.23
780.55	18916.08
780.884	18689.42
781.218	18707.95
781.552	18671.12
781.886	18603.78
782.22	18485.81
782.554	18487.17
782.888	18256.89
783.222	18191.13
783.556	18066.84
783.889	18049.44
784.223	18025.26
784.557	18001.98
784.89	17940.97
785.224	17799.05
785.557	17786.17
785.891	17688.09
786.224	17649.68
786.558	17616.01
786.891	17438.16
787.224	17477.48
787.557	17352.96
787.891	17369.68
788.224	17314.09
788.557	17220.99
788.89	17218.5
789.223	17176.24
789.556	17055.57
789.888	16995.23
790.221	16951.62
790.554	16873.2
790.887	16883.6
791.219	16749.81
791.552	16710.49
791.884	16602.25
792.217	16633.21
792.549	16519.09
792.882	16359.99
793.214	16287.23
793.546	16498.3
793.879	16353.21
794.211	16238.64
794.543	16248.58
794.875	16100.34
795.207	16240.22
795.539	16086.55
795.871	16065.99
796.203	16029.15
796.535	15781.7
796.867	15850.4
797.198	15828.26
797.53	15796.17
797.862	15622.39
798.193	15686.79
798.525	15588.94
798.856	15581.93
799.188	15448.38
799.519	15327.03
799.85	15351.66
800.182	15369.96
800.513	15324.09
800.844	15197.76
801.175	15260.14
801.506	15205.67
801.837	15086.35
802.168	15090.87
802.499	15047.49
802.83	14940.37
803.161	14916.64
803.491	14859.24
803.822	14902.4
804.153	14831.67
804.483	14682.3
804.814	14654.95
805.145	14678.23
805.475	14635.97
805.805	14573.37
806.136	14566.59
806.466	14472.59
806.796	14461.29
807.126	14332.48
807.457	14375.86
807.787	14322.08
808.117	14264.23
808.447	14171.8
808.777	14283.89
809.107	14165.7
809.436	14137.23
809.766	14064.69
810.096	14016.78
810.426	14018.36
810.755	13979.49
811.085	13973.39
811.414	13889.78
811.744	13854.3
812.073	13870.12
812.403	13833.51
812.732	13739.95
813.061	13809.1
813.39	13601.42
813.719	13616.11
814.049	13680.06
814.378	13623.57
814.707	13506.96
815.036	13521.42
815.365	13401.65
815.693	13255.44
816.022	13276.23
816.351	13296.8
816.68	13173.18
817.008	13247.98
817.337	13151.04
817.665	13131.83
817.994	13248.66
818.322	13210.47
818.651	13044.37
818.979	12959.63
819.307	13026.75
819.636	13066.07
819.964	12944.26
820.292	12998.95
820.62	12992.85
820.948	12944.26
821.276	13000.99
821.604	12904.49
821.932	12942.68
822.259	12967.77
822.587	12915.79
822.915	12953.08
823.243	12975.68
823.57	12823.14
823.898	12938.84
824.225	12879.41
824.553	12759.64
824.88	12881.21
825.207	12869.92
825.535	12880.31
825.862	12913.76
826.189	12813.42
826.516	12870.82
826.843	12859.29
827.17	12834.44
827.497	12887.09
827.824	12791.05
828.151	12841.22
828.478	12791.27
828.805	12948.56
829.131	12861.33
829.458	12790.37
829.785	12767.55
830.111	12843.48
830.438	12824.72
830.764	12809.13
831.09	12822.91
831.417	12777.04
831.743	12794.44
832.069	12840.09
832.395	12723.7
832.722	12716.02
833.048	12740.88
833.374	12704.72
833.7	12687.1
834.026	12688.23
834.351	12749.24
834.677	12632.86
835.003	12707.43
835.329	12726.42
835.654	12664.95
835.98	12617.27
836.306	12594.67
836.631	12534.78
836.956	12538.63
837.282	12565.29
837.607	12509.02
837.932	12459.76
838.258	12473.09
838.583	12434.22
838.908	12455.46
839.233	12439.42
839.558	12404.17
839.883	12323.04
840.208	12200.1
840.533	12343.15
840.858	12345.86
841.182	12248.92
841.507	12335.69
841.832	12269.03
842.156	12209.14
842.481	12083.04
842.805	12137.96
843.13	12154.91
843.454	12031.97
843.778	12046.66
844.103	12081.46
844.427	12054.34
844.751	12000.56
845.075	11979.54
845.399	11876.27
845.723	11806.44
846.047	11856.61
846.371	11800.11
846.695	11827.23
847.019	11710.85
847.343	11736.84
847.666	11622.72
847.99	11467.92
848.313	11537.3
848.637	11481.03
848.96	11460.46
849.284	11448.71
849.607	11345.21
849.931	11332.1
850.254	11290.07
850.577	11197.87
850.9	11143.18
851.223	11093.69
851.546	11057.08
851.869	10973.24
852.192	11070.19
852.515	10823.19
852.838	10882.17
853.161	10851.21
853.483	10788.16
853.806	10732.8
854.129	10730.76
854.451	10721.5
854.774	10662.52
855.096	10619.13
855.419	10559.47
855.741	10574.38
856.063	10518.34
856.385	10471.56
856.708	10498
857.03	10381.17
857.352	10398.79
857.674	10266.82
857.996	10298.46
858.318	10284.22
858.64	10279.7
858.961	10217.56
859.283	10167.84
859.605	10125.58
859.926	10206.03
860.248	10139.59
860.57	10074.06
860.891	10118.35
861.212	10073.15
861.534	10020.27
861.855	10016.66
862.176	10065.7
862.498	10014.85
862.819	9896.21
863.14	9997
863.461	9938.02
863.782	9907.96
864.103	9897.79
864.424	9855.08
864.745	9947.51
865.065	9825.7
865.386	9787.06
865.707	9721.07
866.027	9765.14
866.348	9748.19
866.668	9775.99
866.989	9727.4
867.309	9622.09
867.63	9675.2
867.95	9639.94
868.27	9637.68
868.59	9653.96
868.91	9606.95
869.23	9607.63
869.55	9542.32
869.87	9585.48
870.19	9489.44
870.51	9496.22
870.83	9453.28
871.15	9477.46
871.469	9424.13
871.789	9536.67
872.109	9499.61
872.428	9477.91
872.748	9465.94
873.067	9430.68
873.386	9456.9
873.706	9394.3
874.025	9349.1
874.344	9336.22
874.663	9411.25
874.982	9307.52
875.301	9347.3
875.62	9282.89
875.939	9290.12
876.258	9256.9
876.577	9183.91
876.896	9264.59
877.214	9223.91
877.533	9174.87
877.852	9165.15
878.17	9175.55
878.489	9148.43
878.807	9116.79
879.125	9111.14
879.444	9074.99
879.762	9099.17
880.08	9078.38
880.398	9023.24
880.716	9022.33
881.034	9050.36
881.352	8981.43
881.67	8946.4
881.988	9032.05
882.306	8931.04
882.624	8932.62
882.941	8927.87
883.259	8864.82
883.577	8824.6
883.894	8770.14
884.212	8836.8
884.529	8810.14
884.846	8758.16
885.164	8783.02
885.481	8716.35
885.798	8721.1
886.115	8692.4
886.432	8686.52
886.75	8624.38
887.067	8657.6
887.383	8647.65
887.7	8578.28
888.017	8590.48
888.334	8597.49
888.651	8557.49
888.967	8442.01
889.284	8368.79
889.6	8455.57
889.917	8381.45
890.233	8356.14
890.55	8331.96
890.866	8386.64
891.182	8392.07
891.498	8282.24
891.815	8233.2
892.131	8285.86
892.447	8244.5
892.763	8224.84
893.079	8164.95
893.395	8153.88
893.71	8154.33
894.026	8106.88
894.342	8150.72
894.657	8011.51
894.973	8085.86
895.289	8010.16
895.604	8066.2
895.92	7943.04
896.235	7935.13
896.55	7903.72
896.865	7850.61
897.181	7909.37
897.496	7866.66
897.811	7834.12
898.126	7815.59
898.441	7770.61
898.756	7727
899.071	7672.54
899.386	7722.93
899.7	7635.25
900.015	7638.87
900.33	7596.38
900.644	7540.11
900.959	7591.86
901.273	7569.94
901.588	7493.56
901.902	7421.47
902.216	7494.92
902.531	7416.27
902.845	7409.04
903.159	7402.26
903.473	7302.6
903.787	7303.06
904.101	7249.05
904.415	7258.09
904.729	7227.13
905.042	7167.01
905.356	7138.54
905.67	7131.99
905.984	7125.43
906.297	7073.46
906.611	7043.4
906.924	7057.64
907.237	6984.65
907.551	6970.86
907.864	6948.94
908.177	6934.7
908.491	6873.46
908.804	6866.68
909.117	6830.98
909.43	6809.74
909.743	6768.38
910.056	6781.71
910.368	6750.3
910.681	6707.82
910.994	6709.4
911.307	6683.41
911.619	6560.25
911.932	6597.09
912.244	6527.48
912.557	6514.83
912.869	6499.69
913.181	6482.51
913.494	6423.31
913.806	6431.89
914.118	6445.23
914.43	6310.99
914.742	6338.11
915.054	6349.41
915.366	6277.55
915.678	6304.44
915.99	6249.98
916.302	6180.6
916.613	6217.89
916.925	6194.16
917.236	6146.93
917.548	6104.67
917.859	6129.98
918.171	6074.84
918.482	6048.85
918.794	6010.89
919.105	6032.81
919.416	5965.24
919.727	5958.01
920.038	5907.84
920.349	5904.22
920.66	5853.38
920.971	5854.06
921.282	5834.62
921.593	5821.06
921.903	5751.23
922.214	5748.07
922.525	5769.99
922.835	5682.99
923.146	5706.26
923.456	5670.56
923.767	5593.27
924.077	5656.09
924.387	5614.97
924.697	5550.56
925.008	5604.57
925.318	5540.84
925.628	5548.53
925.938	5475.53
926.248	5429.89
926.558	5425.82
926.867	5379.49
927.177	5436.21
927.487	5328.87
927.796	5272.6
928.106	5318.7
928.416	5293.17
928.725	5293.17
929.034	5249.78
929.344	5213.85
929.653	5242.32
929.962	5176.56
930.271	5115.32
930.581	5122.77
930.89	5077.35
931.199	5090.91
931.508	5078.93
931.817	5079.61
932.125	5056.56
932.434	5068.99
932.743	4953.29
933.051	4971.82
933.36	4952.84
933.669	4890.46
933.977	4925.49
934.286	4884.14
934.594	4890.01
934.902	4816.12
935.21	4825.16
935.519	4827.64
935.827	4786.51
936.135	4743.12
936.443	4734.99
936.751	4779.06
937.059	4715.33
937.367	4678.49
937.674	4673.07
937.982	4677.81
938.29	4632.17
938.597	4664.26
938.905	4550.81
939.213	4572.96
939.52	4554.65
939.827	4565.5
940.135	4494.32
940.442	4521.89
940.749	4484.15
941.056	4471.72
941.363	4424.71
941.67	4438.73
941.977	4377.94
942.284	4373.19
942.591	4359.86
942.898	4353.08
943.205	4307.66
943.511	4308.33
943.818	4304.72
944.125	4287.32
944.431	4253.19
944.738	4230.37
945.044	4222.91
945.35	4197.6
945.657	4168.45
945.963	4159.41
946.269	4096.36
946.575	4127.09
946.881	4095.23
947.187	4101.33
947.493	4088.45
947.799	4088.45
948.105	4045.52
948.41	4014.56
948.716	4026.76
949.022	4017.95
949.327	3968.91
949.633	3899.53
949.938	3899.98
950.244	3897.27
950.549	3862.92
950.854	3851.17
951.16	3904.95
951.465	3883.49
951.77	3838.29
952.075	3853.88
952.38	3781.12
952.685	3763.26
952.99	3741.34
953.294	3773.66
953.599	3753.09
953.904	3674.9
954.209	3702.25
954.513	3725.98
954.818	3642.14
955.122	3670.16
955.426	3652.53
955.731	3607.11
956.035	3589.93
956.339	3594.68
956.643	3570.5
956.948	3580.22
957.252	3547.45
957.556	3536.6
957.86	3495.47
958.163	3490.28
958.467	3497.05
958.771	3494.57
959.075	3457.73
959.378	3444.4
959.682	3428.13
959.985	3407.11
960.289	3437.4
960.592	3370.28
960.896	3362.6
961.199	3354.01
961.502	3331.18
961.805	3354.46
962.108	3296.83
962.411	3302.26
962.714	3288.7
963.017	3316.49
963.32	3272.65
963.623	3267.46
963.926	3223.16
964.228	3235.14
964.531	3191.07
964.833	3171.64
965.136	3179.32
965.438	3138.42
965.741	3147.91
966.043	3130.06
966.345	3105.88
966.648	3107.69
966.95	3084.86
967.252	3073.34
967.554	3073.11
967.856	3083.05
968.158	3036.95
968.46	3015.94
968.761	2988.14
969.063	2989.72
969.365	2997.18
969.666	2963.74
969.968	2982.27
970.269	2956.28
970.571	2938.43
970.872	2925.54
971.174	2911.08
971.475	2916.51
971.776	2876.96
972.077	2859.33
972.378	2851.65
972.679	2824.76
972.98	2834.25
973.281	2834.7
973.582	2794.93
973.883	2798.99
974.183	2810.07
974.484	2797.64
974.785	2774.36
975.085	2727.81
975.386	2757.87
975.686	2756.74
975.986	2713.8
976.287	2721.26
976.587	2680.35
976.887	2670.86
977.187	2679.22
977.487	2700.24
977.787	2663.4
978.087	2610.75
978.387	2621.15
978.687	2635.61
978.987	2599
979.286	2621.15
979.586	2556.51
979.885	2575.95
980.185	2562.62
980.484	2540.02
980.784	2526.23
981.083	2520.58
981.382	2502.28
981.682	2507.02
981.981	2514.26
982.28	2519.68
982.579	2455.5
982.878	2446.91
983.177	2474.93
983.475	2417.99
983.774	2410.3
984.073	2418.89
984.372	2414.15
984.67	2372.56
984.969	2388.16
985.267	2357.2
985.566	2385.9
985.864	2361.94
986.162	2345.67
986.461	2346.12
986.759	2324.2
987.057	2326.01
987.355	2298.67
987.653	2286.92
987.951	2293.02
988.249	2274.94
988.547	2282.85
988.844	2268.61
989.142	2267.48
989.44	2188.84
989.737	2250.31
990.035	2223.19
990.332	2221.38
990.63	2212.34
990.927	2181.84
991.224	2163.76
991.521	2170.31
991.819	2170.31
992.116	2148.84
992.413	2160.82
992.71	2113.14
993.006	2093.93
993.303	2123.98
993.6	2088.28
993.897	2064.55
994.193	2064.78
994.49	2042.4
994.787	2033.14
995.083	2077.21
995.379	2063.65
995.676	2023.2
995.972	2004.44
996.268	2019.58
996.565	2015.29
996.861	1984.55
997.157	1985.46
997.453	1967.6
997.749	1976.19
998.044	1955.17
998.34	1935.06
998.636	1910.43
998.932	1948.85
999.227	1904.78
999.523	1908.85
999.818	1907.49
1000.114	1863.88
1000.409	1868.85
1000.704	1868.85
1001	1855.06
1001.295	1827.04
1001.59	1822.07
1001.885	1866.59
1002.18	1825.91
1002.475	1823.65
1002.77	1775.07
1003.065	1785.01
1003.359	1796.08
1003.654	1756.08
1003.949	1758.34
1004.243	1742.07
1004.538	1727.84
1004.832	1742.75
1005.127	1723.99
1005.421	1688.97
1005.715	1717.44
1006.009	1685.58
1006.304	1684.67
1006.598	1681.06
1006.892	1666.59
1007.186	1662.07
1007.48	1650.32
1007.773	1663.43
1008.067	1642.19
1008.361	1590.66
1008.655	1625.47
1008.948	1587.5
1009.242	1611.45
1009.535	1604.68
1009.829	1573.26
1010.122	1564.22
1010.415	1554.73
1010.708	1565.81
1011.001	1538.69
1011.295	1541.4
1011.588	1532.13
1011.881	1487.84
1012.173	1507.73
1012.466	1487.39
1012.759	1483.55
1013.052	1486.26
1013.344	1467.05
1013.637	1467.5
1013.93	1441.29
1014.222	1452.59
1014.514	1453.49
1014.807	1434.51
1015.099	1446.26
1015.391	1414.17
1015.683	1394.29
1015.976	1410.1
1016.268	1386.38
1016.56	1368.75
1016.851	1372.37
1017.143	1367.85
1017.435	1377.79
1017.727	1357
1018.018	1339.82
1018.31	1343.44
1018.602	1323.55
1018.893	1334.63
1019.185	1334.4
1019.476	1338.47
1019.767	1285.81
1020.058	1316.77
1020.35	1266.15
1020.641	1252.37
1020.932	1285.81
1021.223	1275.87
1021.514	1252.82
1021.804	1261.86
1022.095	1252.82
1022.386	1205.82
1022.677	1234.52
1022.967	1202.43
1023.258	1217.79
1023.548	1193.61
1023.839	1205.36
1024.129	1175.53
1024.419	1166.04
1024.709	1141.18
1025	1149.32
1025.29	1145.93
1025.58	1140.28
1025.87	1116.78
1026.16	1122.65
1026.449	1123.56
1026.739	1132.6
1027.029	1114.07
1027.319	1107.06
1027.608	1084.01
1027.898	1104.12
1028.187	1065.71
1028.477	1081.53
1028.766	1070.23
1029.055	1059.6
1029.344	1066.84
1029.634	1056.89
1029.923	1059.6
1030.212	1032.49
1030.501	1015.31
1030.79	1049.44
1031.078	1027.74
1031.367	987.06
1031.656	983.67
1031.945	993.84
1032.233	994.75
1032.522	996.78
1032.81	981.19
1033.099	931.92
1033.387	979.83
1033.675	961.98
1033.963	943
1034.251	961.3
1034.54	952.04
1034.828	940.74
1035.116	964.92
1035.403	913.62
1035.691	941.64
1035.979	884.69
1036.267	902.55
1036.554	899.38
1036.842	893.06
1037.129	871.59
1037.417	877.46
1037.704	884.69
1037.992	882.89
1038.279	862.77
1038.566	870.01
1038.853	870.01
1039.14	870.01
