Data from hue_160_FLMS001491_00081.txt Node
Date: Tue Feb 07 16:51:48 GMT 2017
User: dcchb
Spectrometer: FLMS00149
Trigger mode: 0
Integration Time (sec): 2.000000E-2
Scans to average: 10
Electric dark correction enabled: true
Nonlinearity correction enabled: false
Boxcar width: 0
XAxis mode: Wavelengths
Number of Pixels in Spectrum: 2048
>>>>>Begin Spectral Data<<<<<
341.393	-7.1
341.776	-7.1
342.16	-7.1
342.543	-58.85
342.927	-65.63
343.31	-67.44
343.693	-67.22
344.077	-60.89
344.46	-61.79
344.843	-61.34
345.226	-47.1
345.61	-27.89
345.993	-17.27
346.376	0.81
346.759	28.83
347.142	19.11
347.525	36.51
347.908	61.37
348.291	71.54
348.674	67.24
349.057	125.55
349.44	145.89
349.823	138.88
350.206	162.38
350.588	218.43
350.971	194.02
351.354	225.66
351.737	245.54
352.119	230.18
352.502	264.07
352.884	266.33
353.267	264.3
353.65	292.1
354.032	300.01
354.414	305.2
354.797	330.74
355.179	311.53
355.562	319.67
355.944	328.48
356.326	322.15
356.709	340.23
357.091	335.71
357.473	365.54
357.855	332.32
358.238	344.07
358.62	340.46
359.002	338.2
359.384	333.45
359.766	331.64
360.148	335.71
360.53	333
360.912	354.69
361.294	349.27
361.676	330.06
362.057	339.78
362.439	348.14
362.821	324.19
363.203	326.45
363.584	336.39
363.966	321.7
364.348	300.46
364.729	334.13
365.111	320.57
365.493	321.7
365.874	325.32
366.256	340.91
366.637	336.39
367.019	303.85
367.4	327.58
367.781	306.56
368.163	313.79
368.544	303.85
368.925	305.43
369.306	313.57
369.688	326.22
370.069	310.63
370.45	317.63
370.831	323.28
371.212	299.55
371.593	342.27
371.974	325.32
372.355	307.01
372.736	313.34
373.117	324.86
373.498	312.89
373.879	314.92
374.26	315.6
374.641	331.19
375.021	311.98
375.402	338.65
375.783	325.09
376.163	333.9
376.544	326.67
376.925	329.16
377.305	335.94
377.686	325.99
378.066	339.55
378.447	325.54
378.827	342.04
379.208	313.79
379.588	327.35
379.968	330.97
380.349	349.04
380.729	314.7
381.109	342.04
381.489	329.84
381.87	347.91
382.25	327.35
382.63	327.8
383.01	358.99
383.39	330.06
383.77	348.37
384.15	344.52
384.53	361.25
384.91	345.43
385.29	352.89
385.67	350.4
386.049	372.09
386.429	338.88
386.809	362.38
387.189	346.33
387.568	355.15
387.948	370.06
388.328	360.8
388.707	354.69
389.087	369.61
389.466	365.77
389.846	339.55
390.225	366.22
390.605	377.52
390.984	396.5
391.363	375.71
391.743	363.28
392.122	391.98
392.501	368.7
392.881	380.46
393.26	368.93
393.639	372.09
394.018	375.48
394.397	388.59
394.776	369.61
395.155	382.94
395.534	373.68
395.913	363.73
396.292	393.11
396.671	390.4
397.05	390.4
397.429	397.63
397.808	388.14
398.186	391.98
398.565	397.4
398.944	401.25
399.323	404.41
399.701	404.86
400.08	400.12
400.458	397.63
400.837	407.35
401.215	403.51
401.594	401.25
401.972	391.53
402.351	401.25
402.729	415.03
403.107	415.48
403.486	424.07
403.864	417.07
404.242	416.16
404.62	409.61
404.999	423.84
405.377	420.68
405.755	415.71
406.133	428.82
406.511	438.53
406.889	442.15
407.267	445.54
407.645	448.93
408.023	436.27
408.401	440.79
408.779	478.98
409.156	457.52
409.534	446.22
409.912	472.21
410.29	478.08
410.667	460.91
411.045	443.51
411.422	484.86
411.8	468.82
412.178	481.47
412.555	484.63
412.933	490.28
413.31	493.9
413.687	487.12
414.065	485.54
414.442	506.1
414.819	489.61
415.197	509.94
415.574	535.48
415.951	524.63
416.328	489.38
416.705	513.56
417.082	517.63
417.46	540.45
417.837	514.24
418.214	543.16
418.591	545.2
418.967	542.94
419.344	534.8
419.721	565.76
420.098	541.13
420.475	550.4
420.852	571.86
421.228	558.3
421.605	558.76
421.982	572.77
422.358	582.71
422.735	582.03
423.111	570.51
423.488	587.91
423.864	584.74
424.241	612.54
424.617	607.57
424.994	609.83
425.37	624.29
425.746	602.37
426.123	617.96
426.499	615.25
426.875	631.52
427.251	610.73
427.627	646.44
428.003	639.21
428.379	626.78
428.756	643.27
429.132	664.06
429.507	652.99
429.883	671.75
430.259	668.81
430.635	694.12
431.011	673.56
431.387	677.4
431.763	682.6
432.138	701.35
432.514	697.28
432.89	743.61
433.265	706.55
433.641	730.28
434.016	756.72
434.392	725.76
434.767	759.66
435.143	771.63
435.518	761.46
435.894	784.97
436.269	789.94
436.644	790.16
437.02	820.22
437.395	806.21
437.77	818.86
438.145	838.3
438.52	844.4
438.895	836.94
439.271	828.35
439.646	839.2
440.021	873.32
440.395	847.11
440.77	855.92
441.145	878.52
441.52	900.44
441.895	872.65
442.27	895.7
442.645	887.34
443.019	891.18
443.394	912.87
443.769	924.17
444.143	919.65
444.518	918.07
444.892	932.08
445.267	943.15
445.641	920.1
446.016	942.93
446.39	936.37
446.764	940.22
447.139	948.12
447.513	982.02
447.887	984.06
448.262	976.82
448.636	1012.98
449.01	995.58
449.384	997.16
449.758	1028.12
450.132	1018.18
450.506	1049.37
450.88	1021.34
451.254	1025.86
451.628	1029.03
452.002	1056.37
452.376	1087.78
452.75	1077.16
453.123	1086.2
453.497	1079.65
453.871	1087.56
454.244	1136.14
454.618	1133.43
454.992	1171.62
455.365	1160.32
455.739	1191.28
456.112	1179.53
456.486	1182.47
456.859	1242.13
457.232	1244.84
457.606	1238.29
457.979	1264.73
458.352	1252.75
458.725	1300.88
459.099	1305.63
459.472	1315.12
459.845	1333.2
460.218	1361
460.591	1360.32
460.964	1390.83
461.337	1409.58
461.71	1428.11
462.083	1442.12
462.456	1459.98
462.829	1449.81
463.201	1478.28
463.574	1479.41
463.947	1494.1
464.32	1548.56
464.692	1591.72
465.065	1589.24
465.438	1623.59
465.81	1669.69
466.183	1650.48
466.555	1673.76
466.928	1706.75
467.3	1709.01
467.672	1731.38
468.045	1793.53
468.417	1818.38
468.789	1821.77
469.161	1884.82
469.534	1883.47
469.906	1947.87
470.278	1998.72
470.65	1980.64
471.022	2045.05
471.394	2069.45
471.766	2105.61
472.138	2143.12
472.51	2205.27
472.882	2232.84
473.253	2282.55
473.625	2327.98
473.997	2394.19
474.369	2429.89
474.74	2470.34
475.112	2520.51
475.484	2612.94
475.855	2642.32
476.227	2659.72
476.598	2775.87
476.97	2822.88
477.341	2891.58
477.713	2967.05
478.084	3019.93
478.455	3119.37
478.827	3176.31
479.198	3265.35
479.569	3303.09
479.94	3430.55
480.311	3532.46
480.682	3585.12
481.053	3716.19
481.424	3783.98
481.795	3864.43
482.166	3989.4
482.537	4074.37
482.908	4199.11
483.279	4299.68
483.65	4432.78
484.021	4525.21
484.391	4581.02
484.762	4677.52
485.133	4789.61
485.503	4913.22
485.874	5080.45
486.244	5107.56
486.615	5255.81
486.985	5409.02
487.356	5547.78
487.726	5689.02
488.097	5802.01
488.467	5872.29
488.837	6050.36
489.207	6174.65
489.578	6292.84
489.948	6467.98
490.318	6558.6
490.688	6620.07
491.058	6808.99
491.428	6954.07
491.798	7059.15
492.168	7231.58
492.538	7314.29
492.908	7441.74
493.278	7657.1
493.648	7708.62
494.017	7933.93
494.387	8008.05
494.757	8093.25
495.126	8210.31
495.496	8389.29
495.866	8394.93
496.235	8556.29
496.605	8660.92
496.974	8763.29
497.344	8897.97
497.713	9029.49
498.082	9051.87
498.452	9184.97
498.821	9296.38
499.19	9288.47
499.559	9483.49
499.928	9568.69
500.298	9654.34
500.667	9815.24
501.036	9827.21
501.405	9973.2
501.774	9975.91
502.143	10026.3
502.512	10130.93
502.88	10272.63
503.249	10304.04
503.618	10417.93
503.987	10474.43
504.356	10552.62
504.724	10626.51
505.093	10617.48
505.462	10831.71
505.83	10840.97
506.199	10983.79
506.567	11018.37
506.936	11004.13
507.304	11129.33
507.672	11173.17
508.041	11248.19
508.409	11256.78
508.777	11412.03
509.145	11521.41
509.514	11430.79
509.882	11496.32
510.25	11661.29
510.618	11708.07
510.986	11630.56
511.354	11775.64
511.722	11839.59
512.09	11981.73
512.458	11981.06
512.826	12032.81
513.193	12025.57
513.561	12075.29
513.929	12166.13
514.297	12183.31
514.664	12229.64
515.032	12214.72
515.4	12313.25
515.767	12395.73
516.135	12301.95
516.502	12318.67
516.869	12428.27
517.237	12478.44
517.604	12475.05
517.972	12601.38
518.339	12642.96
518.706	12614.03
519.073	12593.47
519.44	12708.27
519.808	12761.6
520.175	12748.49
520.542	12849.51
520.909	12810.64
521.276	12842.95
521.643	12884.76
522.009	13012.89
522.376	12958.2
522.743	13040.69
523.11	13055.6
523.477	13126.11
523.843	13192.55
524.21	13214.02
524.577	13209.5
524.943	13277.29
525.31	13312.77
525.676	13380.79
526.043	13407.01
526.409	13383.5
526.776	13513.9
527.142	13388.25
527.508	13431.64
527.874	13516.61
528.241	13476.61
528.607	13514.35
528.973	13585.31
529.339	13395.26
529.705	13552.99
530.071	13611.07
530.437	13576.95
530.803	13604.52
531.169	13553.22
531.535	13592.54
531.901	13561.13
532.267	13637.28
532.632	13504.86
532.998	13605.19
533.364	13564.52
533.73	13520
534.095	13690.39
534.461	13585.31
534.826	13522.94
535.192	13500.34
535.557	13603.39
535.923	13473.45
536.288	13541.01
536.653	13519.55
537.019	13420.11
537.384	13420.57
537.749	13399.55
538.114	13441.81
538.479	13388.48
538.845	13356.84
539.21	13315.26
539.575	13213.34
539.94	13247.91
540.305	13239.33
540.67	13153
541.034	13195.26
541.399	13264.19
541.764	13181.25
542.129	13129.73
542.494	13065.77
542.858	13037.07
543.223	12955.72
543.587	13036.39
543.952	12989.62
544.316	12979.45
544.681	12919.11
545.045	12945.1
545.41	12945.32
545.774	12804.76
546.138	12781.94
546.503	12819
546.867	12711.21
547.231	12722.28
547.595	12703.07
547.959	12691.54
548.324	12640.47
548.688	12566.12
549.052	12641.15
549.416	12564.99
549.779	12409.74
550.143	12506.24
550.507	12536.97
550.871	12487.26
551.235	12466.92
551.599	12420.82
551.962	12344.44
552.326	12343.31
552.689	12409.74
553.053	12270.09
553.417	12309.41
553.78	12328.62
554.143	12219.69
554.507	12201.84
554.87	12285.23
555.234	12250.88
555.597	12128.17
555.96	12165.68
556.323	12256.75
556.686	12065.57
557.05	12212.69
557.413	12184.44
557.776	12224.66
558.139	12151.67
558.502	12118.9
558.865	12093.37
559.228	12137.44
559.59	12122.97
559.953	12167.26
560.316	12231.22
560.679	12165.23
561.041	12192.8
561.404	12131.11
561.767	12218.56
562.129	12128.62
562.492	12226.92
562.854	12236.87
563.217	12130.2
563.579	12208.39
563.941	12150.77
564.304	12245
564.666	12198.68
565.028	12190.32
565.39	12251.33
565.753	12266.7
566.115	12312.8
566.477	12328.62
566.839	12263.31
567.201	12398.9
567.563	12402.29
567.925	12337.88
568.287	12374.04
568.648	12334.72
569.01	12407.48
569.372	12489.74
569.734	12383.3
570.095	12494.49
570.457	12351.67
570.819	12426.02
571.18	12388.05
571.542	12530.19
571.903	12488.84
572.265	12509.85
572.626	12492
572.987	12469.4
573.349	12552.34
573.71	12529.52
574.071	12519.8
574.432	12599.8
574.794	12638.44
575.155	12558.44
575.516	12576.75
575.877	12546.01
576.238	12541.94
576.599	12660.59
576.96	12622.85
577.32	12632.34
577.681	12624.88
578.042	12694.93
578.403	12703.52
578.763	12695.39
579.124	12596.41
579.485	12637.76
579.845	12711.88
580.206	12671.88
580.566	12722.5
580.927	12606.58
581.287	12673.92
581.648	12656.29
582.008	12738.78
582.368	12571.32
582.728	12640.92
583.089	12665.56
583.449	12596.63
583.809	12568.38
584.169	12604.09
584.529	12476.64
584.889	12689.28
585.249	12513.92
585.609	12572.23
585.969	12594.6
586.329	12565.67
586.688	12583.07
587.048	12498.1
587.408	12546.69
587.768	12531.32
588.127	12519.35
588.487	12479.35
588.846	12583.07
589.206	12438.67
589.565	12438.67
589.925	12523.19
590.284	12462.4
590.643	12453.81
591.003	12559.12
591.362	12433.02
591.721	12412.91
592.08	12433.02
592.44	12468.95
592.799	12466.24
593.158	12451.78
593.517	12404.77
593.876	12414.72
594.235	12340.14
594.593	12425.79
594.952	12390.76
595.311	12371.1
595.67	12383.08
596.029	12372.46
596.387	12440.7
596.746	12476.64
597.104	12406.13
597.463	12332.68
597.822	12400.71
598.18	12341.5
598.538	12366.81
598.897	12458.56
599.255	12280.26
599.613	12393.47
599.972	12336.3
600.33	12414.72
600.688	12280.71
601.046	12390.31
601.404	12390.54
601.762	12300.14
602.12	12458.78
602.478	12444.55
602.836	12423.98
603.194	12374.04
603.552	12346.92
603.91	12355.96
604.268	12405
604.625	12249.07
604.983	12400.71
605.341	12396.86
605.698	12367.03
606.056	12318.67
606.413	12399.8
606.771	12428.05
607.128	12467.14
607.485	12338.56
607.843	12312.57
608.2	12372.23
608.557	12450.42
608.914	12412
609.272	12465.79
609.629	12357.99
609.986	12519.12
610.343	12445.9
610.7	12530.65
611.057	12432.34
611.414	12473.7
611.771	12490.65
612.127	12487.03
612.484	12524.09
612.841	12499.91
613.198	12570.87
613.554	12438.44
613.911	12525.45
614.267	12586.46
614.624	12598.44
614.98	12569.29
615.337	12685.44
615.693	12657.87
616.05	12648.16
616.406	12710.75
616.762	12548.72
617.118	12640.47
617.475	12703.52
617.831	12698.78
618.187	12754.82
618.543	12701.49
618.899	12769.73
619.255	12736.97
619.611	12717.08
619.967	12739.45
620.323	12721.15
620.678	12670.98
621.034	12653.81
621.39	12672.79
621.746	12614.03
622.101	12804.76
622.457	12657.65
622.812	12755.72
623.168	12701.04
623.523	12769.06
623.879	12766.35
624.234	12676.63
624.589	12783.52
624.945	12666.69
625.3	12734.48
625.655	12770.64
626.01	12722.28
626.365	12718.44
626.72	12709.62
627.075	12674.6
627.43	12619.46
627.785	12658.55
628.14	12699.68
628.495	12684.77
628.85	12713.92
629.205	12644.54
629.559	12740.81
629.914	12635.05
630.269	12734.26
630.623	12632.11
630.978	12621.72
631.332	12642.51
631.687	12733.8
632.041	12577.65
632.396	12632.34
632.75	12557.09
633.104	12596.18
633.459	12577.88
633.813	12527.93
634.167	12478.9
634.521	12556.41
634.875	12526.8
635.229	12511.21
635.583	12435.28
635.937	12476.18
636.291	12433.7
636.645	12396.19
636.999	12370.65
637.352	12479.12
637.706	12368.16
638.06	12388.95
638.413	12361.84
638.767	12353.7
639.121	12353.02
639.474	12206.13
639.828	12273.25
640.181	12302.63
640.534	12205.23
640.888	12249.07
641.241	12224.44
641.594	12223.08
641.947	12202.29
642.301	12200.94
642.654	12283.19
643.007	12232.12
643.36	12137.89
643.713	12094.05
644.066	12198.68
644.419	12101.96
644.771	12074.84
645.124	12008.4
645.477	11982.41
645.83	11867.39
646.182	11761.63
646.535	11755.07
646.888	11846.14
647.24	11744.9
647.593	11824.67
647.945	11814.96
648.298	11725.69
648.65	11696.54
649.002	11735.64
649.355	11757.56
649.707	11768.86
650.059	11780.38
650.411	11927.27
650.763	11958.91
651.115	12065.8
651.467	11979.93
651.819	12014.05
652.171	11995.29
652.523	11963.2
652.875	12054.27
653.227	11917.1
653.578	12085.01
653.93	12037.55
654.282	12009.08
654.633	11872.13
654.985	11979.25
655.337	12007.72
655.688	11947.16
656.039	11999.36
656.391	11966.82
656.742	11914.39
657.094	11985.35
657.445	12008.17
657.796	11960.72
658.147	11959.59
658.498	11955.07
658.849	11968.17
659.2	11967.27
659.551	11953.49
659.902	11964.78
660.253	12011.79
660.604	11870.78
660.955	11954.84
661.306	11967.72
661.656	12002.3
662.007	11983.09
662.358	11928.18
662.708	11973.82
663.059	12025.35
663.409	11973.37
663.76	12057.21
664.11	12021.05
664.461	12009.3
664.811	12040.71
665.161	12089.75
665.511	12016.99
665.862	12088.17
666.212	12001.62
666.562	12115.97
666.912	12037.55
667.262	12024.22
667.612	12020.6
667.962	12055.4
668.312	12035.74
668.662	12132.46
669.011	12067.15
669.361	12000.04
669.711	12026.03
670.06	12024.67
670.41	12002.3
670.76	12007.5
671.109	11991.9
671.459	11985.35
671.808	11978.12
672.157	11979.93
672.507	11885.01
672.856	11883.43
673.205	11917.33
673.554	12000.94
673.904	11945.35
674.253	11898.8
674.602	11987.38
674.951	11767.28
675.3	11743.77
675.649	11922.53
675.998	11853.83
676.346	11845.69
676.695	11897.89
677.044	11786.71
677.393	11896.76
677.741	11866.26
678.09	11769.99
678.438	11755.98
678.787	11811.34
679.135	11847.05
679.484	11668.29
679.832	11748.97
680.181	11628.97
680.529	11716.88
680.877	11611.12
681.225	11690.67
681.573	11667.84
681.922	11594.17
682.27	11551.69
682.618	11513.27
682.966	11635.3
683.314	11543.33
683.661	11476.89
684.009	11441.63
684.357	11376.1
684.705	11408.64
685.053	11401.18
685.4	11406.15
685.748	11274.63
686.095	11348.08
686.443	11259.94
686.79	11284.8
687.138	11299.49
687.485	11309.89
687.832	11262.2
688.18	11291.58
688.527	11206.39
688.874	11160.96
689.221	11141.98
689.568	11068.76
689.915	10993.28
690.262	11072.6
690.609	10992.61
690.956	10998.26
691.303	10849.11
691.65	10911.93
691.997	10894.08
692.344	10803.23
692.69	10862.21
693.037	10846.85
693.383	10657.47
693.73	10714.87
694.077	10608.66
694.423	10586.06
694.769	10624.48
695.116	10540.87
695.462	10509.46
695.808	10409.8
696.155	10509.46
696.501	10465.16
696.847	10358.5
697.193	10310.36
697.539	10368.89
697.885	10244.38
698.231	10223.59
698.577	10178.16
698.923	10120.99
699.269	10092.52
699.614	10045.96
699.96	10041.45
700.306	9998.28
700.651	10008.9
700.997	9955.57
701.342	9945.4
701.688	9867.66
702.033	9875.8
702.379	9841.9
702.724	9831.51
703.069	9843.03
703.415	9696.82
703.76	9768.91
704.105	9716.71
704.45	9694.79
704.795	9604.85
705.14	9565.75
705.485	9559.65
705.83	9516.04
706.175	9563.04
706.52	9526.88
706.865	9469.48
707.209	9474.68
707.554	9332.54
707.899	9435.81
708.243	9398.07
708.588	9356.94
708.932	9244.86
709.277	9264.52
709.621	9250.05
709.966	9143.62
710.31	9259.77
710.654	9146.1
710.998	9102.49
711.342	9124.41
711.687	9071.53
712.031	9053
712.375	9066.78
712.719	9076.27
713.063	9005.77
713.407	8995.6
713.75	8983.62
714.094	8996.5
714.438	8930.74
714.782	8900.68
715.125	8877.86
715.469	8946.78
715.812	8818.43
716.156	8801.93
716.499	8842.83
716.843	8776.39
717.186	8785.43
717.53	8833.57
717.873	8789.5
718.216	8779.33
718.559	8761.7
718.902	8697.3
719.246	8730.97
719.589	8737.52
719.932	8656.62
720.275	8657.98
720.617	8659.33
720.96	8638.54
721.303	8690.29
721.646	8580.69
721.989	8641.71
722.331	8696.4
722.674	8587.47
723.016	8571.65
723.359	8595.83
723.701	8581.37
724.044	8618.43
724.386	8541.6
724.729	8624.53
725.071	8540.02
725.413	8497.76
725.755	8572.11
726.097	8461.15
726.439	8427.7
726.782	8433.58
727.124	8510.19
727.465	8457.08
727.807	8435.61
728.149	8421.83
728.491	8493.69
728.833	8505.67
729.175	8434.48
729.516	8493.69
729.858	8425.67
730.199	8509.06
730.541	8420.92
730.882	8398.55
731.224	8437.42
731.565	8427.02
731.906	8427.25
732.248	8455.95
732.589	8388.61
732.93	8355.84
733.271	8387.03
733.612	8382.28
733.953	8426.8
734.294	8406.69
734.635	8397.19
734.976	8375.73
735.317	8374.6
735.658	8332.56
735.999	8388.38
736.339	8377.99
736.68	8420.92
737.021	8467.93
737.361	8352.22
737.702	8449.85
738.042	8385.67
738.383	8502.28
738.723	8430.64
739.063	8485.78
739.404	8493.46
739.744	8454.82
740.084	8485.1
740.424	8508.15
740.764	8483.52
741.104	8541.15
741.444	8490.98
741.784	8442.84
742.124	8493.69
742.464	8570.07
742.804	8513.12
743.143	8526.68
743.483	8620.69
743.823	8628.6
744.162	8690.97
744.502	8688.03
744.841	8682.61
745.181	8769.84
745.52	8683.06
745.86	8781.59
746.199	8882.15
746.538	8809.39
746.877	8889.38
747.216	8939.1
747.556	8980.23
747.895	9015.94
748.234	9007.35
748.573	9068.59
748.911	9130.06
749.25	9187
749.589	9268.36
749.928	9281.46
750.267	9311.52
750.605	9443.72
750.944	9481.23
751.283	9536.15
751.621	9647.78
751.96	9705.86
752.298	9774.33
752.636	9900.43
752.975	9946.76
753.313	9997.83
753.651	10168
753.989	10279.63
754.327	10293.19
754.666	10390.14
755.004	10525.27
755.342	10654.99
755.679	10743.12
756.017	10838.71
756.355	11095.88
756.693	11131.13
757.031	11252.94
757.368	11381.75
757.706	11526.15
758.044	11626.26
758.381	11792.59
758.719	11975.63
759.056	12114.16
759.394	12273.93
759.731	12317.32
760.068	12435.28
760.405	12593.47
760.743	12799.79
761.08	12873.23
761.417	13037.98
761.754	13303.28
762.091	13344.41
762.428	13494.46
762.765	13671.18
763.102	13899.2
763.438	14044.05
763.775	14173.77
764.112	14345.06
764.449	14530.37
764.785	14689.01
765.122	14724.49
765.458	14855.1
765.795	14919.28
766.131	15200.63
766.467	15278.37
766.804	15412.38
767.14	15467.07
767.476	15671.13
767.812	15731.46
768.148	15959.48
768.485	16024.34
768.821	16067.5
769.157	16243.99
769.492	16328.74
769.828	16414.38
770.164	16491.67
770.5	16581.84
770.836	16771.89
771.171	16774.6
771.507	16871.1
771.842	16959.46
772.178	17056.63
772.513	17242.16
772.849	17287.36
773.184	17260.69
773.519	17364.19
773.855	17409.84
774.19	17514.02
774.525	17637.63
774.86	17722.82
775.195	17778.87
775.53	17806.66
775.865	17697.29
776.2	17703.16
776.535	17703.16
776.87	17838.75
777.205	17810.28
777.539	17848.92
777.874	17989.48
778.209	17886.44
778.543	18064.51
778.878	17849.38
779.212	18058.18
779.547	18014.79
779.881	18123.72
780.215	18046.66
780.55	18084.62
780.884	18054.12
781.218	18136.83
781.552	18183.15
781.886	18144.51
782.22	18132.98
782.554	18131.4
782.888	18040.1
783.222	18044.85
783.556	18041.23
783.889	17922.59
784.223	17953.78
784.557	17995.81
784.89	18048.92
785.224	18031.74
785.557	17817.96
785.891	17892.31
786.224	17878.75
786.558	17911.29
786.891	17837.62
787.224	17827.23
787.557	17796.27
787.891	17875.82
788.224	17756.27
788.557	17863.61
788.89	17705.65
789.223	17790.62
789.556	17703.16
789.888	17611.42
790.221	17637.4
790.554	17570.51
790.887	17567.12
791.219	17478.76
791.552	17563.96
791.884	17519.67
792.217	17438.76
792.549	17402.16
792.882	17278.77
793.214	17309.5
793.546	17298.66
793.879	17251.65
794.211	17233.8
794.543	17196.29
794.875	17107.47
795.207	17227.24
795.539	17210.3
795.871	17157.87
796.203	17083.07
796.535	16908.38
796.867	17015.95
797.198	16777.09
797.53	16891.66
797.862	16760.82
798.193	16892.11
798.525	16721.72
798.856	16777.54
799.188	16627.26
799.519	16608.05
799.85	16419.36
800.182	16474.5
800.513	16634.94
800.844	16372.8
801.175	16512.91
801.506	16440.82
801.837	16401.5
802.168	16327.61
802.499	16306.14
802.83	16261.17
803.161	16231.56
803.491	16218.23
803.822	16216.42
804.153	16057.33
804.483	16048.74
804.814	15991.35
805.145	15959.93
805.475	15969.42
805.805	15874.29
806.136	15841.29
806.466	15910.9
806.796	15811.69
807.126	15761.07
807.457	15754.52
807.787	15737.11
808.117	15604.01
808.447	15613.95
808.777	15606.95
809.107	15561.3
809.436	15509.55
809.766	15538.02
810.096	15408.54
810.426	15431.59
810.755	15463.68
811.085	15345.49
811.414	15323.11
811.744	15236.11
812.073	15326.5
812.403	15214.19
812.732	15195.66
813.061	15140.75
813.39	15138.26
813.719	15024.82
814.049	15151.37
814.378	15052.84
814.707	15105.94
815.036	15043.12
815.365	14928.55
815.693	14865.95
816.022	14880.41
816.351	14864.37
816.68	14730.36
817.008	14808.33
817.337	14634.09
817.665	14637.93
817.994	14651.95
818.322	14650.14
818.651	14567.65
818.979	14515
819.307	14679.74
819.636	14565.85
819.964	14507.77
820.292	14507.09
820.62	14533.76
820.948	14473.19
821.276	14594.55
821.604	14488.56
821.932	14542.57
822.259	14507.32
822.587	14425.74
822.915	14409.92
823.243	14534.21
823.57	14404.04
823.898	14512.51
824.225	14365.4
824.553	14450.37
824.88	14442.23
825.207	14559.52
825.535	14476.13
825.862	14444.95
826.189	14421.22
826.516	14521.33
826.843	14547.77
827.17	14559.52
827.497	14566.3
827.824	14487.2
828.151	14508.67
828.478	14511.38
828.805	14490.82
829.131	14527.2
829.458	14501.21
829.785	14423.02
830.111	14479.29
830.438	14522.68
830.764	14472.29
831.09	14539.63
831.417	14387.09
831.743	14472.51
832.069	14545.28
832.395	14345.06
832.722	14397.71
833.048	14511.16
833.374	14423.02
833.7	14371.95
834.026	14406.98
834.351	14460.09
834.677	14410.6
835.003	14416.25
835.329	14400.65
835.654	14273.65
835.98	14311.39
836.306	14250.37
836.631	14298.06
836.956	14301.9
837.282	14298.28
837.607	14187.32
837.932	14206.08
838.258	14163.37
838.583	14185.74
838.908	14079.76
839.233	14122.69
839.558	14145.52
839.883	14007.44
840.208	13940.1
840.533	13995.69
840.858	13961.12
841.182	14018.74
841.507	14042.02
841.832	13857.39
842.156	13795.02
842.481	13818.52
842.805	13877.5
843.13	13748.69
843.454	13814.91
843.778	13752.76
844.103	13735.13
844.427	13695.81
844.751	13636.15
845.075	13616.72
845.399	13582.14
845.723	13514.35
846.047	13516.61
846.371	13427.8
846.695	13465.76
847.019	13321.58
847.343	13294.01
847.666	13218.76
847.99	13114.81
848.313	13109.61
848.637	12971.54
848.96	12997.3
849.284	13022.84
849.607	12902.84
849.931	12884.76
850.254	12806.12
850.577	12781.49
850.9	12673.01
851.223	12660.81
851.546	12619.46
851.869	12522.06
852.192	12579.46
852.515	12388.05
852.838	12365
853.161	12393.93
853.483	12285.91
853.806	12265.57
854.129	12313.93
854.451	12229.64
854.774	12129.07
855.096	12121.39
855.419	12034.84
855.741	12059.7
856.063	12029.87
856.385	11980.6
856.708	11874.84
857.03	11966.59
857.352	11903.09
857.674	11849.31
857.996	11773.83
858.318	11739.93
858.64	11745.81
858.961	11693.15
859.283	11710.33
859.605	11654.28
859.926	11645.92
860.248	11598.92
860.57	11526.83
860.891	11553.04
861.212	11450.9
861.534	11510.33
861.855	11372.26
862.176	11402.54
862.498	11388.53
862.819	11455.19
863.14	11281.64
863.461	11323.45
863.782	11315.76
864.103	11299.94
864.424	11252.26
864.745	11314.63
865.065	11204.35
865.386	11200.96
865.707	11226.27
866.027	11201.19
866.348	11156.44
866.668	11095.88
866.989	11104.92
867.309	11041.19
867.63	11047.75
867.95	11030.8
868.27	10986.96
868.59	10976.11
868.91	10897.24
869.23	10980.86
869.55	10983.34
869.87	10971.14
870.19	10896.11
870.51	10956.45
870.83	10995.09
871.15	10830.58
871.469	10846.4
871.789	10856.79
872.109	10861.76
872.428	10814.76
872.748	10794.87
873.067	10751.26
873.386	10747.87
873.706	10751.48
874.025	10708.32
874.344	10574.09
874.663	10646.63
874.982	10649.56
875.301	10665.84
875.62	10588.32
875.939	10510.59
876.258	10618.6
876.577	10509
876.896	10525.5
877.214	10539.06
877.533	10493.41
877.852	10480.08
878.17	10466.07
878.489	10476.24
878.807	10448.44
879.125	10427.65
879.444	10444.37
879.762	10342.23
880.08	10413.86
880.398	10354.43
880.716	10356.69
881.034	10336.8
881.352	10323.47
881.67	10286.64
881.988	10273.53
882.306	10197.15
882.624	10213.87
882.941	10151.27
883.259	10118.73
883.577	10090.26
883.894	10125.28
884.212	10102.69
884.529	10003.03
884.846	10051.39
885.164	9988.11
885.481	9970.26
885.798	10021.78
886.115	9947.66
886.432	9958.28
886.75	9841.9
887.067	9914.44
887.383	9805.74
887.7	9874.9
888.017	9802.36
888.334	9791.06
888.651	9765.52
888.967	9767.78
889.284	9677.61
889.6	9714.45
889.917	9603.94
890.233	9649.14
890.55	9592.64
890.866	9556.94
891.182	9445.75
891.498	9527.33
891.815	9444.85
892.131	9392.42
892.447	9461.57
892.763	9461.12
893.079	9388.35
893.395	9400.11
893.71	9362.37
894.026	9317.85
894.342	9347.68
894.657	9131.41
894.973	9172.09
895.289	9155.59
895.604	9084.86
895.92	9083.73
896.235	9007.57
896.55	9093
896.865	9074.69
897.181	8959.67
897.496	8955.82
897.811	8874.7
898.126	8926.22
898.441	8807.58
898.756	8846.67
899.071	8818.2
899.386	8769.61
899.7	8756.28
900.015	8615.72
900.33	8636.06
900.644	8568.94
900.959	8678.99
901.273	8609.84
901.588	8535.27
901.902	8446.46
902.216	8500.47
902.531	8438.55
902.845	8385.9
903.159	8275.16
903.473	8305.67
903.787	8320.13
904.101	8342.28
904.415	8253.47
904.729	8233.13
905.042	8196.3
905.356	8159.69
905.67	8149.29
905.984	8121.27
906.297	8135.28
906.611	8079.69
906.924	8025.45
907.237	8019.35
907.551	7993.14
907.864	7921.5
908.177	7944.55
908.491	7822.75
908.804	7746.82
909.117	7743.43
909.43	7742.97
909.743	7678.34
910.056	7672.69
910.368	7616.42
910.681	7589.53
910.994	7525.35
911.307	7577.33
911.619	7507.73
911.932	7538.69
912.244	7471.57
912.557	7391.57
912.869	7353.38
913.181	7315.87
913.494	7380.5
913.806	7252.14
914.118	7279.94
914.43	7235.64
914.742	7249.88
915.054	7188.64
915.366	7225.47
915.678	7128.53
915.99	7055.99
916.302	7062.09
916.613	7080.62
916.925	7007.4
917.236	7014.41
917.548	6899.38
917.859	6980.51
918.171	6903
918.482	6909.55
918.794	6845.6
919.105	6934.86
919.416	6831.81
919.727	6764.92
920.038	6777.8
920.349	6711.36
920.66	6672.27
920.971	6673.85
921.282	6651.25
921.593	6641.99
921.903	6562.89
922.214	6547.3
922.525	6527.41
922.835	6482.22
923.146	6460.97
923.456	6438.6
923.767	6446.51
924.077	6431.6
924.387	6421.43
924.697	6300.07
925.008	6297.36
925.318	6322.22
925.628	6318.15
925.938	6304.59
926.248	6226.18
926.558	6173.07
926.867	6145.95
927.177	6126.07
927.487	6091.49
927.796	6058.5
928.106	6046.75
928.416	5994.32
928.725	6039.29
929.034	5951.84
929.344	5995
929.653	5932.63
929.962	5925.62
930.271	5849.92
930.581	5887.66
930.89	5771.05
931.199	5812.18
931.508	5807.66
931.817	5766.08
932.125	5814.66
932.434	5791.39
932.743	5677.94
933.051	5650.6
933.36	5644.5
933.669	5672.52
933.977	5618.06
934.286	5571.51
934.594	5602.69
934.902	5509.13
935.21	5549.13
935.519	5485.63
935.827	5489.93
936.135	5456.25
936.443	5394.11
936.751	5414
937.059	5390.95
937.367	5347.33
937.674	5310.5
937.982	5309.37
938.29	5292.87
938.597	5301.91
938.905	5178.3
939.213	5187.56
939.52	5154.12
939.827	5174.91
940.135	5153.21
940.442	5129.26
940.749	5110.73
941.056	5141.23
941.363	5068.47
941.67	5048.36
941.977	5010.16
942.284	4945.31
942.591	4974.91
942.898	4945.08
943.205	4979.88
943.511	4926.33
943.818	4933.33
944.125	4872.77
944.431	4870.28
944.738	4860.11
945.044	4814.01
945.35	4799.32
945.657	4799.77
945.963	4731.98
946.269	4751.87
946.575	4727.23
946.881	4685.43
947.187	4703.96
947.493	4691.76
947.799	4603.85
948.105	4614.24
948.41	4591.42
948.716	4597.29
949.022	4554.13
949.327	4549.16
949.633	4495.15
949.938	4490.86
950.244	4482.72
950.549	4476.62
950.854	4421.03
951.16	4441.37
951.465	4365.44
951.77	4333.8
952.075	4370.86
952.38	4386
952.685	4328.15
952.99	4296.74
953.294	4278.43
953.599	4285.44
953.904	4269.62
954.209	4201.6
954.513	4243.63
954.818	4198.89
955.122	4154.37
955.426	4129.28
955.731	4143.07
956.035	4157.76
956.339	4106.91
956.643	4081.6
956.948	4102.84
957.252	4083.41
957.556	4019
957.86	4037.08
958.163	4016.07
958.467	4025.11
958.771	3946.92
959.075	3928.16
959.378	3967.48
959.682	3933.36
959.985	3929.29
960.289	3899.23
960.592	3836.64
960.896	3824.43
961.199	3856.3
961.502	3849.07
961.805	3821.5
962.108	3823.08
962.411	3791.67
962.714	3690.88
963.017	3747.37
963.32	3740.37
963.623	3723.87
963.926	3709.63
964.228	3687.26
964.531	3710.76
964.833	3635.51
965.136	3608.17
965.438	3641.16
965.741	3543.08
966.043	3579.69
966.345	3527.49
966.648	3573.82
966.95	3542.86
967.252	3511.67
967.554	3504.89
967.856	3473.71
968.158	3417.89
968.46	3458.12
968.761	3464.44
969.063	3440.71
969.365	3380.6
969.666	3460.38
969.968	3376.31
970.269	3388.29
970.571	3380.83
970.872	3327.05
971.174	3351.68
971.475	3351.68
971.776	3283.88
972.077	3290.66
972.378	3278.68
972.679	3290.66
972.98	3299.02
973.281	3225.13
973.582	3235.75
973.883	3211.12
974.183	3203.21
974.484	3186.71
974.785	3162.08
975.085	3146.26
975.386	3147.61
975.686	3144.9
975.986	3144
976.287	3086.83
976.587	3078.92
976.887	3078.69
977.187	3065.58
977.487	3056.54
977.787	3011.35
978.087	2979.03
978.387	3011.12
978.687	3025.36
978.987	2937.45
979.286	2962.99
979.586	2960.95
979.885	2901.75
980.185	2918.47
980.484	2909.43
980.784	2908.53
981.083	2873.27
981.382	2835.31
981.682	2832.37
981.981	2833.95
982.28	2817.91
982.579	2840.96
982.878	2819.49
983.177	2781.3
983.475	2786.49
983.774	2760.51
984.073	2781.07
984.372	2743.78
984.67	2737.68
984.969	2705.59
985.267	2725.25
985.566	2693.16
985.864	2682.54
986.162	2664.01
986.461	2641.19
986.759	2635.09
987.057	2628.08
987.355	2596.44
987.653	2610
987.951	2583.79
988.249	2565.94
988.547	2540.4
988.844	2548.76
989.142	2535.43
989.44	2515.54
989.737	2501.53
990.035	2541.98
990.332	2527.07
990.63	2488.65
990.927	2462.44
991.224	2490.46
991.521	2436
991.819	2431.48
992.116	2454.75
992.413	2446.39
992.71	2382.89
993.006	2416.56
993.303	2392.15
993.6	2372.95
993.897	2395.77
994.193	2380.63
994.49	2337.47
994.787	2351.25
995.083	2325.26
995.379	2309.22
995.676	2285.72
995.972	2299.5
996.268	2265.38
996.565	2281.2
996.861	2263.57
997.157	2242.33
997.453	2228.09
997.749	2202.33
998.044	2201.65
998.34	2206.17
998.636	2182.44
998.932	2202.78
999.227	2186.74
999.523	2122.56
999.818	2142.22
1000.114	2103.8
1000.409	2139.96
1000.704	2116.23
1001	2111.26
1001.295	2094.08
1001.59	2133.4
1001.885	2068.32
1002.18	2065.38
1002.475	2081.2
1002.77	2043.24
1003.065	2040.07
1003.359	1997.81
1003.654	1985.39
1003.949	1992.84
1004.243	1981.09
1004.538	1993.07
1004.832	1941.32
1005.127	1925.27
1005.421	1930.92
1005.715	1946.06
1006.009	1895.67
1006.304	1922.11
1006.598	1902
1006.892	1875.33
1007.186	1870.36
1007.48	1902
1007.773	1847.31
1008.067	1852.51
1008.361	1796.01
1008.655	1814.77
1008.948	1803.02
1009.242	1813.41
1009.535	1796.01
1009.829	1784.04
1010.122	1765.28
1010.415	1773.19
1010.708	1746.3
1011.001	1732.74
1011.295	1730.48
1011.588	1693.19
1011.881	1696.81
1012.173	1690.03
1012.466	1695.9
1012.759	1680.53
1013.052	1683.7
1013.344	1634.66
1013.637	1635.79
1013.93	1630.14
1014.222	1609.8
1014.514	1633.53
1014.807	1619.52
1015.099	1614.32
1015.391	1587.43
1015.683	1603.25
1015.976	1583.81
1016.268	1576.81
1016.56	1559.41
1016.851	1563.02
1017.143	1551.72
1017.435	1528.45
1017.727	1492.97
1018.018	1516.92
1018.31	1491.61
1018.602	1498.84
1018.893	1472.86
1019.185	1475.12
1019.476	1466.98
1019.767	1448.22
1020.058	1428.56
1020.35	1421.11
1020.641	1417.72
1020.932	1417.26
1021.223	1366.42
1021.514	1394.67
1021.804	1390.6
1022.095	1368
1022.386	1382.24
1022.677	1352.41
1022.967	1358.96
1023.258	1339.53
1023.548	1325.74
1023.839	1323.48
1024.129	1336.82
1024.419	1323.71
1024.709	1287.78
1025	1295.69
1025.29	1288.23
1025.58	1264.27
1025.87	1252.98
1026.16	1253.88
1026.449	1256.82
1026.739	1252.52
1027.029	1233.09
1027.319	1230.6
1027.608	1212.52
1027.898	1201.23
1028.187	1197.16
1028.477	1204.16
1028.766	1199.64
1029.055	1192.86
1029.344	1186.31
1029.634	1155.8
1029.923	1159.19
1030.212	1160.77
1030.501	1156.03
1030.79	1141.34
1031.078	1144.28
1031.367	1122.13
1031.656	1129.59
1031.945	1104.5
1032.233	1097.05
1032.522	1111.74
1032.81	1094.34
1033.099	1091.85
1033.387	1048.46
1033.675	1053.88
1033.963	1044.62
1034.251	1056.37
1034.54	1034.45
1034.828	1025.18
1035.116	1034.68
1035.403	1035.13
1035.691	1045.07
1035.979	1005.07
1036.267	1012.98
1036.554	989.48
1036.842	1007.56
1037.129	994.45
1037.417	982.7
1037.704	995.13
1037.992	990.16
1038.279	964.4
1038.566	925.75
1038.853	925.75
1039.14	925.75
