Data from hue_24_FLMS001491_00024.txt Node
Date: Tue Feb 07 17:12:02 GMT 2017
User: dcchb
Spectrometer: FLMS00149
Trigger mode: 0
Integration Time (sec): 2.000000E-2
Scans to average: 10
Electric dark correction enabled: true
Nonlinearity correction enabled: false
Boxcar width: 0
XAxis mode: Wavelengths
Number of Pixels in Spectrum: 2048
>>>>>Begin Spectral Data<<<<<
341.393	-0.68
341.776	-0.68
342.16	-0.68
342.543	-48.81
342.927	-76.38
343.31	-72.54
343.693	-70.96
344.077	-66.66
344.46	-75.7
344.843	-51.75
345.226	-29.15
345.61	-36.61
345.993	-8.14
346.376	-8.14
346.759	1.36
347.142	16.95
347.525	44.52
347.908	63.05
348.291	78.87
348.674	103.95
349.057	110.96
349.44	122.93
349.823	134.46
350.206	179.2
350.588	213.33
350.971	203.84
351.354	242.71
351.737	248.81
352.119	256.04
352.502	256.26
352.884	271.41
353.267	277.05
353.65	287.22
354.032	287.45
354.414	315.92
354.797	298.3
355.179	322.48
355.562	316.38
355.944	329.93
356.326	334.45
356.709	340.1
357.091	332.19
357.473	325.19
357.855	333.1
358.238	348.47
358.62	345.08
359.002	333.78
359.384	343.49
359.766	336.71
360.148	329.93
360.53	341.23
360.912	350.05
361.294	350.05
361.676	355.7
362.057	331.74
362.439	346.66
362.821	348.24
363.203	359.31
363.584	333.1
363.966	326.09
364.348	327.9
364.729	329.48
365.111	321.8
365.493	342.82
365.874	328.58
366.256	333.1
366.637	324.29
367.019	324.74
367.4	319.54
367.781	308.47
368.163	329.03
368.544	310.5
368.925	320.67
369.306	330.84
369.688	331.29
370.069	317.51
370.45	311.4
370.831	301.91
371.212	320.9
371.593	317.96
371.974	313.89
372.355	331.97
372.736	333.1
373.117	331.52
373.498	315.92
373.879	326.09
374.26	337.84
374.641	330.16
375.021	312.53
375.402	326.32
375.783	344.62
376.163	326.09
376.544	321.8
376.925	340.56
377.305	318.86
377.686	322.93
378.066	308.01
378.447	341.46
378.827	323.83
379.208	343.27
379.588	331.74
379.968	325.87
380.349	352.08
380.729	333.55
381.109	355.7
381.489	353.66
381.87	334.91
382.25	334.91
382.63	349.14
383.01	352.53
383.39	336.04
383.77	352.08
384.15	334.23
384.53	349.14
384.91	349.6
385.29	346.43
385.67	340.1
386.049	363.83
386.429	351.86
386.809	361.8
387.189	356.37
387.568	373.55
387.948	369.26
388.328	379.65
388.707	359.76
389.087	348.24
389.466	362.7
389.846	372.87
390.225	379.88
390.605	388.92
390.984	368.13
391.363	370.84
391.743	383.72
392.122	385.07
392.501	368.35
392.881	374
393.26	387.79
393.639	385.3
394.018	369.93
394.397	385.53
394.776	399.31
395.155	402.48
395.534	392.76
395.913	387.11
396.292	380.55
396.671	383.27
397.05	400.89
397.429	389.14
397.808	396.37
398.186	388.46
398.565	412.42
398.944	392.08
399.323	404.51
399.701	422.81
400.08	397.73
400.458	400.44
400.837	393.21
401.215	427.11
401.594	410.61
401.972	393.21
402.351	415.13
402.729	432.31
403.107	406.99
403.486	432.31
403.864	415.13
404.242	423.72
404.62	428.01
404.999	442.25
405.377	429.37
405.755	438.63
406.133	423.72
406.511	434.79
406.889	442.47
407.267	441.57
407.645	450.16
408.023	466.65
408.401	434.79
408.779	455.36
409.156	441.57
409.534	457.16
409.912	457.39
410.29	483.38
410.667	474.56
411.045	467.11
411.422	462.81
411.8	493.77
412.178	489.7
412.555	467.11
412.933	472.3
413.31	480.21
413.687	507.11
414.065	503.49
414.442	523.6
414.819	507.78
415.197	514.34
415.574	489.93
415.951	503.72
416.328	508.46
416.705	496.48
417.082	531.51
417.46	518.86
417.837	527.9
418.214	504.85
418.591	520.66
418.967	536.03
419.344	526.54
419.721	547.33
420.098	526.54
420.475	530.83
420.852	542.81
421.228	547.33
421.605	562.47
421.982	546.43
422.358	557.5
422.735	543.94
423.111	550.49
423.488	557.5
423.864	574.45
424.241	586.43
424.617	577.39
424.994	581.68
425.37	578.52
425.746	552.08
426.123	574.45
426.499	563.83
426.875	585.07
427.251	599.98
427.627	580.1
428.003	591.85
428.379	616.25
428.756	637.72
429.132	605.41
429.507	615.8
429.883	631.17
430.259	641.57
430.635	645.41
431.011	649.7
431.387	658.29
431.763	665.52
432.138	659.87
432.514	659.42
432.89	672.3
433.265	670.04
433.641	689.25
434.016	703.48
434.392	677.72
434.767	704.61
435.143	692.64
435.518	739.42
435.894	723.82
436.269	719.76
436.644	740.55
437.02	731.28
437.395	729.25
437.77	739.64
438.145	763.82
438.52	726.99
438.895	758.85
439.271	722.47
439.646	762.24
440.021	788.68
440.395	793.65
440.77	788.68
441.145	764.05
441.52	794.56
441.895	798.4
442.27	797.04
442.645	796.59
443.019	821
443.394	803.37
443.769	827.1
444.143	827.55
444.518	835.91
444.892	831.62
445.267	838.85
445.641	835.01
446.016	829.58
446.39	858.96
446.764	835.91
447.139	857.38
447.513	823.93
447.887	883.82
448.262	872.97
448.636	857.83
449.01	901.22
449.384	894.44
449.758	893.31
450.132	901.22
450.506	879.3
450.88	908.9
451.254	915.46
451.628	924.95
452.002	933.31
452.376	933.76
452.75	964.72
453.123	937.6
453.497	935.79
453.871	970.6
454.244	979.41
454.618	981.22
454.992	982.35
455.365	994.32
455.739	1014.66
456.112	1024.83
456.486	1035.9
456.859	1039.29
457.232	1083.81
457.606	1069.8
457.979	1081.1
458.352	1091.72
458.725	1092.85
459.099	1087.88
459.472	1130.37
459.845	1126.07
460.218	1155.9
460.591	1141.66
460.964	1119.29
461.337	1172.4
461.71	1182.79
462.083	1190.7
462.456	1195.9
462.829	1214.43
463.201	1243.13
463.574	1240.87
463.947	1230.02
464.32	1263.02
464.692	1286.97
465.065	1290.36
465.438	1322
465.81	1319.06
466.183	1315.67
466.555	1327.87
466.928	1358.38
467.3	1380.08
467.672	1411.49
468.045	1437.7
468.417	1435.44
468.789	1437.93
469.161	1451.04
469.534	1505.05
469.906	1510.24
470.278	1534.2
470.65	1539.17
471.022	1552.73
471.394	1599.73
471.766	1597.25
472.138	1632.95
472.51	1643.12
472.882	1679.28
473.253	1688.09
473.625	1712.95
473.997	1754.3
474.369	1793.63
474.74	1796.34
475.112	1837.92
475.484	1879.27
475.855	1861.87
476.227	1917.69
476.598	1972.38
476.97	1966.95
477.341	2028.42
477.713	2073.39
478.084	2100.51
478.455	2124.92
478.827	2176.67
479.198	2227.06
479.569	2247.85
479.94	2322.65
480.311	2337.57
480.682	2379.82
481.053	2404.91
481.424	2468.86
481.795	2538.69
482.166	2543.44
482.537	2590.21
482.908	2636.31
483.279	2698.46
483.65	2733.04
484.021	2772.13
484.391	2825.24
484.762	2870.21
485.133	2916.53
485.503	2924.44
485.874	2991.56
486.244	3097.32
486.615	3133.48
486.985	3185.9
487.356	3216.86
487.726	3246.69
488.097	3357.43
488.467	3369.4
488.837	3458.67
489.207	3484.43
489.578	3504.09
489.948	3574.14
490.318	3647.81
490.688	3666.8
491.058	3702.28
491.428	3812.1
491.798	3829.73
492.168	3887.36
492.538	3911.76
492.908	3954.25
493.278	4054.58
493.648	4070.4
494.017	4124.19
494.387	4184.52
494.757	4241.7
495.126	4235.14
495.496	4246.67
495.866	4332.09
496.235	4385.42
496.605	4427.45
496.974	4457.51
497.344	4494.12
497.713	4528.92
498.082	4540.45
498.452	4635.36
498.821	4578.64
499.19	4617.73
499.559	4690.05
499.928	4721.68
500.298	4775.47
500.667	4797.61
501.036	4805.3
501.405	4890.94
501.774	4871.06
502.143	4918.51
502.512	4911.96
502.88	4980.89
503.249	4998.29
503.618	5055.69
503.987	5081.67
504.356	5123.48
504.724	5132.75
505.093	5177.72
505.462	5110.83
505.83	5202.12
506.199	5218.39
506.567	5328.22
506.936	5328.9
507.304	5403.47
507.672	5384.94
508.041	5420.87
508.409	5417.48
508.777	5446.86
509.145	5481.66
509.514	5486.41
509.882	5548.78
510.25	5535.67
510.618	5608.89
510.986	5608.67
511.354	5637.82
511.722	5733.41
512.09	5756.91
512.458	5723.47
512.826	5788.32
513.193	5777.02
513.561	5751.94
513.929	5837.13
514.297	5892.5
514.664	5950.35
515.032	5937.47
515.4	5963.68
515.767	5953.74
516.135	5969.11
516.502	6000.07
516.869	6065.15
517.237	6112.83
517.604	6115.09
517.972	6105.6
518.339	6120.07
518.706	6112.16
519.073	6173.4
519.44	6233.28
519.808	6250.68
520.175	6280.29
520.542	6359.15
520.909	6371.36
521.276	6385.37
521.643	6419.04
522.009	6455.2
522.376	6485.71
522.743	6560.05
523.11	6573.61
523.477	6620.84
523.843	6588.75
524.21	6704.68
524.577	6732.03
524.943	6711.24
525.31	6749.88
525.676	6845.92
526.043	6859.93
526.409	6893.6
526.776	7011.34
527.142	6975.41
527.508	7036.65
527.874	7105.35
528.241	7122.98
528.607	7132.92
528.973	7146.25
529.339	7189.87
529.705	7275.74
530.071	7296.98
530.437	7346.47
530.803	7348.73
531.169	7407.04
531.535	7381.73
531.901	7403.2
532.267	7398.45
532.632	7540.82
532.998	7592.79
533.364	7576.98
533.73	7661.04
534.095	7685
534.461	7712.57
534.826	7751.89
535.192	7773.35
535.557	7831.21
535.923	7876.18
536.288	7859.23
536.653	7960.24
537.019	7889.51
537.384	7957.98
537.749	7971.99
538.114	7968.15
538.479	7994.37
538.845	8064.87
539.21	8081.14
539.575	8155.04
539.94	8131.31
540.305	8197.52
540.67	8228.26
541.034	8282.72
541.399	8273.91
541.764	8290.63
542.129	8337.63
542.494	8343.06
542.858	8348.03
543.223	8424.19
543.587	8463.05
543.952	8540.11
544.316	8490.4
544.681	8598.19
545.045	8564.75
545.41	8634.8
545.774	8688.81
546.138	8603.84
546.503	8717.51
546.867	8739.21
547.231	8822.14
547.595	8777.17
547.959	8809.49
548.324	8921.35
548.688	8923.38
549.052	8937.39
549.416	8937.39
549.779	9008.35
550.143	9017.62
550.507	9088.35
550.871	9039.99
551.235	9078.18
551.599	9225.97
551.962	9195.01
552.326	9095.81
552.689	9223.03
553.053	9273.88
553.417	9250.83
553.78	9395.01
554.143	9388.23
554.507	9412.86
554.87	9443.82
555.234	9516.81
555.597	9432.75
555.96	9540.99
556.323	9500.77
556.686	9599.75
557.05	9611.27
557.413	9619.18
557.776	9649.24
558.139	9693.76
558.502	9709.8
558.865	9765.39
559.228	9891.94
559.59	9827.99
559.953	9878.84
560.316	9955.67
560.679	9909.34
561.041	10053.97
561.404	10075.89
561.767	10098.72
562.129	10139.62
562.492	10163.35
562.854	10128.32
563.217	10164.25
563.579	10218.26
563.941	10316.79
564.304	10354.08
564.666	10372.16
565.028	10370.35
565.39	10413.06
565.753	10448.99
566.115	10484.24
566.477	10521.76
566.839	10589.33
567.201	10597.24
567.563	10618.03
567.925	10749.32
568.287	10753.84
568.648	10772.82
569.01	10858.02
569.372	10856.44
569.734	10824.35
570.095	10968.75
570.457	10970.56
570.819	11057.79
571.18	11055.08
571.542	11145.47
571.903	11092.82
572.265	11197.22
572.626	11251.23
572.987	11349.31
573.349	11347.95
573.71	11449.87
574.071	11495.97
574.432	11509.75
574.794	11591.11
575.155	11681.73
575.516	11701.16
575.877	11774.38
576.238	11801.27
576.599	11919.69
576.96	11993.81
577.32	12072.22
577.681	12167.14
578.042	12243.52
578.403	12387.02
578.763	12401.48
579.124	12473.12
579.485	12615.49
579.845	12697.52
580.206	12791.08
580.566	12935.03
580.927	13063.16
581.287	13225.41
581.648	13269.71
582.008	13469.48
582.368	13597.16
582.728	13798.51
583.089	13882.35
583.449	14070.14
583.809	14131.61
584.169	14449.79
584.529	14499.96
584.889	14816.79
585.249	14875.09
585.609	14989.44
585.969	15307.62
586.329	15489.31
586.688	15712.13
587.048	15827.15
587.408	16072.35
587.768	16334.26
588.127	16542.39
588.487	16839.11
588.846	17108.02
589.206	17247.68
589.565	17524.06
589.925	17778.29
590.284	18128.79
590.643	18355.9
591.003	18607.87
591.362	18922.89
591.721	19150.91
592.08	19480.62
592.44	19845.13
592.799	20164.67
593.158	20300.71
593.517	20607.59
593.876	20915.38
594.235	21267.01
594.593	21450.51
594.952	21871.52
595.311	22083.26
595.67	22371.84
596.029	22782.68
596.387	23070.58
596.746	23432.83
597.104	23632.82
597.463	23958.69
597.822	24384.22
598.18	24547.15
598.538	24836.41
598.897	25366.11
599.255	25417.41
599.613	26079.54
599.972	26230.04
600.33	26552.97
600.688	26825.28
601.046	27162.68
601.404	27553.85
601.762	27651.02
602.12	28185.25
602.478	28391.8
602.836	28730.54
603.194	28795.4
603.552	29102.96
603.91	29417.31
604.268	29875.37
604.625	29892.1
604.983	30325.3
605.341	30406.21
605.698	30905.18
606.056	31137.03
606.413	31324.6
606.771	31764.14
607.128	31882.55
607.485	32203.45
607.843	32384.23
608.2	32774.28
608.557	33106.25
608.914	33188.73
609.272	33466.24
609.629	33755.27
609.986	34160.46
610.343	34190.06
610.7	34560
611.057	34670.5
611.414	34889.48
611.771	35177.83
612.127	35461.67
612.484	35658.95
612.841	35901.2
613.198	35976.91
613.554	36138.71
613.911	36610.34
614.267	36723.33
614.624	36927.39
614.98	37056.65
615.337	37360.37
615.693	37321.28
616.05	37530.09
616.406	37804.2
616.762	37781.38
617.118	37992.45
617.475	38104.53
617.831	38538.87
618.187	38580.23
618.543	38631.75
618.899	39009.6
619.255	39212.53
619.611	39137.73
619.967	39426.76
620.323	39550.15
620.678	39688.9
621.034	39596.47
621.39	39860.65
621.746	39865.39
622.101	40444.59
622.457	40137.48
622.812	40445.49
623.168	40537.24
623.523	40509.22
623.879	40761.41
624.234	40637.8
624.589	40890
624.945	41044.57
625.3	40994.18
625.655	41178.35
626.01	41251.34
626.365	41409.08
626.72	41295.19
627.075	41424.67
627.43	41414.5
627.785	41462.19
628.14	41746.92
628.495	41786.47
628.85	41750.31
629.205	41550.77
629.559	41948.73
629.914	41709.64
630.269	41806.36
630.623	41760.26
630.978	41892.46
631.332	41950.99
631.687	42086.8
632.041	42004.32
632.396	42055.39
632.75	42021.95
633.104	42202.73
633.459	42014.04
633.813	42082.51
634.167	41918.22
634.521	42057.65
634.875	42142.17
635.229	42192.56
635.583	42044.54
635.937	42048.39
636.291	41998.22
636.645	42081.61
636.999	42131.55
637.352	42260.81
637.706	42006.81
638.06	42261.04
638.413	42113.92
638.767	42078.44
639.121	42124.77
639.474	41902.18
639.828	41895.4
640.181	41971.55
640.534	42000.25
640.888	41932.68
641.241	41715.97
641.594	41953.02
641.947	41997.09
642.301	41921.16
642.654	42021.72
643.007	41993.7
643.36	42041.61
643.713	41933.81
644.066	42008.16
644.419	41787.6
644.771	41670.54
645.124	41292.7
645.477	41216.09
645.83	40996.89
646.182	40880.06
646.535	40703.11
646.888	40896.55
647.24	40760.96
647.593	40917.12
647.945	40785.14
648.298	40631.47
648.65	40664.24
649.002	40512.83
649.355	40710.79
649.707	40830.56
650.059	40883.67
650.411	41343.77
650.763	41423.09
651.115	41808.62
651.467	41620.6
651.819	41553.03
652.171	41589.64
652.523	41486.37
652.875	41493.37
653.227	41256.77
653.578	41621.5
653.93	41577.89
654.282	41353.71
654.633	41281.85
654.985	41292.02
655.337	41260.38
655.688	41491.34
656.039	41586.7
656.391	41207.05
656.742	41263.1
657.094	41141.52
657.445	41500.15
657.796	41220.16
658.147	41270.33
658.498	41238.46
658.849	41275.3
659.2	41242.76
659.551	41155.98
659.902	41330.44
660.253	41277.78
660.604	41273.27
660.955	41166.38
661.306	41264.23
661.656	41214.96
662.007	41139.26
662.358	41189.88
662.708	41207.5
663.059	41184
663.409	40932.71
663.76	41327.95
664.11	41221.29
664.461	41309.87
664.811	41329.31
665.161	41235.98
665.511	41105.13
665.862	41182.42
666.212	41214.06
666.562	41213.15
666.912	41143.1
667.262	41053.84
667.612	41023.78
667.962	41114.4
668.312	41069.2
668.662	41322.53
669.011	41035.08
669.361	41105.59
669.711	41095.19
670.06	40978.81
670.41	40991.01
670.76	40863.78
671.109	41120.05
671.459	40952.14
671.808	40853.16
672.157	40989.66
672.507	40680.74
672.856	40779.49
673.205	40896.33
673.554	41013.38
673.904	40828.76
674.253	41039.15
674.602	40792.37
674.951	40322.56
675.3	40155.55
675.649	40761.41
675.998	40725.48
676.346	40657.69
676.695	40845.03
677.044	40522.78
677.393	40671.7
677.741	40823.79
678.09	40553.51
678.438	40410.46
678.787	40659.72
679.135	40649.1
679.484	40302.22
679.832	40452.27
680.181	40196.01
680.529	40273.07
680.877	40286.4
681.225	40125.27
681.573	40532.04
681.922	40334.98
682.27	40042.11
682.618	40111.71
682.966	40089.57
683.314	40111.94
683.661	39920.31
684.009	39835.11
684.357	39778.16
684.705	39658.62
685.053	39817.48
685.4	39678.28
685.748	39480.32
686.095	39573.87
686.443	39324.84
686.79	39326.88
687.138	39351.73
687.485	39305.86
687.832	39289.81
688.18	39245.52
688.527	39049.59
688.874	38931.86
689.221	38838.53
689.568	38812.99
689.915	38721.02
690.262	38763.05
690.609	38529.38
690.956	38451.42
691.303	38366
691.65	38274.93
691.997	38347.01
692.344	38073.35
692.69	38160.13
693.037	38069.28
693.383	37806.92
693.73	37902.51
694.077	37696.86
694.423	37699.8
694.769	37590.88
695.116	37531.89
695.462	37499.8
695.808	37212.81
696.155	37458.22
696.501	37143.2
696.847	37213.48
697.193	36921.97
697.539	37010.1
697.885	36731.46
698.231	36709.09
698.577	36626.38
698.923	36633.16
699.269	36516.33
699.614	36226.62
699.96	36375.99
700.306	36212.61
700.651	36145.49
700.997	36039.28
701.342	35930.58
701.688	35901.65
702.033	35733.98
702.379	35640.19
702.724	35664.37
703.069	35602.68
703.415	35332.4
703.76	35268.45
704.105	35340.77
704.45	35189.13
704.795	34983.03
705.14	35040.89
705.485	34990.27
705.83	34813.77
706.175	34744.62
706.52	34646.32
706.865	34695.13
707.209	34497.17
707.554	34435.48
707.899	34614.01
708.243	34264.41
708.588	34209.04
708.932	34020.57
709.277	33929.96
709.621	34035.72
709.966	33877.08
710.31	33994.81
710.654	33601.83
710.998	33743.07
711.342	33710.98
711.687	33582.85
712.031	33474.15
712.375	33476.18
712.719	33465.33
713.063	33325.45
713.407	33498.33
713.75	33183.76
714.094	33191.67
714.438	33038.23
714.782	33093.82
715.125	32962.3
715.469	32917.55
715.812	32904.67
716.156	32644.34
716.499	32743.32
716.843	32741.06
717.186	32496.32
717.53	32646.37
717.873	32646.83
718.216	32565.7
718.559	32349.43
718.902	32247.06
719.246	32416.55
719.589	32080.74
719.932	32039.38
720.275	32056.78
720.617	32056.33
720.96	32000.74
721.303	31958.71
721.646	31886.39
721.989	31827.64
722.331	31829.45
722.674	31767.3
723.016	31725.95
723.359	31730.24
723.701	31629
724.044	31452.28
724.386	31380.19
724.729	31481.66
725.071	31352.4
725.413	31461.77
725.755	31238.05
726.097	31221.55
726.439	31063.14
726.782	31041.22
727.124	31249.8
727.465	31002.57
727.807	31109.46
728.149	30905.63
728.491	30828.57
728.833	30976.59
729.175	30704.05
729.516	30767.78
729.858	30698.63
730.199	30706.09
730.541	30615.47
730.882	30638.74
731.224	30733.43
731.565	30330.95
731.906	30307.45
732.248	30417.96
732.589	30188.81
732.93	30238.3
733.271	30219.09
733.612	30202.14
733.953	30303.16
734.294	30149.26
734.635	30053.45
734.976	30114.69
735.317	30031.07
735.658	29835.15
735.999	29964.64
736.339	30005.31
736.68	29944.3
737.021	29897.97
737.361	29711.54
737.702	29926.44
738.042	29755.38
738.383	29673.34
738.723	29782.27
739.063	29614.59
739.404	29688.94
739.744	29461.6
740.084	29508.83
740.424	29645.55
740.764	29408.72
741.104	29638.09
741.444	29381.37
741.784	29305.9
742.124	29225.22
742.464	29265.9
742.804	29282.39
743.143	29134.38
743.483	29124.88
743.823	28966.7
744.162	29033.81
744.502	29071.78
744.841	28975.74
745.181	28993.59
745.52	28908.62
745.86	28980.93
746.199	28834.27
746.538	28813.25
746.877	28843.99
747.216	28885.12
747.556	28794.05
747.895	28634.5
748.234	28626.82
748.573	28588.85
748.911	28520.83
749.25	28406.48
749.589	28409.65
749.928	28516.31
750.267	28439.7
750.605	28271.12
750.944	28340.72
751.283	28280.39
751.621	28248.75
751.96	28092.37
752.298	28074.97
752.636	28169.88
752.975	27854.41
753.313	27912.49
753.651	27926.95
753.989	27877.01
754.327	27803.34
754.666	27686.05
755.004	27725.37
755.342	27825.71
755.679	27699.16
756.017	27466.17
756.355	27647.63
756.693	27396.79
757.031	27526.96
757.368	27351.82
757.706	27226.4
758.044	27230.47
758.381	27239.06
758.719	27214.2
759.056	27097.14
759.394	27029.8
759.731	26908.67
760.068	26871.61
760.405	26759.07
760.743	26707.55
761.08	26781.22
761.417	26585.29
761.754	26577.38
762.091	26408.57
762.428	26304.85
762.765	26236.6
763.102	26417.61
763.438	26204.06
763.775	26171.29
764.112	26203.83
764.449	26040.9
764.785	26047.68
765.122	25858.98
765.458	25677.74
765.795	25646.33
766.131	25671.87
766.467	25594.58
766.804	25430.52
767.14	25400.69
767.476	25338.32
767.812	25155.72
768.148	25171.09
768.485	25044.54
768.821	24899.68
769.157	24969.51
769.492	24827.82
769.828	24785.79
770.164	24597.55
770.5	24614.27
770.836	24567.26
771.171	24331.11
771.507	24330.43
771.842	24047.5
772.178	24137.22
772.513	24151
772.849	24023.78
773.184	23970.67
773.519	23881.63
773.855	23845.47
774.19	23728.64
774.525	23723.44
774.86	23608.64
775.195	23595.09
775.53	23438.71
775.865	23318.03
776.2	23221.54
776.535	23019.73
776.87	23100.41
777.205	22942
777.539	22877.36
777.874	22944.03
778.209	22668.78
778.543	22708.1
778.878	22563.7
779.212	22369.81
779.547	22362.58
779.881	22398.73
780.215	22271.05
780.55	22200.55
780.884	22115.35
781.218	22026.99
781.552	21987.67
781.886	21865.41
782.22	21820.67
782.554	21729.15
782.888	21544.97
783.222	21538.64
783.556	21283.51
783.889	21341.59
784.223	21102.72
784.557	21175.04
784.89	21238.99
785.224	21092.55
785.557	20891.65
785.891	20906.57
786.224	20914.7
786.558	20845.55
786.891	20635.84
787.224	20605.33
787.557	20624.99
787.891	20563.53
788.224	20496.41
788.557	20446.24
788.89	20388.84
789.223	20261.84
789.556	20241.73
789.888	20157.89
790.221	20046.7
790.554	19807.61
790.887	19992.92
791.219	19827.95
791.552	19721.52
791.884	19623.66
792.217	19605.13
792.549	19590.9
792.882	19498.92
793.214	19396.55
793.546	19381.19
793.879	19253.51
794.211	19096.67
794.543	19192.72
794.875	19207.86
795.207	19195.2
795.539	18993.17
795.871	18974.42
796.203	18856.91
796.535	18688.55
796.867	18621.88
797.198	18632.96
797.53	18628.44
797.862	18469.12
798.193	18522.22
798.525	18376.24
798.856	18414.43
799.188	18220.31
799.519	18178.73
799.85	18137.15
800.182	18077.04
800.513	18066.87
800.844	17972.63
801.175	17979.87
801.506	17880.21
801.837	17818.51
802.168	17768.8
802.499	17794.56
802.83	17717.95
803.161	17654.68
803.491	17590.05
803.822	17624.62
804.153	17543.72
804.483	17470.28
804.814	17310.05
805.145	17281.58
805.475	17310.05
805.805	17255.82
806.136	17236.83
806.466	17154.58
806.796	17105.76
807.126	17033.68
807.457	16966.56
807.787	16979.89
808.117	16921.36
808.447	16861.25
808.777	16877.97
809.107	16739.22
809.436	16722.5
809.766	16638.21
810.096	16490.87
810.426	16503.97
810.755	16586.68
811.085	16497.19
811.414	16459.68
811.744	16356.41
812.073	16302.17
812.403	16399.79
812.732	16171.78
813.061	16205.9
813.39	16028.73
813.719	16040.03
814.049	16028.28
814.378	16080.48
814.707	15994.83
815.036	16032.57
815.365	15914.61
815.693	15776.99
816.022	15801.17
816.351	15677.55
816.68	15708.74
817.008	15709.42
817.337	15576.09
817.665	15549.42
817.994	15626.93
818.322	15533.38
818.651	15448.86
818.979	15440.95
819.307	15492.02
819.636	15418.8
819.964	15330.22
820.292	15440.27
820.62	15246.38
820.948	15276.89
821.276	15346.72
821.604	15284.12
821.932	15300.16
822.259	15291.35
822.587	15249.54
822.915	15171.35
823.243	15296.09
823.57	15219.49
823.898	15291.58
824.225	15141.97
824.553	15148.98
824.88	15105.14
825.207	15213.16
825.535	15234.4
825.862	15261.07
826.189	15168.87
826.516	15232.59
826.843	15249.77
827.17	15258.13
827.497	15262.88
827.824	15253.38
828.151	15240.5
828.478	15223.78
828.805	15231.24
829.131	15168.41
829.458	15212.26
829.785	15122.77
830.111	15121.18
830.438	15210.45
830.764	15169.32
831.09	15235.08
831.417	15041.64
831.743	15126.16
832.069	15117.34
832.395	15109.21
832.722	15147.4
833.048	15026.72
833.374	15013.16
833.7	15039.83
834.026	14979.27
834.351	14987.63
834.677	14965.26
835.003	15035.31
835.329	15101.75
835.654	14933.39
835.98	14927.74
836.306	14945.6
836.631	14840.29
836.956	14869.44
837.282	14831.7
837.607	14796.22
837.932	14778.14
838.258	14812.04
838.583	14742.66
838.908	14646.85
839.233	14707.41
839.558	14744.02
839.883	14596.45
840.208	14521.65
840.533	14542.89
840.858	14583.35
841.182	14493.4
841.507	14480.07
841.832	14457.7
842.156	14406.17
842.481	14391.49
842.805	14347.19
843.13	14348.32
843.454	14356.23
843.778	14249.34
844.103	14319.85
844.427	14273.75
844.751	14116.24
845.075	14207.76
845.399	14095.9
845.723	13993.3
846.047	14028.11
846.371	13842.35
846.695	13968.67
847.019	13814.78
847.343	13740.43
847.666	13650.49
847.99	13573.65
848.313	13671.05
848.637	13562.81
848.96	13536.59
849.284	13573.65
849.607	13514.9
849.931	13299.09
850.254	13291.63
850.577	13164.63
850.9	13195.59
851.223	13120.78
851.546	13021.58
851.869	12983.16
852.192	12942.26
852.515	12890.96
852.838	12805.31
853.161	12849.38
853.483	12831.98
853.806	12821.81
854.129	12691.87
854.451	12677.63
854.774	12584.3
855.096	12567.35
855.419	12473.34
855.741	12441.03
856.063	12390.41
856.385	12416.4
856.708	12362.39
857.03	12345.89
857.352	12274.25
857.674	12262.05
857.996	12260.24
858.318	12192
858.64	12119
858.961	12073.13
859.283	12107.93
859.605	12010.76
859.926	12145.67
860.248	11953.58
860.57	11962.17
860.891	11897.09
861.212	11950.42
861.534	11850.99
861.855	11845.11
862.176	11841.04
862.498	11867.48
862.819	11807.37
863.14	11680.14
863.461	11717.43
863.782	11696.19
864.103	11690.99
864.424	11649.86
864.745	11633.37
865.065	11592.46
865.386	11520.83
865.707	11490.77
866.027	11556.98
866.348	11534.39
866.668	11506.59
866.989	11427.95
867.309	11410.77
867.63	11400.38
867.95	11410.55
868.27	11318.8
868.59	11319.25
868.91	11328.74
869.23	11284.9
869.55	11310.89
869.87	11358.35
870.19	11249.2
870.51	11273.6
870.83	11269.99
871.15	11141.18
871.469	11257.11
871.789	11140.72
872.109	11213.49
872.428	11166.71
872.748	11139.59
873.067	11077.22
873.386	11145.24
873.706	11072.03
874.025	11007.62
874.344	10971.01
874.663	10945.47
874.982	10887.85
875.301	10988.64
875.62	10905.48
875.939	10831.58
876.258	10913.39
876.577	10886.95
876.896	10903.67
877.214	10813.05
877.533	10810.11
877.852	10813.73
878.17	10818.47
878.489	10813.73
878.807	10733.05
879.125	10757.01
879.444	10765.59
879.762	10725.14
880.08	10711.58
880.398	10639.72
880.716	10726.5
881.034	10632.26
881.352	10621.64
881.67	10603.34
881.988	10611.02
882.306	10569.89
882.624	10547.07
882.941	10462.55
883.259	10435.88
883.577	10488.54
883.894	10463.91
884.212	10484.92
884.529	10414.87
884.846	10359.73
885.164	10327.19
885.481	10320.86
885.798	10315.66
886.115	10214.19
886.432	10185.49
886.75	10184.59
887.067	10208.09
887.383	10190.47
887.7	10104.82
888.017	10139.85
888.334	10140.98
888.651	10148.43
888.967	10061.43
889.284	10063.92
889.6	10037.7
889.917	9937.37
890.233	9950.92
890.55	9880.87
890.866	9992.28
891.182	9846.52
891.498	9774.88
891.815	9789.12
892.131	9760.42
892.447	9761.78
892.763	9663.47
893.079	9617.15
893.395	9691.5
893.71	9632.97
894.026	9616.92
894.342	9528.56
894.657	9497.6
894.973	9512.74
895.289	9476.36
895.604	9453.76
895.92	9432.97
896.235	9365.63
896.55	9410.6
896.865	9305.52
897.181	9296.25
897.496	9299.87
897.811	9266.65
898.126	9187.33
898.441	9220.1
898.756	9075.47
899.071	9029.82
899.386	9096.03
899.7	9010.16
900.015	8947.79
900.33	8932.19
900.644	8910.5
900.959	8890.16
901.273	8857.17
901.588	8868.47
901.902	8805.19
902.216	8795.25
902.531	8791.86
902.845	8750.96
903.159	8630.96
903.473	8650.62
903.787	8557.29
904.101	8551.64
904.415	8611.98
904.729	8512.09
905.042	8494.01
905.356	8436.84
905.67	8521.58
905.984	8420.57
906.297	8418.76
906.611	8319.33
906.924	8359.55
907.237	8227.58
907.551	8242.04
907.864	8200.91
908.177	8187.13
908.491	8153.23
908.804	8105.78
909.117	8006.8
909.43	8058.09
909.743	8013.12
910.056	7996.63
910.368	7967.7
910.681	7957.3
910.994	7865.56
911.307	7830.3
911.619	7855.84
911.932	7814.03
912.244	7739.46
912.557	7744.2
912.869	7687.03
913.181	7651.1
913.494	7615.17
913.806	7543.98
914.118	7615.39
914.43	7489.75
914.742	7525
915.054	7536.07
915.366	7485.9
915.678	7421.73
915.99	7375.85
916.302	7335.4
916.613	7313.48
916.925	7279.36
917.236	7303.99
917.548	7251.33
917.859	7217.21
918.171	7141.73
918.482	7133.37
918.794	7074.39
919.105	7114.16
919.416	7046.37
919.727	7001.62
920.038	7034.84
920.349	6953.94
920.66	6881.63
920.971	6979.03
921.282	6891.12
921.593	6811.35
921.903	6797.56
922.214	6823.32
922.525	6725.25
922.835	6782.19
923.146	6699.26
923.456	6671.91
923.767	6670.11
924.077	6655.64
924.387	6576.1
924.697	6562.99
925.008	6505.82
925.318	6520.73
925.628	6523.44
925.938	6502.2
926.248	6384.92
926.558	6424.46
926.867	6416.1
927.177	6405.71
927.487	6335.2
927.796	6247.97
928.106	6254.52
928.416	6172.95
928.725	6191.02
929.034	6225.6
929.344	6162.55
929.653	6164.58
929.962	6093.85
930.271	6003.23
930.581	6053.85
930.89	6013.4
931.199	5988.32
931.508	5934.08
931.817	5986.28
932.125	5910.35
932.434	5903.12
932.743	5841.88
933.051	5820.86
933.36	5733.86
933.669	5754.42
933.977	5756.91
934.286	5753.97
934.594	5745.61
934.902	5701.09
935.21	5703.58
935.519	5581.1
935.827	5617.25
936.135	5638.04
936.443	5498.61
936.751	5558.27
937.059	5556.46
937.367	5482.12
937.674	5465.84
937.982	5500.65
938.29	5467.2
938.597	5473.08
938.905	5357.15
939.213	5354.89
939.52	5353.53
939.827	5380.88
940.135	5295.68
940.442	5230.6
940.749	5277.6
941.056	5258.62
941.363	5184.95
941.67	5173.2
941.977	5176.81
942.284	5120.54
942.591	5079.64
942.898	5121
943.205	5118.51
943.511	5019.53
943.818	5053.43
944.125	4995.12
944.431	5024.5
944.738	4949.93
945.044	4967.33
945.35	4944.73
945.657	4905.63
945.963	4850.95
946.269	4855.92
946.575	4815.69
946.881	4843.49
947.187	4788.8
947.493	4765.98
947.799	4782.02
948.105	4695.24
948.41	4688.92
948.716	4709.71
949.022	4725.75
949.327	4654.11
949.633	4570.73
949.938	4616.38
950.244	4561.91
950.549	4548.13
950.854	4544.74
951.16	4547.9
951.465	4515.36
951.77	4507.45
952.075	4479.43
952.38	4446.21
952.685	4421.58
952.99	4425.19
953.294	4380.68
953.599	4378.19
953.904	4315.37
954.209	4328.7
954.513	4279.44
954.818	4272.66
955.122	4278.76
955.426	4277.63
955.731	4248.48
956.035	4200.79
956.339	4200.12
956.643	4203.05
956.948	4183.62
957.252	4136.61
957.556	4098.88
957.86	4091.87
958.163	4090.29
958.467	4060.91
958.771	4087.12
959.075	4049.84
959.378	3998.31
959.682	4007.8
959.985	4027.24
960.289	3943.17
960.592	3990.18
960.896	3916.06
961.199	3945.21
961.502	3919.9
961.805	3887.81
962.108	3861.82
962.411	3850.29
962.714	3840.35
963.017	3831.31
963.32	3804.19
963.623	3836.06
963.926	3766.68
964.228	3737.75
964.531	3745.21
964.833	3763.06
965.136	3706.34
965.438	3702.5
965.741	3680.81
966.043	3625.22
966.345	3637.87
966.648	3653.46
966.95	3629.06
967.252	3603.75
967.554	3568.95
967.856	3538.89
968.158	3491.89
968.46	3533.92
968.761	3511.77
969.063	3497.99
969.365	3482.62
969.666	3484.2
969.968	3468.16
970.269	3479.23
970.571	3399.91
970.872	3422.96
971.174	3384.54
971.475	3390.87
971.776	3345.9
972.077	3322.4
972.378	3350.19
972.679	3318.33
972.98	3331.66
973.281	3312.46
973.582	3263.64
973.883	3270.42
974.183	3226.81
974.484	3222.51
974.785	3235.17
975.085	3210.76
975.386	3217.32
975.686	3158.79
975.986	3156.53
976.287	3165.34
976.587	3160.82
976.887	3105
977.187	3129.86
977.487	3110.65
977.787	3096.87
978.087	3065.91
978.387	3047.6
978.687	3081.05
978.987	3044.67
979.286	2983.2
979.586	3004.21
979.885	2999.24
980.185	2968.74
980.484	2984.78
980.784	2950.43
981.083	2972.35
981.382	2888.29
981.682	2908.4
981.981	2903.88
982.28	2906.82
982.579	2880.6
982.878	2856.2
983.177	2900.71
983.475	2851.68
983.774	2825.24
984.073	2801.06
984.372	2800.6
984.67	2787.27
984.969	2767.38
985.267	2778.46
985.566	2740.94
985.864	2760.61
986.162	2763.54
986.461	2706.82
986.759	2695.3
987.057	2674.96
987.355	2698.01
987.653	2665.47
987.951	2650.78
988.249	2664.56
988.547	2613.26
988.844	2600.38
989.142	2629.54
989.44	2602.42
989.737	2578.46
990.035	2550.22
990.332	2576.2
990.63	2514.74
990.927	2523.55
991.224	2527.62
991.521	2498.47
991.819	2472.48
992.116	2485.81
992.413	2448.07
992.71	2459.82
993.006	2469.99
993.303	2458.69
993.6	2422.31
993.897	2437.45
994.193	2443.55
994.49	2418.02
994.787	2353.61
995.083	2379.15
995.379	2352.93
995.676	2363.33
995.972	2361.29
996.268	2323.55
996.565	2319.04
996.861	2288.98
997.157	2277.23
997.453	2250.11
997.749	2271.58
998.044	2260.05
998.34	2266.38
998.636	2237.68
998.932	2195.2
999.227	2240.17
999.523	2186.38
999.818	2213.28
1000.114	2138.93
1000.409	2166.04
1000.704	2167.17
1001	2175.31
1001.295	2124.69
1001.59	2137.8
1001.885	2141.64
1002.18	2102.09
1002.475	2103
1002.77	2079.27
1003.065	2052.15
1003.359	2062.09
1003.654	2086.72
1003.949	2037.01
1004.243	2032.04
1004.538	2002.89
1004.832	2024.13
1005.127	1983.9
1005.421	1993.17
1005.715	2005.15
1006.009	1944.36
1006.304	1932.83
1006.598	1945.49
1006.892	1912.04
1007.186	1903.45
1007.48	1909.1
1007.773	1908.65
1008.067	1877.69
1008.361	1818.71
1008.655	1851.48
1008.948	1845.6
1009.242	1860.97
1009.535	1845.38
1009.829	1842.66
1010.122	1825.04
1010.415	1808.31
1010.708	1803.34
1011.001	1809.22
1011.295	1759.5
1011.588	1747.75
1011.881	1729.22
1012.173	1728.09
1012.466	1736
1012.759	1739.16
1013.052	1705.94
1013.344	1701.2
1013.637	1685.15
1013.93	1685.83
1014.222	1681.31
1014.514	1645.83
1014.807	1659.84
1015.099	1626.62
1015.391	1644.93
1015.683	1625.27
1015.976	1603.57
1016.268	1595.89
1016.56	1578.26
1016.851	1563.57
1017.143	1579.85
1017.435	1562.22
1017.727	1532.39
1018.018	1547.3
1018.31	1531.03
1018.602	1548.89
1018.893	1531.03
1019.185	1514.76
1019.476	1485.84
1019.767	1488.55
1020.058	1440.87
1020.35	1477.48
1020.641	1440.19
1020.932	1434.31
1021.223	1428.66
1021.514	1447.42
1021.804	1420.3
1022.095	1411.04
1022.386	1399.51
1022.677	1385.27
1022.967	1393.64
1023.258	1398.38
1023.548	1387.99
1023.839	1379.85
1024.129	1347.99
1024.419	1339.85
1024.709	1311.83
1025	1314.77
1025.29	1293.3
1025.58	1272.96
1025.87	1297.14
1026.16	1305.95
1026.449	1281.77
1026.739	1256.46
1027.029	1255.33
1027.319	1262.34
1027.608	1276.58
1027.898	1237.71
1028.187	1206.07
1028.477	1222.79
1028.766	1215.56
1029.055	1212.62
1029.344	1210.36
1029.634	1187.31
1029.923	1182.57
1030.212	1178.73
1030.501	1181.89
1030.79	1164.72
1031.078	1150.7
1031.367	1147.99
1031.656	1169.91
1031.945	1115.68
1032.233	1118.39
1032.522	1119.29
1032.81	1106.41
1033.099	1090.82
1033.387	1092.17
1033.675	1129.24
1033.963	1119.52
1034.251	1060.09
1034.54	1065.28
1034.828	1065.51
1035.116	1060.54
1035.403	1045.4
1035.691	1049.46
1035.979	1022.8
1036.267	1040.42
1036.554	1028
1036.842	1021.22
1037.129	1023.7
1037.417	984.15
1037.704	992.74
1037.992	990.71
1038.279	1003.36
1038.566	952.29
1038.853	952.29
1039.14	952.29
