Data from hue_00_FLMS001491_78.txt Node
Date: Mon Feb 06 15:30:13 GMT 2017
User: dcchb
Spectrometer: FLMS00149
Trigger mode: 0
Integration Time (sec): 2.000000E-2
Scans to average: 10
Electric dark correction enabled: true
Nonlinearity correction enabled: false
Boxcar width: 0
XAxis mode: Wavelengths
Number of Pixels in Spectrum: 2048
>>>>>Begin Spectral Data<<<<<
341.393	-9.25
341.776	-9.25
342.16	-9.25
342.543	-74.33
342.927	-69.14
343.31	-61.45
343.693	-73.43
344.077	-56.26
344.46	-59.19
344.843	-63.71
345.226	-37.72
345.61	-45.63
345.993	-22.58
346.376	-6.77
346.759	6.12
347.142	21.48
347.525	60.13
347.908	62.84
348.291	89.05
348.674	81.37
349.057	105.77
349.44	112.33
349.823	125.21
350.206	164.08
350.588	197.52
350.971	229.61
351.354	208.82
351.737	242.72
352.119	246.34
352.502	256.05
352.884	269.39
353.267	274.58
353.65	287.46
354.032	288.82
354.414	305.99
354.797	329.72
355.179	312.55
355.562	303.96
355.944	307.35
356.326	335.15
356.709	331.53
357.091	310.06
357.473	338.08
357.855	321.59
358.238	328.59
358.62	342.6
359.002	359.1
359.384	334.02
359.766	320.46
360.148	337.18
360.53	338.99
360.912	328.37
361.294	327.24
361.676	330.17
362.057	329.72
362.439	326.33
362.821	322.49
363.203	330.17
363.584	325.66
363.966	333.34
364.348	303.06
364.729	308.25
365.111	315.49
365.493	331.3
365.874	302.15
366.256	304.19
366.637	306.9
367.019	313.23
367.4	310.06
367.781	315.94
368.163	307.35
368.544	273.23
368.925	290.63
369.306	270.52
369.688	302.83
370.069	313.9
370.45	303.28
370.831	298.31
371.212	273
371.593	293.79
371.974	300.35
372.355	306.9
372.736	311.87
373.117	307.58
373.498	298.09
373.879	308.03
374.26	299.89
374.641	321.36
375.021	292.89
375.402	305.32
375.783	308.25
376.163	316.39
376.544	313.68
376.925	314.81
377.305	339.44
377.686	303.51
378.066	311.64
378.447	315.71
378.827	321.59
379.208	317.29
379.588	313.45
379.968	316.39
380.349	327.46
380.729	339.89
381.109	328.59
381.489	319.1
381.87	337.41
382.25	325.66
382.63	334.47
383.01	341.93
383.39	333.34
383.77	313.23
384.15	327.24
384.53	329.95
384.91	331.08
385.29	323.4
385.67	319.1
386.049	360.46
386.429	328.14
386.809	369.04
387.189	347.12
387.568	353.23
387.948	357.07
388.328	342.83
388.707	360.46
389.087	342.38
389.466	346.22
389.846	352.32
390.225	355.94
390.605	342.83
390.984	356.16
391.363	348.48
391.743	326.79
392.122	355.26
392.501	345.54
392.881	370.85
393.26	349.16
393.639	369.5
394.018	339.89
394.397	362.94
394.776	366.78
395.155	357.74
395.534	360
395.913	354.13
396.292	352.32
396.671	364.52
397.05	370.63
397.429	349.61
397.808	357.74
398.186	363.85
398.565	374.69
398.944	372.21
399.323	354.58
399.701	376.73
400.08	377.63
400.458	394.58
400.837	360
401.215	372.21
401.594	378.99
401.972	342.15
402.351	366.33
402.729	365.43
403.107	388.7
403.486	382.6
403.864	372.21
404.242	382.83
404.62	403.62
404.999	399.55
405.377	413.34
405.755	396.39
406.133	408.14
406.511	403.17
406.889	403.39
407.267	392.77
407.645	405.2
408.023	411.98
408.401	395.03
408.779	401.59
409.156	405.88
409.534	403.17
409.912	405.65
410.29	425.09
410.667	406.78
411.045	400
411.422	433
411.8	408.14
412.178	408.14
412.555	432.55
412.933	424.64
413.31	421.02
413.687	427.8
414.065	445.2
414.442	443.84
414.819	448.14
415.197	432.32
415.574	433.9
415.951	450.4
416.328	461.02
416.705	455.6
417.082	454.69
417.46	467.57
417.837	444.75
418.214	469.61
418.591	466.22
418.967	461.47
419.344	460.79
419.721	462.6
420.098	471.87
420.475	484.52
420.852	495.37
421.228	486.1
421.605	499.21
421.982	488.81
422.358	514.12
422.735	487.91
423.111	509.38
423.488	512.77
423.864	534.24
424.241	534.69
424.617	540.34
424.994	516.61
425.37	513.67
425.746	508.7
426.123	500.34
426.499	504.86
426.875	505.31
427.251	516.61
427.627	534.46
428.003	540.56
428.379	550.06
428.756	540.79
429.132	562.49
429.507	558.42
429.883	567.91
430.259	577.85
430.635	573.11
431.011	568.13
431.387	581.02
431.763	599.77
432.138	587.8
432.514	603.39
432.89	586.67
433.265	597.51
433.641	577.4
434.016	614.24
434.392	638.19
434.767	612.2
435.143	624.86
435.518	617.4
435.894	638.87
436.269	641.35
436.644	643.16
437.02	630.51
437.395	632.09
437.77	612.2
438.145	650.84
438.52	680.67
438.895	648.81
439.271	641.13
439.646	659.88
440.021	672.09
440.395	655.14
440.77	665.08
441.145	682.48
441.52	673.22
441.895	694.91
442.27	691.07
442.645	672.99
443.019	703.72
443.394	694.91
443.769	694.23
444.143	711.86
444.518	702.14
444.892	699.66
445.267	719.32
445.641	727.45
446.016	708.47
446.39	717.74
446.764	708.92
447.139	714.57
447.513	748.24
447.887	746.66
448.262	750.05
448.636	721.35
449.01	737.4
449.384	739.43
449.758	744.4
450.132	761.58
450.506	744.85
450.88	734.68
451.254	759.09
451.628	739.2
452.002	793.21
452.376	799.99
452.75	773.78
453.123	795.02
453.497	770.84
453.871	787.34
454.244	804.29
454.618	829.6
454.992	812.65
455.365	815.59
455.739	846.32
456.112	820.56
456.486	848.58
456.859	853.1
457.232	844.96
457.606	862.59
457.979	868.24
458.352	901.01
458.725	885.87
459.099	904.17
459.472	892.87
459.845	903.27
460.218	900.56
460.591	909.14
460.964	908.24
461.337	933.32
461.71	942.59
462.083	940.55
462.456	966.09
462.829	946.88
463.201	978.52
463.574	957.73
463.947	988.46
464.32	985.98
464.692	1011.96
465.065	1029.14
465.438	1025.52
465.81	1030.95
466.183	1040.66
466.555	1048.57
466.928	1076.82
467.3	1090.83
467.672	1092.87
468.045	1096.71
468.417	1087.9
468.789	1130.83
469.161	1119.98
469.534	1123.83
469.906	1176.93
470.278	1181.68
470.65	1191.17
471.022	1209.25
471.394	1209.47
471.766	1232.3
472.138	1228.91
472.51	1294.22
472.882	1295.35
473.253	1315.23
473.625	1355.23
473.997	1365.85
474.369	1369.7
474.74	1363.59
475.112	1374.22
475.484	1421.45
475.855	1444.95
476.227	1440.88
476.598	1477.72
476.97	1521.78
477.341	1488.56
477.713	1568.11
478.084	1556.58
478.455	1594.32
478.827	1613.98
479.198	1668.44
479.569	1671.61
479.94	1698.05
480.311	1738.95
480.682	1784.6
481.053	1806.75
481.424	1838.16
481.795	1859.85
482.166	1882.9
482.537	1919.74
482.908	1947.31
483.279	1977.14
483.65	2004.26
484.021	2069.11
484.391	2096
484.762	2129.45
485.133	2162.67
485.503	2189.11
485.874	2216
486.244	2241.31
486.615	2268.43
486.985	2276.34
487.356	2352.27
487.726	2384.13
488.097	2407.63
488.467	2451.02
488.837	2473.17
489.207	2518.59
489.578	2567.4
489.948	2594.97
490.318	2652.37
490.688	2639.72
491.058	2714.75
491.428	2721.52
491.798	2724.46
492.168	2806.49
492.538	2818.92
492.908	2854.18
493.278	2943.21
493.648	2861.41
494.017	2934.85
494.387	2951.8
494.757	3025.7
495.126	3045.58
495.496	3057.79
495.866	3115.41
496.235	3125.58
496.605	3136.43
496.974	3184.11
497.344	3167.16
497.713	3188.4
498.082	3238.57
498.452	3277.67
498.821	3295.29
499.19	3297.1
499.559	3368.06
499.928	3364.22
500.298	3374.39
500.667	3436.08
501.036	3388.4
501.405	3451
501.774	3491
502.143	3479.02
502.512	3510.43
502.88	3516.98
503.249	3541.62
503.618	3552.69
503.987	3595.63
504.356	3604.44
504.724	3624.33
505.093	3645.12
505.462	3613.93
505.83	3653.25
506.199	3678.79
506.567	3741.61
506.936	3731.67
507.304	3762.4
507.672	3796.52
508.041	3752.46
508.409	3806.92
508.777	3816.18
509.145	3850.99
509.514	3800.37
509.882	3853.7
510.25	3865
510.618	3933.24
510.986	3902.51
511.354	3931.89
511.722	3965.33
512.09	3999.91
512.458	3995.39
512.826	4028.16
513.193	4012.34
513.561	4013.47
513.929	4073.13
514.297	4029.06
514.664	4119.91
515.032	4108.15
515.4	4138.66
515.767	4110.41
516.135	4146.8
516.502	4139.79
516.869	4162.39
517.237	4169.4
517.604	4140.24
517.972	4208.27
518.339	4193.8
518.706	4220.47
519.073	4213.24
519.44	4236.74
519.808	4291.43
520.175	4276.74
520.542	4293.91
520.909	4283.29
521.276	4331.88
521.643	4311.77
522.009	4336.4
522.376	4371.42
522.743	4354.93
523.11	4391.54
523.477	4437.64
523.843	4404.42
524.21	4477.86
524.577	4510.86
524.943	4540.91
525.31	4560.8
525.676	4519.22
526.043	4567.35
526.409	4634.47
526.776	4694.81
527.142	4672.43
527.508	4724.86
527.874	4683.28
528.241	4732.77
528.607	4752.21
528.973	4802.15
529.339	4774.58
529.705	4826.33
530.071	4848.93
530.437	4878.3
530.803	4912.65
531.169	4935.03
531.535	4891.41
531.901	4927.57
532.267	4943.61
532.632	4990.62
532.998	5003.72
533.364	4997.17
533.73	5018.41
534.095	5059.99
534.461	5096.83
534.826	5081.24
535.192	5139.99
535.557	5160.1
535.923	5142.7
536.288	5143.61
536.653	5260.21
537.019	5230.61
537.384	5185.19
537.749	5229.26
538.114	5252.98
538.479	5270.16
538.845	5339.99
539.21	5315.35
539.575	5336.82
539.94	5338.18
540.305	5380.21
540.67	5322.13
541.034	5456.37
541.399	5463.6
541.764	5427.44
542.129	5487.55
542.494	5505.18
542.858	5544.28
543.223	5556.03
543.587	5604.84
543.952	5557.83
544.316	5603.93
544.681	5602.35
545.045	5624.95
545.41	5666.76
545.774	5708.11
546.138	5683.71
546.503	5716.47
546.867	5769.81
547.231	5789.24
547.595	5787.66
547.959	5778.39
548.324	5849.13
548.688	5867.66
549.052	5859.52
549.416	5907.43
549.779	5914.43
550.143	5925.28
550.507	5942
550.871	5969.35
551.235	6052.96
551.599	6010.93
551.962	5974.09
552.326	6063.13
552.689	6102.23
553.053	6052.06
553.417	6057.71
553.78	6176.57
554.143	6139.06
554.507	6170.25
554.87	6210.7
555.234	6248.66
555.597	6221.09
555.96	6217.7
556.323	6234.2
556.686	6270.58
557.05	6309.68
557.413	6326.63
557.776	6329.57
558.139	6344.48
558.502	6386.51
558.865	6402.33
559.228	6409.56
559.59	6479.62
559.953	6443.01
560.316	6491.82
560.679	6516.45
561.041	6511.71
561.404	6545.83
561.767	6555.1
562.129	6586.28
562.492	6621.31
562.854	6594.42
563.217	6637.81
563.579	6608.43
563.941	6657.24
564.304	6728.88
564.666	6762.1
565.028	6753.96
565.39	6788.76
565.753	6837.12
566.115	6828.76
566.477	6868.31
566.839	6900.62
567.201	6896.1
567.563	6901.53
567.925	6978.81
568.287	6953.96
568.648	6937.01
569.01	7022.65
569.372	7063.56
569.734	7101.52
570.095	7104.01
570.457	7188.53
570.819	7185.36
571.18	7203.89
571.542	7261.07
571.903	7195.31
572.265	7254.74
572.626	7284.34
572.987	7418.58
573.349	7384
573.71	7510.33
574.071	7554.39
574.432	7565.92
574.794	7644.78
575.155	7688.85
575.516	7648.4
575.877	7837.1
576.238	7829.86
576.599	7925
576.96	7939.69
577.32	8047.94
577.681	8073.93
578.042	8148.5
578.403	8279.8
578.763	8318.21
579.124	8393.92
579.485	8479.11
579.845	8651.09
580.206	8642.72
580.566	8724.53
580.927	8945.32
581.287	9004.98
581.648	9089.49
582.008	9224.86
582.368	9349.15
582.728	9519.09
583.089	9593.66
583.449	9758.18
583.809	9884.73
584.169	10092.86
584.529	10172.4
584.889	10478.38
585.249	10554.54
585.609	10714.53
585.969	10940.29
586.329	11122.43
586.688	11373.05
587.048	11498.47
587.408	11743.43
587.768	11998.57
588.127	12164.89
588.487	12434.49
588.846	12703.86
589.206	12779.11
589.565	13075.15
589.925	13391.98
590.284	13614.8
590.643	13789.26
591.003	14113.09
591.362	14396.47
591.721	14593.53
592.08	14899.28
592.44	15192.61
592.799	15432.15
593.158	15693.39
593.517	15964.57
593.876	16249.08
594.235	16498.79
594.593	16836.63
594.952	17162.05
595.311	17483.4
595.67	17678.65
596.029	18052.19
596.387	18249.93
596.746	18591.84
597.104	18810.82
597.463	19079.51
597.822	19512.5
598.18	19584.13
598.538	20057.79
598.897	20302.53
599.255	20444.45
599.613	20931.67
599.972	21189.29
600.33	21521.93
600.688	21623.17
601.046	22063.16
601.404	22286.89
601.762	22557.84
602.12	22789.02
602.478	23053.65
602.836	23397.37
603.194	23519.62
603.552	23843.91
603.91	24020.4
604.268	24369.99
604.625	24555.53
604.983	24895.86
605.341	24963.65
605.698	25309.63
606.056	25581.71
606.413	25883.4
606.771	26061.25
607.128	26366.55
607.485	26464.63
607.843	26772.64
608.2	27153.2
608.557	27482.23
608.914	27471.61
609.272	27737.36
609.629	28083.8
609.986	28372.6
610.343	28279.27
610.7	28742.08
611.057	28832.93
611.414	28996.99
611.771	29282.63
612.127	29476.53
612.484	29614.38
612.841	29896.18
613.198	29855.73
613.554	30194.25
613.911	30510.62
614.267	30476.95
614.624	30597.63
614.98	30988.35
615.337	31086.65
615.693	31256.59
616.05	31263.6
616.406	31567.32
616.762	31620.65
617.118	31758.05
617.475	31873.07
617.831	32132.28
618.187	32178.15
618.543	32383.57
618.899	32705.37
619.255	32629.66
619.611	32742.2
619.967	32964.12
620.323	33212.25
620.678	33016.32
621.034	33188.29
621.39	33206.82
621.746	33333.15
622.101	33719.13
622.457	33469.19
622.812	33727.04
623.168	33995.96
623.523	34020.36
623.879	34133.35
624.234	33966.8
624.589	34240.7
624.945	34434.36
625.3	34474.81
625.655	34442.05
626.01	34594.58
626.365	34540.35
626.72	34685.2
627.075	34703.73
627.43	34903.73
627.785	34680.01
628.14	34827.12
628.495	35009.04
628.85	34928.81
629.205	34856.5
629.559	35129.94
629.914	35092.65
630.269	35118.41
630.623	35014.01
630.978	35061.92
631.332	35251.29
631.687	35485.18
632.041	35306.43
632.396	35379.2
632.75	35228.92
633.104	35444.05
633.459	35113.44
633.813	35189.82
634.167	35425.98
634.521	35321.12
634.875	35462.81
635.229	35327.45
635.583	35221.91
635.937	35396.6
636.291	35254.68
636.645	35237.28
636.999	35246.09
637.352	35428.46
637.706	35190.73
638.06	35447.9
638.413	35219.2
638.767	35282.7
639.121	35316.6
639.474	35154.57
639.828	35138.53
640.181	35299.88
640.534	35298.07
640.888	35085.87
641.241	35059.88
641.594	35256.71
641.947	35298.07
642.301	35102.59
642.654	35167
643.007	35083.39
643.36	35195.7
643.713	35164.06
644.066	35295.36
644.419	34997.51
644.771	34773.34
645.124	34433.69
645.477	34513.91
645.83	34328.83
646.182	34216.06
646.535	34192.79
646.888	34207.25
647.24	33946.24
647.593	34255.84
647.945	34172.67
648.298	33969.06
648.65	33954.15
649.002	33862.63
649.355	34080.7
649.707	34000.7
650.059	34152.11
650.411	34543.51
650.763	34576.28
651.115	34906.21
651.467	34727.01
651.819	34802.71
652.171	34789.38
652.523	34761.81
652.875	34683.17
653.227	34483.63
653.578	34719.33
653.93	34744.64
654.282	34574.7
654.633	34452.44
654.985	34504.42
655.337	34664.64
655.688	34518.2
656.039	34689.05
656.391	34271.88
656.742	34515.26
657.094	34487.24
657.445	34580.35
657.796	34548.48
658.147	34423.52
658.498	34444.53
658.849	34540.35
659.2	34427.58
659.551	34279.79
659.902	34450.86
660.253	34442.5
660.604	34475.27
660.955	34250.64
661.306	34370.64
661.656	34310.07
662.007	34449.5
662.358	34424.19
662.708	34420.58
663.059	34390.07
663.409	34248.83
663.76	34331.09
664.11	34235.05
664.461	34330.64
664.811	34444.98
665.161	34397.53
665.511	34371.77
665.862	34342.61
666.212	34346.91
666.562	34438.88
666.912	34238.21
667.262	34330.18
667.612	34352.11
667.962	34440.24
668.312	34235.72
668.662	34464.19
669.011	34253.12
669.361	34188.27
669.711	34114.82
670.06	34174.71
670.41	34188.27
670.76	34109.63
671.109	34210.64
671.459	34180.81
671.808	34133.35
672.157	34215.61
672.507	33868.5
672.856	33893.59
673.205	33887.03
673.554	34176.06
673.904	34046.12
674.253	34243.86
674.602	33920.48
674.951	33645.68
675.3	33428.74
675.649	33987.37
675.998	33935.39
676.346	33857.65
676.695	34052
677.044	33680.03
677.393	33892
677.741	33836.19
678.09	33812.46
678.438	33871.89
678.787	33849.75
679.135	33884.55
679.484	33778.79
679.832	33682.74
680.181	33504.67
680.529	33700.6
680.877	33515.52
681.225	33480.04
681.573	33703.31
681.922	33603.42
682.27	33294.73
682.618	33309.87
682.966	33253.6
683.314	33429.64
683.661	33265.58
684.009	33164.79
684.357	33056.32
684.705	32946.49
685.053	33002.54
685.4	33048.41
685.748	32842.99
686.095	32764.58
686.443	32707.85
686.79	32601.42
687.138	32786.95
687.485	32756.89
687.832	32595.99
688.18	32656.33
688.527	32279.39
688.874	32576.56
689.221	32417.69
689.568	32333.4
689.915	32206.17
690.262	32269.22
690.609	32106.74
690.956	32023.35
691.303	32023.58
691.65	31920.3
691.997	31878.95
692.344	31533.65
692.69	31638.05
693.037	31642.8
693.383	31333.43
693.73	31549.24
694.077	31404.61
694.423	31209.81
694.769	31209.36
695.116	31100.89
695.462	31155.35
695.808	30992.19
696.155	31059.31
696.501	30802.82
696.847	30789.71
697.193	30582.94
697.539	30660.68
697.885	30395.37
698.231	30471.3
698.577	30354.24
698.923	30195.6
699.269	30204.64
699.614	30022.95
699.96	30053.01
700.306	30136.4
700.651	29900.02
700.997	29791.77
701.342	29916.74
701.688	29704.54
702.033	29601.72
702.379	29635.39
702.724	29522.4
703.069	29632
703.415	29366.25
703.76	29279.7
704.105	29246.25
704.45	29147.72
704.795	29109.31
705.14	28910.21
705.485	28964.9
705.83	28790.22
706.175	28804.23
706.52	28787.51
706.865	28611.24
707.209	28686.72
707.554	28367.4
707.899	28606.27
708.243	28331.02
708.588	28538.02
708.932	28199.95
709.277	28164.92
709.621	28210.12
709.966	27982.33
710.31	28151.14
710.654	27820.75
710.998	27924.48
711.342	27876.34
711.687	27842.67
712.031	27722
712.375	27633.19
712.719	27670.47
713.063	27629.34
713.407	27687.42
713.75	27390.25
714.094	27454.89
714.438	27277.49
714.782	27319.97
715.125	27169.7
715.469	27246.3
715.812	27196.59
716.156	27023.71
716.499	27028.91
716.843	26936.03
717.186	26904.84
717.53	27016.93
717.873	26986.2
718.216	26935.13
718.559	26713.89
718.902	26637.96
719.246	26581.69
719.589	26653.78
719.932	26416.95
720.275	26423.73
720.617	26338.76
720.96	26439.09
721.303	26402.48
721.646	26277.29
721.989	26186.44
722.331	26291.07
722.674	26233.45
723.016	26309.38
723.359	26160.23
723.701	26138.54
724.044	25870.52
724.386	25795.72
724.729	26040.46
725.071	25909.62
725.413	25847.02
725.755	25842.05
726.097	25870.75
726.439	25661.03
726.782	25686.57
727.124	25829.39
727.465	25707.36
727.807	25584.65
728.149	25525.22
728.491	25435.28
728.833	25508.95
729.175	25417.65
729.516	25496.29
729.858	25309.41
730.199	25396.86
730.541	25277.09
730.882	25229.41
731.224	25297.88
731.565	25120.71
731.906	25117.77
732.248	25178.56
732.589	25082.52
732.93	24987.61
733.271	24956.19
733.612	25002.75
733.953	25071.67
734.294	24882.07
734.635	24802.3
734.976	24789.64
735.317	24712.36
735.658	24692.25
735.999	24715.75
736.339	24676.65
736.68	24801.62
737.021	24546.26
737.361	24523.89
737.702	24622.64
738.042	24545.81
738.383	24568.86
738.723	24551.23
739.063	24427.85
739.404	24492.48
739.744	24420.16
740.084	24244.12
740.424	24360.05
740.764	24266.49
741.104	24297
741.444	24119.61
741.784	24110.57
742.124	24153.73
742.464	24173.84
742.804	24057.46
743.143	24010
743.483	24033.96
743.823	23782.89
744.162	23923.9
744.502	23951.93
744.841	23683.91
745.181	23955.99
745.52	23757.58
745.86	23770.46
746.199	23709.22
746.538	23686.62
746.877	23725.04
747.216	23777.92
747.556	23628.55
747.895	23617.02
748.234	23514.88
748.573	23450.24
748.911	23432.17
749.25	23386.97
749.589	23332.73
749.928	23369.34
750.267	23391.72
750.605	23400.98
750.944	23240.76
751.283	23243.47
751.621	23186.98
751.96	23064.94
752.298	23059.29
752.636	23084.15
752.975	22904.27
753.313	22895.46
753.651	23019.52
753.989	22882.12
754.327	22798.74
754.666	22699.53
755.004	22688.46
755.342	22686.42
755.679	22649.81
756.017	22560.1
756.355	22670.15
756.693	22429.71
757.031	22543.15
757.368	22416.15
757.706	22331.4
758.044	22292.31
758.381	22419.09
758.719	22187
759.056	22339.09
759.394	22186.1
759.731	22048.02
760.068	22023.16
760.405	21963.5
760.743	21899.78
761.08	21976.84
761.417	21702.04
761.754	21831.3
762.091	21676.28
762.428	21648.94
762.765	21593.34
763.102	21573.23
763.438	21432.22
763.775	21405.1
764.112	21360.36
764.449	21397.64
764.785	21222.05
765.122	21100.25
765.458	20978.9
765.795	21086.24
766.131	20903.19
766.467	20895.96
766.804	20808.73
767.14	20725.12
767.476	20752.91
767.812	20568.29
768.148	20689.19
768.485	20543.88
768.821	20407.84
769.157	20430.89
769.492	20309.99
769.828	20284.9
770.164	20122.2
770.5	20032.03
770.836	20142.08
771.171	19932.37
771.507	19978.25
771.842	19733.05
772.178	19735.09
772.513	19668.88
772.849	19748.42
773.184	19524.7
773.519	19581.87
773.855	19494.87
774.19	19407.87
774.525	19337.81
774.86	19299.62
775.195	19320.18
775.53	19213.29
775.865	19089.46
776.2	19027.76
776.535	18862.12
776.87	18843.13
777.205	18773.76
777.539	18608.34
777.874	18732.18
778.209	18545.52
778.543	18550.94
778.878	18373.32
779.212	18385.52
779.547	18309.82
779.881	18279.53
780.215	18199.76
780.55	18216.71
780.884	18021.46
781.218	17958.41
781.552	18026.43
781.886	17948.92
782.22	17886.1
782.554	17767.68
782.888	17602.49
783.222	17576.5
783.556	17494.24
783.889	17452.21
784.223	17355.04
784.557	17293.12
784.89	17258.54
785.224	17164.08
785.557	17115.5
785.891	17113.24
786.224	17077.98
786.558	16980.36
786.891	16821.94
787.224	16782.62
787.557	16735.39
787.891	16740.82
788.224	16699.24
788.557	16692
788.89	16616.53
789.223	16547.6
789.556	16429.41
789.888	16459.92
790.221	16398.9
790.554	16218.34
790.887	16324.1
791.219	16167.05
791.552	16174.5
791.884	16141.51
792.217	16055.41
792.549	15898.13
792.882	15878.01
793.214	15733.61
793.546	15849.31
793.879	15689.09
794.211	15628.3
794.543	15645.03
794.875	15594.63
795.207	15561.41
795.539	15579.04
795.871	15400.29
796.203	15333.4
796.535	15264.02
796.867	15235.32
797.198	15183.12
797.53	15232.61
797.862	14995.78
798.193	15139.28
798.525	15055.89
798.856	14923.46
799.188	14936.57
799.519	14814.54
799.85	14715.79
800.182	14824.48
800.513	14712.4
800.844	14607.99
801.175	14667.2
801.506	14590.36
801.837	14643.24
802.168	14497.71
802.499	14507.66
802.83	14419.52
803.161	14410.93
803.491	14320.77
803.822	14331.84
804.153	14367.09
804.483	14181.11
804.814	14172.97
805.145	14128.46
805.475	14170.94
805.805	13985.18
806.136	14089.59
806.466	14072.64
806.796	14043.03
807.126	13819.54
807.457	13814.34
807.787	13804.4
808.117	13780.67
808.447	13722.14
808.777	13783.61
809.107	13635.81
809.436	13655.25
809.766	13594.68
810.096	13665.64
810.426	13544.06
810.755	13547.45
811.085	13532.77
811.414	13471.75
811.744	13341.58
812.073	13320.12
812.403	13318.08
812.732	13229.27
813.061	13199.89
813.39	13113.79
813.719	13112.66
814.049	13187.92
814.378	13051.65
814.707	13101.82
815.036	13053.68
815.365	13010.29
815.693	12858.43
816.022	12828.15
816.351	12815.72
816.68	12775.72
817.008	12893.69
817.337	12706.57
817.665	12724.2
817.994	12740.24
818.322	12716.52
818.651	12605.78
818.979	12543.19
819.307	12644.43
819.636	12572.34
819.964	12454.6
820.292	12520.36
820.62	12575.05
820.948	12480.14
821.276	12493.02
821.604	12409.86
821.932	12481.04
822.259	12477.43
822.587	12466.8
822.915	12434.26
823.243	12446.69
823.57	12432.46
823.898	12415.96
824.225	12449.86
824.553	12391.78
824.88	12393.36
825.207	12460.93
825.535	12426.35
825.862	12425.9
826.189	12369.86
826.516	12459.57
826.843	12430.42
827.17	12468.84
827.497	12452.79
827.824	12403.3
828.151	12482.17
828.478	12458.67
828.805	12452.34
829.131	12429.97
829.458	12394.49
829.785	12299.8
830.111	12317.2
830.438	12423.19
830.764	12334.61
831.09	12366.92
831.417	12312.01
831.743	12406.02
832.069	12329.63
832.395	12300.03
832.722	12382.29
833.048	12278.11
833.374	12310.88
833.7	12172.12
834.026	12255.51
834.351	12298.45
834.677	12254.61
835.003	12241.95
835.329	12219.58
835.654	12201.28
835.98	12119.7
836.306	12151.79
836.631	12074.72
836.956	12093.48
837.282	12149.53
837.607	12063.65
837.932	12046.7
838.258	12069.3
838.583	12081.05
838.908	11884.45
839.233	11942.07
839.558	11971.45
839.883	11943.88
840.208	11902.07
840.533	11894.84
840.858	11853.71
841.182	11871.34
841.507	11865.69
841.832	11844
842.156	11756.09
842.481	11786.6
842.805	11712.7
843.13	11672.7
843.454	11629.09
843.778	11611.46
844.103	11611.91
844.427	11613.72
844.751	11630.67
845.075	11533.95
845.399	11556.55
845.723	11511.35
846.047	11469.54
846.371	11334.18
846.695	11328.76
847.019	11262.77
847.343	11210.34
847.666	11147.07
847.99	11145.71
848.313	11112.04
848.637	11036.79
848.96	11034.98
849.284	11042.89
849.607	10906.85
849.931	10948.2
850.254	10835.21
850.577	10797.24
850.9	10749.56
851.223	10790.01
851.546	10693.52
851.869	10611.03
852.192	10659.39
852.515	10550.92
852.838	10539.4
853.161	10483.13
853.483	10406.97
853.806	10430.47
854.129	10380.98
854.451	10347.76
854.774	10286.75
855.096	10266.41
855.419	10234.55
855.741	10217.15
856.063	10161.1
856.385	10151.61
856.708	10144.61
857.03	10104.16
857.352	10042.91
857.674	10047.89
857.996	9993.65
858.318	9970.83
858.64	9941.67
858.961	9891.96
859.283	9872.75
859.605	9885.18
859.926	9884.27
860.248	9808.12
860.57	9775.8
860.891	9751.62
861.212	9678.4
861.534	9673.88
861.855	9636.82
862.176	9654.22
862.498	9606.77
862.819	9712.75
863.14	9615.13
863.461	9538.97
863.782	9502.36
864.103	9547.33
864.424	9496.04
864.745	9545.07
865.065	9419.65
865.386	9484.74
865.707	9423.04
866.027	9459.65
866.348	9381.46
866.668	9388.24
866.989	9411.74
867.309	9376.04
867.63	9361.58
867.95	9333.78
868.27	9307.79
868.59	9285.87
868.91	9290.17
869.23	9272.76
869.55	9203.61
869.87	9252.65
870.19	9146.67
870.51	9235.48
870.83	9236.61
871.15	9098.53
871.469	9177.63
871.789	9167.91
872.109	9131.75
872.428	9075.93
872.748	9098.08
873.067	9066.22
873.386	9091.07
873.706	9061.02
874.025	9027.57
874.344	8961.13
874.663	9052.43
874.982	9089.72
875.301	9004.52
875.62	8970.85
875.939	8934.69
876.258	8897.18
876.577	8914.58
876.896	8871.65
877.214	8870.29
877.533	8853.79
877.852	8805.43
878.17	8856.5
878.489	8821.03
878.807	8827.35
879.125	8853.79
879.444	8803.85
879.762	8701.03
880.08	8836.39
880.398	8673.01
880.716	8696.73
881.034	8701.93
881.352	8711.88
881.67	8678.2
881.988	8646.34
882.306	8638.43
882.624	8708.26
882.941	8617.19
883.259	8591.2
883.577	8527.93
883.894	8518.43
884.212	8523.41
884.529	8525.21
884.846	8514.37
885.164	8478.21
885.481	8477.31
885.798	8453.8
886.115	8341.04
886.432	8383.97
886.75	8344.43
887.067	8315.05
887.383	8361.15
887.7	8347.59
888.017	8286.58
888.334	8273.69
888.651	8272.79
888.967	8262.85
889.284	8189.86
889.6	8209.74
889.917	8053.81
890.233	8159.12
890.55	8140.82
890.866	8112.57
891.182	8116.86
891.498	8074.38
891.815	8031.89
892.131	7975.4
892.447	8022.4
892.763	7926.13
893.079	7930.43
893.395	7872.12
893.71	7907.6
894.026	7808.4
894.342	7855.4
894.657	7713.71
894.973	7767.49
895.289	7754.16
895.604	7699.92
895.92	7638.46
896.235	7627.61
896.55	7574.73
896.865	7596.88
897.181	7611.11
897.496	7635.29
897.811	7544.22
898.126	7493.83
898.441	7467.39
898.756	7474.85
899.071	7434.39
899.386	7427.62
899.7	7398.24
900.015	7381.74
900.33	7299.03
900.644	7249.99
900.959	7355.75
901.273	7310.56
901.588	7194.4
901.902	7185.14
902.216	7178.58
902.531	7185.59
902.845	7182.42
903.159	7069.66
903.473	7062.43
903.787	7038.02
904.101	7005.71
904.415	7018.13
904.729	6967.29
905.042	6933.39
905.356	6898.59
905.67	6939.27
905.984	6861.53
906.297	6802.1
906.611	6803.23
906.924	6826.28
907.237	6809.1
907.551	6752.38
907.864	6762.55
908.177	6663.12
908.491	6705.37
908.804	6656.34
909.117	6556.23
909.43	6551.03
909.743	6500.18
910.056	6520.07
910.368	6493.18
910.681	6487.3
910.994	6423.57
911.307	6393.07
911.619	6368.43
911.932	6426.96
912.244	6325.05
912.557	6357.36
912.869	6272.84
913.181	6291.6
913.494	6271.04
913.806	6219.06
914.118	6200.76
914.43	6138.38
914.742	6173.86
915.054	6143.58
915.366	6106.97
915.678	6078.5
915.99	6079.18
916.302	5982.91
916.613	5975.68
916.925	6013.87
917.236	5950.59
917.548	5912.4
917.859	5980.65
918.171	5855
918.482	5848.45
918.794	5794.44
919.105	5787.21
919.416	5766.42
919.727	5753.99
920.038	5735.91
920.349	5671.73
920.66	5702.01
920.971	5655.91
921.282	5659.75
921.593	5633.31
921.903	5582.01
922.214	5547.21
922.525	5609.36
922.835	5527.78
923.146	5510.6
923.456	5521.45
923.767	5504.73
924.077	5417.05
924.387	5476.03
924.697	5356.03
925.008	5418.4
925.318	5370.49
925.628	5341.34
925.938	5290.27
926.248	5293.21
926.558	5243.04
926.867	5271.97
927.177	5243.49
927.487	5177.28
927.796	5121.24
928.106	5165.75
928.416	5156.49
928.725	5121.91
929.034	5069.71
929.344	5066.1
929.653	5071.97
929.962	5046.21
930.271	5027.45
930.581	4991.97
930.89	4963.95
931.199	4930.28
931.508	4876.72
931.817	4888.02
932.125	4921.24
932.434	4868.36
932.743	4835.37
933.051	4813.45
933.36	4811.87
933.669	4759.89
933.977	4766.89
934.286	4744.07
934.594	4727.8
934.902	4643.96
935.21	4656.61
935.519	4620.23
935.827	4585.43
936.135	4651.64
936.443	4548.82
936.751	4527.35
937.059	4568.26
937.367	4558.09
937.674	4513.34
937.982	4505.21
938.29	4500.23
938.597	4474.92
938.905	4394.02
939.213	4417.75
939.52	4397.41
939.827	4415.94
940.135	4354.25
940.442	4323.52
940.749	4347.47
941.056	4333.46
941.363	4284.2
941.67	4272.44
941.977	4267.25
942.284	4205.55
942.591	4207.14
942.898	4212.33
943.205	4182.95
943.511	4148.83
943.818	4173.24
944.125	4114.48
944.431	4100.25
944.738	4102.73
945.044	4140.92
945.35	4086.69
945.657	4042.85
945.963	4003.3
946.269	3993.36
946.575	3992.45
946.881	3973.92
947.187	3994.26
947.493	3938.22
947.799	3936.18
948.105	3918.56
948.41	3884.21
948.716	3865.45
949.022	3859.35
949.327	3868.16
949.633	3782.29
949.938	3804.66
950.244	3783.87
950.549	3773.25
950.854	3732.12
951.16	3728.5
951.465	3736.41
951.77	3744.77
952.075	3682.18
952.38	3672.91
952.685	3675.62
952.99	3633.59
953.294	3615.06
953.599	3613.93
953.904	3612.12
954.209	3645.12
954.513	3591.56
954.818	3554.95
955.122	3571.67
955.426	3517.89
955.731	3515.4
956.035	3501.62
956.339	3505.91
956.643	3507.72
956.948	3475.4
957.252	3433.6
957.556	3442.86
957.86	3399.47
958.163	3398.57
958.467	3394.73
958.771	3339.36
959.075	3356.54
959.378	3328.29
959.682	3323.99
959.985	3285.8
960.289	3311.34
960.592	3278.8
960.896	3279.7
961.199	3259.82
961.502	3217.78
961.805	3222.3
962.108	3193.15
962.411	3206.03
962.714	3141.63
963.017	3183.43
963.32	3175.52
963.623	3087.84
963.926	3104.57
964.228	3115.19
964.531	3085.58
964.833	3107.05
965.136	3035.64
965.438	3057.56
965.741	3042.19
966.043	3042.19
966.345	3023.66
966.648	3038.8
966.95	3031.57
967.252	2932.82
967.554	2981.4
967.856	2946.83
968.158	2944.12
968.46	2932.82
968.761	2888.75
969.063	2908.86
969.365	2875.64
969.666	2861.63
969.968	2850.79
970.269	2856.44
970.571	2849.88
970.872	2834.97
971.174	2809.43
971.475	2834.06
971.776	2789.09
972.077	2794.52
972.378	2765.37
972.679	2775.31
972.98	2736.21
973.281	2741.86
973.582	2735.54
973.883	2719.49
974.183	2695.08
974.484	2670
974.785	2658.93
975.085	2653.28
975.386	2697.57
975.686	2652.6
975.986	2667.29
976.287	2648.53
976.587	2616.22
976.887	2629.78
977.187	2572.15
977.487	2559.49
977.787	2578.03
978.087	2563.11
978.387	2539.38
978.687	2548.2
978.987	2552.26
979.286	2478.37
979.586	2477.24
979.885	2480.4
980.185	2469.1
980.484	2488.99
980.784	2479.72
981.083	2474.98
981.382	2436.56
981.682	2431.81
981.981	2405.37
982.28	2416.67
982.579	2406.28
982.878	2423.23
983.177	2378.48
983.475	2384.58
983.774	2336.22
984.073	2357.69
984.372	2326.05
984.67	2301.87
984.969	2347.3
985.267	2304.13
985.566	2284.25
985.864	2301.42
986.162	2253.51
986.461	2258.03
986.759	2245.6
987.057	2246.73
987.355	2244.25
987.653	2238.15
987.951	2181.65
988.249	2240.86
988.547	2215.55
988.844	2195.21
989.142	2166.96
989.44	2147.08
989.737	2138.04
990.035	2156.34
990.332	2169.22
990.63	2129.68
990.927	2118.15
991.224	2106.63
991.521	2076.34
991.819	2097.81
992.116	2068.21
992.413	2096.91
992.71	2060.98
993.006	2027.98
993.303	2018.72
993.6	2049.23
993.897	1999.28
994.193	2036.8
994.49	2005.84
994.787	2008.77
995.083	1979.62
995.379	1978.72
995.676	1960.87
995.972	1969.45
996.268	1970.36
996.565	1927.42
996.861	1919.96
997.157	1904.37
997.453	1913.41
997.749	1916.12
998.044	1862.11
998.34	1890.13
998.636	1871.6
998.932	1873.19
999.227	1879.96
999.523	1839.51
999.818	1822.34
1000.114	1830.93
1000.409	1830.7
1000.704	1792.51
1001	1811.94
1001.295	1778.05
1001.59	1759.74
1001.885	1762.23
1002.18	1749.12
1002.475	1757.93
1002.77	1761.55
1003.065	1727.43
1003.359	1726.75
1003.654	1748.22
1003.949	1675.45
1004.243	1691.04
1004.538	1715.9
1004.832	1684.72
1005.127	1693.75
1005.421	1673.87
1005.715	1656.24
1006.009	1674.55
1006.304	1664.38
1006.598	1633.19
1006.892	1641.78
1007.186	1592.74
1007.48	1616.69
1007.773	1604.27
1008.067	1587.54
1008.361	1577.37
1008.655	1596.36
1008.948	1524.49
1009.242	1567.2
1009.535	1538.05
1009.829	1538.05
1010.122	1534.66
1010.415	1542.12
1010.708	1509.13
1011.001	1512.52
1011.295	1509.35
1011.588	1517.71
1011.881	1472.97
1012.173	1468.45
1012.466	1495.34
1012.759	1474.33
1013.052	1466.19
1013.344	1439.75
1013.637	1432.52
1013.93	1399.98
1014.222	1394.78
1014.514	1408.11
1014.807	1394.78
1015.099	1382.35
1015.391	1368.79
1015.683	1359.3
1015.976	1376.25
1016.268	1347.32
1016.56	1334.67
1016.851	1359.53
1017.143	1325.18
1017.435	1320.66
1017.727	1313.65
1018.018	1315.23
1018.31	1306.42
1018.602	1313.65
1018.893	1300.09
1019.185	1275.01
1019.476	1285.4
1019.767	1284.5
1020.058	1261.68
1020.35	1253.99
1020.641	1251.28
1020.932	1242.47
1021.223	1241.34
1021.514	1238.17
1021.804	1212.19
1022.095	1202.47
1022.386	1202.02
1022.677	1186.2
1022.967	1189.81
1023.258	1144.84
1023.548	1157.05
1023.839	1167.89
1024.129	1174.45
1024.419	1143.49
1024.709	1127.89
1025	1142.58
1025.29	1120.66
1025.58	1118.4
1025.87	1105.75
1026.16	1089.93
1026.449	1066.43
1026.739	1109.36
1027.029	1074.11
1027.319	1067.78
1027.608	1052.19
1027.898	1057.61
1028.187	1046.77
1028.477	1031.4
1028.766	1067.1
1029.055	1044.73
1029.344	1019.2
1029.634	1039.31
1029.923	1033.89
1030.212	1017.61
1030.501	1004.96
1030.79	1009.71
1031.078	994.56
1031.367	986.88
1031.656	1014
1031.945	990.27
1032.233	976.49
1032.522	959.54
1032.81	953.66
1033.099	932.42
1033.387	943.72
1033.675	950.05
1033.963	937.62
1034.251	925.87
1034.54	918.18
1034.828	902.59
1035.116	885.87
1035.403	896.49
1035.691	892.19
1035.979	904.62
1036.267	894
1036.554	908.24
1036.842	867.79
1037.129	870.27
1037.417	882.7
1037.704	849.26
1037.992	854
1038.279	875.7
1038.566	827.56
1038.853	827.56
1039.14	827.56
