Data from hue_320_FLMS001491_59.txt Node
Date: Mon Feb 06 15:47:24 GMT 2017
User: dcchb
Spectrometer: FLMS00149
Trigger mode: 0
Integration Time (sec): 2.000000E-2
Scans to average: 10
Electric dark correction enabled: true
Nonlinearity correction enabled: false
Boxcar width: 0
XAxis mode: Wavelengths
Number of Pixels in Spectrum: 2048
>>>>>Begin Spectral Data<<<<<
341.393	-17.91
341.776	-17.91
342.16	-17.91
342.543	-70.56
342.927	-83.44
343.31	-69.21
343.693	-62.43
344.077	-70.79
344.46	-43.67
344.843	-39.38
345.226	-29.21
345.61	-24.46
345.993	-19.72
346.376	0.4
346.759	6.05
347.142	20.51
347.525	35.2
347.908	56.21
348.291	54.41
348.674	74.29
349.057	111.8
349.44	137.12
349.823	137.57
350.206	170.56
350.588	196.1
350.971	196.55
351.354	219.6
351.737	231.12
352.119	251.01
352.502	259.6
352.884	268.41
353.267	263.67
353.65	290.78
354.032	298.24
354.414	309.54
354.797	304.12
355.179	312.25
355.562	310.67
355.944	312.03
356.326	331.01
356.709	321.07
357.091	322.65
357.473	330.1
357.855	342.76
358.238	344.12
358.62	331.46
359.002	335.3
359.384	331.23
359.766	317.68
360.148	330.78
360.53	330.33
360.912	323.1
361.294	331.69
361.676	320.16
362.057	311.12
362.439	338.69
362.821	318.13
363.203	325.81
363.584	330.56
363.966	318.58
364.348	309.99
364.729	314.06
365.111	307.05
365.493	293.72
365.874	316.09
366.256	313.83
366.637	302.31
367.019	296.21
367.4	320.39
367.781	305.02
368.163	303.66
368.544	300.73
368.925	306.6
369.306	310.22
369.688	302.08
370.069	291.46
370.45	311.35
370.831	324.45
371.212	322.65
371.593	316.77
371.974	326.04
372.355	311.57
372.736	309.31
373.117	305.92
373.498	312.25
373.879	287.62
374.26	312.7
374.641	307.51
375.021	310.22
375.402	317.9
375.783	335.75
376.163	321.97
376.544	314.51
376.925	308.18
377.305	325.36
377.686	330.78
378.066	323.78
378.447	312.25
378.827	324.91
379.208	311.35
379.588	335.98
379.968	328.75
380.349	322.19
380.729	357.9
381.109	295.98
381.489	331.23
381.87	319.48
382.25	322.87
382.63	332.82
383.01	335.3
383.39	319.26
383.77	314.06
384.15	333.49
384.53	338.24
384.91	335.3
385.29	332.36
385.67	338.01
386.049	340.95
386.429	340.27
386.809	333.27
387.189	339.14
387.568	354.28
387.948	332.59
388.328	355.19
388.707	340.05
389.087	361.06
389.466	360.61
389.846	345.92
390.225	333.72
390.605	350.67
390.984	362.87
391.363	337.34
391.743	330.1
392.122	358.8
392.501	376.66
392.881	372.14
393.26	348.18
393.639	362.87
394.018	378.24
394.397	386.83
394.776	364.68
395.155	374.62
395.534	385.7
395.913	381.18
396.292	364.68
396.671	365.13
397.05	373.72
397.429	374.85
397.808	392.48
398.186	386.15
398.565	378.24
398.944	375.3
399.323	377.79
399.701	392.02
400.08	372.82
400.458	425.02
400.837	413.27
401.215	390.67
401.594	418.46
401.972	403.55
402.351	417.11
402.729	408.07
403.107	423.21
403.486	411.46
403.864	421.18
404.242	415.75
404.62	425.92
404.999	415.3
405.377	421.63
405.755	425.24
406.133	435.64
406.511	443.77
406.889	421.18
407.267	440.38
407.645	467.73
408.023	464.56
408.401	434.28
408.779	454.62
409.156	466.15
409.534	465.02
409.912	460.04
410.29	488.97
410.667	492.13
411.045	499.59
411.422	501.17
411.8	497.11
412.178	496.88
412.555	485.35
412.933	500.04
413.31	519.93
413.687	519.93
414.065	524.68
414.442	549.76
414.819	528.52
415.197	555.64
415.574	560.83
415.951	556.99
416.328	556.09
416.705	564
417.082	573.71
417.46	598.35
417.837	576.43
418.214	602.19
418.591	590.66
418.967	615.29
419.344	606.03
419.721	609.42
420.098	622.53
420.475	620.72
420.852	655.52
421.228	639.47
421.605	645.12
421.982	653.49
422.358	653.94
422.735	656.42
423.111	646.48
423.488	669.3
423.864	662.98
424.241	670.89
424.617	692.58
424.994	703.88
425.37	709.76
425.746	700.04
426.123	708.63
426.499	718.34
426.875	720.15
427.251	730.09
427.627	766.03
428.003	773.71
428.379	765.35
428.756	761.51
429.132	771.67
429.507	802.63
429.883	783.43
430.259	804.44
430.635	836.76
431.011	829.53
431.387	836.98
431.763	855.29
432.138	827.49
432.514	895.97
432.89	879.92
433.265	868.17
433.641	884.21
434.016	878.56
434.392	925.12
434.767	909.52
435.143	923.31
435.518	927.83
435.894	940.48
436.269	942.74
436.644	984.55
437.02	970.09
437.395	989.3
437.77	991.1
438.145	1026.81
438.52	993.36
438.895	1000.14
439.271	1002.18
439.646	1053.7
440.021	1010.31
440.395	1026.81
440.77	1052.12
441.145	1057.99
441.52	1064.55
441.895	1066.81
442.27	1055.06
442.645	1056.41
443.019	1083.53
443.394	1061.84
443.769	1068.62
444.143	1086.92
444.518	1092.12
444.892	1084.66
445.267	1140.25
445.641	1127.82
446.016	1092.8
446.39	1102.29
446.764	1121.95
447.139	1116.07
447.513	1133.02
447.887	1150.65
448.262	1151.55
448.636	1161.49
449.01	1152.46
449.384	1150.65
449.758	1157.88
450.132	1179.57
450.506	1180.03
450.88	1181.16
451.254	1177.54
451.628	1174.38
452.002	1219.12
452.376	1193.13
452.75	1186.13
453.123	1221.15
453.497	1195.62
453.871	1243.98
454.244	1276.97
454.618	1253.02
454.992	1290.53
455.365	1279.01
455.739	1274.26
456.112	1280.36
456.486	1303.86
456.859	1313.58
457.232	1346.57
457.606	1325.33
457.979	1342.51
458.352	1349.29
458.725	1365.11
459.099	1337.76
459.472	1389.29
459.845	1382.51
460.218	1436.06
460.591	1411.88
460.964	1417.08
461.337	1431.32
461.71	1463.86
462.083	1462.28
462.456	1456.18
462.829	1479
463.201	1486.68
463.574	1504.08
463.947	1519.68
464.32	1539.79
464.692	1556.29
465.065	1551.32
465.438	1590.86
465.81	1605.78
466.183	1576.63
466.555	1618.66
466.928	1609.62
467.3	1632.44
467.672	1646
468.045	1650.97
468.417	1668.6
468.789	1686
469.161	1706.57
469.534	1718.32
469.906	1737.07
470.278	1773.68
470.65	1771.87
471.022	1784.3
471.394	1798.09
471.766	1817.07
472.138	1846.9
472.51	1877.41
472.882	1887.8
473.253	1901.14
473.625	1916.05
473.997	1947.91
474.369	1943.62
474.74	1963.73
475.112	2015.71
475.484	1987.24
475.855	2089.83
476.227	2062.71
476.598	2105.42
476.97	2129.15
477.341	2166.44
477.713	2186.78
478.084	2139.32
478.455	2231.3
478.827	2241.69
479.198	2300
479.569	2276.27
479.94	2321.01
480.311	2375.47
480.682	2402.59
481.053	2432.42
481.424	2434.46
481.795	2452.31
482.166	2476.04
482.537	2533.89
482.908	2598.29
483.279	2593.55
483.65	2603.72
484.021	2645.52
484.391	2700.66
484.762	2697.73
485.133	2684.84
485.503	2744.28
485.874	2749.93
486.244	2816.59
486.615	2827.44
486.985	2870.83
487.356	2914.22
487.726	2901.11
488.097	2976.59
488.467	3011.62
488.837	3010.49
489.207	3052.07
489.578	3068.79
489.948	3120.09
490.318	3158.73
490.688	3097.94
491.058	3184.72
491.428	3206.41
491.798	3249.12
492.168	3318.27
492.538	3313.08
492.908	3327.99
493.278	3367.31
493.648	3361.21
494.017	3412.28
494.387	3441.21
494.757	3465.39
495.126	3513.52
495.496	3473.07
495.866	3489.34
496.235	3529.57
496.605	3556.01
496.974	3599.17
497.344	3588.32
497.713	3591.71
498.082	3652.73
498.452	3687.76
498.821	3674.42
499.19	3688.66
499.559	3775.66
499.928	3724.59
500.298	3760.3
500.667	3757.36
501.036	3769.79
501.405	3827.64
501.774	3791.93
502.143	3820.41
502.512	3843.91
502.88	3877.36
503.249	3889.33
503.618	3889.56
503.987	3895.66
504.356	3916.68
504.724	3962.78
505.093	3919.16
505.462	3926.39
505.83	3923.23
506.199	3979.95
506.567	4041.19
506.936	4004.13
507.304	4078.03
507.672	4106.05
508.041	4064.24
508.409	4123.68
508.777	4109.67
509.145	4103.56
509.514	4115.32
509.882	4161.19
510.25	4135.2
510.618	4165.48
510.986	4206.16
511.354	4223.11
511.722	4186.73
512.09	4282.32
512.458	4235.31
512.826	4278.48
513.193	4271.24
513.561	4289.1
513.929	4278.7
514.297	4343.78
514.664	4372.94
515.032	4370.22
515.4	4349.89
515.767	4384.46
516.135	4407.74
516.502	4405.48
516.869	4391.47
517.237	4416.78
517.604	4353.73
517.972	4460.62
518.339	4481.41
518.706	4452.48
519.073	4473.05
519.44	4497
519.808	4528.86
520.175	4524.12
520.542	4586.26
520.909	4603.44
521.276	4553.5
521.643	4569.54
522.009	4636.21
522.376	4611.35
522.743	4653.83
523.11	4683.21
523.477	4759.59
523.843	4740.16
524.21	4775.64
524.577	4720.5
524.943	4801.17
525.31	4824.45
525.676	4896.54
526.043	4890.44
526.409	4890.44
526.776	4911.9
527.142	4896.54
527.508	4970.66
527.874	4944.22
528.241	5021.05
528.607	4999.59
528.973	5070.77
529.339	5083.43
529.705	5153.03
530.071	5120.71
530.437	5155.74
530.803	5190.32
531.169	5184.67
531.535	5193.71
531.901	5253.82
532.267	5212.46
532.632	5239.13
532.998	5266.92
533.364	5302.18
533.73	5343.53
534.095	5328.16
534.461	5398.45
534.826	5425.11
535.192	5475.96
535.557	5507.6
535.923	5503.98
536.288	5510.76
536.653	5539.91
537.019	5518.22
537.384	5539.91
537.749	5593.02
538.114	5578.1
538.479	5641.15
538.845	5624.2
539.21	5687.93
539.575	5680.92
539.94	5694.71
540.305	5743.07
540.67	5732.22
541.034	5779.9
541.399	5799.57
541.764	5787.59
542.129	5831.65
542.494	5826.01
542.858	5876.85
543.223	5906.45
543.587	5926.57
543.952	5953.23
544.316	5941.26
544.681	5989.39
545.045	6014.25
545.41	6024.19
545.774	6055.83
546.138	6091.08
546.503	6119.33
546.867	6078.2
547.231	6217.86
547.595	6169.5
547.959	6217.86
548.324	6231.87
548.688	6234.36
549.052	6204.98
549.416	6297.41
549.779	6296.73
550.143	6330.62
550.507	6334.24
550.871	6369.49
551.235	6317.97
551.599	6412.43
551.962	6389.61
552.326	6444.29
552.689	6489.94
553.053	6512.09
553.417	6457.17
553.78	6535.59
554.143	6529.72
554.507	6574.69
554.87	6592.31
555.234	6683.61
555.597	6592.99
555.96	6685.64
556.323	6647.23
556.686	6710.28
557.05	6752.31
557.413	6719.54
557.776	6743.5
558.139	6790.05
558.502	6765.42
558.865	6842.93
559.228	6820.78
559.59	6797.28
559.953	6902.36
560.316	6957.95
560.679	6949.37
561.041	6947.33
561.404	7004.51
561.767	7028.23
562.129	7018.29
562.492	7062.13
562.854	7050.15
563.217	7057.84
563.579	7087.67
563.941	7132.86
564.304	7145.52
564.666	7160.43
565.028	7232.3
565.39	7227.55
565.753	7258.51
566.115	7225.52
566.477	7254.89
566.839	7284.95
567.201	7379.41
567.563	7392.74
567.925	7454.66
568.287	7388.22
568.648	7427.54
569.01	7541.89
569.372	7533.98
569.734	7526.98
570.095	7547.54
570.457	7632.29
570.819	7646.75
571.18	7624.6
571.542	7738.5
571.903	7771.72
572.265	7823.69
572.626	7844.93
572.987	7895.56
573.349	7923.35
573.71	7961.09
574.071	7982.33
574.432	8023.69
574.794	8096.91
575.155	8147.53
575.516	8181.2
575.877	8296.67
576.238	8260.07
576.599	8395.88
576.96	8462.77
577.32	8512.26
577.681	8611.47
578.042	8748.64
578.403	8837.23
578.763	8769.66
579.124	8872.03
579.485	9019.59
579.845	9138.69
580.206	9221.4
580.566	9259.36
580.927	9341.39
581.287	9558.56
581.648	9623.42
582.008	9850.31
582.368	9917.2
582.728	10105.89
583.089	10224.76
583.449	10311.08
583.809	10495.71
584.169	10734.8
584.529	10827.91
584.889	11166.2
585.249	11236.03
585.609	11378.4
585.969	11641.22
586.329	11790.14
586.688	12078.04
587.048	12254.31
587.408	12455.66
587.768	12642.32
588.127	12920.51
588.487	13092.93
588.846	13441.4
589.206	13588.06
589.565	13857.21
589.925	14143.07
590.284	14466.46
590.643	14685.21
591.003	14916.61
591.362	15231.63
591.721	15443.61
592.08	15698.97
592.44	16045.17
592.799	16264.37
593.158	16508.66
593.517	16854.87
593.876	17138.25
594.235	17421.63
594.593	17636.32
594.952	18036.53
595.311	18258.9
595.67	18594.71
596.029	19021.14
596.387	19236.73
596.746	19592.42
597.104	19786.77
597.463	20078.74
597.822	20414.32
598.18	20630.81
598.538	20930.69
598.897	21315.09
599.255	21487.51
599.613	22058.35
599.972	22201.62
600.33	22536.53
600.688	22732.68
601.046	23204.76
601.404	23419.44
601.762	23688.81
602.12	24024.85
602.478	24148.69
602.836	24682.23
603.194	24624.83
603.552	25091.26
603.91	25201.99
604.268	25544.13
604.625	25656.67
604.983	26039.71
605.341	26298.69
605.698	26731.44
606.056	26859.35
606.413	27142.96
606.771	27419.56
607.128	27561.7
607.485	27759.44
607.843	28038.53
608.2	28444.17
608.557	28643.03
608.914	28810.94
609.272	29103.36
609.629	29444.59
609.986	29599.17
610.343	29685.04
610.7	30219.49
611.057	30242.76
611.414	30397.34
611.771	30736.99
612.127	30854.5
612.484	31107.15
612.841	31407.93
613.198	31371.77
613.554	31528.38
613.911	31946.22
614.267	31979.44
614.624	32142.83
614.98	32394.35
615.337	32625.75
615.693	32686.54
616.05	32799.08
616.406	33213.31
616.762	33150.94
617.118	33368.11
617.475	33474.77
617.831	33725.84
618.187	33759.73
618.543	34101.19
618.899	34254.18
619.255	34364.01
619.611	34528.08
619.967	34615.53
620.323	34833.83
620.678	34758.35
621.034	34780.05
621.39	34912.7
621.746	35075.41
622.101	35547.94
622.457	35326.02
622.812	35659.12
623.168	35741.15
623.523	35822.96
623.879	35944.76
624.234	35846.01
624.589	35966.91
624.945	36142.95
625.3	36341.13
625.655	36320.57
626.01	36323.96
626.365	36349.04
626.72	36604.86
627.075	36539.32
627.43	36665.65
627.785	36580.22
628.14	36912.87
628.495	36925.98
628.85	36867
629.205	36720.79
629.559	37062.92
629.914	36964.17
630.269	37114
630.623	36954
630.978	37066.99
631.332	37199.42
631.687	37187.44
632.041	37192.41
632.396	37468.34
632.75	37230.6
633.104	37216.14
633.459	37177.27
633.813	37099.08
634.167	37174.11
634.521	37144.05
634.875	37310.6
635.229	37465.17
635.583	37270.38
635.937	37342.69
636.291	37242.58
636.645	37332.3
636.999	37232.18
637.352	37533.65
637.706	37257.49
638.06	37453.65
638.413	37412.97
638.767	37233.77
639.121	37459.98
639.474	37184.5
639.828	37260.43
640.181	37393.54
640.534	37286.19
640.888	37261.79
641.241	37091.17
641.594	37363.71
641.947	37323.48
642.301	37212.98
642.654	37292.3
643.007	37191.06
643.36	37262.69
643.713	37270.6
644.066	37485.06
644.419	37139.08
644.771	36882.14
645.124	36577.29
645.477	36539.55
645.83	36317.41
646.182	36188.6
646.535	36190.63
646.888	36107.69
647.24	35989.96
647.593	36205.77
647.945	36173.23
648.298	35973.01
648.65	36001.03
649.002	35934.14
649.355	36174.81
649.707	36017.53
650.059	36208.26
650.411	36544.75
650.763	36754.01
651.115	37003.04
651.467	36891.85
651.819	36793.1
652.171	36807.56
652.523	36776.38
652.875	36871.74
653.227	36601.92
653.578	36974.34
653.93	36886.43
654.282	36673.1
654.633	36537.06
654.985	36722.59
655.337	36664.29
655.688	36730.05
656.039	36911.52
656.391	36445.31
656.742	36424.07
657.094	36648.92
657.445	36670.62
657.796	36645.31
658.147	36628.13
658.498	36623.16
658.849	36648.02
659.2	36456.16
659.551	36541.36
659.902	36569.83
660.253	36606.89
660.604	36552.43
660.955	36516.72
661.306	36527.57
661.656	36578.42
662.007	36400.79
662.358	36556.27
662.708	36523.73
663.059	36481.24
663.409	36433.56
663.76	36612.99
664.11	36634.01
664.461	36666.32
664.811	36590.85
665.161	36525.99
665.511	36467.69
665.862	36537.06
666.212	36547.46
666.562	36474.24
666.912	36466.78
667.262	36396.5
667.612	36345.43
667.962	36504.75
668.312	36309.95
668.662	36566.21
669.011	36354.69
669.361	36343.85
669.711	36385.43
670.06	36235.83
670.41	36293
670.76	36175.94
671.109	36382.72
671.459	36313.56
671.808	36258.2
672.157	36399.66
672.507	36123.06
672.856	36193.57
673.205	36276.96
673.554	36276.28
673.904	36161.7
674.253	36406.22
674.602	36173.46
674.951	35768.27
675.3	35634.03
675.649	36206.68
675.998	36153.57
676.346	35999
676.695	36120.8
677.044	36040.35
677.393	36043.52
677.741	36106.79
678.09	35937.98
678.438	35823.18
678.787	35925.1
679.135	35949.73
679.484	35766.01
679.832	35874.25
680.181	35697.08
680.529	35806.69
680.877	35711.09
681.225	35689.17
681.573	35869.28
681.922	35664.77
682.27	35473.36
682.618	35508.61
682.966	35321.5
683.314	35430.88
683.661	35281.73
684.009	35166.02
684.357	35198.79
684.705	35078.8
685.053	35152.01
685.4	35135.52
685.748	34915.64
686.095	34733.49
686.443	34829.54
686.79	34721.97
687.138	34862.76
687.485	34885.81
687.832	34730.1
688.18	34718.8
688.527	34563.78
688.874	34434.29
689.221	34539.6
689.568	34397.68
689.915	34332.6
690.262	34318.82
690.609	34152.27
690.956	34114.53
691.303	33994.3
691.65	33887.19
691.997	33980.97
692.344	33710.92
692.69	33760.64
693.037	33670.7
693.383	33584.82
693.73	33587.99
694.077	33268.45
694.423	33350.93
694.769	33366.07
695.116	33272.74
695.462	33171.27
695.808	33157.04
696.155	33098.28
696.501	32862.81
696.847	32883.6
697.193	32663.94
697.539	32835.01
697.885	32568.13
698.231	32421.01
698.577	32424.4
698.923	32243.39
699.269	32241.81
699.614	31912.32
699.96	32098.31
700.306	32059.44
700.651	31961.59
700.997	31841.14
701.342	31662.61
701.688	31645.44
702.033	31598.21
702.379	31635.95
702.724	31548.94
703.069	31592.79
703.415	31125
703.76	31221.95
704.105	31249.74
704.45	31286.13
704.795	30994.16
705.14	30895.85
705.485	30862.18
705.83	30718.68
706.175	30858.79
706.52	30754.84
706.865	30589.42
707.209	30625.35
707.554	30484.79
707.899	30518.92
708.243	30383.1
708.588	30326.15
708.932	30089.77
709.277	30155.99
709.621	30128.42
709.966	30018.36
710.31	30046.16
710.654	29782.89
710.998	29917.35
711.342	29941.3
711.687	29711.48
712.031	29665.6
712.375	29520.75
712.719	29564.59
713.063	29514.42
713.407	29487.08
713.75	29398.72
714.094	29452.28
714.438	29261.77
714.782	29338.83
715.125	29008.45
715.469	29083.7
715.812	28978.84
716.156	28806.64
716.499	28850.26
716.843	28818.62
717.186	28755.35
717.53	28796.7
717.873	28866.76
718.216	28710.6
718.559	28687.1
718.902	28395.36
719.246	28547.67
719.589	28474
719.932	28255.47
720.275	28273.78
720.617	28306.09
720.96	28265.87
721.303	28293.66
721.646	28310.16
721.989	27993.78
722.331	28104.52
722.674	27951.98
723.016	28001.69
723.359	27991.07
723.701	27992.43
724.044	27759.21
724.386	27587.47
724.729	27910.62
725.071	27762.83
725.413	27691.87
725.755	27748.14
726.097	27592.89
726.439	27517.64
726.782	27398.09
727.124	27595.15
727.465	27292.79
727.807	27295.72
728.149	27362.84
728.491	27323.74
728.833	27315.16
729.175	27219.79
729.516	27089.17
729.858	27119.68
730.199	27137.31
730.541	27097.54
730.882	27051.66
731.224	27069.51
731.565	26847.15
731.906	26839.24
732.248	26870.88
732.589	26705.46
732.93	26730.77
733.271	26617.55
733.612	26699.58
733.953	26793.82
734.294	26698
734.635	26529.19
734.976	26656.42
735.317	26420.04
735.658	26483.54
735.999	26454.84
736.339	26322.64
736.68	26382.53
737.021	26349.76
737.361	26127.17
737.702	26364
738.042	26185.02
738.383	26157.45
738.723	26291.91
739.063	26121.52
739.404	26111.57
739.744	26027.28
740.084	25976.21
740.424	25957
740.764	26007.85
741.104	26017.56
741.444	25823.45
741.784	25784.35
742.124	25754.52
742.464	25686.73
742.804	25706.16
743.143	25637.91
743.483	25635.65
743.823	25416.22
744.162	25504.36
744.502	25611.47
744.841	25388.2
745.181	25483.79
745.52	25438.82
745.86	25345.49
746.199	25371.93
746.538	25298.71
746.877	25272.5
747.216	25254.87
747.556	25272.95
747.895	25220.3
748.234	25090.58
748.573	25054.2
748.911	25133.75
749.25	25064.6
749.589	24931.04
749.928	24914.09
750.267	24979.4
750.605	24931.04
750.944	24869.12
751.283	24722.46
751.621	24762.23
751.96	24599.07
752.298	24620.09
752.636	24601.33
752.975	24488.11
753.313	24362.69
753.651	24454.44
753.989	24351.62
754.327	24344.61
754.666	24240.44
755.004	24293.32
755.342	24265.52
755.679	24194.56
756.017	24004.51
756.355	24086.99
756.693	23952.76
757.031	23937.85
757.368	23868.47
757.706	23812.2
758.044	23795.7
758.381	23732.2
758.719	23647.68
759.056	23733.56
759.394	23633.67
759.731	23324.08
760.068	23348.26
760.405	23376.96
760.743	23235.04
761.08	23181.03
761.417	23150.3
761.754	23101.03
762.091	23177.19
762.428	23003.86
762.765	22797.31
763.102	22934.03
763.438	22758.89
763.775	22719.57
764.112	22587.6
764.449	22645.22
764.785	22411.11
765.122	22399.58
765.458	22376.3
765.795	22272.8
766.131	22301.05
766.467	22124.56
766.804	22056.54
767.14	21984.22
767.476	22001.62
767.812	21797.56
768.148	21964.79
768.485	21672.37
768.821	21578.59
769.157	21586.72
769.492	21540.62
769.828	21536.78
770.164	21276.9
770.5	21213.17
770.836	21179.27
771.171	21107.41
771.507	21077.36
771.842	20927.75
772.178	20874.87
772.513	20911.26
772.849	20835.78
773.184	20805.5
773.519	20651.38
773.855	20493.64
774.19	20501.55
774.525	20386.53
774.86	20463.36
775.195	20356.7
775.53	20273.53
775.865	20122.8
776.2	20045.97
776.535	19974.56
776.87	19961.9
777.205	19914
777.539	19792.87
777.874	19847.56
778.209	19512.42
778.543	19511.07
778.878	19426.78
779.212	19435.82
779.547	19302.03
779.881	19356.72
780.215	19183.17
780.55	19309.27
780.884	19070.85
781.218	19083.06
781.552	19047.58
781.886	19053.68
782.22	18798.77
782.554	18782.73
782.888	18671.77
783.222	18601.49
783.556	18463.19
783.889	18454.15
784.223	18298.45
784.557	18258.22
784.89	18408.27
785.224	18178.22
785.557	18132.8
785.891	18121.05
786.224	18087.83
786.558	18067.72
786.891	17854.84
787.224	17761.96
787.557	17769.65
787.891	17658.46
788.224	17562.42
788.557	17541.18
788.89	17558.58
789.223	17587.05
789.556	17479.03
789.888	17340.73
790.221	17217.34
790.554	17206.27
790.887	17224.58
791.219	17154.75
791.552	17024.58
791.884	16969.44
792.217	16881.76
792.549	16886.51
792.882	16814.87
793.214	16628.21
793.546	16711.59
793.879	16548.89
794.211	16495.55
794.543	16534.42
794.875	16504.82
795.207	16454.2
795.539	16307.76
795.871	16316.8
796.203	16222.57
796.535	16212.85
796.867	16179.41
797.198	16062.57
797.53	16090.59
797.862	15942.58
798.193	15984.83
798.525	15889.24
798.856	15987.09
799.188	15708.46
799.519	15632.75
799.85	15570.61
800.182	15663.49
800.513	15616.93
800.844	15484.96
801.175	15585.52
801.506	15491.97
801.837	15449.71
802.168	15324.74
802.499	15275.02
802.83	15224.85
803.161	15217.4
803.491	15178.75
803.822	15182.6
804.153	15029.83
804.483	14985.09
804.814	14899.89
805.145	14896.05
805.475	14886.11
805.805	14821.25
806.136	14826.67
806.466	14844.75
806.796	14772.44
807.126	14696.05
807.457	14616.06
807.787	14620.8
808.117	14541.48
808.447	14455.16
808.777	14511.65
809.107	14490.64
809.436	14375.84
809.766	14477.08
810.096	14339.45
810.426	14327.25
810.755	14274.14
811.085	14173.58
811.414	14173.81
811.744	14139.68
812.073	14072.34
812.403	14103.3
812.732	13999.35
813.061	13943.31
813.39	13856.3
813.719	13878
814.049	13958.22
814.378	13888.62
814.707	13876.87
815.036	13809.75
815.365	13748.51
815.693	13607.95
816.022	13602.3
816.351	13639.36
816.68	13562.98
817.008	13503.77
817.337	13445.92
817.665	13389.87
817.994	13414.05
818.322	13485.46
818.651	13375.41
818.979	13331.57
819.307	13359.82
819.636	13346.26
819.964	13255.64
820.292	13243.89
820.62	13234.85
820.948	13242.99
821.276	13288.41
821.604	13228.07
821.932	13133.61
822.259	13227.62
822.587	13101.75
822.915	13132.93
823.243	13185.81
823.57	13161.18
823.898	13204.57
824.225	13077.34
824.553	13123.89
824.88	13079.6
825.207	13189.2
825.535	13021.07
825.862	13126.6
826.189	13039.6
826.516	13176.32
826.843	13167.51
827.17	13108.07
827.497	13119.15
827.824	13097.9
828.151	13191.69
828.478	13126.38
828.805	13164.12
829.131	13115.3
829.458	13017.91
829.785	13012.03
830.111	13040.5
830.438	13140.39
830.764	12984.91
831.09	13040.96
831.417	12990.56
831.743	13046.38
832.069	13082.09
832.395	13017
832.722	12998.02
833.048	13006.38
833.374	13029.43
833.7	12824.47
834.026	12977.68
834.351	13018.36
834.677	12948.3
835.003	13000.96
835.329	12989.66
835.654	12929.55
835.98	12930.68
836.306	12856.33
836.631	12790.34
836.956	12865.59
837.282	12916.21
837.607	12745.6
837.932	12819.27
838.258	12771.36
838.583	12743.56
838.908	12616.79
839.233	12655.66
839.558	12610.23
839.883	12558.48
840.208	12621.08
840.533	12595.32
840.858	12564.36
841.182	12606.17
841.507	12515.32
841.832	12446.4
842.156	12433.97
842.481	12498.15
842.805	12412.27
843.13	12410.01
843.454	12365.95
843.778	12290.92
844.103	12272.84
844.427	12230.58
844.751	12227.64
845.075	12178.15
845.399	12132.51
845.723	12125.73
846.047	12137.25
846.371	11971.38
846.695	12049.57
847.019	11881.89
847.343	11887.09
847.666	11771.61
847.99	11758.96
848.313	11780.65
848.637	11666.76
848.96	11671.73
849.284	11614.78
849.607	11572.29
849.931	11512.86
850.254	11452.98
850.577	11395.35
850.9	11324.84
851.223	11248.01
851.546	11212.76
851.869	11191.74
852.192	11220.89
852.515	11109.48
852.838	11011.63
853.161	11041.91
853.483	10998.98
853.806	10943.38
854.129	10940.45
854.451	10894.57
854.774	10889.37
855.096	10759.66
855.419	10699.78
855.741	10770.06
856.063	10597.86
856.385	10711.75
856.708	10704.07
857.03	10619.78
857.352	10546.78
857.674	10534.81
857.996	10554.92
858.318	10409.61
858.64	10537.75
858.961	10436.28
859.283	10394.47
859.605	10377.07
859.926	10435.38
860.248	10416.17
860.57	10264.53
860.891	10396.28
861.212	10254.14
861.534	10217.75
861.855	10167.81
862.176	10224.53
862.498	10208.71
862.819	10181.6
863.14	10141.37
863.461	10145.67
863.782	10032.45
864.103	10103.63
864.424	10048.72
864.745	10035.84
865.065	10033.58
865.386	10020.92
865.707	9950.42
866.027	9975.73
866.348	9954.94
866.668	9977.53
866.989	9909.06
867.309	9828.61
867.63	9915.84
867.95	9827.48
868.27	9790.87
868.59	9860.93
868.91	9774.6
869.23	9813.92
869.55	9769.86
869.87	9771.44
870.19	9733.25
870.51	9820.7
870.83	9740.48
871.15	9643.08
871.469	9661.16
871.789	9710.87
872.109	9649.18
872.428	9641.27
872.748	9692.57
873.067	9585.91
873.386	9605.34
873.706	9615.28
874.025	9551.33
874.344	9486.25
874.663	9513.37
874.982	9459.13
875.301	9530.09
875.62	9457.32
875.939	9397.89
876.258	9495.06
876.577	9362.86
876.896	9425.01
877.214	9312.24
877.533	9376.87
877.852	9418.45
878.17	9386.36
878.489	9322.41
878.807	9295.52
879.125	9319.92
879.444	9290.77
879.762	9240.38
880.08	9231.11
880.398	9257.55
880.716	9269.08
881.034	9295.07
881.352	9169.87
881.67	9182.53
881.988	9152.02
882.306	9146.6
882.624	9091
882.941	9036.09
883.259	9046.03
883.577	9020.5
883.894	9033.15
884.212	9006.26
884.529	8971.69
884.846	8975.53
885.164	8945.47
885.481	8919.03
885.798	8898.01
886.115	8854.63
886.432	8841.52
886.75	8864.12
887.067	8809.66
887.383	8750
887.7	8762.65
888.017	8723.78
888.334	8742.09
888.651	8674.97
888.967	8703.9
889.284	8665.48
889.6	8649.66
889.917	8575.99
890.233	8596.33
890.55	8535.54
890.866	8576.44
891.182	8486.73
891.498	8447.41
891.815	8412.38
892.131	8459.38
892.447	8376.22
892.763	8401.98
893.079	8364.7
893.395	8284.02
893.71	8314.53
894.026	8268.2
894.342	8299.39
894.657	8228.43
894.973	8201.99
895.289	8190.46
895.604	8165.83
895.92	8126.96
896.235	8015.55
896.55	8086.74
896.865	8094.42
897.181	8018.04
897.496	7999.73
897.811	7956.12
898.126	7979.85
898.441	7915.89
898.756	7887.42
899.071	7856.46
899.386	7899.4
899.7	7746.41
900.015	7747.54
900.33	7643.36
900.644	7731.72
900.959	7709.57
901.273	7685.84
901.588	7618.73
901.902	7545.96
902.216	7566.07
902.531	7523.36
902.845	7546.19
903.159	7554.77
903.473	7453.53
903.787	7375.34
904.101	7416.25
904.415	7420.77
904.729	7351.84
905.042	7338.06
905.356	7261.67
905.67	7292.18
905.984	7284.05
906.297	7234.1
906.611	7236.59
906.924	7203.14
907.237	7168.12
907.551	7128.34
907.864	7111.39
908.177	7110.94
908.491	7050.38
908.804	6972.19
909.117	6977.61
909.43	6953.21
909.743	6890.61
910.056	6945.98
910.368	6883.83
910.681	6829.82
910.994	6822.81
911.307	6759.09
911.619	6709.15
911.932	6779.2
912.244	6745.3
912.557	6684.74
912.869	6670.05
913.181	6642.25
913.494	6539.66
913.806	6589.83
914.118	6550.51
914.43	6501.47
914.742	6509.83
915.054	6471.64
915.366	6442.26
915.678	6419.44
915.99	6434.35
916.302	6316.84
916.613	6330.62
916.925	6345.77
917.236	6302.15
917.548	6243.4
917.859	6275.48
918.171	6214.7
918.482	6188.03
918.794	6180.12
919.105	6108.71
919.416	6088.6
919.727	6053.12
920.038	6053.8
920.349	6049.28
920.66	6002.05
920.971	5954.82
921.282	5898.55
921.593	5978.32
921.903	5944.65
922.214	5879.79
922.525	5841.37
922.835	5846.12
923.146	5787.81
923.456	5797.76
923.767	5769.96
924.077	5769.74
924.387	5732
924.697	5672.56
925.008	5668.5
925.318	5647.25
925.628	5638.89
925.938	5597.99
926.248	5556.63
926.558	5521.38
926.867	5492.23
927.177	5467.14
927.487	5487.48
927.796	5425.56
928.106	5460.59
928.416	5400.93
928.725	5391.89
929.034	5379.69
929.344	5402.06
929.653	5336.98
929.962	5255.85
930.271	5273.48
930.581	5247.72
930.89	5180.6
931.199	5223.31
931.508	5174.04
931.817	5167.04
932.125	5146.47
932.434	5121.62
932.743	5052.69
933.051	5072.8
933.36	5026.48
933.669	5003.43
933.977	4955.07
934.286	4999.36
934.594	4962.98
934.902	4884.79
935.21	4892.92
935.519	4888.85
935.827	4868.29
936.135	4876.2
936.443	4782.64
936.751	4798.69
937.059	4779.48
937.367	4774.51
937.674	4772.7
937.982	4688.41
938.29	4702.87
938.597	4739.93
938.905	4643.21
939.213	4665.36
939.52	4606.6
939.827	4598.47
940.135	4554.4
940.442	4515.76
940.749	4520.5
941.056	4555.08
941.363	4518.69
941.67	4525.02
941.977	4457.68
942.284	4435.31
942.591	4444.57
942.898	4473.72
943.205	4397.79
943.511	4378.36
943.818	4380.17
944.125	4351.69
944.431	4332.03
944.738	4331.13
945.044	4311.24
945.35	4261.07
945.657	4209.78
945.963	4259.49
946.269	4194.41
946.575	4242.77
946.881	4200.51
947.187	4195.77
947.493	4153.51
947.799	4108.76
948.105	4137.24
948.41	4079.61
948.716	4074.86
949.022	4073.51
949.327	4060.63
949.633	3969.56
949.938	4008.65
950.244	3994.87
950.549	3933.17
950.854	3943.57
951.16	3928.88
951.465	3911.25
951.77	3892.72
952.075	3853.18
952.38	3884.59
952.685	3890.01
952.99	3862.89
953.294	3831.03
953.599	3836.23
953.904	3782.67
954.209	3735.89
954.513	3789.9
954.818	3781.99
955.122	3719.17
955.426	3747.42
955.731	3690.02
956.035	3684.59
956.339	3654.76
956.643	3654.54
956.948	3608.44
957.252	3634.65
957.556	3605.95
957.86	3614.99
958.163	3646.4
958.467	3563.24
958.771	3542
959.075	3582.45
959.378	3498.38
959.682	3491.38
959.985	3500.42
960.289	3442.34
960.592	3423.58
960.896	3454.32
961.199	3426.29
961.502	3437.14
961.805	3378.16
962.108	3358.73
962.411	3410.02
962.714	3354.43
963.017	3336.13
963.32	3344.49
963.623	3300.2
963.926	3273.08
964.228	3277.6
964.531	3265.85
964.833	3252.97
965.136	3238.73
965.438	3250.03
965.741	3196.24
966.043	3197.15
966.345	3150.37
966.648	3145.62
966.95	3150.82
967.252	3120.99
967.554	3138.62
967.856	3084.61
968.158	3092.97
968.46	3125.29
968.761	3077.83
969.063	3064.04
969.365	3028.11
969.666	3052.29
969.968	2993.09
970.269	3032.86
970.571	3018.62
970.872	2979.53
971.174	2969.58
971.475	2971.62
971.776	2981.79
972.077	2975.46
972.378	2924.61
972.679	2914.44
972.98	2937.72
973.281	2895.01
973.582	2893.43
973.883	2872.41
974.183	2803.49
974.484	2825.18
974.785	2833.54
975.085	2839.64
975.386	2829.47
975.686	2772.98
975.986	2752.19
976.287	2734.79
976.587	2739.08
976.887	2719.87
977.187	2723.94
977.487	2696.6
977.787	2736.82
978.087	2685.75
978.387	2667.67
978.687	2687.1
978.987	2659.99
979.286	2617.95
979.586	2646.65
979.885	2632.19
980.185	2584.73
980.484	2619.08
980.784	2572.08
981.083	2563.72
981.382	2561.01
981.682	2598.52
981.981	2547.67
982.28	2522.14
982.579	2493.89
982.878	2517.39
983.177	2476.04
983.475	2481.23
983.774	2462.48
984.073	2443.04
984.372	2449.14
984.67	2418.41
984.969	2442.59
985.267	2419.99
985.566	2438.52
985.864	2396.94
986.162	2422.03
986.461	2342.03
986.759	2374.57
987.057	2332.76
987.355	2328.24
987.653	2338.41
987.951	2321.69
988.249	2326.21
988.547	2302.26
988.844	2251.86
989.142	2293.67
989.44	2283.05
989.737	2264.97
990.035	2243.27
990.332	2260.68
990.63	2241.92
990.927	2232.43
991.224	2223.61
991.521	2221.58
991.819	2174.35
992.116	2181.13
992.413	2187.23
992.71	2168.47
993.006	2131.41
993.303	2133.22
993.6	2139.1
993.897	2125.09
994.193	2118.53
994.49	2125.99
994.787	2090.74
995.083	2056.16
995.379	2034.69
995.676	2070.62
995.972	2077.63
996.268	2071.53
996.565	2045.54
996.861	2055.48
997.157	2001.92
997.453	2006.44
997.749	1959.89
998.044	1971.19
998.34	1975.48
998.636	1976.16
998.932	1943.17
999.227	1960.8
999.523	1950.4
999.818	1963.28
1000.114	1922.38
1000.409	1909.27
1000.704	1885.09
1001	1910.18
1001.295	1878.54
1001.59	1907.01
1001.885	1892.1
1002.18	1853
1002.475	1838.09
1002.77	1864.75
1003.065	1810.97
1003.359	1838.77
1003.654	1782.72
1003.949	1810.07
1004.243	1774.36
1004.538	1817.52
1004.832	1756.73
1005.127	1791.76
1005.421	1748.37
1005.715	1724.64
1006.009	1721.25
1006.304	1714.25
1006.598	1732.1
1006.892	1715.83
1007.186	1690.97
1007.48	1712.67
1007.773	1679.67
1008.067	1666.79
1008.361	1670.63
1008.655	1649.62
1008.948	1651.43
1009.242	1617.53
1009.535	1637.19
1009.829	1599.9
1010.122	1632.44
1010.415	1581.6
1010.708	1592.67
1011.001	1568.04
1011.295	1568.04
1011.588	1542.05
1011.881	1535.95
1012.173	1530.52
1012.466	1527.81
1012.759	1534.82
1013.052	1512.22
1013.344	1531.88
1013.637	1481.94
1013.93	1470.87
1014.222	1497.53
1014.514	1452.11
1014.807	1455.5
1015.099	1401.49
1015.391	1453.69
1015.683	1427.25
1015.976	1431.32
1016.268	1426.57
1016.56	1442.84
1016.851	1417.99
1017.143	1377.31
1017.435	1396.97
1017.727	1373.24
1018.018	1374.6
1018.31	1391.32
1018.602	1349.74
1018.893	1342.28
1019.185	1356.29
1019.476	1334.6
1019.767	1314.94
1020.058	1324.43
1020.35	1326.91
1020.641	1297.76
1020.932	1327.14
1021.223	1272
1021.514	1287.59
1021.804	1267.25
1022.095	1264.54
1022.386	1236.75
1022.677	1234.94
1022.967	1255.96
1023.258	1217.54
1023.548	1240.36
1023.839	1221.61
1024.129	1198.78
1024.419	1205.11
1024.709	1193.58
1025	1208.73
1025.29	1142.51
1025.58	1153.36
1025.87	1148.39
1026.16	1135.28
1026.449	1138.44
1026.739	1144.55
1027.029	1118.33
1027.319	1112
1027.608	1117.65
1027.898	1094.6
1028.187	1120.82
1028.477	1065.23
1028.766	1058.45
1029.055	1059.35
1029.344	1079.92
1029.634	1072.01
1029.923	1061.84
1030.212	1049.63
1030.501	1059.8
1030.79	1035.17
1031.078	1035.62
1031.367	1032.91
1031.656	1014.61
1031.945	1003.98
1032.233	999.24
1032.522	994.49
1032.81	994.49
1033.099	979.35
1033.387	975.74
1033.675	973.03
1033.963	959.92
1034.251	984.78
1034.54	964.44
1034.828	940.71
1035.116	949.3
1035.403	948.85
1035.691	944.1
1035.979	928.96
1036.267	923.76
1036.554	927.6
1036.842	911.33
1037.129	904.1
1037.417	890.99
1037.704	889.41
1037.992	886.7
1038.279	898.68
1038.566	875.4
1038.853	875.4
1039.14	875.4
