Data from hue_320_FLMS001491_84.txt Node
Date: Mon Feb 06 15:47:49 GMT 2017
User: dcchb
Spectrometer: FLMS00149
Trigger mode: 0
Integration Time (sec): 2.000000E-2
Scans to average: 10
Electric dark correction enabled: true
Nonlinearity correction enabled: false
Boxcar width: 0
XAxis mode: Wavelengths
Number of Pixels in Spectrum: 2048
>>>>>Begin Spectral Data<<<<<
341.393	-8.26
341.776	-8.26
342.16	-8.26
342.543	-71.99
342.927	-86.68
343.31	-67.47
343.693	-81.25
344.077	-53.01
344.46	-58.43
344.843	-49.39
345.226	-39.45
345.61	-31.31
345.993	-6.45
346.376	-5.55
346.759	13.88
347.142	10.04
347.525	22.7
347.908	57.95
348.291	66.31
348.674	102.02
349.057	119.42
349.44	122.36
349.823	149.93
350.206	162.13
350.588	188.79
350.971	207.78
351.354	221.79
351.737	213.88
352.119	223.37
352.502	263.59
352.884	278.74
353.267	269.92
353.65	284.16
354.032	290.94
354.414	290.49
354.797	307.21
355.179	323.03
355.562	336.36
355.944	313.76
356.326	332.29
356.709	320.54
357.091	347.66
357.473	338.4
357.855	310.37
358.238	318.06
358.62	344.5
359.002	334.33
359.384	335.23
359.766	316.25
360.148	333.65
360.53	323.25
360.912	344.04
361.294	344.95
361.676	332.52
362.057	322.8
362.439	318.06
362.821	316.02
363.203	305.85
363.584	323.48
363.966	332.29
364.348	331.39
364.729	310.15
365.111	313.99
365.493	333.42
365.874	292.52
366.256	316.47
366.637	316.47
367.019	304.27
367.4	314.89
367.781	303.14
368.163	301.11
368.544	307.89
368.925	308.79
369.306	346.3
369.688	317.6
370.069	302.01
370.45	306.76
370.831	316.02
371.212	312.41
371.593	315.12
371.974	293.65
372.355	313.99
372.736	296.14
373.117	327.32
373.498	323.71
373.879	335.46
374.26	316.25
374.641	292.97
375.021	285.74
375.402	303.14
375.783	303.82
376.163	319.64
376.544	336.14
376.925	327.77
377.305	327.77
377.686	312.63
378.066	334.55
378.447	328.45
378.827	341.33
379.208	334.55
379.588	311.73
379.968	327.32
380.349	339.98
380.729	339.52
381.109	319.41
381.489	344.95
381.87	319.19
382.25	335.68
382.63	333.65
383.01	344.72
383.39	339.75
383.77	328.9
384.15	359.64
384.53	322.12
384.91	329.81
385.29	343.37
385.67	355.12
386.049	328.9
386.429	360.54
386.809	364.38
387.189	348.11
387.568	378.62
387.948	348.34
388.328	341.11
388.707	362.35
389.087	368
389.466	368.45
389.846	347.89
390.225	360.99
390.605	359.64
390.984	382.69
391.363	347.66
391.743	375.91
392.122	355.34
392.501	372.74
392.881	387.66
393.26	367.77
393.639	389.02
394.018	393.99
394.397	382.69
394.776	390.82
395.155	396.02
395.534	392.4
395.913	382.69
396.292	368
396.671	360.77
397.05	387.66
397.429	398.73
397.808	415
398.186	387.21
398.565	394.21
398.944	391.05
399.323	399.86
399.701	380.2
400.08	397.6
400.458	404.16
400.837	414.55
401.215	410.26
401.594	401.9
401.972	419.3
402.351	405.29
402.729	410.71
403.107	423.82
403.486	411.39
403.864	417.26
404.242	411.16
404.62	432.4
404.999	451.84
405.377	458.62
405.755	439.64
406.133	450.48
406.511	442.35
406.889	458.62
407.267	460.88
407.645	451.39
408.023	473.08
408.401	468.79
408.779	468.34
409.156	479.41
409.534	470.82
409.912	464.95
410.29	466.98
410.667	492.52
411.045	494.55
411.422	482.12
411.8	515.34
412.178	506.3
412.555	519.18
412.933	508.11
413.31	536.13
413.687	520.54
414.065	512.4
414.442	533.19
414.819	548.56
415.197	564.83
415.574	544.94
415.951	590.59
416.328	568.9
416.705	561.89
417.082	608.9
417.46	592.4
417.837	584.49
418.214	593.08
418.591	600.31
418.967	635.34
419.344	634.66
419.721	631.04
420.098	617.48
420.475	648.9
420.852	641.21
421.228	663.36
421.605	653.42
421.982	679.63
422.358	660.42
422.735	678.5
423.111	699.06
423.488	680.53
423.864	684.6
424.241	710.81
424.617	680.53
424.994	719.18
425.37	720.98
425.746	731.61
426.123	728.89
426.499	742.45
426.875	723.24
427.251	753.07
427.627	770.02
428.003	764.6
428.379	774.32
428.756	763.47
429.132	819.96
429.507	813.18
429.883	815.67
430.259	835.56
430.635	829.46
431.011	845.73
431.387	890.7
431.763	860.19
432.138	871.04
432.514	892.96
432.89	877.59
433.265	885.95
433.641	892.73
434.016	914.65
434.392	917.59
434.767	911.26
435.143	930.24
435.518	931.15
435.894	955.33
436.269	951.03
436.644	966.18
437.02	1010.24
437.395	1003.46
437.77	992.39
438.145	1019.73
438.52	1040.07
438.895	1023.12
439.271	1046.4
439.646	1061.99
440.021	1076
440.395	1053.86
440.77	1059.73
441.145	1078.04
441.52	1062.44
441.895	1091.6
442.27	1094.53
442.645	1095.89
443.019	1107.64
443.394	1105.61
443.769	1106.28
444.143	1105.61
444.518	1152.38
444.892	1102.44
445.267	1102.89
445.641	1153.29
446.016	1112.16
446.39	1121.65
446.764	1136.57
447.139	1146.06
447.513	1152.84
447.887	1174.31
448.262	1163.68
448.636	1171.14
449.01	1182.21
449.384	1157.58
449.758	1170.01
450.132	1163.91
450.506	1193.29
450.88	1209.78
451.254	1206.39
451.628	1199.62
452.002	1245.04
452.376	1251.59
452.75	1261.53
453.123	1247.98
453.497	1250.01
453.871	1276.68
454.244	1283.68
454.618	1294.98
454.992	1297.01
455.365	1299.27
455.739	1312.38
456.112	1332.04
456.486	1324.13
456.859	1365.94
457.232	1379.05
457.606	1338.82
457.979	1372.72
458.352	1390.34
458.725	1401.87
459.099	1370.23
459.472	1410.91
459.845	1445.71
460.218	1443.45
460.591	1427.18
460.964	1435.32
461.337	1497.91
461.71	1475.77
462.083	1489.33
462.456	1488.2
462.829	1511.47
463.201	1539.72
463.574	1545.82
463.947	1548.98
464.32	1587.4
464.692	1557.35
465.065	1586.05
465.438	1622.43
465.81	1595.09
466.183	1608.87
466.555	1668.53
466.928	1677.79
467.3	1662.43
467.672	1679.15
468.045	1691.58
468.417	1701.52
468.789	1707.85
469.161	1730
469.534	1762.76
469.906	1783.55
470.278	1795.76
470.65	1808.41
471.022	1833.5
471.394	1850.45
471.766	1872.59
472.138	1869.2
472.51	1928.18
472.882	1945.81
473.253	1930.22
473.625	1965.7
473.997	1996.88
474.369	1990.1
474.74	1999.37
475.112	2047.28
475.484	2031.23
475.855	2083.21
476.227	2094.06
476.598	2151
476.97	2166.82
477.341	2218.57
477.713	2252.7
478.084	2248.18
478.455	2287.5
478.827	2317.1
479.198	2362.07
479.569	2354.61
479.94	2413.37
480.311	2439.58
480.682	2431
481.053	2493.82
481.424	2545.79
481.795	2534.95
482.166	2552.12
482.537	2582.63
482.908	2633.7
483.279	2649.97
483.65	2677.77
484.021	2719.12
484.391	2759.35
484.762	2750.99
485.133	2753.25
485.503	2811.32
485.874	2889.74
486.244	2874.83
486.615	2906.69
486.985	2938.33
487.356	3000.92
487.726	3017.42
488.097	3060.13
488.467	3058.55
488.837	3098.55
489.207	3115.27
489.578	3188.49
489.948	3203.86
490.318	3240.47
490.688	3251.09
491.058	3255.15
491.428	3308.03
491.798	3368.15
492.168	3395.94
492.538	3381.03
492.908	3404.53
493.278	3501.02
493.648	3489.95
494.017	3509.84
494.387	3533.34
494.757	3569.5
495.126	3559.78
495.496	3597.97
495.866	3635.94
496.235	3662.38
496.605	3665.54
496.974	3701.7
497.344	3715.48
497.713	3752.77
498.082	3753.9
498.452	3783.28
498.821	3778.53
499.19	3825.54
499.559	3817.85
499.928	3859.21
500.298	3892.43
500.667	3896.95
501.036	3939.43
501.405	3929.04
501.774	3959.54
502.143	3987.56
502.512	3980.56
502.88	4013.78
503.249	3969.71
503.618	3966.32
503.987	4062.14
504.356	4111.4
504.724	4052.87
505.093	4058.3
505.462	4083.16
505.83	4097.84
506.199	4132.87
506.567	4122.7
506.936	4176.94
507.304	4231.85
507.672	4196.15
508.041	4213.77
508.409	4271.4
508.777	4272.3
509.145	4333.54
509.514	4272.3
509.882	4296.03
510.25	4335.8
510.618	4360.89
510.986	4352.75
511.354	4396.37
511.722	4429.36
512.09	4401.57
512.458	4401.34
512.826	4467.78
513.193	4456.48
513.561	4415.35
513.929	4443.37
514.297	4562.46
514.664	4485.4
515.032	4508.68
515.4	4570.15
515.767	4559.53
516.135	4565.85
516.502	4618.73
516.869	4610.15
517.237	4610.37
517.604	4630.26
517.972	4636.36
518.339	4644.72
518.706	4690.82
519.073	4694.66
519.44	4693.08
519.808	4754.78
520.175	4764.95
520.542	4796.58
520.909	4784.83
521.276	4794.1
521.643	4813.31
522.009	4886.98
522.376	4889.46
522.743	4863.02
523.11	4932.85
523.477	4985.96
523.843	4969.69
524.21	4979.4
524.577	5030.48
524.943	5033.41
525.31	5057.59
525.676	5100.98
526.043	5151.83
526.409	5162.67
526.776	5168.55
527.142	5202.45
527.508	5193.86
527.874	5271.82
528.241	5251.94
528.607	5283.8
528.973	5347.3
529.339	5353.63
529.705	5369.68
530.071	5404.93
530.437	5459.62
530.803	5476.34
531.169	5504.13
531.535	5430.46
531.901	5484.93
532.267	5539.16
532.632	5570.57
532.998	5621.87
533.364	5594.3
533.73	5609.67
534.095	5708.2
534.461	5744.58
534.826	5733.73
535.192	5732.6
535.557	5827.97
535.923	5763.11
536.288	5764.92
536.653	5850.57
537.019	5826.16
537.384	5845.14
537.749	5895.31
538.114	5963.78
538.479	5872.49
538.845	5947.29
539.21	5895.99
539.575	5977.79
539.94	6062.09
540.305	6046.04
540.67	6087.85
541.034	6105.93
541.399	6099.15
541.764	6153.61
542.129	6126.27
542.494	6160.84
542.858	6237.67
543.223	6217.56
543.587	6315.87
543.952	6298.01
544.316	6325.81
544.681	6299.37
545.045	6393.6
545.41	6456.43
545.774	6412.81
546.138	6413.04
546.503	6425.24
546.867	6467.5
547.231	6525.8
547.595	6541.62
547.959	6570.1
548.324	6584.11
548.688	6563.09
549.052	6587.72
549.416	6577.1
549.779	6626.37
550.143	6642.86
550.507	6753.37
550.871	6745.46
551.235	6740.03
551.599	6738.68
551.962	6785.01
552.326	6827.04
552.689	6840.6
553.053	6898
553.417	6855.74
553.78	6918.11
554.143	6928.5
554.507	6955.17
554.87	6961.5
555.234	7023.64
555.597	6955.4
555.96	6944.32
556.323	7115.17
556.686	7054.38
557.05	7099.8
557.413	7081.95
557.776	7132.34
558.139	7159.01
558.502	7175.73
558.865	7191.77
559.228	7234.94
559.59	7264.54
559.953	7194.94
560.316	7251.89
560.679	7326.46
561.041	7356.52
561.404	7390.19
561.767	7422.28
562.129	7368.94
562.492	7501.6
562.854	7476.29
563.217	7450.3
563.579	7533.01
563.941	7525.1
564.304	7597.64
564.666	7540.01
565.028	7677.41
565.39	7688.94
565.753	7667.69
566.115	7728.48
566.477	7733.68
566.839	7824.98
567.201	7799.44
567.563	7838.08
567.925	7822.49
568.287	7867.46
568.648	7860.01
569.01	7949.72
569.372	8013.67
569.734	8009.15
570.095	8029.27
570.457	8097.97
570.819	8015.26
571.18	8136.61
571.542	8189.26
571.903	8161.47
572.265	8266.77
572.626	8215.02
572.987	8311.07
573.349	8391.06
573.71	8483.94
574.071	8441.23
574.432	8584.05
574.794	8606.65
575.155	8664.05
575.516	8634.67
575.877	8681
576.238	8790.83
576.599	8859.07
576.96	8909.7
577.32	8947.66
577.681	9038.28
578.042	9130.48
578.403	9240.99
578.763	9331.38
579.124	9394.65
579.485	9530.02
579.845	9599.85
580.206	9650.24
580.566	9780.41
580.927	9862.21
581.287	10052.04
581.648	10076.44
582.008	10287.51
582.368	10336.32
582.728	10549.43
583.089	10593.94
583.449	10781.51
583.809	10962.97
584.169	11149.64
584.529	11219.69
584.889	11467.59
585.249	11594.6
585.609	11700.13
585.969	11995.26
586.329	12113
586.688	12351.41
587.048	12583.72
587.408	12674.12
587.768	12900.78
588.127	13135.57
588.487	13312.97
588.846	13678.84
589.206	13820.07
589.565	13983.23
589.925	14358.37
590.284	14575.31
590.643	14812.36
591.003	15029.53
591.362	15344.1
591.721	15646.02
592.08	15926.46
592.44	16102.27
592.799	16444.86
593.158	16685.76
593.517	17081.01
593.876	17302.69
594.235	17503.59
594.593	17844.38
594.952	18197.81
595.311	18372.05
595.67	18650.91
596.029	19122.99
596.387	19370.44
596.746	19707.6
597.104	19779.01
597.463	20088.38
597.822	20559.11
598.18	20652.89
598.538	20834.81
598.897	21348.46
599.255	21509.82
599.613	22091.72
599.972	22128.78
600.33	22501.65
600.688	22781.87
601.046	23027.06
601.404	23421.86
601.762	23635.41
602.12	23942.07
602.478	24202.17
602.836	24432.45
603.194	24630.41
603.552	24868.6
603.91	25183.84
604.268	25411.63
604.625	25574.34
604.983	26016.14
605.341	26035.57
605.698	26529.34
606.056	26750.13
606.413	26962.55
606.771	27244.58
607.128	27545.82
607.485	27556.66
607.843	27821.74
608.2	28231.67
608.557	28480.03
608.914	28584.66
609.272	28905.78
609.629	29202.95
609.986	29395.03
610.343	29548.25
610.7	29997.95
611.057	29863.95
611.414	30233.88
611.771	30404.72
612.127	30769.46
612.484	30863.47
612.841	31087.64
613.198	31139.62
613.554	31386.62
613.911	31693.5
614.267	31819.6
614.624	31943.21
614.98	32211.68
615.337	32443.54
615.693	32534.61
616.05	32603.54
616.406	32961.72
616.762	32927.82
617.118	32997.65
617.475	33128.27
617.831	33519.9
618.187	33605.54
618.543	33800.57
618.899	34058.86
619.255	34067.68
619.611	34236.26
619.967	34368.46
620.323	34574.78
620.678	34570.26
621.034	34665.18
621.39	34664.95
621.746	34708.34
622.101	35182.9
622.457	34983.59
622.812	35247.53
623.168	35353.75
623.523	35567.98
623.879	35755.77
624.234	35567.98
624.589	35689.33
624.945	35832.6
625.3	35946.27
625.655	35919.38
626.01	35997.57
626.365	36202.08
626.72	36184.91
627.075	36296.09
627.43	36269.2
627.785	36349.2
628.14	36396.2
628.495	36597.33
628.85	36581.74
629.205	36378.8
629.559	36738.57
629.914	36567.72
630.269	36558.91
630.623	36662.86
630.978	36701.73
631.332	36847.27
631.687	36902.63
632.041	36869.41
632.396	37033.7
632.75	36881.16
633.104	37023.53
633.459	36857.66
633.813	36884.33
634.167	36771.34
634.521	36945.12
634.875	37026.92
635.229	36908.96
635.583	36896.76
635.937	36998.9
636.291	36884.78
636.645	36923.42
636.999	36905.34
637.352	36960.48
637.706	36825.12
638.06	36936.53
638.413	36952.8
638.767	36786.93
639.121	36995.96
639.474	36865.57
639.828	36887.94
640.181	36945.12
640.534	36972.69
640.888	36866.7
641.241	36614.28
641.594	36769.53
641.947	36872.58
642.301	36803.2
642.654	36801.39
643.007	36811.79
643.36	36806.14
643.713	36740.6
644.066	36941.05
644.419	36742.86
644.771	36559.36
645.124	36248.64
645.477	36165.02
645.83	35901.75
646.182	35934.3
646.535	35801.19
646.888	35790.34
647.24	35733.62
647.593	35841.42
647.945	35762.77
648.298	35684.36
648.65	35594.42
649.002	35626.96
649.355	35680.52
649.707	35634.19
650.059	35807.29
650.411	36176.32
650.763	36266.72
651.115	36590.32
651.467	36406.37
651.819	36372.25
652.171	36430.55
652.523	36370.89
652.875	36276.43
653.227	36206.15
653.578	36410.21
653.93	36306.49
654.282	36300.39
654.633	36105.36
654.985	36314.85
655.337	36294.51
655.688	36245.7
656.039	36356.88
656.391	36033.5
656.742	36164.57
657.094	36190.33
657.445	36414.28
657.796	36266.04
658.147	36319.37
658.498	36212.03
658.849	36170.9
659.2	36273.72
659.551	36142.43
659.902	36110.79
660.253	36278.92
660.604	36190.56
660.955	36133.84
661.306	36137.23
661.656	36074.18
662.007	36160.05
662.358	35934.07
662.708	36151.01
663.059	36118.7
663.409	35883.9
663.76	36168.87
664.11	36019.94
664.461	36051.58
664.811	36001.41
665.161	36033.05
665.511	35820.63
665.862	35981.98
666.212	36158.7
666.562	36050.22
666.912	35950.11
667.262	35916.22
667.612	35896.78
667.962	35980.17
668.312	35892.04
668.662	36175.19
669.011	35939.04
669.361	35995.08
669.711	35913.5
670.06	35892.94
670.41	35885.93
670.76	35833.73
671.109	35911.7
671.459	35919.15
671.808	35743.79
672.157	35938.36
672.507	35802.1
672.856	35731.36
673.205	35680.74
673.554	35886.84
673.904	35852.04
674.253	35885.48
674.602	35791.7
674.951	35272.84
675.3	35140.87
675.649	35678.71
675.998	35557.13
676.346	35670.8
676.695	35744.47
677.044	35452.05
677.393	35610.69
677.741	35784.69
678.09	35443.23
678.438	35532.72
678.787	35514.19
679.135	35572.95
679.484	35297.48
679.832	35501.76
680.181	35133.86
680.529	35380.86
680.877	35311.94
681.225	35250.25
681.573	35504.93
681.922	35118.05
682.27	35114.2
682.618	35059.52
682.966	34922.57
683.314	35108.1
683.661	34887.54
684.009	34871.05
684.357	34760.31
684.705	34791.05
685.053	34760.99
685.4	34687.32
685.748	34522.58
686.095	34530.72
686.443	34337.28
686.79	34432.41
687.138	34451.17
687.485	34401.45
687.832	34319.65
688.18	34323.26
688.527	34125.08
688.874	34090.05
689.221	33966.21
689.568	33867
689.915	33888.7
690.262	33828.81
690.609	33803.05
690.956	33558.09
691.303	33704.52
691.65	33435.83
691.997	33337.53
692.344	33259.79
692.69	33203.29
693.037	33196.97
693.383	32987.03
693.73	33107.02
694.077	32977.76
694.423	32943.41
694.769	32814.38
695.116	32774.15
695.462	32693.93
695.808	32548.17
696.155	32709.75
696.501	32438.79
696.847	32543.65
697.193	32293.71
697.539	32308.85
697.885	32034.28
698.231	31942.76
698.577	32061.18
698.923	31826.38
699.269	31809.88
699.614	31638.36
699.96	31629.32
700.306	31647.18
700.651	31472.49
700.997	31525.6
701.342	31359.05
701.688	31420.52
702.033	31072.28
702.379	31142.78
702.724	31136.91
703.069	31166.06
703.415	30789.57
703.76	30933.07
704.105	30761.78
704.45	30683.36
704.795	30679.97
705.14	30443.59
705.485	30454.21
705.83	30454.44
706.175	30427.55
706.52	30321.79
706.865	30174.9
707.209	30181.9
707.554	30008.58
707.899	30053.32
708.243	29837.73
708.588	29931.06
708.932	29701.92
709.277	29651.07
709.621	29730.16
709.966	29414.47
710.31	29582.15
710.654	29264.87
710.998	29363.39
711.342	29322.04
711.687	29217.86
712.031	29155.26
712.375	28992.1
712.719	29124.98
713.063	29014.7
713.407	29073.91
713.75	28838.21
714.094	28883.18
714.438	28787.14
714.782	28864.88
715.125	28621.04
715.469	28665.79
715.812	28559.35
716.156	28458.11
716.499	28491.55
716.843	28488.62
717.186	28215.4
717.53	28438.45
717.873	28412.46
718.216	28318
718.559	28031.23
718.902	27998.01
719.246	28177.66
719.589	28057.67
719.932	27889.76
720.275	27904.9
720.617	27938.57
720.96	27762.31
721.303	27766.6
721.646	27837.78
721.989	27592.14
722.331	27752.82
722.674	27549.88
723.016	27637.34
723.359	27567.06
723.701	27500.39
724.044	27352.6
724.386	27386.05
724.729	27350.57
725.071	27312.38
725.413	27272.15
725.755	27272.83
726.097	27174.3
726.439	27205.94
726.782	27173.62
727.124	27141.53
727.465	26929.11
727.807	26939.96
728.149	26903.8
728.491	26781.99
728.833	26906.28
729.175	26839.85
729.516	26709
729.858	26629.46
730.199	26720.53
730.541	26736.8
730.882	26613.86
731.224	26651.6
731.565	26431.27
731.906	26473.53
732.248	26548.1
732.589	26260.88
732.93	26378.39
733.271	26337.71
733.612	26337.03
733.953	26250.26
734.294	26295.9
734.635	26101.56
734.976	26124.16
735.317	26058.4
735.658	26099.07
735.999	26024.27
736.339	25950.15
736.68	26144.5
737.021	25983.14
737.361	25736.37
737.702	26076.02
738.042	25814.11
738.383	25916.25
738.723	25809.14
739.063	25760.55
739.404	25796.93
739.744	25645.75
740.084	25602.82
740.424	25577.73
740.764	25540.67
741.104	25681.23
741.444	25459.32
741.784	25409.15
742.124	25335.7
742.464	25278.76
742.804	25328.25
743.143	25289.38
743.483	25403.95
743.823	25126.67
744.162	25231.98
744.502	25222.26
744.841	25077.63
745.181	25141.13
745.52	25059.55
745.86	25036.5
746.199	25065.2
746.538	24954.47
746.877	25052.32
747.216	25034.47
747.556	24969.16
747.895	24880.57
748.234	24747.47
748.573	24818.88
748.911	24889.61
749.25	24766.23
749.589	24601.94
749.928	24683.29
750.267	24604.88
750.605	24479.91
750.944	24540.24
751.283	24462.96
751.621	24538.44
751.96	24297.09
752.298	24305
752.636	24293.47
752.975	24156.98
753.313	24130.76
753.651	24259.12
753.989	24080.37
754.327	24049.41
754.666	23928.74
755.004	23915.4
755.342	23921.05
755.679	23816.2
756.017	23716.99
756.355	23745.69
756.693	23685.35
757.031	23646.71
757.368	23594.05
757.706	23592.02
758.044	23460.5
758.381	23470.67
758.719	23401.74
759.056	23463.44
759.394	23274.74
759.731	23105.93
760.068	23196.1
760.405	23102.99
760.743	22960.4
761.08	23014.41
761.417	22874.98
761.754	22946.16
762.091	22817.35
762.428	22720.18
762.765	22634.76
763.102	22604.93
763.438	22600.41
763.775	22441.32
764.112	22376.46
764.449	22477.25
764.785	22277.93
765.122	22124.71
765.458	22211.72
765.795	22083.81
766.131	22086.07
766.467	21910.48
766.804	21922.23
767.14	21765.4
767.476	21748.23
767.812	21632.75
768.148	21690.15
768.485	21528.35
768.821	21545.75
769.157	21487.44
769.492	21346.2
769.828	21205.87
770.164	21049.26
770.5	21051.07
770.836	21106.66
771.171	21034.8
771.507	20903.05
771.842	20677.52
772.178	20845.2
772.513	20726.11
772.849	20507.58
773.184	20487.24
773.519	20547.81
773.855	20344.87
774.19	20256.74
774.525	20235.95
774.86	20304.88
775.195	20161.38
775.53	20003.64
775.865	19973.36
776.2	19843.19
776.535	19714.83
776.87	19623.31
777.205	19551.9
777.539	19585.12
777.874	19585.35
778.209	19396.2
778.543	19331.79
778.878	19296.31
779.212	19253.83
779.547	19071.24
779.881	19205.92
780.215	19039.37
780.55	19024.01
780.884	18935.65
781.218	18915.53
781.552	18896.55
781.886	18741.53
782.22	18704.24
782.554	18563
782.888	18407.52
783.222	18359.84
783.556	18246.17
783.889	18302.22
784.223	18222.9
784.557	18140.19
784.89	18084.82
785.224	18097.02
785.557	17998.72
785.891	17897.03
786.224	17808.44
786.558	17875.11
786.891	17662.01
787.224	17634.21
787.557	17565.29
787.891	17578.85
788.224	17518.96
788.557	17482.35
788.89	17391.96
789.223	17473.99
789.556	17163.94
789.888	17212.98
790.221	17173.66
790.554	17065.64
790.887	16976.15
791.219	17024.51
791.552	16906.1
791.884	16775.25
792.217	16756.04
792.549	16641.92
792.882	16639.44
793.214	16538.87
793.546	16683.95
793.879	16364.87
794.211	16257.98
794.543	16412.77
794.875	16358.09
795.207	16381.36
795.539	16276.96
795.871	16218.43
796.203	16089.62
796.535	15988.38
796.867	15986.57
797.198	15883.3
797.53	15935.5
797.862	15803.07
798.193	15888.72
798.525	15804.2
798.856	15816.86
799.188	15602.4
799.519	15561.5
799.85	15465.91
800.182	15442.86
800.513	15548.16
800.844	15276.31
801.175	15426.13
801.506	15434.72
801.837	15293.03
802.168	15278.57
802.499	15191.34
802.83	15106.14
803.161	15038.12
803.491	15163.54
803.822	15015.75
804.153	14992.92
804.483	14819.14
804.814	14763.78
805.145	14732.59
805.475	14775.53
805.805	14766.72
806.136	14692.14
806.466	14681.29
806.796	14601.07
807.126	14497.8
807.457	14582.54
807.787	14441.75
808.117	14409.66
808.447	14371.47
808.777	14387.74
809.107	14348.42
809.436	14304.36
809.766	14268.65
810.096	14247.41
810.426	14181.19
810.755	14147.07
811.085	14175.32
811.414	14152.27
811.744	13937.13
812.073	13982.56
812.403	13970.13
812.732	13851.94
813.061	13856.46
813.39	13779.17
813.719	13738.95
814.049	13795.89
814.378	13670.47
814.707	13642.68
815.036	13700.98
815.365	13568.33
815.693	13454.43
816.022	13540.08
816.351	13512.51
816.68	13418.96
817.008	13354.78
817.337	13270.71
817.665	13283.37
817.994	13364.04
818.322	13296.47
818.651	13202.24
818.979	13190.71
819.307	13229.58
819.636	13181.45
819.964	13090.38
820.292	13080.21
820.62	13161.33
820.948	13009.7
821.276	13054.44
821.604	12999.08
821.932	13035.46
822.259	13115.91
822.587	12997.95
822.915	12995.01
823.243	13025.52
823.57	12979.64
823.898	13024.39
824.225	13002.02
824.553	12978.51
824.88	12970.38
825.207	13002.69
825.535	12956.82
825.862	13005.41
826.189	13017.61
826.516	13010.6
826.843	13033.65
827.17	12949.59
827.497	13040.21
827.824	12967.44
828.151	12989.59
828.478	13028.68
828.805	13022.36
829.131	12919.76
829.458	12925.18
829.785	12940.78
830.111	12869.82
830.438	13022.36
830.764	12933.54
831.09	12878.18
831.417	12950.04
831.743	12989.59
832.069	13001.34
832.395	12885.18
832.722	12944.62
833.048	12861.68
833.374	12913.43
833.7	12743.49
834.026	12739.2
834.351	12873.43
834.677	12877.95
835.003	12836.82
835.329	12831.4
835.654	12755.47
835.98	12709.82
836.306	12748.69
836.631	12681.12
836.956	12768.12
837.282	12659.2
837.607	12701.91
837.932	12691.97
838.258	12549.83
838.583	12613.78
838.908	12562.71
839.233	12557.96
839.558	12595.02
839.883	12533.55
840.208	12494.01
840.533	12465.31
840.858	12439.32
841.182	12461.47
841.507	12422.82
841.832	12284.97
842.156	12307.8
842.481	12340.34
842.805	12329.49
843.13	12333.11
843.454	12246.33
843.778	12236.61
844.103	12241.36
844.427	12174.47
844.751	12144.19
845.075	12068.03
845.399	12098.09
845.723	12055.15
846.047	11982.38
846.371	11906.45
846.695	11927.47
847.019	11817.19
847.343	11767.93
847.666	11690.41
847.99	11616.97
848.313	11642.5
848.637	11508.72
848.96	11527.03
849.284	11544.88
849.607	11439.8
849.931	11417.65
850.254	11371.78
850.577	11276.86
850.9	11160.03
851.223	11244.32
851.546	11206.36
851.869	11022.63
852.192	11087.72
852.515	11039.58
852.838	10987.15
853.161	10986.48
853.483	10921.62
853.806	10898.34
854.129	10826.03
854.451	10763.21
854.774	10714.85
855.096	10727.73
855.419	10699.93
855.741	10703.32
856.063	10540.61
856.385	10572.7
856.708	10524.57
857.03	10513.04
857.352	10549.65
857.674	10548.07
857.996	10391.46
858.318	10367.96
858.64	10401.41
858.961	10340.84
859.283	10288.19
859.605	10242.32
859.926	10242.09
860.248	10264.46
860.57	10146.05
860.891	10195.54
861.212	10126.16
861.534	10101.53
861.855	10124.8
862.176	10075.31
862.498	10152.37
862.819	10115.99
863.14	10017.69
863.461	10035.99
863.782	9928.88
864.103	10014.07
864.424	10010.01
864.745	9966.16
865.065	9835.09
865.386	9890.69
865.707	9914.41
866.027	9892.49
866.348	9890.46
866.668	9809.78
866.989	9805.49
867.309	9741.76
867.63	9737.92
867.95	9745.15
868.27	9701.76
868.59	9789.22
868.91	9767.07
869.23	9674.42
869.55	9645.04
869.87	9669.45
870.19	9657.25
870.51	9660.86
870.83	9699.05
871.15	9580.19
871.469	9655.44
871.789	9615.67
872.109	9632.16
872.428	9538.61
872.748	9524.37
873.067	9519.62
873.386	9528.89
873.706	9518.94
874.025	9492.28
874.344	9430.13
874.663	9446.86
874.982	9393.75
875.301	9458.38
875.62	9385.16
875.939	9404.15
876.258	9338.61
876.577	9336.58
876.896	9281.44
877.214	9356.91
877.533	9363.24
877.852	9321.44
878.17	9356.69
878.489	9276.47
878.807	9260.42
879.125	9200.53
879.444	9199.86
879.762	9173.42
880.08	9200.53
880.398	9188.11
880.716	9184.26
881.034	9088.67
881.352	9087.77
881.67	9047.54
881.988	9093.42
882.306	9057.94
882.624	9053.42
882.941	8995.79
883.259	8947.89
883.577	8976.59
883.894	8944.95
884.212	8931.84
884.529	8941.56
884.846	8876.25
885.164	8822.92
885.481	8829.47
885.798	8794.67
886.115	8756.03
886.432	8768.68
886.75	8733.43
887.067	8694.33
887.383	8690.27
887.7	8760.32
888.017	8670.61
888.334	8672.19
888.651	8577.05
888.967	8618.18
889.284	8537.95
889.6	8575.01
889.917	8561
890.233	8520.1
890.55	8384.74
890.866	8474.9
891.182	8436.04
891.498	8402.59
891.815	8372.08
892.131	8381.57
892.447	8287.11
892.763	8294.12
893.079	8248.7
893.395	8295.02
893.71	8229.94
894.026	8252.09
894.342	8233.55
894.657	8076.72
894.973	8117.4
895.289	8068.36
895.604	8156.72
895.92	8011.87
896.235	8052.09
896.55	8009.83
896.865	8003.05
897.181	7919.44
897.496	7991.53
897.811	7902.72
898.126	7864.98
898.441	7854.36
898.756	7888.25
899.071	7817.29
899.386	7804.64
899.7	7665.89
900.015	7694.13
900.33	7695.26
900.644	7618.66
900.959	7689.84
901.273	7609.62
901.588	7545.89
901.902	7589.28
902.216	7517.64
902.531	7481.26
902.845	7471.09
903.159	7389.51
903.473	7438.32
903.787	7407.36
904.101	7322.84
904.415	7382.96
904.729	7335.73
905.042	7241.49
905.356	7230.19
905.67	7269.29
905.984	7222.06
906.297	7176.63
906.611	7086.69
906.924	7048.95
907.237	7060.03
907.551	7033.13
907.864	7026.35
908.177	7029.97
908.491	7006.24
908.804	6974.38
909.117	6917.88
909.43	6921.27
909.743	6918.34
910.056	6847.83
910.368	6834.5
910.681	6778.9
910.994	6767.38
911.307	6753.82
911.619	6707.72
911.932	6663.65
912.244	6671.79
912.557	6598.57
912.869	6638.79
913.181	6500.27
913.494	6538.91
913.806	6473.83
914.118	6481.51
914.43	6422.53
914.742	6451.68
915.054	6421.62
915.366	6379.14
915.678	6372.13
915.99	6299.37
916.302	6283.1
916.613	6222.08
916.925	6308.41
917.236	6211.69
917.548	6192.48
917.859	6208.98
918.171	6124.68
918.482	6155.42
918.794	6111.12
919.105	6077.23
919.416	6024.35
919.727	6028.19
920.038	6024.35
920.349	6009.21
920.66	5975.76
920.971	5975.99
921.282	5899.6
921.593	5846.95
921.903	5843.11
922.214	5832.49
922.525	5809.44
922.835	5801.08
923.146	5750
923.456	5756.11
923.767	5765.15
924.077	5710.01
924.387	5702.1
924.697	5637.69
925.008	5628.43
925.318	5593.85
925.628	5592.27
925.938	5588.88
926.248	5504.36
926.558	5510.91
926.867	5468.2
927.177	5440.86
927.487	5449.67
927.796	5397.25
928.106	5406.51
928.416	5362.44
928.725	5365.61
929.034	5334.2
929.344	5334.42
929.653	5307.3
929.962	5227.08
930.271	5203.8
930.581	5222.56
930.89	5176.91
931.199	5138.49
931.508	5125.16
931.817	5135.33
932.125	5091.94
932.434	5094.2
932.743	5067.54
933.051	4989.12
933.36	5013.98
933.669	4934.88
933.977	4963.13
934.286	4912.96
934.594	4990.93
934.902	4879.74
935.21	4886.07
935.519	4906.41
935.827	4827.77
936.135	4834.1
936.443	4736.02
936.751	4766.3
937.059	4767.66
937.367	4676.59
937.674	4681.78
937.982	4710.48
938.29	4631.84
938.597	4661.45
938.905	4600.88
939.213	4544.61
939.52	4550.26
939.827	4566.76
940.135	4569.47
940.442	4538.28
940.749	4519.75
941.056	4503.03
941.363	4470.72
941.67	4451.51
941.977	4406.31
942.284	4405.18
942.591	4458.96
942.898	4419.64
943.205	4378.51
943.511	4376.25
943.818	4368.12
944.125	4329.48
944.431	4334.22
944.738	4256.71
945.044	4237.05
945.35	4253.32
945.657	4211.97
945.963	4233.43
946.269	4177.84
946.575	4164.51
946.881	4159.31
947.187	4158.63
947.493	4120.89
947.799	4137.17
948.105	4067.34
948.41	4056.72
948.716	4072.08
949.022	4024.17
949.327	4011.74
949.633	3994.12
949.938	4009.71
950.244	4007
950.549	3953.67
950.854	3901.47
951.16	3930.17
951.465	3904.63
951.77	3883.84
952.075	3858.75
952.38	3855.14
952.685	3876.83
952.99	3782.37
953.294	3837.06
953.599	3823.5
953.904	3730.62
954.209	3723.39
954.513	3699.21
954.818	3720.9
955.122	3710.06
955.426	3687.01
955.731	3682.71
956.035	3640.23
956.339	3654.69
956.643	3634.13
956.948	3621.25
957.252	3603.62
957.556	3580.12
957.86	3568.14
958.163	3561.14
958.467	3515.71
958.771	3506.22
959.075	3503.74
959.378	3492.89
959.682	3462.38
959.985	3445.21
960.289	3456.51
960.592	3458.99
960.896	3389.84
961.199	3412.21
961.502	3378.54
961.805	3350.97
962.108	3338.54
962.411	3392.1
962.714	3321.14
963.017	3315.72
963.32	3294.48
963.623	3280.24
963.926	3248.6
964.228	3241.14
964.531	3252.44
964.833	3234.14
965.136	3257.41
965.438	3192.56
965.741	3151.88
966.043	3201.37
966.345	3160.92
966.648	3130.41
966.95	3143.97
967.252	3133.12
967.554	3079.79
967.856	3117.98
968.158	3036.63
968.46	3044.31
968.761	3065.55
969.063	3026.23
969.365	3036.63
969.666	3034.6
969.968	2990.08
970.269	2955.95
970.571	2984.88
970.872	2981.94
971.174	2945.11
971.475	2935.84
971.776	2922.28
972.077	2938.78
972.378	2910.53
972.679	2896.52
972.98	2887.48
973.281	2884.99
973.582	2833.7
973.883	2821.72
974.183	2813.36
974.484	2826.24
974.785	2784.66
975.085	2805
975.386	2769.52
975.686	2726.58
975.986	2769.07
976.287	2713.25
976.587	2695.4
976.887	2707.37
977.187	2722.06
977.487	2647.03
977.787	2693.14
978.087	2631.44
978.387	2699.01
978.687	2651.55
978.987	2661.95
979.286	2645.23
979.586	2588.51
979.885	2583.08
980.185	2591.44
980.484	2586.25
980.784	2535.17
981.083	2527.94
981.382	2555.29
981.682	2535.63
981.981	2517.55
982.28	2508.51
982.579	2500.37
982.878	2502.63
983.177	2463.08
983.475	2475.97
983.774	2480.94
984.073	2458.57
984.372	2420.83
984.67	2456.08
984.969	2373.14
985.267	2430.54
985.566	2389.19
985.864	2395.29
986.162	2375.18
986.461	2370.66
986.759	2357.33
987.057	2333.37
987.355	2334.73
987.653	2308.74
987.951	2308.29
988.249	2304.9
988.547	2279.13
988.844	2301.06
989.142	2296.31
989.44	2272.81
989.737	2227.38
990.035	2250.66
990.332	2255.18
990.63	2226.26
990.927	2200.94
991.224	2168.86
991.521	2195.97
991.819	2191.23
992.116	2134.96
992.413	2158.01
992.71	2154.62
993.006	2171.57
993.303	2115.07
993.6	2122.53
993.897	2104
994.193	2087.28
994.49	2089.99
994.787	2073.49
995.083	2061.06
995.379	2034.62
995.676	2054.51
995.972	2046.82
996.268	2012.93
996.565	2028.75
996.861	2010.67
997.157	2015.87
997.453	1990.33
997.749	1974.96
998.044	1962.76
998.34	1958.01
998.636	1963.21
998.932	1953.27
999.227	1920.73
999.523	1928.41
999.818	1949.65
1000.114	1923.44
1000.409	1896.09
1000.704	1878.02
1001	1869.65
1001.295	1865.81
1001.59	1884.57
1001.885	1835.08
1002.18	1845.7
1002.475	1835.08
1002.77	1807.73
1003.065	1841.63
1003.359	1816.77
1003.654	1787.17
1003.949	1780.17
1004.243	1780.62
1004.538	1757.79
1004.832	1769.54
1005.127	1761.18
1005.421	1739.49
1005.715	1727.51
1006.009	1710.11
1006.304	1714.63
1006.598	1698.81
1006.892	1708.08
1007.186	1705.82
1007.48	1675.76
1007.773	1653.61
1008.067	1621.75
1008.361	1633.05
1008.655	1613.62
1008.948	1628.98
1009.242	1642.99
1009.535	1617.01
1009.829	1612.26
1010.122	1579.72
1010.415	1600.28
1010.708	1574.97
1011.001	1588.98
1011.295	1562.09
1011.588	1554.18
1011.881	1520.51
1012.173	1541.53
1012.466	1526.16
1012.759	1539.27
1013.052	1538.14
1013.344	1482.55
1013.637	1482.55
1013.93	1480.06
1014.222	1470.34
1014.514	1485.48
1014.807	1465.37
1015.099	1433.28
1015.391	1428.08
1015.683	1424.92
1015.976	1378.14
1016.268	1427.18
1016.56	1407.29
1016.851	1410.46
1017.143	1367.29
1017.435	1386.73
1017.727	1374.07
1018.018	1352.15
1018.31	1355.54
1018.602	1342.89
1018.893	1341.31
1019.185	1338.82
1019.476	1312.15
1019.767	1299.05
1020.058	1324.36
1020.35	1313.06
1020.641	1277.58
1020.932	1292.27
1021.223	1285.49
1021.514	1250.91
1021.804	1270.8
1022.095	1267.86
1022.386	1220.63
1022.677	1236.9
1022.967	1211.59
1023.258	1219.95
1023.548	1198.71
1023.839	1210.01
1024.129	1196.9
1024.419	1185.6
1024.709	1170.92
1025	1205.26
1025.29	1147.87
1025.58	1181.76
1025.87	1145.61
1026.16	1139.96
1026.449	1137.02
1026.739	1119.39
1027.029	1148.54
1027.319	1132.95
1027.608	1104.48
1027.898	1108.09
1028.187	1107.41
1028.477	1091.82
1028.766	1072.84
1029.055	1086.85
1029.344	1068.09
1029.634	1087.08
1029.923	1060.41
1030.212	1071.26
1030.501	1046.63
1030.79	1036.23
1031.078	1036.46
1031.367	1035.1
1031.656	1007.98
1031.945	1027.64
1032.233	1003.24
1032.522	981.77
1032.81	1012.73
1033.099	1000.98
1033.387	997.36
1033.675	987.42
1033.963	966.63
1034.251	963.24
1034.54	968.66
1034.828	961.66
1035.116	948.55
1035.403	933.41
1035.691	932.96
1035.979	961.43
1036.267	946.06
1036.554	911.04
1036.842	936.57
1037.129	907.65
1037.417	896.57
1037.704	890.47
1037.992	897.25
1038.279	878.27
1038.566	882.79
1038.853	882.79
1039.14	882.79
