Data from hue_20_FLMS001491_97.txt Node
Date: Mon Feb 06 15:35:00 GMT 2017
User: dcchb
Spectrometer: FLMS00149
Trigger mode: 0
Integration Time (sec): 2.000000E-2
Scans to average: 10
Electric dark correction enabled: true
Nonlinearity correction enabled: false
Boxcar width: 0
XAxis mode: Wavelengths
Number of Pixels in Spectrum: 2048
>>>>>Begin Spectral Data<<<<<
341.393	3.81
341.776	3.81
342.16	3.81
342.543	-67.6
342.927	-54.94
343.31	-92.91
343.693	-64.21
344.077	-65.56
344.46	-49.07
344.843	-30.31
345.226	-50.87
345.61	-21.72
345.993	-14.27
346.376	-16.52
346.759	15.56
347.142	5.62
347.525	49.46
347.908	47.2
348.291	75
348.674	96.47
349.057	116.13
349.44	141.21
349.823	127.43
350.206	166.52
350.588	192.28
350.971	218.05
351.354	227.08
351.737	232.96
352.119	254.43
352.502	259.85
352.884	273.64
353.267	293.52
353.65	296.91
354.032	290.13
354.414	302.79
354.797	321.55
355.179	321.77
355.562	312.96
355.944	328.78
356.326	332.84
356.709	341.66
357.091	335.1
357.473	341.66
357.855	337.59
358.238	331.26
358.62	352.96
359.002	343.24
359.384	346.18
359.766	343.24
360.148	327.42
360.53	358.38
360.912	361.09
361.294	331.94
361.676	325.84
362.057	318.83
362.439	321.77
362.821	335.78
363.203	344.82
363.584	309.34
363.966	342.56
364.348	324.71
364.729	319.06
365.111	317.25
365.493	316.12
365.874	316.35
366.256	331.04
366.637	315.9
367.019	326.52
367.4	332.62
367.781	310.7
368.163	305.05
368.544	322.9
368.925	320.64
369.306	323.58
369.688	343.24
370.069	295.33
370.45	314.54
370.831	317.25
371.212	313.86
371.593	338.95
371.974	319.51
372.355	310.25
372.736	315.9
373.117	321.77
373.498	334.65
373.879	319.29
374.26	326.52
374.641	311.83
375.021	325.84
375.402	312.28
375.783	323.13
376.163	311.38
376.544	312.73
376.925	326.29
377.305	326.06
377.686	330.58
378.066	333.75
378.447	343.24
378.827	331.94
379.208	342.11
379.588	307.53
379.968	336.91
380.349	334.65
380.729	341.88
381.109	349.57
381.489	360.41
381.87	343.69
382.25	353.41
382.63	340.75
383.01	361.09
383.39	350.25
383.77	322.68
384.15	360.41
384.53	352.28
384.91	357.7
385.29	342.79
385.67	368.32
386.049	358.38
386.429	349.79
386.809	359.96
387.189	345.5
387.568	345.73
387.948	378.04
388.328	385.27
388.707	367.87
389.087	391.6
389.466	375.33
389.846	397.48
390.225	380.75
390.605	385.5
390.984	357.48
391.363	390.92
391.743	385.27
392.122	398.38
392.501	388.21
392.881	391.37
393.26	394.09
393.639	398.38
394.018	415.33
394.397	399.96
394.776	408.55
395.155	403.12
395.534	382.33
395.913	402.9
396.292	399.74
396.671	410.13
397.05	398.38
397.429	407.42
397.808	394.76
398.186	410.36
398.565	421.43
398.944	407.64
399.323	411.26
399.701	422.11
400.08	422.11
400.458	423.46
400.837	426.85
401.215	415.33
401.594	424.82
401.972	429.79
402.351	440.86
402.729	414.2
403.107	448.32
403.486	426.85
403.864	432.73
404.242	451.94
404.62	457.36
404.999	462.78
405.377	466.63
405.755	436.8
406.133	452.62
406.511	458.72
406.889	467.53
407.267	470.02
407.645	452.62
408.023	473.63
408.401	477.47
408.779	468.43
409.156	470.47
409.534	481.09
409.912	462.11
410.29	496.68
410.667	503.91
411.045	478.15
411.422	501.88
411.8	507.3
412.178	520.86
412.555	518.15
412.933	510.69
413.31	525.61
413.687	530.58
414.065	533.29
414.442	521.54
414.819	530.13
415.197	533.52
415.574	536
415.951	523.8
416.328	554.08
416.705	531.48
417.082	550.24
417.46	565.61
417.837	564.25
418.214	574.65
418.591	563.8
418.967	538.26
419.344	570.35
419.721	583.91
420.098	561.76
420.475	591.59
420.852	581.88
421.228	584.36
421.605	584.36
421.982	597.92
422.358	613.51
422.735	612.16
423.111	616.68
423.488	599.73
423.864	632.05
424.241	620.29
424.617	616
424.994	639.28
425.37	623.23
425.746	668.88
426.123	640.86
426.499	633.85
426.875	632.95
427.251	636.34
427.627	651.25
428.003	689.67
428.379	669.56
428.756	688.99
429.132	681.99
429.507	662.78
429.883	689.9
430.259	685.15
430.635	705.94
431.011	708.65
431.387	719.95
431.763	726.28
432.138	723.79
432.514	713.85
432.89	743.23
433.265	764.92
433.641	765.15
434.016	754.08
434.392	771.93
434.767	771.93
435.143	795.88
435.518	790.23
435.894	795.43
436.269	815.77
436.644	792.27
437.02	816.22
437.395	858.03
437.77	845.37
438.145	848.09
438.52	824.13
438.895	844.7
439.271	869.1
439.646	893.73
440.021	850.34
440.395	869.1
440.77	832.94
441.145	884.47
441.52	891.47
441.895	882.66
442.27	891.02
442.645	886.28
443.019	907.74
443.394	890.34
443.769	908.87
444.143	940.74
444.518	953.39
444.892	935.09
445.267	923.11
445.641	953.17
446.016	954.07
446.39	943.68
446.764	959.27
447.139	939.61
447.513	963.56
447.887	960.62
448.262	989.32
448.636	1015.31
449.01	1008.31
449.384	1001.53
449.758	989.32
450.132	1024.35
450.506	987.97
450.88	1026.84
451.254	1048.53
451.628	1025.03
452.002	1037.01
452.376	1063.22
452.75	1070.68
453.123	1080.4
453.497	1064.12
453.871	1098.25
454.244	1118.81
454.618	1103.22
454.992	1115.42
455.365	1151.35
455.739	1153.61
456.112	1154.07
456.486	1154.52
456.859	1200.39
457.232	1213.5
457.606	1186.16
457.979	1182.77
458.352	1227.51
458.725	1242.2
459.099	1246.72
459.472	1269.99
459.845	1300.5
460.218	1300.28
460.591	1322.42
460.964	1295.98
461.337	1330.33
461.71	1338.47
462.083	1369.2
462.456	1370.56
462.829	1398.81
463.201	1418.01
463.574	1423.44
463.947	1409.65
464.32	1443.1
464.692	1480.84
465.065	1503.66
465.438	1486.03
465.81	1515.19
466.183	1537.78
466.555	1527.39
466.928	1555.41
467.3	1569.65
467.672	1606.48
468.045	1633.15
468.417	1668.18
468.789	1644.9
469.161	1668.4
469.534	1724.67
469.906	1726.48
470.278	1787.27
470.65	1773.26
471.022	1802.41
471.394	1830.21
471.766	1836.99
472.138	1852.35
472.51	1907.72
472.882	1931.45
473.253	1958.56
473.625	1963.54
473.997	2025.46
474.369	2029.75
474.74	2101.16
475.112	2087.83
475.484	2137.77
475.855	2185
476.227	2170.08
476.598	2252.34
476.97	2274.49
477.341	2319.68
477.713	2357.65
478.084	2355.62
478.455	2430.87
478.827	2486.23
479.198	2527.14
479.569	2548.83
479.94	2642.39
480.311	2651.2
480.682	2722.16
481.053	2768.03
481.424	2800.12
481.795	2850.97
482.166	2893.23
482.537	2930.97
482.908	2975.26
483.279	3031.08
483.65	3076.73
484.021	3147.91
484.391	3211.86
484.762	3211.19
485.133	3231.75
485.503	3338.42
485.874	3377.74
486.244	3429.49
486.615	3496.15
486.985	3578.18
487.356	3606.66
487.726	3629.48
488.097	3696.15
488.467	3731.85
488.837	3825.86
489.207	3843.26
489.578	3965.52
489.948	3949.47
490.318	4005.52
490.688	4031.5
491.058	4071.96
491.428	4166.42
491.798	4239.41
492.168	4298.39
492.538	4339.97
492.908	4410.25
493.278	4453.64
493.648	4413.64
494.017	4497.03
494.387	4574.77
494.757	4597.59
495.126	4642.56
495.496	4720.98
495.866	4684.82
496.235	4721.88
496.605	4833.97
496.974	4837.81
497.344	4876.68
497.713	4902.67
498.082	5002.78
498.452	5013.85
498.821	5003
499.19	5038.71
499.559	5086.62
499.928	5170.23
500.298	5198.71
500.667	5271.47
501.036	5253.84
501.405	5276.67
501.774	5286.39
502.143	5320.28
502.512	5381.3
502.88	5437.79
503.249	5505.59
503.618	5483.22
503.987	5536.32
504.356	5551.01
504.724	5585.14
505.093	5616.1
505.462	5589.43
505.83	5700.84
506.199	5692.7
506.567	5796.43
506.936	5807.5
507.304	5865.58
507.672	5882.53
508.041	5878.46
508.409	5920.04
508.777	5979.7
509.145	6014.05
509.514	6069.87
509.882	6058.34
510.25	6162.75
510.618	6177.89
510.986	6133.82
511.354	6200.71
511.722	6224.89
512.09	6270.77
512.458	6266.93
512.826	6295.4
513.193	6361.84
513.561	6341.27
513.929	6406.81
514.297	6464.43
514.664	6461.04
515.032	6563.19
515.4	6544.88
515.767	6617.65
516.135	6631.89
516.502	6630.31
516.869	6737.2
517.237	6747.14
517.604	6733.35
517.972	6764.31
518.339	6790.08
518.706	6839.34
519.073	6813.13
519.44	6879.11
519.808	6951.88
520.175	7008.38
520.542	6994.14
520.909	7072.55
521.276	7060.58
521.643	7155.04
522.009	7211.53
522.376	7226.67
522.743	7274.58
523.11	7345.99
523.477	7361.36
523.843	7400
524.21	7509.15
524.577	7491.98
524.943	7544.18
525.31	7633.44
525.676	7647
526.043	7724.29
526.409	7715.25
526.776	7754.34
527.142	7848.13
527.508	7891.06
527.874	7960.67
528.241	7987.33
528.607	8002.47
528.973	8095.35
529.339	8090.15
529.705	8137.38
530.071	8245.18
530.437	8233.43
530.803	8319.75
531.169	8370.37
531.535	8345.74
531.901	8366.31
532.267	8446.98
532.632	8507.09
532.998	8531.05
533.364	8519.75
533.73	8604.27
534.095	8657.37
534.461	8641.33
534.826	8693.08
535.192	8763.36
535.557	8713.64
535.923	8797.03
536.288	8902.11
536.653	8926.74
537.019	8913.86
537.384	8965.61
537.749	9026.18
538.114	9037.93
538.479	9027.76
538.845	9134.19
539.21	9067.08
539.575	9216.45
539.94	9181.88
540.305	9214.64
540.67	9248.77
541.034	9273.85
541.399	9342.32
541.764	9378.48
542.129	9380.52
542.494	9425.03
542.858	9483.11
543.223	9459.16
543.587	9538.48
543.952	9569.21
544.316	9603.11
544.681	9595.65
545.045	9663.45
545.41	9790
545.774	9753.61
546.138	9707.29
546.503	9857.79
546.867	9839.94
547.231	9881.29
547.595	9970.33
547.959	9940.5
548.324	10053.04
548.688	10014.17
549.052	10010.56
549.416	10069.76
549.779	10146.82
550.143	10130.55
550.507	10256.65
550.871	10271.79
551.235	10232.25
551.599	10308.18
551.962	10315.63
552.326	10368.96
552.689	10461.17
553.053	10433.6
553.417	10387.5
553.78	10548.39
554.143	10548.62
554.507	10601.5
554.87	10677.43
555.234	10758.33
555.597	10682.85
555.96	10679.46
556.323	10804.89
556.686	10792.23
557.05	10819.8
557.413	10950.42
557.776	10895.05
558.139	11021.15
558.502	11023.41
558.865	11023.41
559.228	11145.22
559.59	11161.49
559.953	11155.61
560.316	11269.73
560.679	11265.21
561.041	11336.85
561.404	11375.72
561.767	11479.67
562.129	11454.59
562.492	11511.99
562.854	11554.47
563.217	11560.57
563.579	11647.35
563.941	11780
564.304	11718.31
564.666	11814.58
565.028	11823.84
565.39	11825.88
565.753	11958.08
566.115	11975.25
566.477	12032.65
566.839	12002.59
567.201	12048.02
567.563	12123.49
567.925	12191.29
568.287	12256.37
568.648	12161.91
569.01	12292.3
569.372	12460.21
569.734	12307.9
570.095	12470.15
570.457	12575.01
570.819	12471.96
571.18	12561.45
571.542	12696.14
571.903	12678.28
572.265	12756.02
572.626	12859.97
572.987	12791.27
573.349	12930.48
573.71	13089.35
574.071	12991.49
574.432	13081.21
574.794	13228.55
575.155	13266.74
575.516	13175.9
575.877	13342.45
576.238	13351.26
576.599	13451.6
576.96	13549.45
577.32	13643.68
577.681	13720.06
578.042	13760.97
578.403	13781.98
578.763	13896.78
579.124	13872.83
579.485	14116.44
579.845	14208.41
580.206	14346.71
580.566	14347.17
580.927	14533.6
581.287	14640.72
581.648	14714.16
582.008	14934.04
582.368	14971.78
582.728	15053.36
583.089	15178.56
583.449	15331.55
583.809	15476.4
584.169	15632.78
584.529	15756.17
584.889	16055.82
585.249	16073
585.609	16203.61
585.969	16540.78
586.329	16607.67
586.688	16877.95
587.048	17006.08
587.408	17212.4
587.768	17411.04
588.127	17530.36
588.487	17825.49
588.846	18143.68
589.206	18163.11
589.565	18449.88
589.925	18764
590.284	18949.53
590.643	19271.78
591.003	19493.92
591.362	19746.12
591.721	19994.7
592.08	20271.76
592.44	20420.68
592.799	20762.14
593.158	21065.41
593.517	21442.35
593.876	21527.77
594.235	21816.12
594.593	22158.71
594.952	22583.78
595.311	22677.57
595.67	23069.65
596.029	23381.73
596.387	23860.14
596.746	24137.87
597.104	24175.83
597.463	24458.99
597.822	24827.34
598.18	25068.01
598.538	25424.39
598.897	25657.38
599.255	25860.08
599.613	26407.86
599.972	26565.83
600.33	26824.13
600.688	27017.79
601.046	27499.59
601.404	27869.07
601.762	27960.59
602.12	28432.9
602.478	28638.54
602.836	29061.81
603.194	29174.12
603.552	29479.87
603.91	29569.36
604.268	29952.18
604.625	30216.58
604.983	30566.63
605.341	30627.19
605.698	31012.94
606.056	31306.95
606.413	31527.96
606.771	31904.22
607.128	32165
607.485	32142.63
607.843	32573.35
608.2	32899.67
608.557	33140.8
608.914	33411.3
609.272	33657.62
609.629	33992.52
609.986	34123.14
610.343	34229.13
610.7	34865.04
611.057	34912.27
611.414	35033.17
611.771	35365.6
612.127	35675.87
612.484	35741.18
612.841	35885.58
613.198	36025.69
613.554	36195.86
613.911	36493.7
614.267	36690.31
614.624	36847.59
614.98	37089.17
615.337	37422.94
615.693	37539.32
616.05	37600.34
616.406	37949.71
616.762	38095.47
617.118	38067.9
617.475	38368.23
617.831	38567.32
618.187	38840.08
618.543	38917.82
618.899	39201.43
619.255	39338.37
619.611	39313.29
619.967	39497.69
620.323	39787.4
620.678	39727.29
621.034	39655.2
621.39	39807.96
621.746	39927.51
622.101	40482.07
622.457	40186.71
622.812	40417.44
623.168	40533.37
623.523	40563.42
623.879	40739.01
624.234	40683.2
624.589	40977.43
624.945	40990.08
625.3	41078.44
625.655	41077.99
626.01	41310.52
626.365	41490.63
626.72	41355.49
627.075	41561.36
627.43	41529.5
627.785	41495.83
628.14	41730.85
628.495	41666.45
628.85	41748.03
629.205	41524.76
629.559	42089.49
629.914	41828.93
630.269	41998.64
630.623	41843.17
630.978	41826.22
631.332	42101.46
631.687	42178.3
632.041	42040
632.396	42281.12
632.75	41891.75
633.104	42111.86
633.459	41911.64
633.813	41951.64
634.167	42176.26
634.521	42036.61
634.875	42144.17
635.229	42177.17
635.583	42010.17
635.937	42034.35
636.291	41938.08
636.645	42010.39
636.999	42061.46
637.352	42193.89
637.706	42092.65
638.06	42128.58
638.413	42079.54
638.767	41946.67
639.121	42187.79
639.474	41894.92
639.828	41822.37
640.181	41996.61
640.534	42198.86
640.888	41940.34
641.241	41790.96
641.594	41887.23
641.947	42091.97
642.301	41997.06
642.654	42066.89
643.007	41839.1
643.36	41872.32
643.713	41838.19
644.066	42089.03
644.419	41838.42
644.771	41571.08
645.124	41219.45
645.477	41183.75
645.83	40899.69
646.182	40889.07
646.535	40678.9
646.888	40811.78
647.24	40549.87
647.593	40870.08
647.945	40825.79
648.298	40592.8
648.65	40523.88
649.002	40443.43
649.355	40557.55
649.707	40558
650.059	40741.27
650.411	41187.14
650.763	41290.64
651.115	41610.4
651.467	41612.66
651.819	41584.19
652.171	41371.77
652.523	41467.58
652.875	41442.72
653.227	41242.28
653.578	41447.02
653.93	41381.71
654.282	41191.43
654.633	41227.81
654.985	41238.21
655.337	41144.43
655.688	41287.25
656.039	41388.49
656.391	40916.64
656.742	41135.39
657.094	41066.24
657.445	41170.87
657.796	41125.44
658.147	41129.51
658.498	41087.48
658.849	41198.21
659.2	41228.27
659.551	41020.81
659.902	41178.32
660.253	41167.93
660.604	41231.66
660.955	40972
661.306	41120.7
661.656	41074.82
662.007	41010.87
662.358	40955.96
662.708	41095.84
663.059	41038.67
663.409	40779.46
663.76	40998.67
664.11	40967.26
664.461	41063.07
664.811	41038.21
665.161	41061.04
665.511	40924.77
665.862	40922.96
666.212	41152.79
666.562	41155.27
666.912	41057.42
667.262	40983.75
667.612	40927.48
667.962	41007.26
668.312	40904.66
668.662	41087.25
669.011	40882.51
669.361	40950.08
669.711	40875.06
670.06	41018.1
670.41	40796.19
670.76	40705.79
671.109	40980.59
671.459	40861.95
671.808	40698.79
672.157	40870.76
672.507	40635.74
672.856	40609.07
673.205	40758
673.554	40812.23
673.904	40675.29
674.253	40995.73
674.602	40676.42
674.951	40102.65
675.3	40007.28
675.649	40581.28
675.998	40616.98
676.346	40646.13
676.695	40602.07
677.044	40355.97
677.393	40463.99
677.741	40455.18
678.09	40427.84
678.438	40467.61
678.787	40468.74
679.135	40387.61
679.484	40036.89
679.832	40185.36
680.181	40007.96
680.529	40165.7
680.877	40113.27
681.225	40016.09
681.573	40240.27
681.922	39850
682.27	39710.11
682.618	39924.12
682.966	39754.18
683.314	39818.13
683.661	39748.76
684.009	39544.69
684.357	39459.5
684.705	39517.58
685.053	39592.83
685.4	39464.47
685.748	39376.34
686.095	39310.35
686.443	39150.81
686.79	39125.04
687.138	39168.43
687.485	39134.99
687.832	39066.29
688.18	39057.7
688.527	38816.58
688.874	38783.81
689.221	38692.97
689.568	38456.81
689.915	38500.43
690.262	38462.24
690.609	38419.98
690.956	38270.83
691.303	38151.51
691.65	37967.79
691.997	38091.63
692.344	37931.63
692.69	37869.71
693.037	37790.84
693.383	37552.88
693.73	37738.41
694.077	37323.51
694.423	37453.68
694.769	37412.55
695.116	37173.01
695.462	37219.56
695.808	37031.54
696.155	37180.01
696.501	36886.46
696.847	36755.39
697.193	36681.72
697.539	36746.35
697.885	36351.56
698.231	36293.71
698.577	36440.82
698.923	36310.88
699.269	36112.02
699.614	36032.47
699.96	36016.65
700.306	36044.45
700.651	35772.59
700.997	35777.79
701.342	35578.25
701.688	35618.24
702.033	35521.75
702.379	35503.45
702.724	35313.62
703.069	35261.64
703.415	35032.95
703.76	34899.39
704.105	34964.25
704.45	35061.42
704.795	34765.16
705.14	34550.25
705.485	34715.9
705.83	34553.64
706.175	34498.73
706.52	34537.59
706.865	34295.79
707.209	34296.47
707.554	34175.57
707.899	34211.5
708.243	34081.11
708.588	33981.45
708.932	33797.05
709.277	33792.98
709.621	33822.36
709.966	33621.23
710.31	33635.92
710.654	33423.27
710.998	33446.55
711.342	33408.81
711.687	33272.09
712.031	33100.8
712.375	33058.76
712.719	33158.65
713.063	33151.19
713.407	33072.32
713.75	32911.87
714.094	32860.58
714.438	32872.78
714.782	32861.48
715.125	32656.06
715.469	32622.84
715.812	32602.96
716.156	32413.13
716.499	32393.02
716.843	32476.41
717.186	32319.35
717.53	32454.94
717.873	32389.63
718.216	32369.06
718.559	32172.23
718.902	31952.58
719.246	31981.5
719.589	31968.17
719.932	31833.71
720.275	31772.02
720.617	31680.04
720.96	31668.52
721.303	31686.14
721.646	31681.17
721.989	31472.59
722.331	31475.3
722.674	31367.28
723.016	31448.41
723.359	31419.48
723.701	31349.66
724.044	31128.64
724.386	31048.87
724.729	31102.88
725.071	31074.63
725.413	31098.59
725.755	30960.29
726.097	30895.43
726.439	30799.39
726.782	30816.79
727.124	30893.17
727.465	30792.16
727.807	30685.27
728.149	30691.59
728.491	30639.17
728.833	30735.21
729.175	30422.67
729.516	30464.71
729.858	30432.62
730.199	30591.71
730.541	30237.37
730.882	30337.71
731.224	30475.33
731.565	30085.06
731.906	30376.35
732.248	30146.3
732.589	29981.1
732.93	29999.86
733.271	29982.01
733.612	29938.62
733.953	29948.34
734.294	29847.32
734.635	29766.65
734.976	29917.6
735.317	29677.16
735.658	29719.19
735.999	29828.79
736.339	29759.64
736.68	29634.22
737.021	29676.25
737.361	29342.48
737.702	29640.55
738.042	29459.31
738.383	29382.93
738.723	29520.1
739.063	29303.38
739.404	29400.33
739.744	29323.27
740.084	29252.76
740.424	29178.19
740.764	29057.29
741.104	29160.56
741.444	29048.47
741.784	28944.07
742.124	29071.75
742.464	29014.12
742.804	28909.49
743.143	28852.32
743.483	28911.75
743.823	28702.49
744.162	28722.61
744.502	28735.04
744.841	28524.65
745.181	28747.46
745.52	28713.12
745.86	28594.47
746.199	28596.28
746.538	28513.8
746.877	28553.35
747.216	28481.48
747.556	28369.62
747.895	28418.66
748.234	28365.78
748.573	28264.77
748.911	28327.59
749.25	28254.6
749.589	28116.75
749.928	28146.35
750.267	28072
750.605	28196.29
750.944	28106.8
751.283	27994.49
751.621	28060.93
751.96	27841.73
752.298	27845.57
752.636	27827.26
752.975	27747.94
753.313	27620.49
753.651	27842.86
753.989	27687.15
754.327	27620.26
754.666	27486.48
755.004	27492.81
755.342	27378.91
755.679	27320.16
756.017	27182.31
756.355	27334.85
756.693	27179.14
757.031	27138.24
757.368	27122.65
757.706	27053.05
758.044	26925.14
758.381	26964.69
758.719	26881.52
759.056	27035.19
759.394	26809.66
759.731	26620.74
760.068	26563.12
760.405	26548.88
760.743	26478.15
761.08	26429.11
761.417	26378.94
761.754	26189.11
762.091	26301.2
762.428	26008.55
762.765	26032.96
763.102	26096.69
763.438	26027.08
763.775	25869.12
764.112	25794.32
764.449	25818.95
764.785	25742.12
765.122	25618.51
765.458	25475.01
765.795	25450.15
766.131	25383.26
766.467	25299.65
766.804	25206.77
767.14	25080.22
767.476	25037.96
767.812	24928.81
768.148	24987.34
768.485	24909.15
768.821	24673.9
769.157	24754.12
769.492	24650.4
769.828	24592.32
770.164	24343.74
770.5	24241.14
770.836	24344.42
771.171	24109.17
771.507	24099.9
771.842	24006.57
772.178	23962.96
772.513	23914.6
772.849	23825.11
773.184	23765.45
773.519	23735.39
773.855	23600.48
774.19	23401.39
774.525	23405.91
774.86	23361.84
775.195	23268.29
775.53	23267.61
775.865	23208.63
776.2	22984.9
776.535	22751.69
776.87	22825.13
777.205	22685.93
777.539	22622.43
777.874	22637.57
778.209	22451.36
778.543	22449.32
778.878	22266.96
779.212	22229.9
779.547	22189.22
779.881	22196.22
780.215	21946.97
780.55	22008.21
780.884	21821.77
781.218	21880.75
781.552	21790.59
781.886	21675.11
782.22	21585.17
782.554	21555.11
782.888	21438.28
783.222	21246.64
783.556	21142.69
783.889	21058.4
784.223	21028.57
784.557	20966.65
784.89	20964.17
785.224	20846.66
785.557	20835.36
785.891	20739.54
786.224	20671.74
786.558	20627.45
786.891	20460.45
787.224	20344.75
787.557	20370.28
787.891	20231.76
788.224	20244.86
788.557	20361.47
788.89	20164.87
789.223	20168.48
789.556	19913.35
789.888	19914.25
790.221	19877.19
790.554	19700.02
790.887	19724.65
791.219	19622.05
791.552	19591.32
791.884	19434.94
792.217	19449.4
792.549	19377.09
792.882	19298.45
793.214	19076.31
793.546	19159.02
793.879	19016.19
794.211	18980.72
794.543	19015.52
794.875	18956.54
795.207	18985.46
795.539	18825.47
795.871	18854.17
796.203	18712.93
796.535	18548.41
796.867	18507.51
797.198	18483.55
797.53	18432.48
797.862	18301.64
798.193	18401.75
798.525	18204.69
798.856	18259.38
799.188	17963.57
799.519	17951.82
799.85	17945.04
800.182	17953.62
800.513	17913.17
800.844	17656
801.175	17816.45
801.506	17787.98
801.837	17733.29
802.168	17584.37
802.499	17642.9
802.83	17568.78
803.161	17514.09
803.491	17478.61
803.822	17442.45
804.153	17277.03
804.483	17166.53
804.814	17102.8
805.145	17171.95
805.475	17098.51
805.805	16988.23
806.136	17000.2
806.466	16978.96
806.796	16989.36
807.126	16825.29
807.457	16786.2
807.787	16703.26
808.117	16671.17
808.447	16614.68
808.777	16617.61
809.107	16545.3
809.436	16540.1
809.766	16527.22
810.096	16433.21
810.426	16362.03
810.755	16342.59
811.085	16345.76
811.414	16319.99
811.744	16099.44
812.073	16147.8
812.403	16144.63
812.732	15997.74
813.061	15969.27
813.39	15955.48
813.719	15997.29
814.049	16032.54
814.378	15829.84
814.707	15778.99
815.036	15854.24
815.365	15756.62
815.693	15659.22
816.022	15657.41
816.351	15583.29
816.68	15508.94
817.008	15642.72
817.337	15506.23
817.665	15378.78
817.994	15457.19
818.322	15383.52
818.651	15399.11
818.979	15236.86
819.307	15292.45
819.636	15221.04
819.964	15097.65
820.292	15210.65
820.62	15092.91
820.948	15045.68
821.276	15150.99
821.604	15136.97
821.932	15173.13
822.259	15053.14
822.587	15089.97
822.915	15056.07
823.243	15130.42
823.57	15037.32
823.898	15155.28
824.225	15015.62
824.553	15051.78
824.88	14989.63
825.207	15087.94
825.535	15028.28
825.862	15085.45
826.189	14985.34
826.516	15040.03
826.843	15085
827.17	15169.06
827.497	15143.3
827.824	15065.79
828.151	15068.73
828.478	15023.08
828.805	15199.57
829.131	15010.42
829.458	15002.06
829.785	14981.05
830.111	14964.32
830.438	14984.21
830.764	15006.58
831.09	15006.58
831.417	14965.68
831.743	15029.86
832.069	15048.62
832.395	14896.53
832.722	14892.01
833.048	14875.74
833.374	14867.6
833.7	14806.14
834.026	14848.62
834.351	14844.78
834.677	14875.96
835.003	14871.9
835.329	14812.92
835.654	14810.2
835.98	14627.16
836.306	14733.37
836.631	14647.27
836.956	14759.36
837.282	14740.15
837.607	14631.45
837.932	14579.48
838.258	14616.08
838.583	14550.32
838.908	14548.74
839.233	14617.67
839.558	14573.37
839.883	14443.21
840.208	14392.36
840.533	14410.67
840.858	14393.94
841.182	14415.19
841.507	14405.92
841.832	14259.48
842.156	14302.42
842.481	14283.89
842.805	14221.52
843.13	14193.5
843.454	14285.47
843.778	14166.38
844.103	14102.2
844.427	14069.88
844.751	14127.74
845.075	14045.93
845.399	13926.84
845.723	13841.87
846.047	13913.96
846.371	13755.99
846.695	13873.28
847.019	13632.61
847.343	13665.6
847.666	13588.54
847.99	13528.43
848.313	13438.26
848.637	13387.64
848.96	13341.09
849.284	13337.47
849.607	13185.84
849.931	13215.67
850.254	13046.63
850.577	13031.95
850.9	12970.25
851.223	12943.13
851.546	12955.79
851.869	12764.38
852.192	12879.63
852.515	12734.1
852.838	12730.48
853.161	12754.66
853.483	12691.39
853.806	12555.57
854.129	12633.31
854.451	12511.51
854.774	12399.42
855.096	12354.9
855.419	12407.1
855.741	12342.25
856.063	12286.2
856.385	12223.15
856.708	12175.92
857.03	12174.11
857.352	12217.96
857.674	12090.5
857.996	12133.66
858.318	12088.02
858.64	12001.92
858.961	12015.02
859.283	11898.42
859.605	11864.52
859.926	11865.2
860.248	11870.39
860.57	11784.07
860.891	11828.14
861.212	11719.89
861.534	11762.6
861.855	11780
862.176	11753.56
862.498	11728.25
862.819	11718.99
863.14	11620.23
863.461	11565.09
863.782	11578.2
864.103	11551.98
864.424	11538.65
864.745	11524.41
865.065	11410.75
865.386	11453.23
865.707	11415.49
866.027	11479.9
866.348	11397.19
866.668	11361.71
866.989	11289.17
867.309	11255.04
867.63	11320.13
867.95	11259.56
868.27	11182.28
868.59	11236.74
868.91	11204.65
869.23	11232.67
869.55	11152.45
869.87	11204.42
870.19	11124.88
870.51	11144.76
870.83	11157.19
871.15	11077.87
871.469	11163.97
871.789	11117.65
872.109	11154.93
872.428	11072
872.748	11031.32
873.067	11048.49
873.386	11021.83
873.706	11033.58
874.025	10950.42
874.344	10861.16
874.663	10927.37
874.982	10824.09
875.301	10879.46
875.62	10877.88
875.939	10790.2
876.258	10749.97
876.577	10675.4
876.896	10766.69
877.214	10716.98
877.533	10698.67
877.852	10704.32
878.17	10752.46
878.489	10692.57
878.807	10718.33
879.125	10619.81
879.444	10616.19
879.762	10651.67
880.08	10696.19
880.398	10538.68
880.716	10543.65
881.034	10583.87
881.352	10527.6
881.67	10531.9
881.988	10483.31
882.306	10542.97
882.624	10403.31
882.941	10370.55
883.259	10359.47
883.577	10339.36
883.894	10291.45
884.212	10302.75
884.529	10407.83
884.846	10261.62
885.164	10328.74
885.481	10259.14
885.798	10220.95
886.115	10099.14
886.432	10162.19
886.75	10087.84
887.067	10142.3
887.383	9994.29
887.7	10026.15
888.017	10004.68
888.334	10044.91
888.651	9965.59
888.967	9996.09
889.284	9945.25
889.6	9877.23
889.917	9874.06
890.233	9921.29
890.55	9792.71
890.866	9867.51
891.182	9756.1
891.498	9729.43
891.815	9696.21
892.131	9677.91
892.447	9666.38
892.763	9564.24
893.079	9599.49
893.395	9522.43
893.71	9544.13
894.026	9463.23
894.342	9470.01
894.657	9465.03
894.973	9451.93
895.289	9412.83
895.604	9389.78
895.92	9284.47
896.235	9268.88
896.55	9253.97
896.865	9230.24
897.181	9160.63
897.496	9163.8
897.811	9144.14
898.126	9158.6
898.441	9126.74
898.756	9044.03
899.071	8984.37
899.386	9007.19
899.7	8958.61
900.015	8908.66
900.33	8827.31
900.644	8816.92
900.959	8835.9
901.273	8806.29
901.588	8812.62
901.902	8733.08
902.216	8707.99
902.531	8675
902.845	8673.19
903.159	8612.63
903.473	8601.78
903.787	8583.47
904.101	8495.12
904.415	8468
904.729	8427.32
905.042	8380.32
905.356	8315.46
905.67	8361.79
905.984	8400.65
906.297	8274.1
906.611	8244.95
906.924	8263.71
907.237	8257.16
907.551	8156.59
907.864	8131.51
908.177	8098.74
908.491	8099.19
908.804	8047.22
909.117	8013.77
909.43	7990.72
909.743	7942.81
910.056	7961.12
910.368	7898.75
910.681	7846.09
910.994	7821.01
911.307	7769.94
911.619	7761.12
911.932	7766.77
912.244	7639.54
912.557	7635.25
912.869	7560.68
913.181	7552.77
913.494	7584.86
913.806	7506.44
914.118	7489.94
914.43	7417.63
914.742	7455.59
915.054	7372.43
915.366	7327.91
915.678	7296.96
915.99	7312.1
916.302	7270.52
916.613	7248.37
916.925	7221.02
917.236	7207.92
917.548	7153.91
917.859	7150.29
918.171	7134.47
918.482	7128.6
918.794	7054.48
919.105	7069.16
919.416	6932.67
919.727	6967.7
920.038	6969.51
920.349	6866.23
920.66	6852.9
920.971	6844.31
921.282	6837.53
921.593	6750.53
921.903	6757.99
922.214	6667.37
922.525	6706.46
922.835	6664.66
923.146	6635.05
923.456	6591.44
923.767	6564.32
924.077	6560.25
924.387	6502.63
924.697	6506.92
925.008	6488.39
925.318	6466.47
925.628	6487.26
925.938	6373.59
926.248	6375.4
926.558	6271.67
926.867	6251.56
927.177	6244.1
927.487	6237.32
927.796	6212.46
928.106	6237.1
928.416	6170.2
928.725	6156.42
929.034	6114.16
929.344	6116.87
929.653	6056.76
929.962	6037.78
930.271	6003.88
930.581	5991
930.89	5987.16
931.199	5921.17
931.508	5987.38
931.817	5939.02
932.125	5886.6
932.434	5878.24
932.743	5784.45
933.051	5798.69
933.36	5719.82
933.669	5749.2
933.977	5714.17
934.286	5707.17
934.594	5640.05
934.902	5599.82
935.21	5615.64
935.519	5630.33
935.827	5565.25
936.135	5514.63
936.443	5468.75
936.751	5447.74
937.059	5443.67
937.367	5422.65
937.674	5432.82
937.982	5417.46
938.29	5412.48
938.597	5387.4
938.905	5344.92
939.213	5284.8
939.52	5286.84
939.827	5253.17
940.135	5238.25
940.442	5254.3
940.749	5224.02
941.056	5281.87
941.363	5186.73
941.67	5133.17
941.977	5133.85
942.284	5094.98
942.591	5120.29
942.898	5038.94
943.205	5071.48
943.511	4987.19
943.818	5038.26
944.125	4950.12
944.431	4943.8
944.738	4949.22
945.044	4877.13
945.35	4861.31
945.657	4861.31
945.963	4836.91
946.269	4824.7
946.575	4812.73
946.881	4791.03
947.187	4768.89
947.493	4748.77
947.799	4734.76
948.105	4718.04
948.41	4654.54
948.716	4689.57
949.022	4649.12
949.327	4646.18
949.633	4602.11
949.938	4572.73
950.244	4572.51
950.549	4522.79
950.854	4502.9
951.16	4505.39
951.465	4471.49
951.77	4465.84
952.075	4398.5
952.38	4387.65
952.685	4383.36
952.99	4381.1
953.294	4335.68
953.599	4336.13
953.904	4331.16
954.209	4329.8
954.513	4285.96
954.818	4224.04
955.122	4243.02
955.426	4255.45
955.731	4240.31
956.035	4220.43
956.339	4146.3
956.643	4186.3
956.948	4108.11
957.252	4148.56
957.556	4102.91
957.86	4064.95
958.163	4066.76
958.467	4024.95
958.771	4017.49
959.075	3999.87
959.378	3978.62
959.682	4011.17
959.985	3944.95
960.289	3997.61
960.592	3948.34
960.896	3917.83
961.199	3878.97
961.502	3906.54
961.805	3859.98
962.108	3856.14
962.411	3863.6
962.714	3822.02
963.017	3777.95
963.32	3796.48
963.623	3784.73
963.926	3748.8
964.228	3753.09
964.531	3702.93
964.833	3735.24
965.136	3678.07
965.438	3669.25
965.741	3640.33
966.043	3614.79
966.345	3623.61
966.648	3605.3
966.95	3572.53
967.252	3571.18
967.554	3599.65
967.856	3559.65
968.158	3506.32
968.46	3539.54
968.761	3485.53
969.063	3450.5
969.365	3462.25
969.666	3434.68
969.968	3428.58
970.269	3406.44
970.571	3430.84
970.872	3368.7
971.174	3383.61
971.475	3350.62
971.776	3294.12
972.077	3300.68
972.378	3323.95
972.679	3309.94
972.98	3293.22
973.281	3280.79
973.582	3256.38
973.883	3274.24
974.183	3207.12
974.484	3184.07
974.785	3235.59
975.085	3234.46
975.386	3201.92
975.686	3156.5
975.986	3090.74
976.287	3120.34
976.587	3122.15
976.887	3114.92
977.187	3084.18
977.487	3118.99
977.787	3051.19
978.087	3048.93
978.387	3039.67
978.687	3043.51
978.987	3013.9
979.286	2998.99
979.586	3004.19
979.885	2943.17
980.185	2976.16
980.484	2946.56
980.784	2956.96
981.083	2916.28
981.382	2912.89
981.682	2912.89
981.981	2928.71
982.28	2872.89
982.579	2829.5
982.878	2872.66
983.177	2810.07
983.475	2815.72
983.774	2818.2
984.073	2754.02
984.372	2762.61
984.67	2780.69
984.969	2760.58
985.267	2735.95
985.566	2751.99
985.864	2697.53
986.162	2697.98
986.461	2695.95
986.759	2700.47
987.057	2618.21
987.355	2686.45
987.653	2641.26
987.951	2619.11
988.249	2604.65
988.547	2582.95
988.844	2591.09
989.142	2572.56
989.44	2562.84
989.737	2561.94
990.035	2571.2
990.332	2529.62
990.63	2532.56
990.927	2472.68
991.224	2492.79
991.521	2491.21
991.819	2483.75
992.116	2480.36
992.413	2471.77
992.71	2435.39
993.006	2425.9
993.303	2430.64
993.6	2407.14
993.897	2396.52
994.193	2383.41
994.49	2388.84
994.787	2367.14
995.083	2346.8
995.379	2320.59
995.676	2322.85
995.972	2321.72
996.268	2299.57
996.565	2312.45
996.861	2283.3
997.157	2291.66
997.453	2245.11
997.749	2248.05
998.044	2217.31
998.34	2228.16
998.636	2221.83
998.932	2221.16
999.227	2202.17
999.523	2200.14
999.818	2143.87
1000.114	2162.63
1000.409	2169.18
1000.704	2151.33
1001	2148.16
1001.295	2130.76
1001.59	2115.4
1001.885	2094.61
1002.18	2067.49
1002.475	2093.02
1002.77	2055.96
1003.065	2040.82
1003.359	2033.59
1003.654	2025.68
1003.949	2011.9
1004.243	2035.85
1004.538	1986.81
1004.832	1982.74
1005.127	1959.47
1005.421	1980.48
1005.715	1962.41
1006.009	1950.43
1006.304	1926.47
1006.598	1933.48
1006.892	1900.03
1007.186	1859.36
1007.48	1897.55
1007.773	1871.33
1008.067	1898.23
1008.361	1870.21
1008.655	1826.59
1008.948	1867.95
1009.242	1829.08
1009.535	1835.18
1009.829	1815.07
1010.122	1769.19
1010.415	1761.96
1010.708	1763.77
1011.001	1736.2
1011.295	1776.2
1011.588	1733.94
1011.881	1719.02
1012.173	1724.45
1012.466	1725.8
1012.759	1699.81
1013.052	1692.36
1013.344	1683.54
1013.637	1675.86
1013.93	1651.45
1014.222	1659.59
1014.514	1669.31
1014.807	1646.48
1015.099	1629.53
1015.391	1639.02
1015.683	1649.87
1015.976	1586.6
1016.268	1587.95
1016.56	1572.36
1016.851	1577.56
1017.143	1539.82
1017.435	1544.11
1017.727	1542.98
1018.018	1533.26
1018.31	1522.42
1018.602	1513.6
1018.893	1493.94
1019.185	1505.02
1019.476	1502.08
1019.767	1479.71
1020.058	1485.36
1020.35	1473.38
1020.641	1432.93
1020.932	1428.63
1021.223	1423.44
1021.514	1437.67
1021.804	1409.88
1022.095	1372.59
1022.386	1386.83
1022.677	1377.34
1022.967	1386.6
1023.258	1374.17
1023.548	1354.06
1023.839	1347.73
1024.129	1317.9
1024.419	1337.34
1024.709	1335.3
1025	1322.65
1025.29	1297.34
1025.58	1314.74
1025.87	1283.55
1026.16	1281.75
1026.449	1285.81
1026.739	1279.94
1027.029	1275.87
1027.319	1249.2
1027.608	1242.88
1027.898	1256.44
1028.187	1227.06
1028.477	1230.67
1028.766	1206.72
1029.055	1197.45
1029.344	1202.88
1029.634	1170.79
1029.923	1177.79
1030.212	1173.05
1030.501	1180.96
1030.79	1166.72
1031.078	1132.6
1031.367	1144.35
1031.656	1141.64
1031.945	1107.74
1032.233	1122.65
1032.522	1120.39
1032.81	1088.98
1033.099	1109.32
1033.387	1080.85
1033.675	1067.29
1033.963	1056.44
1034.251	1093.5
1034.54	1045.14
1034.828	1046.05
1035.116	1023.45
1035.403	1032.26
1035.691	1041.75
1035.979	1065.25
1036.267	1018.7
1036.554	1038.36
1036.842	1001.08
1037.129	997.46
1037.417	992.94
1037.704	1010.34
1037.992	984.35
1038.279	993.17
1038.566	966.05
1038.853	966.05
1039.14	966.05
