Data from hue_40_FLMS001491_78.txt Node
Date: Mon Feb 06 15:08:25 GMT 2017
User: dcchb
Spectrometer: FLMS00149
Trigger mode: 0
Integration Time (sec): 2.000000E-2
Scans to average: 10
Electric dark correction enabled: true
Nonlinearity correction enabled: false
Boxcar width: 0
XAxis mode: Wavelengths
Number of Pixels in Spectrum: 2048
>>>>>Begin Spectral Data<<<<<
341.393	-11.88
341.776	-11.88
342.16	-11.88
342.543	-50.75
342.927	-75.15
343.31	-78.09
343.693	-66.57
344.077	-67.02
344.46	-60.92
344.843	-55.27
345.226	-48.49
345.61	-5.1
345.993	-25.44
346.376	-16.17
346.759	18.18
347.142	19.08
347.525	50.94
347.908	57.72
348.291	74.22
348.674	97.5
349.057	105.41
349.44	104.05
349.823	126.88
350.206	172.52
350.588	199.87
350.971	213.65
351.354	231.28
351.737	229.7
352.119	233.99
352.502	271.05
352.884	276.93
353.267	299.53
353.65	299.98
354.032	311.05
354.414	308.11
354.797	326.42
355.179	322.35
355.562	328.68
355.944	316.02
356.326	335.91
356.709	338.4
357.091	346.53
357.473	352.63
357.855	341.11
358.238	358.73
358.62	333.2
359.002	338.4
359.384	345.17
359.766	370.03
360.148	335.23
360.53	358.28
360.912	319.86
361.294	341.78
361.676	328.45
362.057	330.26
362.439	331.84
362.821	338.85
363.203	322.8
363.584	320.32
363.966	307.89
364.348	348.34
364.729	313.99
365.111	331.39
365.493	313.76
365.874	317.15
366.256	334.33
366.637	323.93
367.019	327.1
367.4	334.78
367.781	322.12
368.163	313.76
368.544	315.8
368.925	342.01
369.306	310.37
369.688	329.13
370.069	323.93
370.45	330.71
370.831	302.69
371.212	329.36
371.593	322.35
371.974	322.35
372.355	330.94
372.736	318.73
373.117	311.28
373.498	318.96
373.879	324.16
374.26	324.84
374.641	308.34
375.021	305.63
375.402	342.91
375.783	322.58
376.163	320.77
376.544	327.77
376.925	329.36
377.305	325.29
377.686	339.07
378.066	311.5
378.447	328.9
378.827	325.29
379.208	343.59
379.588	337.04
379.968	330.49
380.349	325.97
380.729	340.43
381.109	356.47
381.489	340.43
381.87	349.47
382.25	333.88
382.63	346.08
383.01	342.69
383.39	359.64
383.77	343.37
384.15	341.78
384.53	334.1
384.91	318.28
385.29	346.53
385.67	356.93
386.049	352.41
386.429	340.88
386.809	348.79
387.189	377.04
387.568	343.37
387.948	355.57
388.328	361.67
388.707	352.86
389.087	363.48
389.466	352.63
389.846	365.06
390.225	369.58
390.605	365.51
390.984	391.5
391.363	362.35
391.743	369.58
392.122	376.81
392.501	361.9
392.881	378.85
393.26	372.52
393.639	408.22
394.018	363.93
394.397	377.04
394.776	391.5
395.155	374.1
395.534	383.82
395.913	391.5
396.292	378.62
396.671	353.76
397.05	375.46
397.429	372.52
397.808	368.68
398.186	404.38
398.565	384.72
398.944	396.47
399.323	394.66
399.701	375.46
400.08	374.55
400.458	384.27
400.837	376.36
401.215	386.53
401.594	390.15
401.972	410.94
402.351	388.56
402.729	398.51
403.107	426.98
403.486	405.51
403.864	389.92
404.242	403.03
404.62	389.47
404.999	396.92
405.377	408.68
405.755	416.36
406.133	411.61
406.511	413.42
406.889	422.91
407.267	423.59
407.645	423.14
408.023	421.78
408.401	413.2
408.779	441.44
409.156	446.41
409.534	411.84
409.912	450.03
410.29	428.56
410.667	448
411.045	436.7
411.422	452.52
411.8	441.22
412.178	455.45
412.555	465.4
412.933	467.43
413.31	466.08
413.687	429.92
414.065	480.99
414.442	473.76
414.819	465.62
415.197	455.68
415.574	484.61
415.951	459.75
416.328	480.54
416.705	488
417.082	484.61
417.46	488.22
417.837	483.02
418.214	502.91
418.591	513.08
418.967	493.42
419.344	506.3
419.721	513.31
420.098	484.38
420.475	490.48
420.852	501.78
421.228	500.65
421.605	511.27
421.982	527.54
422.358	520.54
422.735	507.43
423.111	526.41
423.488	515.11
423.864	511.5
424.241	528.22
424.617	549.91
424.994	547.88
425.37	548.11
425.746	559.86
426.123	544.49
426.499	560.54
426.875	550.37
427.251	582.91
427.627	565.96
428.003	596.69
428.379	562.57
428.756	588.33
429.132	559.18
429.507	586.07
429.883	590.14
430.259	606.41
430.635	598.73
431.011	616.58
431.387	614.32
431.763	599.18
432.138	581.55
432.514	615.45
432.89	629.46
433.265	624.72
433.641	615
434.016	619.52
434.392	650.03
434.767	655.45
435.143	635.34
435.518	658.84
435.894	638.95
436.269	623.36
436.644	683.24
437.02	690.7
437.395	666.97
437.77	678.27
438.145	691.83
438.52	676.69
438.895	725.73
439.271	691.15
439.646	711.49
440.021	746.52
440.395	712.85
440.77	728.67
441.145	724.37
441.52	721.89
441.895	713.98
442.27	745.62
442.645	726.63
443.019	740.87
443.394	718.95
443.769	753.98
444.143	717.37
444.518	767.08
444.892	760.98
445.267	742.23
445.641	738.61
446.016	760.08
446.39	767.08
446.764	793.75
447.139	765.05
447.513	800.98
447.887	786.74
448.262	808.44
448.636	815.67
449.01	801.66
449.384	810.25
449.758	801.21
450.132	825.39
450.506	811.6
450.88	825.39
451.254	838.95
451.628	829.68
452.002	823.13
452.376	872.62
452.75	854.31
453.123	854.31
453.497	837.82
453.871	894.31
454.244	864.93
454.618	890.24
454.992	890.7
455.365	908.32
455.739	903.8
456.112	913.07
456.486	938.61
456.859	919.85
457.232	946.29
457.606	950.36
457.979	963.46
458.352	987.64
458.725	970.69
459.099	988.1
459.472	1020.41
459.845	1033.52
460.218	1043.46
460.591	1025.61
460.964	1020.19
461.337	1057.47
461.71	1055.66
462.083	1080.3
462.456	1076.68
462.829	1117.58
463.201	1118.94
463.574	1115.78
463.947	1126.62
464.32	1145.38
464.692	1163.68
465.065	1211.37
465.438	1190.58
465.81	1191.71
466.183	1186.06
466.555	1253.4
466.928	1243.23
467.3	1266.05
467.672	1226.73
468.045	1311.48
468.417	1308.09
468.789	1328.88
469.161	1346.96
469.534	1378.82
469.906	1365.94
470.278	1424.92
470.65	1403.9
471.022	1463.34
471.394	1492.94
471.766	1504.69
472.138	1529.78
472.51	1560.74
472.882	1570.91
473.253	1652.94
473.625	1647.74
473.997	1692.48
474.369	1710.11
474.74	1737.68
475.112	1798.24
475.484	1796.89
475.855	1838.47
476.227	1892.25
476.598	1931.12
476.97	1968.63
477.341	1988.3
477.713	2064.68
478.084	2111.46
478.455	2189.87
478.827	2180.83
479.198	2278.46
479.569	2297.44
479.94	2367.72
480.311	2399.36
480.682	2479.36
481.053	2584.89
481.424	2628.73
481.795	2659.46
482.166	2775.85
482.537	2806.8
482.908	2875.28
483.279	2951.66
483.65	3060.13
484.021	3142.39
484.391	3166.8
484.762	3263.06
485.133	3324.98
485.503	3400.69
485.874	3551.64
486.244	3543.73
486.615	3677.06
486.985	3753.9
487.356	3807.91
487.726	3944.18
488.097	4056.49
488.467	4106.21
488.837	4253.55
489.207	4313.66
489.578	4425.75
489.948	4500.32
490.318	4585.29
490.688	4689.92
491.058	4757.04
491.428	4913.64
491.798	5025.05
492.168	5171.26
492.538	5180.75
492.908	5306.4
493.278	5372.39
493.648	5477.47
494.017	5586.84
494.387	5657.58
494.757	5787.07
495.126	5840.85
495.496	5949.77
495.866	6016.44
496.235	6127.85
496.605	6260.95
496.974	6359.71
497.344	6425.01
497.713	6514.05
498.082	6549.76
498.452	6668.17
498.821	6701.84
499.19	6875.17
499.559	6916.98
499.928	7036.75
500.298	7112.68
500.667	7159.46
501.036	7211.21
501.405	7350.64
501.774	7402.84
502.143	7460.69
502.512	7575.27
502.88	7655.26
503.249	7727.58
503.618	7799.67
503.987	7872.89
504.356	7922.83
504.724	8010.74
505.093	8118.3
505.462	8111.98
505.83	8209.37
506.199	8320.78
506.567	8464.74
506.936	8451.4
507.304	8587.22
507.672	8665.63
508.041	8727.78
508.409	8768.68
508.777	8859.98
509.145	8878.28
509.514	8945.85
509.882	9042.57
510.25	9043.7
510.618	9217.26
510.986	9180.87
511.354	9361.66
511.722	9396.46
512.09	9506.29
512.458	9481.66
512.826	9647.53
513.193	9656.57
513.561	9661.77
513.929	9808.65
514.297	9859.5
514.664	9934.75
515.032	9997.12
515.4	10030.12
515.767	10113.73
516.135	10150.79
516.502	10120.51
516.869	10385.59
517.237	10378.81
517.604	10353.5
517.972	10497.68
518.339	10476.43
518.706	10531.35
519.073	10529.31
519.44	10718.01
519.808	10846.82
520.175	10826.71
520.542	11005.46
520.909	10949.87
521.276	11055.18
521.643	11142.86
522.009	11188.05
522.376	11247.03
522.743	11365
523.11	11374.49
523.477	11534.71
523.843	11597.31
524.21	11722.95
524.577	11751.43
524.943	11782.84
525.31	11901.25
525.676	12003.4
526.043	12107.13
526.409	12163.62
526.776	12264.64
527.142	12298.76
527.508	12377.17
527.874	12475.93
528.241	12526.55
528.607	12585.3
528.973	12690.16
529.339	12759.09
529.705	12858.74
530.071	12930.61
530.437	12921.34
530.803	13059.19
531.169	13106.19
531.535	13040.66
531.901	13185.97
532.267	13224.38
532.632	13330.82
532.998	13325.85
533.364	13456.02
533.73	13401.33
534.095	13574.43
534.461	13592.06
534.826	13707.08
535.192	13780.3
535.557	13825.72
535.923	13794.99
536.288	13874.76
536.653	13987.98
537.019	14001.31
537.384	13959.05
537.749	14173.06
538.114	14155.88
538.479	14230.46
538.845	14260.97
539.21	14303.45
539.575	14387.29
539.94	14414.64
540.305	14497.8
540.67	14540.51
541.034	14554.29
541.399	14571.47
541.764	14683.33
542.129	14724.91
542.494	14725.36
542.858	14886.04
543.223	14875.64
543.587	14937.33
543.952	14975.98
544.316	15033.6
544.681	15042.64
545.045	15129.64
545.41	15254.39
545.774	15343.42
546.138	15319.24
546.503	15346.59
546.867	15401.73
547.231	15525.11
547.595	15613.93
547.959	15600.82
548.324	15627.94
548.688	15679.91
549.052	15772.57
549.416	15743.64
549.779	15786.58
550.143	15905.67
550.507	16085.1
550.871	15994.71
551.235	16007.36
551.599	16203.29
551.962	16200.12
552.326	16286.68
552.689	16307.69
553.053	16235.38
553.417	16330.52
553.78	16557.86
554.143	16496.39
554.507	16590.62
554.87	16625.42
555.234	16766.21
555.597	16668.14
555.96	16728.7
556.323	16783.39
556.686	16833.33
557.05	17035.36
557.413	17024.06
557.776	17022.7
558.139	17144.05
558.502	17229.93
558.865	17287.33
559.228	17337.72
559.59	17433.31
559.953	17483.93
560.316	17660.43
560.679	17643.25
561.041	17650.93
561.404	17831.27
561.767	17835.11
562.129	17770.03
562.492	18056.12
562.854	17993.3
563.217	18069
563.579	18139.73
563.941	18263.57
564.304	18293.63
564.666	18397.36
565.028	18406.39
565.39	18510.35
565.753	18517.35
566.115	18652.72
566.477	18710.57
566.839	18767.52
567.201	18894.97
567.563	18825.14
567.925	18924.57
568.287	19033.5
568.648	19023.33
569.01	19225.36
569.372	19280.27
569.734	19260.61
570.095	19428.29
570.457	19409.76
570.819	19559.13
571.18	19609.53
571.542	19730.43
571.903	19768.84
572.265	19892.23
572.626	19912.57
572.987	20035.05
573.349	20081.38
573.71	20197.99
574.071	20263.75
574.432	20271.88
574.794	20449.73
575.155	20607.69
575.516	20510.29
575.877	20676.62
576.238	20740.8
576.599	20908.48
576.96	21057.17
577.32	21016.27
577.681	21201.12
578.042	21300.1
578.403	21359.09
578.763	21496.93
579.124	21596.14
579.485	21855.34
579.845	21929.24
580.206	21952.97
580.566	22111.83
580.927	22292.17
581.287	22474.08
581.648	22527.42
582.008	22699.39
582.368	22791.36
582.728	22972.83
583.089	23147.29
583.449	23235.65
583.809	23432.03
584.169	23582.3
584.529	23611.91
584.889	24037.66
585.249	23995.85
585.609	24140.48
585.969	24459.12
586.329	24503.86
586.688	24666.57
587.048	24942.04
587.408	25033.79
587.768	25196.27
588.127	25300.68
588.487	25559.2
588.846	25892.98
589.206	25772.3
589.565	26181.56
589.925	26261.78
590.284	26452.96
590.643	26653.86
591.003	26838.04
591.362	27075.32
591.721	27250.68
592.08	27487.74
592.44	27615.64
592.799	27863.55
593.158	27821.06
593.517	28048.63
593.876	28341.95
594.235	28497.2
594.593	28593.92
594.952	28987.36
595.311	29087.24
595.67	29301.25
596.029	29428.48
596.387	29784.17
596.746	29965.41
597.104	29874.57
597.463	30129.25
597.822	30338.51
598.18	30422.58
598.538	30671.16
598.897	30830.25
599.255	30617.37
599.613	31355.66
599.972	31376
600.33	31477.69
600.688	31501.87
601.046	31822.09
601.404	32038.8
601.762	32053.04
602.12	32391.34
602.478	32428.62
602.836	32609.18
603.194	32466.14
603.552	32896.18
603.91	32866.81
604.268	33114.93
604.625	33149.96
604.983	33453.46
605.341	33382.72
605.698	33709.95
606.056	33701.36
606.413	33866.1
606.771	34073.1
607.128	34128.69
607.485	34137.96
607.843	34308.8
608.2	34502.69
608.557	34686.64
608.914	34651.17
609.272	34936.13
609.629	35073.53
609.986	35342.45
610.343	35084.37
610.7	35523.68
611.057	35555.32
611.414	35467.64
611.771	35695.66
612.127	35744.7
612.484	35874.86
612.841	36128.64
613.198	36101.3
613.554	36139.04
613.911	36341.74
614.267	36451.57
614.624	36566.82
614.98	36686.59
615.337	36843.42
615.693	36860.15
616.05	36771.56
616.406	37136.52
616.762	37089.75
617.118	37067.82
617.475	37214.26
617.831	37378.1
618.187	37322.28
618.543	37464.2
618.899	37630.07
619.255	37607.92
619.611	37815.15
619.967	37912.1
620.323	37946.45
620.678	37952.77
621.034	37819.44
621.39	37899.67
621.746	37867.58
622.101	38491.52
622.457	38125.65
622.812	38187.8
623.168	38328.81
623.523	38524.51
623.879	38528.13
624.234	38271.63
624.589	38491.06
624.945	38568.12
625.3	38622.13
625.655	38738.74
626.01	38711.62
626.365	38827.78
626.72	38823.94
627.075	38847.21
627.43	38812.64
627.785	38752.75
628.14	38804.73
628.495	38894.9
628.85	38931.73
629.205	38776.48
629.559	38892.18
629.914	38819.64
630.269	38861.68
630.623	38771.06
630.978	38682.7
631.332	38958.17
631.687	38985.97
632.041	38817.16
632.396	38890.6
632.75	38804.95
633.104	38888.12
633.459	38716.59
633.813	38791.4
634.167	38691.74
634.521	38871.85
634.875	38760.89
635.229	38691.06
635.583	38569.93
635.937	38750.04
636.291	38651.06
636.645	38804.28
636.999	38735.35
637.352	38737.39
637.706	38526.32
638.06	38815.8
638.413	38630.72
638.767	38561.12
639.121	38620.55
639.474	38389.6
639.828	38310.05
640.181	38494.45
640.534	38425.76
640.888	38448.58
641.241	38292.65
641.594	38297.62
641.947	38407.22
642.301	38369.71
642.654	38417.62
643.007	38345.76
643.36	38265.99
643.713	38433.66
644.066	38419.43
644.419	38158.19
644.771	37962.94
645.124	37662.16
645.477	37568.6
645.83	37272.57
646.182	37201.61
646.535	37024.89
646.888	37174.94
647.24	36939.24
647.593	37209.06
647.945	37117.54
648.298	36949.41
648.65	36922.52
649.002	36786.02
649.355	36991.22
649.707	36833.03
650.059	37066.24
650.411	37349.17
650.763	37521.6
651.115	37717.98
651.467	37751.42
651.819	37832.55
652.171	37637.53
652.523	37670.07
652.875	37486.57
653.227	37510.53
653.578	37615.83
653.93	37549.17
654.282	37525.67
654.633	37466.01
654.985	37526.34
655.337	37534.03
655.688	37407.25
656.039	37559.79
656.391	37259.01
656.742	37250.64
657.094	37326.12
657.445	37502.62
657.796	37452.9
658.147	37332.68
658.498	37386.23
658.849	37403.18
659.2	37310.08
659.551	37205.67
659.902	37488.15
660.253	37302.39
660.604	37316.18
660.955	37150.08
661.306	37343.52
661.656	37295.84
662.007	37127.26
662.358	37178.78
662.708	37073.93
663.059	37137.2
663.409	37009.07
663.76	37240.93
664.11	37149.4
664.461	37052.23
664.811	37056.98
665.161	37068.73
665.511	37029.18
665.862	36960.03
666.212	37197.31
666.562	37233.24
666.912	36990.99
667.262	36981.73
667.612	37023.08
667.962	37160.93
668.312	37066.69
668.662	37274.37
669.011	36998.22
669.361	37037.09
669.711	37096.98
670.06	36845.23
670.41	36918.22
670.76	36887.94
671.109	37077.99
671.459	36923.42
671.808	36868.06
672.157	36994.83
672.507	36689.98
672.856	36830.77
673.205	36816.08
673.554	37034.15
673.904	36797.78
674.253	37031.44
674.602	36816.31
674.951	36198.7
675.3	36070.79
675.649	36849.07
675.998	36599.59
676.346	36619.47
676.695	36837.77
677.044	36586.71
677.393	36651.34
677.741	36569.98
678.09	36490.66
678.438	36383.32
678.787	36489.76
679.135	36604.33
679.484	36329.31
679.832	36391.23
680.181	36268.52
680.529	36261.29
680.877	36199.83
681.225	36155.08
681.573	36398.92
681.922	36102.65
682.27	36062.2
682.618	36043.44
682.966	35992.82
683.314	36068.3
683.661	35930.68
684.009	35815.88
684.357	35717.8
684.705	35546.28
685.053	35699.5
685.4	35594.64
685.748	35463.12
686.095	35541.99
686.443	35360.07
686.79	35293.18
687.138	35425.61
687.485	35420.41
687.832	35292.5
688.18	35250.25
688.527	34962.8
688.874	35048.44
689.221	35004.38
689.568	34885.74
689.915	34733.65
690.262	34642.35
690.609	34764.16
690.956	34519.42
691.303	34583.6
691.65	34431.28
691.997	34381.12
692.344	34076.49
692.69	34022.26
693.037	34068.81
693.383	33827.23
693.73	33983.39
694.077	33791.98
694.423	33855.71
694.769	33738.42
695.116	33593.34
695.462	33638.08
695.808	33419.11
696.155	33481.25
696.501	33261.82
696.847	33414.14
697.193	32964.2
697.539	33151.32
697.885	32829.74
698.231	32915.62
698.577	32879.01
698.923	32822.96
699.269	32624.33
699.614	32626.36
699.96	32543.65
700.306	32455.97
700.651	32270.21
700.997	32191.79
701.342	32129.65
701.688	32097.33
702.033	32003.1
702.379	32001.74
702.724	31832.48
703.069	32013.72
703.415	31556.78
703.76	31653.28
704.105	31764.69
704.45	31585.94
704.795	31383.45
705.14	31229.11
705.485	31282.21
705.83	31183.46
706.175	31286.06
706.52	31021.88
706.865	30915.9
707.209	30855.56
707.554	30858.72
707.899	30910.02
708.243	30702.34
708.588	30783.02
708.932	30466.87
709.277	30441.33
709.621	30407.43
709.966	30319.08
710.31	30281.11
710.654	30143.94
710.998	30275.91
711.342	29909.82
711.687	30103.49
712.031	29816.26
712.375	29795.25
712.719	29786.66
713.063	29779.88
713.407	29870.05
713.75	29765.87
714.094	29645.2
714.438	29492.43
714.782	29643.16
715.125	29371.76
715.469	29415.6
715.812	29339.21
716.156	29202.49
716.499	29241.36
716.843	29183.51
717.186	29136.73
717.53	29144.42
717.873	29204.3
718.216	29115.49
718.559	28788.95
718.902	28833.69
719.246	28888.38
719.589	28739.46
719.932	28597.31
720.275	28549.63
720.617	28605.45
720.96	28459.01
721.303	28486.36
721.646	28550.08
721.989	28215.85
722.331	28332.91
722.674	28345.79
723.016	28359.81
723.359	28327.04
723.701	28331.56
724.044	28083.88
724.386	27929.76
724.729	28012.02
725.071	27910.33
725.413	27946.71
725.755	27903.32
726.097	27796.88
726.439	27704.91
726.782	27684.79
727.124	27749.88
727.465	27656.55
727.807	27584.91
728.149	27522.54
728.491	27577
728.833	27609.54
729.175	27450.68
729.516	27331.58
729.858	27315.54
730.199	27379.49
730.541	27175.43
730.882	27213.17
731.224	27383.33
731.565	27098.6
731.906	27151.25
732.248	27143.11
732.589	27118.71
732.93	26923.68
733.271	26950.35
733.612	26882.33
733.953	27002.1
734.294	26909.22
734.635	26731.83
734.976	26906.28
735.317	26698.83
735.658	26617.48
735.999	26633.3
736.339	26680.53
736.68	26657.25
737.021	26463.36
737.361	26491.61
737.702	26526.41
738.042	26464.04
738.383	26400.31
738.723	26414.77
739.063	26231.95
739.404	26374.32
739.744	26284.15
740.084	26225.4
740.424	26261.56
740.764	26225.85
741.104	26160.99
741.444	26155.8
741.784	26006.87
742.124	26056.59
742.464	26032.18
742.804	25965.97
743.143	25893.43
743.483	25874.45
743.823	25716.03
744.162	25689.59
744.502	25838.74
744.841	25655.7
745.181	25810.04
745.52	25558.75
745.86	25601.91
746.199	25538.64
746.538	25527.56
746.877	25742.7
747.216	25540.44
747.556	25544.29
747.895	25471.97
748.234	25505.64
748.573	25343.16
748.911	25352.43
749.25	25326.89
749.589	25114.69
749.928	25165.54
750.267	25181.81
750.605	25093
750.944	25091.64
751.283	25010.29
751.621	24956.96
751.96	24820.01
752.298	24834.25
752.636	24855.04
752.975	24707.7
753.313	24558.78
753.651	24770.97
753.989	24562.39
754.327	24561.71
754.666	24467.48
755.004	24419.12
755.342	24506.8
755.679	24385.22
756.017	24410.08
756.355	24290.99
756.693	24210.99
757.031	24195.62
757.368	24109.75
757.706	24061.61
758.044	23978.45
758.381	23964.67
758.719	23897.78
759.056	23901.62
759.394	23860.04
759.731	23716.99
760.068	23763.99
760.405	23455.3
760.743	23525.36
761.08	23455.53
761.417	23412.36
761.754	23318.81
762.091	23323.78
762.428	23218.25
762.765	23042.66
763.102	23238.58
763.438	23028.42
763.775	22887.18
764.112	22899.84
764.449	22875.43
764.785	22765.38
765.122	22622.33
765.458	22607.41
765.795	22527.19
766.131	22430.7
766.467	22410.13
766.804	22294.65
767.14	22247.42
767.476	22178.05
767.812	22218.72
768.148	22109.12
768.485	22056.92
768.821	21917.49
769.157	21826.64
769.492	21871.61
769.828	21739.64
770.164	21583.03
770.5	21461.68
770.836	21565.41
771.171	21431.17
771.507	21372.64
771.842	21156.15
772.178	21199.99
772.513	21086.32
772.849	21042.03
773.184	20846.33
773.519	20943.5
773.855	20803.62
774.19	20723.17
774.525	20707.8
774.86	20736.28
775.195	20703.06
775.53	20504.64
775.865	20433.23
776.2	20316.85
776.535	20129.06
776.87	20153.47
777.205	20095.39
777.539	19964.09
777.874	19962.74
778.209	19798.45
778.543	19752.12
778.878	19667.15
779.212	19577.89
779.547	19548.51
779.881	19624.89
780.215	19443.2
780.55	19553.03
780.884	19395.97
781.218	19286.37
781.552	19384.9
781.886	19232.59
782.22	19111.23
782.554	18975.87
782.888	18898.13
783.222	18725.03
783.556	18725.48
783.889	18713.96
784.223	18520.52
784.557	18561.19
784.89	18579.72
785.224	18463.57
785.557	18371.82
785.891	18299.96
786.224	18254.76
786.558	18243.91
786.891	18104.93
787.224	18028.55
787.557	18005.28
787.891	17932.96
788.224	17838.73
788.557	17905.39
788.89	17824.04
789.223	17799.86
789.556	17632.18
789.888	17499.07
790.221	17548.34
790.554	17467.21
790.887	17341.79
791.219	17364.16
791.552	17234.45
791.884	17171.17
792.217	17063.38
792.549	17095.47
792.882	16936.38
793.214	16874.01
793.546	16898.86
793.879	16836.94
794.211	16749.49
794.543	16748.13
794.875	16713.56
795.207	16790.17
795.539	16662.03
795.871	16605.54
796.203	16500.68
796.535	16324.87
796.867	16438.54
797.198	16336.62
797.53	16234.25
797.862	16199.67
798.193	16209.16
798.525	16053.46
798.856	16118.77
799.188	15966.23
799.519	15906.12
799.85	15761.04
800.182	15803.53
800.513	15840.81
800.844	15629.29
801.175	15775.73
801.506	15700.48
801.837	15599.69
802.168	15528.05
802.499	15460.71
802.83	15489.86
803.161	15368.96
803.491	15318.57
803.822	15334.61
804.153	15232.24
804.483	15198.57
804.814	15110.66
805.145	15091.68
805.475	15076.54
805.805	15034.96
806.136	14949.54
806.466	15101.62
806.796	14942.3
807.126	14815.53
807.457	14739.82
807.787	14892.81
808.117	14688.07
808.447	14661.41
808.777	14600.39
809.107	14621.18
809.436	14625.48
809.766	14549.77
810.096	14488.53
810.426	14427.52
810.755	14528.53
811.085	14413.73
811.414	14393.84
811.744	14302.1
812.073	14286.28
812.403	14233.62
812.732	14165.83
813.061	14114.53
813.39	14044.02
813.719	14061.2
814.049	14040.63
814.378	14045.38
814.707	13931.48
815.036	13953.63
815.365	13877.93
815.693	13761.54
816.022	13823.69
816.351	13750.92
816.68	13670.25
817.008	13716.57
817.337	13564.94
817.665	13600.87
817.994	13610.36
818.322	13510.7
818.651	13480.42
818.979	13456.69
819.307	13571.95
819.636	13460.99
819.964	13378.73
820.292	13409.24
820.62	13345.74
820.948	13302.35
821.276	13363.82
821.604	13241.11
821.932	13382.12
822.259	13333.99
822.587	13359.75
822.915	13163.37
823.243	13327.21
823.57	13275
823.898	13284.04
824.225	13177.38
824.553	13232.75
824.88	13268
825.207	13329.69
825.535	13253.76
825.862	13229.13
826.189	13127.66
826.516	13267.09
826.843	13292.18
827.17	13276.13
827.497	13323.82
827.824	13301.22
828.151	13334.21
828.478	13214.67
828.805	13285.63
829.131	13223.25
829.458	13211.73
829.785	13131.05
830.111	13187.77
830.438	13233.42
830.764	13198.4
831.09	13246.08
831.417	13086.31
831.743	13225.97
832.069	13112.97
832.395	13116.36
832.722	13132.41
833.048	13132.63
833.374	13179.19
833.7	13066.87
834.026	12988.23
834.351	13185.29
834.677	13104.84
835.003	13142.58
835.329	13079.98
835.654	13017.61
835.98	12967.89
836.306	13043.82
836.631	12939.87
836.956	12951.85
837.282	12954.33
837.607	12857.84
837.932	12884.96
838.258	12854.22
838.583	12890.61
838.908	12757.5
839.233	12799.76
839.558	12755.02
839.883	12755.7
840.208	12641.57
840.533	12736.71
840.858	12714.11
841.182	12684.51
841.507	12700.78
841.832	12690.61
842.156	12604.97
842.481	12636.38
842.805	12526.55
843.13	12513.22
843.454	12406.78
843.778	12449.72
844.103	12435.93
844.427	12378.3
844.751	12386.67
845.075	12348.47
845.399	12244.75
845.723	12192.77
846.047	12231.42
846.371	12193.68
846.695	12106.22
847.019	12063.28
847.343	12009.05
847.666	11954.59
847.99	11847.7
848.313	11885.66
848.637	11819.9
848.96	11815.16
849.284	11807.47
849.607	11669.85
849.931	11722.05
850.254	11544.43
850.577	11551.21
850.9	11452.68
851.223	11474.83
851.546	11352.79
851.869	11330.42
852.192	11351.21
852.515	11238.67
852.838	11216.75
853.161	11170.65
853.483	11173.36
853.806	11144.21
854.129	11052.24
854.451	11036.19
854.774	11016.31
855.096	10903.09
855.419	10956.42
855.741	10970.43
856.063	10866.03
856.385	10814.5
856.708	10739.48
857.03	10725.92
857.352	10760.72
857.674	10683.66
857.996	10682.98
858.318	10599.37
858.64	10624.23
858.961	10608.18
859.283	10515.98
859.605	10461.74
859.926	10514.17
860.248	10437.79
860.57	10422.42
860.891	10485.25
861.212	10353.95
861.534	10328.41
861.855	10305.14
862.176	10309.66
862.498	10351.01
862.819	10267.4
863.14	10290.22
863.461	10237.34
863.782	10169.55
864.103	10204.8
864.424	10100.85
864.745	10185.59
865.065	10094.97
865.386	10081.42
865.707	9994.86
866.027	10047.74
866.348	9995.77
866.668	10031.02
866.989	9975.2
867.309	9944.47
867.63	9920.06
867.95	9901.08
868.27	9879.61
868.59	9967.97
868.91	9883.68
869.23	9880.29
869.55	9840.07
869.87	9844.36
870.19	9842.78
870.51	9858.37
870.83	9830.35
871.15	9743.35
871.469	9737.92
871.789	9797.81
872.109	9755.1
872.428	9665.16
872.748	9703.12
873.067	9720.07
873.386	9737.7
873.706	9650.24
874.025	9632.39
874.344	9659.96
874.663	9640.98
874.982	9625.38
875.301	9619.28
875.62	9582.9
875.939	9572.28
876.258	9580.86
876.577	9479.85
876.896	9525.95
877.214	9504.26
877.533	9476.01
877.852	9449.57
878.17	9485.27
878.489	9431.26
878.807	9480.3
879.125	9392.17
879.444	9363.24
879.762	9350.36
880.08	9398.27
880.398	9322.79
880.716	9367.31
881.034	9248.44
881.352	9261.1
881.67	9293.41
881.988	9263.58
882.306	9179.29
882.624	9257.26
882.941	9147.43
883.259	9136.81
883.577	9087.54
883.894	9025.85
884.212	9142.46
884.529	9046.64
884.846	9003.03
885.164	9023.82
885.481	8981.33
885.798	9022.46
886.115	8936.14
886.432	8946.76
886.75	8885.29
887.067	8956.25
887.383	8887.1
887.7	8854.1
888.017	8804.84
888.334	8813.43
888.651	8770.04
888.967	8777.27
889.284	8731.39
889.6	8687.55
889.917	8683.94
890.233	8682.13
890.55	8576.14
890.866	8604.84
891.182	8567.56
891.498	8518.29
891.815	8513.77
892.131	8522.36
892.447	8510.16
892.763	8443.49
893.079	8444.4
893.395	8426.09
893.71	8428.8
894.026	8339.31
894.342	8339.09
894.657	8257.73
894.973	8246.89
895.289	8287.11
895.604	8266.32
895.92	8156.04
896.235	8134.57
896.55	8053.22
896.865	8120.56
897.181	8120.34
897.496	8045.09
897.811	8054.8
898.126	8055.03
898.441	7997.85
898.756	7944.3
899.071	7902.04
899.386	7845.54
899.7	7854.81
900.015	7832.21
900.33	7788.14
900.644	7767.13
900.959	7850.29
901.273	7780.69
901.588	7721.03
901.902	7600.8
902.216	7633.57
902.531	7674.7
902.845	7653
903.159	7559.22
903.473	7507.7
903.787	7474.25
904.101	7475.16
904.415	7466.34
904.729	7409.62
905.042	7381.6
905.356	7360.81
905.67	7316.06
905.984	7296.18
906.297	7344.76
906.611	7269.74
906.924	7256.86
907.237	7237.2
907.551	7161.72
907.864	7154.94
908.177	7124.43
908.491	7170.76
908.804	7068.16
909.117	7080.14
909.43	6974.38
909.743	6984.32
910.056	6968.5
910.368	6895.74
910.681	6876.75
910.994	6899.13
911.307	6860.48
911.619	6847.6
911.932	6820.94
912.244	6779.58
912.557	6739.58
912.869	6720.15
913.181	6671.11
913.494	6694.61
913.806	6656.87
914.118	6585.46
914.43	6516.31
914.742	6516.54
915.054	6516.99
915.366	6525.35
915.678	6513.15
915.99	6420.5
916.302	6458.23
916.613	6399.48
916.925	6392.93
917.236	6335.53
917.548	6336.88
917.859	6298.24
918.171	6280.84
918.482	6232.7
918.794	6219.37
919.105	6166.49
919.416	6152.48
919.727	6127.17
920.038	6131.24
920.349	6071.35
920.66	6042.65
920.971	6068.19
921.282	6048.75
921.593	5981.86
921.903	5933.05
922.214	5912.49
922.525	5900.51
922.835	5898.7
923.146	5792.49
923.456	5841.75
923.767	5779.16
924.077	5815.54
924.387	5715.2
924.697	5740.51
925.008	5733.06
925.318	5665.03
925.628	5702.55
925.938	5643.11
926.248	5593.17
926.558	5594.3
926.867	5559.95
927.177	5542.1
927.487	5503.46
927.796	5484.25
928.106	5488.09
928.416	5427.75
928.725	5433.4
929.034	5381.65
929.344	5390.92
929.653	5321.31
929.962	5326.06
930.271	5305.04
930.581	5309.34
930.89	5293.74
931.199	5232.73
931.508	5223.92
931.817	5204.03
932.125	5199.74
932.434	5217.36
932.743	5131.04
933.051	5101.66
933.36	5111.83
933.669	5062.34
933.977	5055.56
934.286	5061.89
934.594	5008.78
934.902	5025.05
935.21	4967.2
935.519	4952.29
935.827	4940.08
936.135	4937.82
936.443	4872.97
936.751	4856.69
937.059	4860.76
937.367	4846.53
937.674	4833.87
937.982	4811.05
938.29	4759.97
938.597	4729.47
938.905	4689.02
939.213	4720.43
939.52	4664.83
939.827	4653.76
940.135	4649.47
940.442	4590.49
940.749	4638.85
941.056	4567.66
941.363	4520.21
941.67	4537.83
941.977	4532.41
942.284	4468.46
942.591	4498.74
942.898	4451.73
943.205	4486.31
943.511	4463.26
943.818	4413.09
944.125	4374.22
944.431	4366.99
944.738	4360.44
945.044	4362.92
945.35	4347.78
945.657	4263.26
945.963	4244.06
946.269	4230.72
946.575	4266.88
946.881	4252.42
947.187	4241.8
947.493	4185.53
947.799	4195.02
948.105	4171.29
948.41	4122.02
948.716	4166.54
949.022	4136.94
949.327	4135.58
949.633	4012.65
949.938	4082.25
950.244	4054.68
950.549	4021.24
950.854	4034.57
951.16	3978.07
951.465	3981.46
951.77	3937.85
952.075	3910.05
952.38	3912.09
952.685	3877.29
952.99	3886.32
953.294	3845.65
953.599	3851.3
953.904	3819.66
954.209	3793.22
954.513	3796.84
954.818	3744.41
955.122	3751.86
955.426	3765.65
955.731	3730.85
956.035	3727.23
956.339	3663.73
956.643	3668.03
956.948	3669.83
957.252	3655.37
957.556	3623.51
957.86	3579.21
958.163	3587.58
958.467	3580.34
958.771	3554.81
959.075	3526.33
959.378	3555.94
959.682	3535.37
959.985	3552.77
960.289	3499.67
960.592	3515.03
960.896	3462.83
961.199	3453.12
961.502	3442.27
961.805	3451.76
962.108	3390.97
962.411	3381.48
962.714	3349.62
963.017	3314.36
963.32	3349.84
963.623	3290.18
963.926	3378.09
964.228	3310.75
964.531	3282.27
964.833	3301.93
965.136	3248.38
965.438	3264.87
965.741	3164.76
966.043	3196.17
966.345	3209.28
966.648	3186.91
966.95	3192.78
967.252	3136.97
967.554	3164.99
967.856	3096.74
968.158	3099.45
968.46	3113.69
968.761	3077.53
969.063	3087.02
969.365	3081.83
969.666	2993.92
969.968	3035.73
970.269	3016.06
970.571	3028.49
970.872	2973.58
971.174	3015.61
971.475	3003.86
971.776	2960.7
972.077	2940.13
972.378	2947.37
972.679	2905.33
972.98	2950.3
973.281	2880.25
973.582	2901.27
973.883	2865.33
974.183	2898.55
974.484	2865.11
974.785	2839.57
975.085	2840.25
975.386	2866.01
975.686	2842.96
975.986	2785.11
976.287	2810.65
976.587	2739.91
976.887	2766.58
977.187	2727.26
977.487	2766.13
977.787	2720.71
978.087	2699.69
978.387	2688.84
978.687	2683.19
978.987	2687.26
979.286	2657.66
979.586	2653.14
979.885	2595.28
980.185	2642.06
980.484	2606.36
980.784	2618.34
981.083	2556.64
981.382	2567.49
981.682	2572.91
981.981	2553.03
982.28	2550.99
982.579	2507.38
982.878	2521.61
983.177	2527.26
983.475	2514.61
983.774	2519.81
984.073	2435.06
984.372	2489.98
984.67	2476.19
984.969	2462.18
985.267	2472.58
985.566	2448.4
985.864	2407.04
986.162	2397.32
986.461	2408.17
986.759	2410.88
987.057	2338.57
987.355	2331.11
987.653	2390.77
987.951	2357.78
988.249	2318.23
988.547	2353.26
988.844	2318.68
989.142	2300.38
989.44	2292.02
989.737	2277.1
990.035	2263.77
990.332	2279.59
990.63	2264.67
990.927	2271.68
991.224	2227.38
991.521	2220.83
991.819	2199.36
992.116	2200.72
992.413	2222.64
992.71	2184
993.006	2174.28
993.303	2184
993.6	2161.62
993.897	2146.48
994.193	2133.83
994.49	2103.09
994.787	2132.47
995.083	2081.17
995.379	2099.93
995.676	2101.74
995.972	2097.67
996.268	2069.87
996.565	2063.1
996.861	2057.9
997.157	2019.93
997.453	2033.49
997.749	2020.84
998.044	1997.11
998.34	2007.96
998.636	1958.69
998.932	1986.26
999.227	1972.25
999.523	1963.89
999.818	1939.03
1000.114	1913.27
1000.409	1927.28
1000.704	1928.41
1001	1929.54
1001.295	1898.13
1001.59	1914.62
1001.885	1897.22
1002.18	1884.12
1002.475	1876.21
1002.77	1867.62
1003.065	1852.71
1003.359	1838.92
1003.654	1831.92
1003.949	1824.23
1004.243	1804.12
1004.538	1794.85
1004.832	1801.18
1005.127	1760.5
1005.421	1759.83
1005.715	1782.42
1006.009	1748.3
1006.304	1741.07
1006.598	1724.8
1006.892	1732.26
1007.186	1685.03
1007.48	1676.21
1007.773	1688.64
1008.067	1653.39
1008.361	1672.37
1008.655	1673.95
1008.948	1635.08
1009.242	1650.68
1009.535	1622.2
1009.829	1656.1
1010.122	1626.95
1010.415	1601.19
1010.708	1592.15
1011.001	1566.84
1011.295	1555.54
1011.588	1539.95
1011.881	1586.5
1012.173	1536.33
1012.466	1585.82
1012.759	1542.21
1013.052	1548.08
1013.344	1506.05
1013.637	1515.31
1013.93	1539.04
1014.222	1509.66
1014.514	1507.18
1014.807	1486.61
1015.099	1449.1
1015.391	1472.6
1015.683	1463.34
1015.976	1459.95
1016.268	1431.47
1016.56	1433.28
1016.851	1415.65
1017.143	1410.68
1017.435	1396.45
1017.727	1402.32
1018.018	1399.84
1018.31	1356.9
1018.602	1337.01
1018.893	1347.86
1019.185	1357.13
1019.476	1334.98
1019.767	1309.89
1020.058	1308.99
1020.35	1298.37
1020.641	1318.71
1020.932	1289.78
1021.223	1282.55
1021.514	1281.2
1021.804	1258.82
1022.095	1253.4
1022.386	1239.61
1022.677	1264.47
1022.967	1241.2
1023.258	1225.15
1023.548	1210.69
1023.839	1227.19
1024.129	1245.26
1024.419	1221.99
1024.709	1192.38
1025	1176.57
1025.29	1188.99
1025.58	1172.05
1025.87	1160.75
1026.16	1170.01
1026.449	1152.61
1026.739	1176.79
1027.029	1154.87
1027.319	1140.86
1027.608	1122.56
1027.898	1096.34
1028.187	1101.09
1028.477	1118.26
1028.766	1101.76
1029.055	1057.25
1029.344	1106.74
1029.634	1080.97
1029.923	1070.13
1030.212	1070.58
1030.501	1061.77
1030.79	1048.43
1031.078	1044.82
1031.367	1065.61
1031.656	1026.74
1031.945	1027.64
1032.233	1023.12
1032.522	1014.54
1032.81	997.36
1033.099	1014.76
1033.387	1014.31
1033.675	977.47
1033.963	986.06
1034.251	981.32
1034.54	946.74
1034.828	966.4
1035.116	977.02
1035.403	930.02
1035.691	923.01
1035.979	947.19
1036.267	947.87
1036.554	920.07
1036.842	928.44
1037.129	914.65
1037.417	911.49
1037.704	925.27
1037.992	895.22
1038.279	897.02
1038.566	900.64
1038.853	900.64
1039.14	900.64
