Data from hue_230_FLMS001491_00038.txt Node
Date: Tue Feb 07 16:37:09 GMT 2017
User: dcchb
Spectrometer: FLMS00149
Trigger mode: 0
Integration Time (sec): 2.000000E-2
Scans to average: 10
Electric dark correction enabled: true
Nonlinearity correction enabled: false
Boxcar width: 0
XAxis mode: Wavelengths
Number of Pixels in Spectrum: 2048
>>>>>Begin Spectral Data<<<<<
341.393	-7.25
341.776	-7.25
342.16	-7.25
342.543	-50.63
342.927	-78.43
343.31	-66
343.693	-75.27
344.077	-76.62
344.46	-63.97
344.843	-55.15
345.226	-45.21
345.61	-39.56
345.993	-39.79
346.376	-7.47
346.759	28.69
347.142	18.97
347.525	48.12
347.908	63.71
348.291	75.92
348.674	106.65
349.057	126.99
349.44	149.36
349.823	128.12
350.206	161.79
350.588	189.59
350.971	202.01
351.354	227.1
351.737	236.36
352.119	240.66
352.502	243.6
352.884	266.42
353.267	267.78
353.65	288.11
354.032	285.18
354.414	280.2
354.797	311.16
355.179	289.24
355.562	324.05
355.944	326.3
356.326	331.95
356.709	340.32
357.091	309.81
357.473	316.36
357.855	307.1
358.238	328.34
358.62	322.69
359.002	328.56
359.384	318.4
359.766	347.77
360.148	336.02
360.53	327.89
360.912	347.77
361.294	316.14
361.676	327.66
362.057	318.4
362.439	312.97
362.821	315.68
363.203	330.37
363.584	336.25
363.966	315.91
364.348	299.86
364.729	309.81
365.111	313.2
365.493	345.06
365.874	304.84
366.256	320.2
366.637	302.35
367.019	300.09
367.4	308.45
367.781	326.3
368.163	295.8
368.544	307.55
368.925	319.53
369.306	305.51
369.688	312.75
370.069	312.07
370.45	303.71
370.831	307.32
371.212	324.27
371.593	311.62
371.974	306.19
372.355	293.54
372.736	297.15
373.117	299.86
373.498	314.1
373.879	304.16
374.26	327.66
374.641	306.64
375.021	303.03
375.402	286.76
375.783	317.27
376.163	313.2
376.544	308.9
376.925	306.87
377.305	307.32
377.686	308.45
378.066	311.16
378.447	327.43
378.827	324.5
379.208	336.7
379.588	325.85
379.968	339.64
380.349	335.12
380.729	326.76
381.109	322.69
381.489	327.66
381.87	301.67
382.25	321.11
382.63	317.94
383.01	320.66
383.39	322.01
383.77	330.6
384.15	330.6
384.53	348.23
384.91	322.69
385.29	341.22
385.67	341.67
386.049	350.71
386.429	352.74
386.809	338.73
387.189	325.63
387.568	338.28
387.948	344.61
388.328	355
388.707	376.7
389.087	354.78
389.466	378.96
389.846	350.94
390.225	345.51
390.605	356.36
390.984	354.1
391.363	375.12
391.743	364.27
392.122	367.43
392.501	336.7
392.881	371.05
393.26	369.02
393.639	350.49
394.018	345.97
394.397	380.09
394.776	354.1
395.155	392.07
395.534	390.71
395.913	390.94
396.292	380.54
396.671	379.64
397.05	389.58
397.429	372.63
397.808	384.16
398.186	381.44
398.565	378.96
398.944	371.5
399.323	391.84
399.701	404.27
400.08	394.78
400.458	374.89
400.837	408.56
401.215	406.3
401.594	391.61
401.972	398.39
402.351	403.82
402.729	406.98
403.107	428.45
403.486	412.18
403.864	433.19
404.242	425.06
404.62	431.84
404.999	429.58
405.377	447.88
405.755	471.61
406.133	448.34
406.511	444.72
406.889	444.27
407.267	480.88
407.645	446.08
408.023	492.63
408.401	480.65
408.779	460.31
409.156	469.8
409.534	487.43
409.912	488.56
410.29	480.2
410.667	505.51
411.045	503.02
411.422	504.61
411.8	507.77
412.178	523.81
412.555	522.23
412.933	533.53
413.31	539.18
413.687	555.23
414.065	546.41
414.442	562.91
414.819	571.72
415.197	587.32
415.574	604.26
415.951	581.21
416.328	583.02
416.705	593.64
417.082	609.91
417.46	627.99
417.837	631.83
418.214	631.16
418.591	625.05
418.967	655.79
419.344	638.16
419.721	649.01
420.098	669.8
420.475	678.39
420.852	656.69
421.228	700.98
421.605	700.53
421.982	684.71
422.358	696.24
422.735	720.64
423.111	731.04
423.488	758.16
423.864	763.58
424.241	754.77
424.617	782.11
424.994	780.3
425.37	784.37
425.746	788.44
426.123	809.23
426.499	817.14
426.875	826.4
427.251	857.82
427.627	883.8
428.003	878.61
428.379	836.12
428.756	877.25
429.132	916.12
429.507	886.74
429.883	901.21
430.259	909.79
430.635	922.67
431.011	934.42
431.387	962.9
431.763	991.15
432.138	978.94
432.514	999.96
432.89	994.31
433.265	1009.22
433.641	1039.28
434.016	1063.01
434.392	1060.75
434.767	1088.09
435.143	1093.74
435.518	1109.34
435.894	1122.89
436.269	1156.34
436.644	1145.27
437.02	1170.35
437.395	1199.5
437.77	1199.5
438.145	1227.52
438.52	1254.64
438.895	1260.74
439.271	1262.1
439.646	1277.92
440.021	1287.86
440.395	1327.18
440.77	1297.13
441.145	1325.6
441.52	1333.28
441.895	1364.47
442.27	1373.51
442.645	1408.76
443.019	1428.2
443.394	1406.5
443.769	1433.85
444.143	1393.4
444.518	1460.51
444.892	1453.73
445.267	1462.09
445.641	1479.95
446.016	1514.52
446.39	1507.06
446.764	1524.01
447.139	1507.97
447.513	1535.09
447.887	1550.91
448.262	1524.01
448.636	1543.9
449.01	1533.28
449.384	1571.24
449.758	1582.09
450.132	1610.79
450.506	1612.6
450.88	1651.47
451.254	1645.14
451.628	1648.3
452.002	1660.28
452.376	1707.96
452.75	1713.61
453.123	1725.59
453.497	1766.72
453.871	1741.41
454.244	1772.37
454.618	1769.66
454.992	1814.4
455.365	1841.97
455.739	1834.51
456.112	1871.35
456.486	1863.67
456.859	1888.52
457.232	1948.41
457.606	1898.47
457.979	1948.64
458.352	1978.46
458.725	1985.24
459.099	2049.42
459.472	2069.99
459.845	2051.91
460.218	2092.81
460.591	2116.09
460.964	2133.94
461.337	2156.09
461.71	2182.08
462.083	2190.44
462.456	2211.23
462.829	2239.25
463.201	2235.18
463.574	2248.51
463.947	2259.59
464.32	2358.79
464.692	2378.23
465.065	2364.44
465.438	2408.74
465.81	2422.97
466.183	2470.88
466.555	2489.64
466.928	2505.23
467.3	2498.9
467.672	2549.75
468.045	2612.57
468.417	2625
468.789	2634.49
469.161	2651.89
469.534	2700.03
469.906	2739.35
470.278	2749.29
470.65	2755.17
471.022	2843.07
471.394	2903.86
471.766	2891.44
472.138	2896.18
472.51	2979.12
472.882	3007.82
473.253	3056.18
473.625	3082.62
473.997	3126.23
474.369	3137.3
474.74	3176.4
475.112	3250.52
475.484	3275.83
475.855	3299.33
476.227	3347.02
476.598	3450.29
476.97	3451.87
477.341	3530.74
477.713	3579.55
478.084	3601.25
478.455	3669.72
478.827	3663.62
479.198	3780.9
479.569	3764.41
479.94	3892.09
480.311	3890.73
480.682	4008.24
481.053	4074.23
481.424	4099.31
481.795	4139.54
482.166	4206.88
482.537	4227.9
482.908	4295.24
483.279	4324.84
483.65	4441.68
484.021	4440.55
484.391	4499.53
484.762	4539.53
485.133	4598.51
485.503	4658.62
485.874	4723.48
486.244	4772.52
486.615	4882.34
486.985	4875.34
487.356	4960.53
487.726	4993.53
488.097	5072.17
488.467	5081.89
488.837	5133.18
489.207	5280.3
489.578	5280.52
489.948	5320.3
490.318	5423.8
490.688	5426.96
491.058	5482.1
491.428	5569.1
491.798	5630.12
492.168	5696.33
492.538	5699.95
492.908	5710.34
493.278	5821.08
493.648	5836.22
494.017	5870.57
494.387	5977.68
494.757	5944.69
495.126	6025.59
495.496	6040.96
495.866	6062.2
496.235	6116.66
496.605	6129.32
496.974	6192.37
497.344	6200.73
497.713	6220.16
498.082	6261.52
498.452	6295.64
498.821	6379.48
499.19	6377.22
499.559	6383.77
499.928	6454.73
500.298	6482.53
500.667	6541.51
501.036	6535.18
501.405	6636.65
501.774	6528.85
502.143	6596.65
502.512	6678
502.88	6657.44
503.249	6673.26
503.618	6737.89
503.987	6711.67
504.356	6741.28
504.724	6772.01
505.093	6766.81
505.462	6775.85
505.83	6842.29
506.199	6870.77
506.567	6947.15
506.936	6911.67
507.304	6986.92
507.672	6963.42
508.041	7063.08
508.409	7113.02
508.777	7045.22
509.145	7119.8
509.514	7168.61
509.882	7161.38
510.25	7152.79
510.618	7164.32
510.986	7146.69
511.354	7180.14
511.722	7219.01
512.09	7281.6
512.458	7263.75
512.826	7360.02
513.193	7313.69
513.561	7305.78
513.929	7367.25
514.297	7395.05
514.664	7481.37
515.032	7439.56
515.4	7470.98
515.767	7485.89
516.135	7563.18
516.502	7487.7
516.869	7569.96
517.237	7520.92
517.604	7510.3
517.972	7555.95
518.339	7597.07
518.706	7565.66
519.073	7570.18
519.44	7600.01
519.808	7690.18
520.175	7628.94
520.542	7679.78
520.909	7722.27
521.276	7693.79
521.643	7737.18
522.009	7745.32
522.376	7777.41
522.743	7703.06
523.11	7775.15
523.477	7841.14
523.843	7822.61
524.21	7916.39
524.577	7945.54
524.943	7904.41
525.31	7898.76
525.676	8012.88
526.043	7994.35
526.409	8016.72
526.776	8082.26
527.142	8055.14
527.508	8048.36
527.874	8045.2
528.241	8021.92
528.607	8074.12
528.973	8084.29
529.339	8110.73
529.705	8129.94
530.071	8196.38
530.437	8190.05
530.803	8192.99
531.169	8168.81
531.535	8151.64
531.901	8122.94
532.267	8169.04
532.632	8167.45
532.998	8210.84
533.364	8244.29
533.73	8162.94
534.095	8232.54
534.461	8199.54
534.826	8190.73
535.192	8211.07
535.557	8246.1
535.923	8181.47
536.288	8166.78
536.653	8177.85
537.019	8149.15
537.384	8172.2
537.749	8144.18
538.114	8158.87
538.479	8088.13
538.845	8157.74
539.21	8101.92
539.575	8102.37
539.94	8120.9
540.305	8104.41
540.67	8119.55
541.034	8078.19
541.399	8074.58
541.764	8089.26
542.129	8067.57
542.494	8098.76
542.858	8047.01
543.223	8039.32
543.587	8093.78
543.952	8012.66
544.316	8061.69
544.681	8056.27
545.045	8034.35
545.41	8056.27
545.774	7991.87
546.138	8000.45
546.503	7988.93
546.867	7920.68
547.231	7996.61
547.595	7956.16
547.959	7952.09
548.324	7977.4
548.688	7890.4
549.052	7936.73
549.416	7906.67
549.779	7880.91
550.143	7874.36
550.507	7901.47
550.871	7864.41
551.235	7835.49
551.599	7870.97
551.962	7879.55
552.326	7843.17
552.689	7834.36
553.053	7793.68
553.417	7781.93
553.78	7854.92
554.143	7848.82
554.507	7823.06
554.87	7809.27
555.234	7794.81
555.597	7828.71
555.96	7807.92
556.323	7842.27
556.686	7779.44
557.05	7830.29
557.413	7812.44
557.776	7817.18
558.139	7825.32
558.502	7894.24
558.865	7868.03
559.228	7821.25
559.59	7817.86
559.953	7776.28
560.316	7905.31
560.679	7830.74
561.041	7902.15
561.404	7864.86
561.767	7915.94
562.129	7907.12
562.492	7967.23
562.854	7937.4
563.217	7920
563.579	7904.18
563.941	8009.27
564.304	7957.29
564.666	7994.8
565.028	7974.24
565.39	8016.5
565.753	8009.04
566.115	8049.94
566.477	8054.92
566.839	8084.07
567.201	8176.95
567.563	8082.94
567.925	8119.09
568.287	8140.79
568.648	8155.03
569.01	8125.2
569.372	8242.71
569.734	8208.81
570.095	8190.05
570.457	8238.64
570.819	8186.21
571.18	8211.52
571.542	8251.75
571.903	8354.12
572.265	8294.68
572.626	8334
572.987	8333.1
573.349	8383.95
573.71	8437.96
574.071	8384.17
574.432	8387.11
574.794	8443.61
575.155	8398.86
575.516	8453.1
575.877	8504.85
576.238	8529.03
576.599	8492.19
576.96	8524.28
577.32	8567.22
577.681	8535.81
578.042	8592.08
578.403	8566.09
578.763	8517.73
579.124	8643.15
579.485	8670.04
579.845	8710.04
580.206	8656.03
580.566	8677.27
580.927	8707.33
581.287	8743.48
581.648	8755.46
582.008	8752.3
582.368	8719.3
582.728	8818.96
583.089	8785.52
583.449	8822.35
583.809	8803.14
584.169	8851.73
584.529	8829.36
584.889	8876.14
585.249	8824.84
585.609	8871.84
585.969	8890.15
586.329	8868.23
586.688	8962.91
587.048	8963.82
587.408	8940.77
587.768	8941.45
588.127	8935.12
588.487	8901.9
588.846	9000.43
589.206	8923.37
589.565	8959.3
589.925	8973.08
590.284	8955.91
590.643	9044.49
591.003	9065.28
591.362	9078.17
591.721	9053.31
592.08	9049.92
592.44	9061.67
592.799	9103.7
593.158	9063.02
593.517	8975.12
593.876	9093.98
594.235	9097.6
594.593	9115.9
594.952	9096.24
595.311	9110.03
595.67	9190.48
596.029	9218.5
596.387	9220.53
596.746	9208.11
597.104	9179.41
597.463	9144.15
597.822	9179.18
598.18	9175.79
598.538	9189.57
598.897	9287.88
599.255	9214.43
599.613	9345.5
599.972	9236.81
600.33	9266.86
600.688	9220.31
601.046	9248.1
601.404	9314.77
601.762	9283.13
602.12	9324.71
602.478	9341.89
602.836	9248.1
603.194	9287.65
603.552	9256.69
603.91	9284.94
604.268	9337.37
604.625	9291.49
604.983	9341.44
605.341	9216.47
605.698	9352.96
606.056	9390.93
606.413	9285.39
606.771	9317.48
607.128	9347.31
607.485	9351.6
607.843	9345.28
608.2	9323.58
608.557	9394.99
608.914	9407.2
609.272	9424.37
609.629	9501.2
609.986	9434.09
610.343	9414.88
610.7	9469.79
611.057	9509.79
611.414	9401.09
611.771	9521.32
612.127	9518.83
612.484	9453.3
612.841	9566.29
613.198	9444.03
613.554	9497.14
613.911	9496.01
614.267	9563.8
614.624	9520.87
614.98	9526.74
615.337	9554.31
615.693	9599.96
616.05	9574.65
616.406	9676.12
616.762	9574.42
617.118	9587.53
617.475	9625.04
617.831	9633.4
618.187	9640.86
618.543	9572.84
618.899	9641.99
619.255	9605.83
619.611	9641.77
619.967	9688.32
620.323	9731.48
620.678	9689.9
621.034	9737.36
621.39	9685.61
621.746	9644.25
622.101	9708.66
622.457	9680.86
622.812	9721.31
623.168	9677.47
623.523	9651.26
623.879	9721.31
624.234	9674.08
624.589	9694.42
624.945	9684.03
625.3	9661.65
625.655	9723.35
626.01	9691.48
626.365	9649.22
626.72	9656.68
627.075	9660.07
627.43	9626.17
627.785	9604.03
628.14	9669.79
628.495	9705.72
628.85	9687.19
629.205	9550.7
629.559	9665.27
629.914	9587.76
630.269	9608.09
630.623	9611.26
630.978	9571.71
631.332	9538.49
631.687	9525.61
632.041	9577.81
632.396	9509.57
632.75	9544.82
633.104	9583.69
633.459	9489.45
633.813	9483.8
634.167	9583.24
634.521	9545.27
634.875	9531.71
635.229	9467.31
635.583	9395.67
635.937	9449.45
636.291	9396.35
636.645	9411.72
636.999	9445.84
637.352	9456.69
637.706	9372.39
638.06	9459.62
638.413	9409.23
638.767	9372.17
639.121	9391.83
639.474	9336.46
639.828	9320.64
640.181	9310.48
640.534	9402.45
640.888	9300.53
641.241	9298.95
641.594	9306.86
641.947	9307.31
642.301	9228.44
642.654	9291.04
643.007	9273.64
643.36	9280.65
643.713	9259.86
644.066	9159.07
644.419	9239.74
644.771	9145.96
645.124	9071.16
645.477	9050.14
645.83	9010.14
646.182	9010.37
646.535	8969.92
646.888	8988.22
647.24	8964.72
647.593	8957.49
647.945	8952.07
648.298	8985.51
648.65	8931.95
649.002	8848.79
649.355	8928.34
649.707	8922.69
650.059	9005.85
650.411	9019.41
650.763	9042.23
651.115	9163.36
651.467	9164.49
651.819	9138.95
652.171	9111.38
652.523	9128.79
652.875	9165.17
653.227	9119.97
653.578	9143.47
653.93	9173.3
654.282	8984.38
654.633	9118.62
654.985	9097.15
655.337	9117.71
655.688	9075.91
656.039	9163.59
656.391	9058.5
656.742	9074.32
657.094	9064.38
657.445	9183.25
657.796	9024.16
658.147	9054.44
658.498	9052.63
658.849	9080.65
659.2	9089.46
659.551	9031.16
659.902	9128.33
660.253	9111.61
660.604	9106.64
660.955	9041.56
661.306	9085.62
661.656	9084.94
662.007	9115.68
662.358	9122.01
662.708	9121.78
663.059	9118.84
663.409	9096.02
663.76	9138.73
664.11	9117.49
664.461	9135.79
664.811	9148.45
665.161	9112.97
665.511	9073.19
665.862	9063.7
666.212	9154.1
666.562	9184.83
666.912	9110.48
667.262	9135.34
667.612	9091.95
667.962	9127.43
668.312	9114.77
668.662	9143.25
669.011	9151.16
669.361	9133.76
669.711	9114.77
670.06	9055.79
670.41	9015.57
670.76	9062.8
671.109	9107.32
671.459	9104.61
671.808	9094.44
672.157	9075.45
672.507	8989.35
672.856	9004.49
673.205	9017.38
673.554	9032.74
673.904	9046.08
674.253	9046.53
674.602	8998.85
674.951	8894.44
675.3	8802.24
675.649	8962.24
675.998	8997.49
676.346	9009.69
676.695	8992.07
677.044	8892.86
677.393	8942.58
677.741	8982.8
678.09	8913.42
678.438	8868.91
678.787	9001.78
679.135	8955.23
679.484	8861.67
679.832	8921.11
680.181	8848.11
680.529	8903.71
680.877	8838.85
681.225	8819.19
681.573	8882.01
681.922	8788.68
682.27	8755.46
682.618	8762.47
682.966	8758.4
683.314	8779.42
683.661	8762.24
684.009	8654.22
684.357	8607.22
684.705	8678.4
685.053	8649.02
685.4	8636.82
685.748	8561.34
686.095	8601.34
686.443	8545.75
686.79	8564.05
687.138	8541.68
687.485	8565.86
687.832	8523.6
688.18	8539.87
688.527	8492.42
688.874	8459.42
689.221	8454.9
689.568	8368.13
689.915	8422.36
690.262	8403.15
690.609	8306.21
690.956	8286.77
691.303	8269.37
691.65	8266.21
691.997	8222.14
692.344	8218.3
692.69	8142.37
693.037	8201.58
693.383	8074.8
693.73	8166.78
694.077	8050.17
694.423	8010.17
694.769	8078.42
695.116	7951.19
695.462	8002.26
695.808	7982.15
696.155	7984.63
696.501	7952.32
696.847	7936.95
697.193	7810.4
697.539	7836.62
697.885	7747.35
698.231	7829.84
698.577	7722.27
698.923	7722.27
699.269	7694.02
699.614	7664.87
699.96	7652.67
700.306	7658.99
700.651	7584.65
700.997	7533.57
701.342	7532.44
701.688	7484.53
702.033	7469.17
702.379	7489.28
702.724	7431.2
703.069	7420.13
703.415	7312.34
703.76	7405.89
704.105	7328.38
704.45	7334.03
704.795	7301.26
705.14	7265.33
705.485	7254.26
705.83	7256.74
706.175	7251.77
706.52	7159.35
706.865	7224.43
707.209	7152.34
707.554	7104.88
707.899	7145.79
708.243	7115.96
708.588	7142.17
708.932	7033.02
709.277	7091.1
709.621	7054.94
709.966	6977.66
710.31	6995.51
710.654	6907.15
710.998	6892.23
711.342	6907.83
711.687	6920.48
712.031	6830.09
712.375	6821.73
712.719	6876.87
713.063	6814.04
713.407	6895.4
713.75	6785.34
714.094	6844.1
714.438	6733.59
714.782	6772.24
715.125	6794.61
715.469	6770.88
715.812	6699.7
716.156	6708.74
716.499	6726.36
716.843	6733.82
717.186	6695.86
717.53	6682.07
717.873	6669.87
718.216	6628.96
718.559	6638.46
718.902	6589.64
719.246	6652.24
719.589	6601.17
719.932	6601.17
720.275	6606.14
720.617	6616.99
720.96	6590.1
721.303	6603.88
721.646	6561.4
721.989	6520.49
722.331	6510.1
722.674	6498.12
723.016	6516.2
723.359	6537.89
723.701	6496.09
724.044	6471
724.386	6465.13
724.729	6471
725.071	6456.77
725.413	6466.48
725.755	6475.3
726.097	6436.2
726.439	6398.24
726.782	6410.89
727.124	6411.79
727.465	6426.26
727.807	6438.69
728.149	6386.26
728.491	6409.08
728.833	6477.56
729.175	6438.69
729.516	6425.13
729.858	6366.6
730.199	6418.35
730.541	6368.41
730.882	6386.48
731.224	6415.41
731.565	6374.51
731.906	6451.34
732.248	6409.99
732.589	6348.97
732.93	6384.45
733.271	6319.59
733.612	6380.16
733.953	6366.37
734.294	6405.47
734.635	6376.77
734.976	6363.21
735.317	6322.31
735.658	6353.04
735.999	6376.77
736.339	6337.9
736.68	6414.73
737.021	6362.98
737.361	6329.08
737.702	6426.48
738.042	6334.51
738.383	6362.76
738.723	6379.71
739.063	6359.82
739.404	6439.82
739.744	6419.25
740.084	6358.46
740.424	6442.3
740.764	6432.81
741.104	6441.85
741.444	6378.58
741.784	6479.82
742.124	6458.35
742.464	6433.72
742.804	6481.62
743.143	6403.21
743.483	6543.54
743.823	6547.38
744.162	6521.62
744.502	6557.33
744.841	6565.01
745.181	6658.34
745.52	6594.61
745.86	6654.95
746.199	6682.52
746.538	6693.14
746.877	6762.52
747.216	6787.38
747.556	6787.6
747.895	6829.41
748.234	6816.53
748.573	6896.75
748.911	6956.64
749.25	6881.61
749.589	6945.11
749.928	7060.59
750.267	7125.67
750.605	7130.65
750.944	7223.3
751.283	7208.61
751.621	7314.6
751.96	7324.77
752.298	7436.17
752.636	7541.71
752.975	7533.57
753.313	7630.52
753.651	7695.38
753.989	7757.07
754.327	7871.87
754.666	7950.06
755.004	8023.73
755.342	8130.39
755.679	8191.18
756.017	8257.62
756.355	8438.41
756.693	8459.42
757.031	8616.71
757.368	8658.74
757.706	8782.58
758.044	8827.1
758.381	8940.32
758.719	9082.91
759.056	9181.21
759.394	9273.64
759.731	9416.01
760.068	9494.2
760.405	9612.39
760.743	9631.37
761.08	9846.51
761.417	9905.04
761.754	9989.33
762.091	10160.4
762.428	10204.92
762.765	10309.32
763.102	10515.19
763.438	10508.86
763.775	10653.94
764.112	10780.04
764.449	10911.11
764.785	10959.92
765.122	11138.22
765.458	11190.88
765.795	11216.41
766.131	11389.74
766.467	11512.23
766.804	11546.12
767.14	11613.69
767.476	11737.76
767.812	11773.91
768.148	11947.02
768.485	12023.4
768.821	11994.02
769.157	12141.59
769.492	12191.98
769.828	12313.11
770.164	12335.03
770.5	12355.82
770.836	12496.61
771.171	12528.24
771.507	12558.3
771.842	12610.28
772.178	12683.95
772.513	12683.27
772.849	12785.19
773.184	12767.33
773.519	12931.85
773.855	12908.57
774.19	12906.99
774.525	13007.33
774.86	13039.19
775.195	13153.54
775.53	13088.23
775.865	13110.6
776.2	13035.58
776.535	13098.62
776.87	13052.3
777.205	13131.39
777.539	13120.54
777.874	13301.56
778.209	13100.66
778.543	13199.41
778.878	13141.79
779.212	13241.9
779.547	13158.74
779.881	13272.18
780.215	13128.68
780.55	13270.82
780.884	13163.48
781.218	13158.06
781.552	13303.59
781.886	13207.77
782.22	13139.08
782.554	13214.33
782.888	13111.51
783.222	13152.18
783.556	13168
783.889	13069.02
784.223	13012.98
784.557	13033.32
784.89	13041.68
785.224	13028.12
785.557	13012.07
785.891	12981.57
786.224	12915.58
786.558	13015.01
786.891	13003.03
787.224	12868.12
787.557	12888.46
787.891	12881
788.224	12892.08
788.557	12905.86
788.89	12964.39
789.223	12876.94
789.556	12842.59
789.888	12834.22
790.221	12775.7
790.554	12712.42
790.887	12742.02
791.219	12694.34
791.552	12649.14
791.884	12636.94
792.217	12607.34
792.549	12599.65
792.882	12566.44
793.214	12495.48
793.546	12550.62
793.879	12455.48
794.211	12448.25
794.543	12512.2
794.875	12339.1
795.207	12516.27
795.539	12401.02
795.871	12429.72
796.203	12241.7
796.535	12252.09
796.867	12230.62
797.198	12224.75
797.53	12185.43
797.862	12133.45
798.193	12160.12
798.525	12080.57
798.856	12106.33
799.188	11960.58
799.519	11871.99
799.85	11894.14
800.182	11867.24
800.513	11837.64
800.844	11837.19
801.175	11957.41
801.506	11820.47
801.837	11783.18
802.168	11705.67
802.499	11802.84
802.83	11695.95
803.161	11668.61
803.491	11697.53
803.822	11679.45
804.153	11658.66
804.483	11584.99
804.814	11520.81
805.145	11482.62
805.475	11500.7
805.805	11464.09
806.136	11467.71
806.466	11491.89
806.796	11431.78
807.126	11327.82
807.457	11383.87
807.787	11387.71
808.117	11247.15
808.447	11274.94
808.777	11311.78
809.107	11208.5
809.436	11215.06
809.766	11211.44
810.096	11184.78
810.426	11124.67
810.755	11158.56
811.085	11065.68
811.414	11093.48
811.744	11068.17
812.073	10940.72
812.403	10987.49
812.732	10922.41
813.061	11081.95
813.39	10844.45
813.719	10875.86
814.049	10982.52
814.378	10885.35
814.707	10825.46
815.036	10786.37
815.365	10767.39
815.693	10653.72
816.022	10791.57
816.351	10712.25
816.68	10674.28
817.008	10698.91
817.337	10620.95
817.665	10533.04
817.994	10575.53
818.322	10602.42
818.651	10527.62
818.979	10434.06
819.307	10581.18
819.636	10492.14
819.964	10467.28
820.292	10461.86
820.62	10499.37
820.948	10485.13
821.276	10493.27
821.604	10437
821.932	10486.72
822.259	10441.29
822.587	10477.45
822.915	10365.82
823.243	10484.46
823.57	10380.73
823.898	10426.6
824.225	10360.84
824.553	10413.72
824.88	10367.4
825.207	10413.27
825.535	10409.2
825.862	10464.8
826.189	10397.9
826.516	10442.65
826.843	10415.31
827.17	10470.9
827.497	10449.88
827.824	10453.04
828.151	10477.22
828.478	10389.54
828.805	10579.14
829.131	10427.96
829.458	10374.85
829.785	10380.05
830.111	10426.6
830.438	10405.81
830.764	10477
831.09	10535.08
831.417	10413.95
831.743	10439.49
832.069	10471.12
832.395	10420.5
832.722	10401.52
833.048	10339.83
833.374	10464.34
833.7	10310.68
834.026	10328.53
834.351	10381.41
834.677	10359.94
835.003	10403.55
835.329	10334.63
835.654	10292.82
835.98	10299.38
836.306	10304.8
836.631	10230
836.956	10334.86
837.282	10249.21
837.607	10222.32
837.932	10198.36
838.258	10197.23
838.583	10226.16
838.908	10145.26
839.233	10151.36
839.558	10143.22
839.883	10100.51
840.208	10031.59
840.533	10063.9
840.858	10061.19
841.182	10039.95
841.507	10131.02
841.832	10002.43
842.156	9989.78
842.481	9970.12
842.805	9963.34
843.13	9923.11
843.454	9918.82
843.778	9900.74
844.103	9886.05
844.427	9845.15
844.751	9830.24
845.075	9836.11
845.399	9744.81
845.723	9726.51
846.047	9740.07
846.371	9652.39
846.695	9658.71
847.019	9638.6
847.343	9572.62
847.666	9580.98
847.99	9471.83
848.313	9503.69
848.637	9360.87
848.96	9348.44
849.284	9387.76
849.607	9371.94
849.931	9355.45
850.254	9242
850.577	9217.14
850.9	9163.81
851.223	9122.91
851.546	9118.39
851.869	9083.59
852.192	9063.93
852.515	9042.01
852.838	8991.61
853.161	8961.78
853.483	8922.92
853.806	8871.62
854.129	8938.73
854.451	8828.91
854.774	8783.03
855.096	8763.6
855.419	8743.94
855.741	8729.25
856.063	8695.8
856.385	8673.88
856.708	8587.1
857.03	8685.18
857.352	8646.76
857.674	8539.65
857.996	8566.99
858.318	8456.49
858.64	8488.58
858.961	8455.13
859.283	8378.75
859.605	8419.2
859.926	8424.85
860.248	8397.05
860.57	8319.99
860.891	8378.3
861.212	8266.89
861.534	8304.4
861.855	8267.34
862.176	8223.72
862.498	8294.91
862.819	8297.62
863.14	8285.87
863.461	8223.95
863.782	8227.34
864.103	8201.13
864.424	8216.72
864.745	8199.54
865.065	8135.59
865.386	8087.46
865.707	8104.63
866.027	8117.96
866.348	8101.47
866.668	8119.32
866.989	8054.01
867.309	8055.14
867.63	8022.6
867.95	8016.5
868.27	7947.8
868.59	7986.44
868.91	7912.32
869.23	7941.7
869.55	7906.67
869.87	7928.36
870.19	7888.37
870.51	7925.65
870.83	7895.6
871.15	7875.71
871.469	7857.41
871.789	7856.73
872.109	7870.97
872.428	7898.99
872.748	7874.13
873.067	7862.83
873.386	7831.64
873.706	7826.45
874.025	7721.59
874.344	7680.91
874.663	7750.74
874.982	7674.36
875.301	7789.84
875.62	7698.77
875.939	7741.03
876.258	7734.7
876.577	7715.72
876.896	7663.74
877.214	7644.53
877.533	7705.09
877.852	7633.46
878.17	7696.05
878.489	7596.17
878.807	7611.09
879.125	7590.97
879.444	7503.97
879.762	7527.7
880.08	7513.91
880.398	7538.32
880.716	7514.59
881.034	7523.18
881.352	7468.49
881.67	7426.91
881.988	7515.04
882.306	7420.81
882.624	7482.28
882.941	7380.81
883.259	7350.3
883.577	7371.32
883.894	7335.39
884.212	7376.74
884.529	7347.36
884.846	7268.5
885.164	7270.3
885.481	7315.05
885.798	7292.22
886.115	7214.03
886.432	7208.38
886.75	7178.78
887.067	7192.34
887.383	7143.75
887.7	7202.06
888.017	7156.18
888.334	7133.58
888.651	7150.53
888.967	7108.05
889.284	7127.71
889.6	6992.12
889.917	7016.75
890.233	6998.67
890.55	6932.46
890.866	7000.25
891.182	6932.46
891.498	6901.95
891.815	6824.67
892.131	6882.29
892.447	6888.62
892.763	6859.69
893.079	6773.82
893.395	6793.93
893.71	6784.89
894.026	6752.8
894.342	6730.2
894.657	6692.47
894.973	6682.3
895.289	6687.49
895.604	6721.62
895.92	6675.74
896.235	6580.6
896.55	6631.9
896.865	6548.51
897.181	6520.27
897.496	6532.7
897.811	6521.62
898.126	6477.33
898.441	6504.9
898.756	6424.45
899.071	6441.4
899.386	6377.9
899.7	6375.19
900.015	6341.06
900.33	6310.55
900.644	6289.76
900.959	6330.44
901.273	6235.3
901.588	6251.35
901.902	6224
902.216	6218.35
902.531	6161.41
902.845	6217
903.159	6122.08
903.473	6125.7
903.787	6092.71
904.101	6092.71
904.415	6074.18
904.729	5986.04
905.042	6040.05
905.356	5950.34
905.67	5956.44
905.984	5920.96
906.297	5967.29
906.611	5902.2
906.924	5869.66
907.237	5882.32
907.551	5872.37
907.864	5833.28
908.177	5794.86
908.491	5798.7
908.804	5699.95
909.117	5678.25
909.43	5746.73
909.743	5654.75
910.056	5640.52
910.368	5669.44
910.681	5630.12
910.994	5593.06
911.307	5575.88
911.619	5518.94
911.932	5539.95
912.244	5480.07
912.557	5496.56
912.869	5412.95
913.181	5450.92
913.494	5447.07
913.806	5397.13
914.118	5324.14
914.43	5334.99
914.742	5337.92
915.054	5329.79
915.366	5293.41
915.678	5291.15
915.99	5247.31
916.302	5196.23
916.613	5151.04
916.925	5204.59
917.236	5131.6
917.548	5142.68
917.859	5156.91
918.171	5113.98
918.482	5048.89
918.794	5051.83
919.105	5060.19
919.416	4992.62
919.727	5059.74
920.038	5023.81
920.349	4973.64
920.66	4941.32
920.971	4914.88
921.282	4917.82
921.593	4853.64
921.903	4903.59
922.214	4838.28
922.525	4806.41
922.835	4786.07
923.146	4796.7
923.456	4776.81
923.767	4795.57
924.077	4758.28
924.387	4700.2
924.697	4708.79
925.008	4680.99
925.318	4633.76
925.628	4644.61
925.938	4679.64
926.248	4601.67
926.558	4546.98
926.867	4546.08
927.177	4509.25
927.487	4563.48
927.796	4505.18
928.106	4540.66
928.416	4483.03
928.725	4485.74
929.034	4470.83
929.344	4431.28
929.653	4438.74
929.962	4370.04
930.271	4317.39
930.581	4368.23
930.89	4336.6
931.199	4310.61
931.508	4296.37
931.817	4290.49
932.125	4251.63
932.434	4289.59
932.743	4246.2
933.051	4219.54
933.36	4179.76
933.669	4135.7
933.977	4129.37
934.286	4206.2
934.594	4182.7
934.902	4079.65
935.21	4071.74
935.519	4070.84
935.827	4044.4
936.135	4067.9
936.443	4021.12
936.751	4028.35
937.059	3994.46
937.367	3967.79
937.674	3944.29
937.982	3941.13
938.29	3952.88
938.597	3920.33
938.905	3861.35
939.213	3859.32
939.52	3860.22
939.827	3839.43
940.135	3808.7
940.442	3781.36
940.749	3777.74
941.056	3806.67
941.363	3782.03
941.67	3750.85
941.977	3719.89
942.284	3694.58
942.591	3710.62
942.898	3667.01
943.205	3687.12
943.511	3660.68
943.818	3663.84
944.125	3647.35
944.431	3632.88
944.738	3605.77
945.044	3553.79
945.35	3575.03
945.657	3583.85
945.963	3524.86
946.269	3526.22
946.575	3554.02
946.881	3487.8
947.187	3491.65
947.493	3439.22
947.799	3437.86
948.105	3446
948.41	3432.89
948.716	3471.53
949.022	3370.97
949.327	3388.82
949.633	3355.83
949.938	3351.99
950.244	3345.66
950.549	3349.05
950.854	3326.45
951.16	3298.66
951.465	3284.19
951.77	3310.18
952.075	3281.71
952.38	3277.87
952.685	3249.17
952.99	3208.49
953.294	3193.57
953.599	3207.13
953.904	3150.86
954.209	3155.61
954.513	3159
954.818	3143.86
955.122	3111.77
955.426	3139.11
955.731	3085.55
956.035	3102.96
956.339	3126.23
956.643	3020.47
956.948	3072.67
957.252	3037.19
957.556	3018.44
957.86	3022.28
958.163	3003.97
958.467	3006.01
958.771	2971.89
959.075	2978.89
959.378	2947.25
959.682	2943.64
959.985	2925.33
960.289	2901.6
960.592	2915.84
960.896	2930.98
961.199	2928.5
961.502	2876.07
961.805	2839.23
962.108	2858.67
962.411	2819.35
962.714	2792.45
963.017	2853.47
963.32	2794.49
963.623	2796.3
963.926	2791.32
964.228	2749.07
964.531	2759.91
964.833	2762.17
965.136	2716.52
965.438	2699.8
965.741	2694.83
966.043	2752
966.345	2667.26
966.648	2679.92
966.95	2676.07
967.252	2648.73
967.554	2655.51
967.856	2641.5
968.158	2587.94
968.46	2595.17
968.761	2592.23
969.063	2595.4
969.365	2554.72
969.666	2582.29
969.968	2563.08
970.269	2556.08
970.571	2495.06
970.872	2535.29
971.174	2502.29
971.475	2538.45
971.776	2477.66
972.077	2456.87
972.378	2457.32
972.679	2445.8
972.98	2448.28
973.281	2411.67
973.582	2406.25
973.883	2420.26
974.183	2385.46
974.484	2366.7
974.785	2366.7
975.085	2403.31
975.386	2388.17
975.686	2347.72
975.986	2325.12
976.287	2350.21
976.587	2343.2
976.887	2362.86
977.187	2323.54
977.487	2325.12
977.787	2277.44
978.087	2288.29
978.387	2266.82
978.687	2247.84
978.987	2247.84
979.286	2210.32
979.586	2239.02
979.885	2225.92
980.185	2231.11
980.484	2248.51
980.784	2218.68
981.083	2185.92
981.382	2185.47
981.682	2189.98
981.981	2156.09
982.28	2177.56
982.579	2114.28
982.878	2139.14
983.177	2131.46
983.475	2118.57
983.774	2125.13
984.073	2130.1
984.372	2108.41
984.67	2065.02
984.969	2084
985.267	2059.82
985.566	2067.95
985.864	2064.56
986.162	2067.95
986.461	2010.1
986.759	2002.65
987.057	2034.28
987.355	2000.39
987.653	1985.92
987.951	1970.78
988.249	1978.01
988.547	1994.96
988.844	1955.87
989.142	1982.53
989.44	1988.41
989.737	1935.3
990.035	1905.25
990.332	1942.53
990.63	1906.83
990.927	1906.6
991.224	1883.78
991.521	1872.03
991.819	1854.17
992.116	1898.92
992.413	1852.14
992.71	1882.42
993.006	1846.27
993.303	1839.49
993.6	1796.32
993.897	1828.41
994.193	1810.56
994.49	1808.53
994.787	1797.68
995.083	1785.7
995.379	1749.09
995.676	1782.99
995.972	1729.88
996.268	1761.52
996.565	1749.09
996.861	1767.85
997.157	1700.28
997.453	1713.84
997.749	1717
998.044	1701.64
998.34	1697.12
998.636	1682.88
998.932	1697.12
999.227	1685.59
999.523	1668.42
999.818	1625.71
1000.114	1639.04
1000.409	1617.34
1000.704	1647.85
1001	1622.54
1001.295	1607.63
1001.59	1591.81
1001.885	1625.48
1002.18	1598.36
1002.475	1592.03
1002.77	1562.2
1003.065	1560.17
1003.359	1546.16
1003.654	1557.23
1003.949	1561.98
1004.243	1545.03
1004.538	1523.11
1004.832	1535.76
1005.127	1501.64
1005.421	1489.21
1005.715	1478.14
1006.009	1486.05
1006.304	1477.46
1006.598	1470.23
1006.892	1472.04
1007.186	1456.22
1007.48	1465.94
1007.773	1433.39
1008.067	1413.28
1008.361	1438.37
1008.655	1414.41
1008.948	1417.12
1009.242	1375.32
1009.535	1373.28
1009.829	1377.35
1010.122	1375.77
1010.415	1369.89
1010.708	1379.16
1011.001	1331.7
1011.295	1367.18
1011.588	1345.94
1011.881	1327.41
1012.173	1321.76
1012.466	1324.92
1012.759	1312.95
1013.052	1283.34
1013.344	1269.56
1013.637	1313.4
1013.93	1282.89
1014.222	1282.89
1014.514	1277.69
1014.807	1287.18
1015.099	1265.04
1015.391	1270.23
1015.683	1263
1015.976	1249.22
1016.268	1214.87
1016.56	1211.25
1016.851	1225.94
1017.143	1210.8
1017.435	1250.35
1017.727	1217.13
1018.018	1154.98
1018.31	1212.38
1018.602	1155.89
1018.893	1193.4
1019.185	1176.45
1019.476	1168.77
1019.767	1146.4
1020.058	1174.64
1020.35	1147.07
1020.641	1110.69
1020.932	1112.27
1021.223	1105.72
1021.514	1083.12
1021.804	1089.45
1022.095	1097.58
1022.386	1087.87
1022.677	1090.8
1022.967	1103.91
1023.258	1086.28
1023.548	1071.14
1023.839	1042.44
1024.129	1042.9
1024.419	1045.16
1024.709	1042.22
1025	1041.54
1025.29	1039.05
1025.58	998.6
1025.87	1007.64
1026.16	1009.68
1026.449	1002.45
1026.739	985.72
1027.029	990.24
1027.319	1014.2
1027.608	967.42
1027.898	984.82
1028.187	962.45
1028.477	986.17
1028.766	960.64
1029.055	965.38
1029.344	949.57
1029.634	937.14
1029.923	912.73
1030.212	925.61
1030.501	935.55
1030.79	933.97
1031.078	905.5
1031.367	912.05
1031.656	925.84
1031.945	906.85
1032.233	901.21
1032.522	884.03
1032.81	886.52
1033.099	874.77
1033.387	862.79
1033.675	875.9
1033.963	866.63
1034.251	855.1
1034.54	886.97
1034.828	842.22
1035.116	839.06
1035.403	829.12
1035.691	839.74
1035.979	827.08
1036.267	807.42
1036.554	813.07
1036.842	804.26
1037.129	812.62
1037.417	796.12
1037.704	769.23
1037.992	787.31
1038.279	784.15
1038.566	779.17
1038.853	779.17
1039.14	779.17
