Data from hue_70_FLMS001491_52.txt Node
Date: Mon Feb 06 15:21:06 GMT 2017
User: dcchb
Spectrometer: FLMS00149
Trigger mode: 0
Integration Time (sec): 2.000000E-2
Scans to average: 10
Electric dark correction enabled: true
Nonlinearity correction enabled: false
Boxcar width: 0
XAxis mode: Wavelengths
Number of Pixels in Spectrum: 2048
>>>>>Begin Spectral Data<<<<<
341.393	-17.13
341.776	-17.13
342.16	-17.13
342.543	-66.4
342.927	-63.68
343.31	-76.57
343.693	-56.68
344.077	-71.37
344.46	-71.37
344.843	-33.63
345.226	-36.79
345.61	-41.76
345.993	-29.56
346.376	-21.65
346.759	29.87
347.142	35.3
347.525	64.67
347.908	45.01
348.291	73.71
348.674	87.5
349.057	103.32
349.44	135.18
349.823	118.46
350.206	161.39
350.588	222.41
350.971	203.65
351.354	216.08
351.737	233.71
352.119	253.6
352.502	270.54
352.884	259.47
353.267	287.72
353.65	293.82
354.032	296.53
354.414	294.05
354.797	297.44
355.179	303.76
355.562	306.02
355.944	333.82
356.326	329.07
356.709	338.34
357.091	320.94
357.473	338.79
357.855	322.97
358.238	360.26
358.62	325.01
359.002	332.91
359.384	331.33
359.766	343.76
360.148	309.41
360.53	353.93
360.912	335.85
361.294	336.53
361.676	325.46
362.057	326.81
362.439	315.74
362.821	325.23
363.203	305.35
363.584	324.33
363.966	317.77
364.348	329.53
364.729	321.62
365.111	327.27
365.493	320.49
365.874	292.01
366.256	316.19
366.637	315.29
367.019	299.7
367.4	299.47
367.781	302.63
368.163	294.72
368.544	320.71
368.925	318
369.306	325.01
369.688	309.86
370.069	311.22
370.45	293.14
370.831	302.63
371.212	289.75
371.593	294.72
371.974	310.32
372.355	315.51
372.736	307.38
373.117	304.44
373.498	302.18
373.879	308.51
374.26	326.36
374.641	292.92
375.021	300.6
375.402	322.52
375.783	319.36
376.163	299.47
376.544	309.41
376.925	329.3
377.305	312.58
377.686	343.31
378.066	313.48
378.447	319.81
378.827	321.39
379.208	327.49
379.588	312.8
379.968	326.81
380.349	335.17
380.729	321.62
381.109	333.82
381.489	315.74
381.87	333.59
382.25	306.93
382.63	341.28
383.01	355.29
383.39	347.6
383.77	322.75
384.15	337.21
384.53	337.21
384.91	335.63
385.29	341.05
385.67	325.23
386.049	327.04
386.429	341.05
386.809	335.17
387.189	353.03
387.568	356.87
387.948	329.07
388.328	335.17
388.707	355.06
389.087	327.27
389.466	352.12
389.846	338.79
390.225	362.07
390.605	335.85
390.984	343.08
391.363	350.09
391.743	344.67
392.122	352.8
392.501	333.82
392.881	367.72
393.26	368.85
393.639	331.33
394.018	365.23
394.397	380.82
394.776	355.51
395.155	371.78
395.534	359.35
395.913	362.29
396.292	372.91
396.671	353.93
397.05	386.25
397.429	367.26
397.808	368.85
398.186	368.62
398.565	362.29
398.944	372.69
399.323	379.69
399.701	376.08
400.08	378.79
400.458	385.12
400.837	380.37
401.215	386.25
401.594	371.56
401.972	389.64
402.351	366.59
402.729	383.31
403.107	383.76
403.486	390.54
403.864	379.24
404.242	395.29
404.62	398.22
404.999	403.42
405.377	395.29
405.755	382.41
406.133	394.83
406.511	402.97
406.889	401.16
407.267	413.59
407.645	410.43
408.023	414.95
408.401	416.3
408.779	396.64
409.156	422.18
409.534	413.59
409.912	415.17
410.29	442.52
410.667	422.63
411.045	430.09
411.422	438.67
411.8	424.21
412.178	430.54
412.555	429.86
412.933	432.8
413.31	432.12
413.687	426.47
414.065	451.33
414.442	440.48
414.819	438.67
415.197	452.91
415.574	451.56
415.951	447.49
416.328	455.17
416.705	456.75
417.082	433.93
417.46	450.43
417.837	456.3
418.214	465.79
418.591	471.22
418.967	476.64
419.344	488.39
419.721	466.47
420.098	503.98
420.475	475.28
420.852	480.03
421.228	495.62
421.605	486.81
421.982	483.19
422.358	485.23
422.735	501.27
423.111	508.28
423.488	527.03
423.864	522.06
424.241	488.17
424.617	508.73
424.994	508.05
425.37	499.24
425.746	503.98
426.123	500.59
426.499	514.83
426.875	528.16
427.251	514.15
427.627	516.86
428.003	537.88
428.379	547.37
428.756	542.63
429.132	535.85
429.507	545.56
429.883	549.63
430.259	577.43
430.635	571.55
431.011	545.79
431.387	570.87
431.763	576.75
432.138	580.59
432.514	579.46
432.89	597.09
433.265	600.48
433.641	613.36
434.016	591.21
434.392	597.54
434.767	607.94
435.143	610.2
435.518	618.11
435.894	612
436.269	627.82
436.644	644.55
437.02	623.98
437.395	629.63
437.77	642.51
438.145	664.88
438.52	645.22
438.895	647.26
439.271	649.52
439.646	686.13
440.021	658.56
440.395	678.67
440.77	658.33
441.145	678.22
441.52	694.94
441.895	664.66
442.27	690.42
442.645	684.32
443.019	703.53
443.394	704.88
443.769	700.59
444.143	712.11
444.518	703.07
444.892	710.53
445.267	715.96
445.641	724.77
446.016	711.44
446.39	725.9
446.764	724.09
447.139	748.5
447.513	715.28
447.887	735.39
448.262	749.18
448.636	738.55
449.01	759.34
449.384	762.06
449.758	765.9
450.132	772.68
450.506	760.47
450.88	793.24
451.254	753.24
451.628	760.93
452.002	798.44
452.376	786.69
452.75	806.12
453.123	806.57
453.497	797.76
453.871	833.69
454.244	851.32
454.618	842.28
454.992	842.51
455.365	872.56
455.739	872.79
456.112	886.12
456.486	888.61
456.859	888.15
457.232	894.26
457.606	913.46
457.979	917.08
458.352	936.97
458.725	929.28
459.099	948.72
459.472	969.28
459.845	969.73
460.218	970.41
460.591	994.14
460.964	977.42
461.337	1021.26
461.71	1045.44
462.083	1059.68
462.456	1033.46
462.829	1026.91
463.201	1073.46
463.574	1035.72
463.947	1094.7
464.32	1095.61
464.692	1142.61
465.065	1114.82
465.438	1138.77
465.81	1127.92
466.183	1171.76
466.555	1157.53
466.928	1201.59
467.3	1198.88
467.672	1218.99
468.045	1264.64
468.417	1263.06
468.789	1259.9
469.161	1293.79
469.534	1319.33
469.906	1341.02
470.278	1369.72
470.65	1378.31
471.022	1435.71
471.394	1445.43
471.766	1466.9
472.138	1510.29
472.51	1534.24
472.882	1561.58
473.253	1597.29
473.625	1601.81
473.997	1661.02
474.369	1682.94
474.74	1688.59
475.112	1743.95
475.484	1806.77
475.855	1842.48
476.227	1878.86
476.598	1931.52
476.97	1942.14
477.341	2036.15
477.713	2103.94
478.084	2118.4
478.455	2206.76
478.827	2257.61
479.198	2325.86
479.569	2374.22
479.94	2444.05
480.311	2507.32
480.682	2578.05
481.053	2651.27
481.424	2743.93
481.795	2812.62
482.166	2892.4
482.537	2970.36
482.908	3054.2
483.279	3158.38
483.65	3233.18
484.021	3356.79
484.391	3413.74
484.762	3523.79
485.133	3576.9
485.503	3658.48
485.874	3828.64
486.244	3907.06
486.615	4014.4
486.985	4133.49
487.356	4260.04
487.726	4323.54
488.097	4506.14
488.467	4574.39
488.837	4726.47
489.207	4861.38
489.578	5018.67
489.948	5107.03
490.318	5239.23
490.688	5331.65
491.058	5471.08
491.428	5648.26
491.798	5745.43
492.168	5923.05
492.538	6052.99
492.908	6207.56
493.278	6324.62
493.648	6459.08
494.017	6613.2
494.387	6687.78
494.757	6885.29
495.126	7011.38
495.496	7065.85
495.866	7272.85
496.235	7409.57
496.605	7535.66
496.974	7643.68
497.344	7769.1
497.713	7949.44
498.082	8050.68
498.452	8233.27
498.821	8326.15
499.19	8457.22
499.559	8533.38
499.928	8743.77
500.298	8866.48
500.667	9043.87
501.036	9050.65
501.405	9185.79
501.774	9315.96
502.143	9447.03
502.512	9553.24
502.88	9708.94
503.249	9751.42
503.618	9960.46
503.987	10028.25
504.356	10131.08
504.724	10173.79
505.093	10312.09
505.462	10379.43
505.83	10589.59
506.199	10669.59
506.567	10922.47
506.936	10915.01
507.304	11079.98
507.672	11139.41
508.041	11263.25
508.409	11387.77
508.777	11516.12
509.145	11599.06
509.514	11665.27
509.882	11797.02
510.25	11892.84
510.618	11985.04
510.986	12094.64
511.354	12217.12
511.722	12332.6
512.09	12421.41
512.458	12510.67
512.826	12615.08
513.193	12678.81
513.561	12821.4
513.929	12964.9
514.297	13076.53
514.664	13170.77
515.032	13132.13
515.4	13285.79
515.767	13425
516.135	13387.71
516.502	13412.35
516.869	13710.87
517.237	13772.11
517.604	13664.99
517.972	13914.7
518.339	13989.96
518.706	14044.87
519.073	14163.29
519.44	14229.27
519.808	14432.88
520.175	14357.86
520.542	14518.53
520.909	14636.72
521.276	14574.57
521.643	14805.08
522.009	14864.96
522.376	14885.3
522.743	15091.4
523.11	15095.46
523.477	15333.2
523.843	15353.31
524.21	15511.05
524.577	15561.89
524.943	15625.39
525.31	15742
525.676	15870.59
526.043	15890.02
526.409	15978.15
526.776	16127.53
527.142	16165.27
527.508	16226.96
527.874	16359.84
528.241	16453.85
528.607	16500.63
528.973	16695.42
529.339	16626.5
529.705	16708.98
530.071	16738.81
530.437	16879.6
530.803	16901.74
531.169	16995.08
531.535	17057
531.901	17052.25
532.267	17049.99
532.632	17091.8
532.998	17305.58
533.364	17310.1
533.73	17393.26
534.095	17426.48
534.461	17433.26
534.826	17503.31
535.192	17532.91
535.557	17670.99
535.923	17576.76
536.288	17658.34
536.653	17725.23
537.019	17623.53
537.384	17679.35
537.749	17811.33
538.114	17786.47
538.479	17850.19
538.845	17916.86
539.21	17856.07
539.575	17890.65
539.94	17904.88
540.305	17920.93
540.67	17896.75
541.034	18053.35
541.399	17976.07
541.764	18044.09
542.129	18115.27
542.494	18127.93
542.858	18154.59
543.223	18097.19
543.587	18249.28
543.952	18175.38
544.316	18147.81
544.681	18138.1
545.045	18259.45
545.41	18342.16
545.774	18242.73
546.138	18385.55
546.503	18247.92
546.867	18270.75
547.231	18488.37
547.595	18484.98
547.959	18439.78
548.324	18439.78
548.688	18405.43
549.052	18501.7
549.416	18475.71
549.779	18489.73
550.143	18598.65
550.507	18671.42
550.871	18576.28
551.235	18633.9
551.599	18682.04
551.962	18737.4
552.326	18711.64
552.689	18791.64
553.053	18774.46
553.417	18756.39
553.78	18934.69
554.143	18805.2
554.507	18763.84
554.87	18880.68
555.234	19055.36
555.597	18954.57
555.96	18984.63
556.323	19024.63
556.686	19125.64
557.05	19056.94
557.413	19207.67
557.776	19075.7
558.139	19344.62
558.502	19172.65
558.865	19246.54
559.228	19404.96
559.59	19375.35
559.953	19429.14
560.316	19545.97
560.679	19529.47
561.041	19657.6
561.404	19745.74
561.767	19841.78
562.129	19776.47
562.492	19981.44
562.854	19929.01
563.217	19845.85
563.579	20070.7
563.941	20102.79
564.304	20178.72
564.666	20191.6
565.028	20255.1
565.39	20270.02
565.753	20331.71
566.115	20482.22
566.477	20527.86
566.839	20476.57
567.201	20680.18
567.563	20609.22
567.925	20693.06
568.287	20644.7
568.648	20731.93
569.01	20781.42
569.372	20931.24
569.734	20916.78
570.095	21002.65
570.457	21006.5
570.819	21086.72
571.18	21044.01
571.542	21177.34
571.903	21246.49
572.265	21298.47
572.626	21333.27
572.987	21295.53
573.349	21335.3
573.71	21515.63
574.071	21502.75
574.432	21588.63
574.794	21661.39
575.155	21664.78
575.516	21616.42
575.877	21701.39
576.238	21739.58
576.599	21897.32
576.96	21841.73
577.32	21740.26
577.681	21912.01
578.042	21907.26
578.403	21913.14
578.763	21996.07
579.124	21978.22
579.485	21948.17
579.845	22043.76
580.206	22037.66
580.566	22073.81
580.927	22077.65
581.287	22158.1
581.648	21985.9
582.008	22163.98
582.368	22138.67
582.728	22169.85
583.089	22151.78
583.449	22112
583.809	22118.78
584.169	22189.74
584.529	22103.87
584.889	22266.58
585.249	22007.6
585.609	21976.87
585.969	22160.59
586.329	22180.25
586.688	22062.06
587.048	22209.85
587.408	22071.33
587.768	22158.1
588.127	22163.53
588.487	22100.93
588.846	22242.4
589.206	22031.1
589.565	22055.06
589.925	22242.4
590.284	22011.44
590.643	22156.52
591.003	22209.85
591.362	22224.32
591.721	22195.84
592.08	22179.57
592.44	22200.81
592.799	22210.31
593.158	22092.34
593.517	22163.75
593.876	22181.15
594.235	22197.2
594.593	22256.18
594.952	22158.33
595.311	22155.62
595.67	22189.29
596.029	22323.07
596.387	22249.85
596.746	22307.25
597.104	22214.37
597.463	22260.25
597.822	22338.66
598.18	22296.41
598.538	22243.98
598.897	22349.96
599.255	22145.67
599.613	22547.47
599.972	22327.82
600.33	22408.72
600.688	22314.26
601.046	22452.56
601.404	22552.9
601.762	22341.6
602.12	22472.9
602.478	22449.17
602.836	22581.6
603.194	22431.32
603.552	22538.43
603.91	22427.02
604.268	22560.81
604.625	22485.55
604.983	22515.61
605.341	22403.3
605.698	22593.8
606.056	22579.34
606.413	22565.55
606.771	22644.19
607.128	22614.59
607.485	22576.17
607.843	22699.33
608.2	22737.75
608.557	22764.87
608.914	22797.86
609.272	22808.71
609.629	22901.14
609.986	22953.34
610.343	22857.29
610.7	23034.24
611.057	23060.45
611.414	22968.03
611.771	22961.92
612.127	22982.94
612.484	22953.34
612.841	23129.6
613.198	23121.24
613.554	23081.02
613.911	23238.98
614.267	23187
614.624	23268.58
614.98	23208.7
615.337	23349.03
615.693	23276.94
616.05	23299.32
616.406	23471.97
616.762	23332.54
617.118	23367.79
617.475	23415.47
617.831	23550.84
618.187	23537.5
618.543	23529.82
618.899	23630.38
619.255	23554.45
619.611	23518.29
619.967	23633.77
620.323	23631.96
620.678	23550.84
621.034	23508.8
621.39	23627.44
621.746	23573.89
622.101	23852.07
622.457	23742.92
622.812	23756.48
623.168	23805.97
623.523	23826.76
623.879	23801.9
624.234	23731.62
624.589	23805.74
624.945	23830.38
625.3	23933.65
625.655	23861.34
626.01	23851.17
626.365	23863.6
626.72	23887.1
627.075	23796.48
627.43	23864.73
627.785	23727.33
628.14	23763.03
628.495	23818.4
628.85	23791.96
629.205	23736.59
629.559	23767.33
629.914	23763.94
630.269	23706.09
630.623	23634
630.978	23679.65
631.332	23687.1
631.687	23775.24
632.041	23643.26
632.396	23768
632.75	23616.82
633.104	23618.18
633.459	23539.99
633.813	23579.76
634.167	23653.43
634.521	23549.48
634.875	23650.72
635.229	23532.08
635.583	23441.23
635.937	23503.38
636.291	23377.51
636.645	23497.96
636.999	23361.24
637.352	23479.88
637.706	23262.93
638.06	23471.97
638.413	23415.25
638.767	23242.37
639.121	23322.59
639.474	23157.4
639.828	23239.66
640.181	23170.73
640.534	23256.38
640.888	23205.31
641.241	23090.06
641.594	23169.38
641.947	23154.46
642.301	23174.8
642.654	23154.91
643.007	23152.88
643.36	23137.97
643.713	23071.75
644.066	23261.13
644.419	22979.78
644.771	22958.53
645.124	22628.15
645.477	22624.31
645.83	22497.76
646.182	22399.23
646.535	22295.05
646.888	22340.25
647.24	22286.01
647.593	22396.52
647.945	22230.19
648.298	22269.06
648.65	22284.43
649.002	22213.24
649.355	22187.03
649.707	22366.91
650.059	22255.73
650.411	22630.63
650.763	22625.89
651.115	22938.2
651.467	22830.4
651.819	22841.02
652.171	22734.59
652.523	22670.63
652.875	22671.08
653.227	22577.08
653.578	22874.47
653.93	22787.24
654.282	22561.71
654.633	22620.01
654.985	22749.27
655.337	22547.7
655.688	22611.88
656.039	22677.86
656.391	22592.22
656.742	22556.74
657.094	22654.81
657.445	22652.55
657.796	22699.78
658.147	22597.41
658.498	22657.75
658.849	22636.06
659.2	22649.16
659.551	22545.21
659.902	22713.57
660.253	22588.37
660.604	22627.92
660.955	22596.96
661.306	22598.09
661.656	22587.7
662.007	22508.6
662.358	22634.7
662.708	22566.45
663.059	22481.94
663.409	22427.25
663.76	22511.77
664.11	22604.65
664.461	22637.87
664.811	22616.17
665.161	22582.05
665.511	22636.74
665.862	22650.07
666.212	22690.52
666.562	22599.45
666.912	22511.09
667.262	22556.06
667.612	22527.36
667.962	22561.26
668.312	22589.05
668.662	22552.9
669.011	22590.63
669.361	22519.9
669.711	22557.64
670.06	22518.09
670.41	22495.5
670.76	22556.06
671.109	22556.96
671.459	22418.66
671.808	22516.51
672.157	22452.11
672.507	22349.96
672.856	22403.3
673.205	22429.28
673.554	22492.33
673.904	22463.41
674.253	22474.03
674.602	22409.85
674.951	22059.12
675.3	22016.64
675.649	22306.57
675.998	22248.72
676.346	22290.08
676.695	22323.75
677.044	22150.65
677.393	22266.12
677.741	22272.45
678.09	22185.9
678.438	22145.9
678.787	22222.51
679.135	22190.42
679.484	22022.06
679.832	22114.04
680.181	21954.95
680.529	22045.56
680.877	22010.76
681.225	22002.4
681.573	22117.65
681.922	21880.82
682.27	21812.35
682.618	21900.03
682.966	21752.92
683.314	21848.06
683.661	21737.32
684.009	21653.48
684.357	21609.64
684.705	21531.91
685.053	21648.96
685.4	21613.94
685.748	21415.75
686.095	21483.09
686.443	21481.96
686.79	21366.03
687.138	21300.5
687.485	21363.32
687.832	21201.52
688.18	21252.14
688.527	21162.88
688.874	21190.22
689.221	21123.55
689.568	21122.65
689.915	20950
690.262	20997.46
690.609	20922.2
690.956	20819.61
691.303	20809.66
691.65	20745.49
691.997	20748.88
692.344	20543.23
692.69	20460.75
693.037	20526.51
693.383	20369
693.73	20368.55
694.077	20333.29
694.423	20295.33
694.769	20228.89
695.116	20112.96
695.462	20108.21
695.808	20059.4
696.155	20130.59
696.501	19961.33
696.847	19940.31
697.193	19769.24
697.539	19827.77
697.885	19672.07
698.231	19496.93
698.577	19520.43
698.923	19519.98
699.269	19400.89
699.614	19324.73
699.96	19369.02
700.306	19386.88
700.651	19076.83
700.997	19209.48
701.342	19144.62
701.688	19110.05
702.033	18940.79
702.379	18978.3
702.724	18892.2
703.069	18929.04
703.415	18731.53
703.76	18659.66
704.105	18691.3
704.45	18707.35
704.795	18421.7
705.14	18527.01
705.485	18429.84
705.83	18360.24
706.175	18359.11
706.52	18273.01
706.865	18225.1
707.209	18284.99
707.554	18165.21
707.899	18235.27
708.243	18098.1
708.588	18050.42
708.932	17924.32
709.277	17911.89
709.621	17889.29
709.966	17806.81
710.31	17909.4
710.654	17738.11
710.998	17687.94
711.342	17721.61
711.687	17658.56
712.031	17633.93
712.375	17488.4
712.719	17449.98
713.063	17486.36
713.407	17609.3
713.75	17414.27
714.094	17304.22
714.438	17316.88
714.782	17296.99
715.125	17289.08
715.469	17216.76
715.812	17183.77
716.156	17073.27
716.499	17119.82
716.843	17155.07
717.186	17060.38
717.53	17124.79
717.873	17102.87
718.216	17030.1
718.559	16958.01
718.902	16840.73
719.246	16847.28
719.589	16911.24
719.932	16908.75
720.275	16798.24
720.617	16878.69
720.96	16802.31
721.303	16728.87
721.646	16755.99
721.989	16599.61
722.331	16657.23
722.674	16633.28
723.016	16597.57
723.359	16628.76
723.701	16614.29
724.044	16525.71
724.386	16504.47
724.729	16511.7
725.071	16383.57
725.413	16446.62
725.755	16456.33
726.097	16351.02
726.439	16308.54
726.782	16381.08
727.124	16283.91
727.465	16245.04
727.807	16284.36
728.149	16276
728.491	16301.99
728.833	16306.05
729.175	16248.2
729.516	16160.97
729.858	16281.2
730.199	16238.26
730.541	16210.69
730.882	16181.54
731.224	16209.56
731.565	16173.4
731.906	16125.04
732.248	16009.34
732.589	16117.13
732.93	16117.36
733.271	16061.99
733.612	16040.52
733.953	15963.46
734.294	16047.08
734.635	15967.53
734.976	15993.75
735.317	15911.26
735.658	15927.31
735.999	15898.16
736.339	15941.54
736.68	15944.03
737.021	15901.77
737.361	15890.02
737.702	16018.83
738.042	15796.01
738.383	15872.17
738.723	15926.86
739.063	15882.56
739.404	15994.88
739.744	15869.23
740.084	15809.8
740.424	15839.85
740.764	15835.11
741.104	15930.92
741.444	15822.9
741.784	15796.01
742.124	15824.71
742.464	15773.41
742.804	15809.8
743.143	15813.64
743.483	15897.93
743.823	15853.86
744.162	15890.47
744.502	15859.29
744.841	15809.57
745.181	15926.86
745.52	15796.01
745.86	15900.19
746.199	15861.32
746.538	15994.65
746.877	16015.44
747.216	16057.47
747.556	16031.94
747.895	16079.85
748.234	16117.13
748.573	16091.14
748.911	16101.77
749.25	16173.18
749.589	16186.51
749.928	16197.13
750.267	16334.08
750.605	16334.53
750.944	16352.15
751.283	16352.61
751.621	16383.11
751.96	16375.66
752.298	16473.96
752.636	16534.75
752.975	16653.84
753.313	16628.31
753.651	16685.48
753.989	16675.31
754.327	16722.99
754.666	16807.51
755.004	16954.17
755.342	16996.66
755.679	17017.22
756.017	17034.85
756.355	17108.75
756.693	17230.55
757.031	17253.6
757.368	17184.45
757.706	17358.91
758.044	17389.42
758.381	17508.06
758.719	17499.47
759.056	17646.58
759.394	17700.14
759.731	17675.96
760.068	17711.67
760.405	17803.42
760.743	17860.36
761.08	17975.61
761.417	17967.48
761.754	18019.46
762.091	18122.73
762.428	18126.35
762.765	18141.03
763.102	18215.83
763.438	18146.46
763.775	18252.9
764.112	18336.96
764.449	18370.41
764.785	18354.36
765.122	18280.92
765.458	18363.85
765.795	18346
766.131	18413.34
766.467	18475.71
766.804	18520.01
767.14	18481.82
767.476	18509.16
767.812	18501.7
768.148	18588.71
768.485	18571.08
768.821	18498.77
769.157	18500.12
769.492	18458.77
769.828	18529.27
770.164	18418.77
770.5	18557.52
770.836	18432.1
771.171	18481.82
771.507	18473
771.842	18350.29
772.178	18435.26
772.513	18421.03
772.849	18414.02
773.184	18367.02
773.519	18374.02
773.855	18270.75
774.19	18277.3
774.525	18216.51
774.86	18331.99
775.195	18271.65
775.53	18168.15
775.865	18034.6
776.2	18121.15
776.535	17923.86
776.87	17990.98
777.205	18098.55
777.539	17909.85
777.874	17932.23
778.209	17866.01
778.543	17797.99
778.878	17694.72
779.212	17734.94
779.547	17629.18
779.881	17656.3
780.215	17546.02
780.55	17647.71
780.884	17530.2
781.218	17473.26
781.552	17451.33
781.886	17415.18
782.22	17365.01
782.554	17258.8
782.888	17186.26
783.222	17092.25
783.556	17042.08
783.889	17026.94
784.223	16891.8
784.557	16974.74
784.89	17019.93
785.224	16834.63
785.557	16761.64
785.891	16772.48
786.224	16758.02
786.558	16714.41
786.891	16537.01
787.224	16548.99
787.557	16438.25
787.891	16438.25
788.224	16471.25
788.557	16361.42
788.89	16297.47
789.223	16414.07
789.556	16216.11
789.888	16281.42
790.221	16184.93
790.554	16005.5
790.887	16126.62
791.219	15927.76
791.552	16018.6
791.884	15984.03
792.217	15866.74
792.549	15793.98
792.882	15770.02
793.214	15648.44
793.546	15650.25
793.879	15641.66
794.211	15420.88
794.543	15509.24
794.875	15525.28
795.207	15534.55
795.539	15348.11
795.871	15416.81
796.203	15243.03
796.535	15158.51
796.867	15220.89
797.198	15086.65
797.53	15115.35
797.862	15008.69
798.193	15033.77
798.525	14912.42
798.856	14900.22
799.188	14797.39
799.519	14806.66
799.85	14694.57
800.182	14732.31
800.513	14660.67
800.844	14545.42
801.175	14610.96
801.506	14572.77
801.837	14451.87
802.168	14475.59
802.499	14453.45
802.83	14326.9
803.161	14350.17
803.491	14384.97
803.822	14344.07
804.153	14284.41
804.483	14154.47
804.814	14104.98
805.145	14128.03
805.475	14037.87
805.805	14072.67
806.136	14025.21
806.466	13950.18
806.796	13950.18
807.126	13858.89
807.457	13873.8
807.787	13820.02
808.117	13783.86
808.447	13637.65
808.777	13763.75
809.107	13737.31
809.436	13709.96
809.766	13534.38
810.096	13535.51
810.426	13507.94
810.755	13545
811.085	13471.55
811.414	13502.96
811.744	13358.11
812.073	13342.74
812.403	13351.33
812.732	13241.05
813.061	13225.46
813.39	13181.62
813.719	13180.03
814.049	13208.96
814.378	13168.28
814.707	13053.48
815.036	13145.69
815.365	12985.24
815.693	12899.59
816.022	12887.39
816.351	12934.62
816.68	12858.69
817.008	12907.73
817.337	12708.41
817.665	12731.23
817.994	12782.08
818.322	12792.02
818.651	12683.32
818.979	12591.35
819.307	12683.78
819.636	12670.9
819.964	12587.51
820.292	12636.09
820.62	12543.89
820.948	12487.17
821.276	12560.16
821.604	12557.9
821.932	12521.52
822.259	12512.03
822.587	12455.99
822.915	12459.38
823.243	12491.01
823.57	12521.97
823.898	12528.07
824.225	12426.61
824.553	12497.34
824.88	12559.49
825.207	12564.01
825.535	12414.86
825.862	12496.66
826.189	12509.77
826.516	12485.14
826.843	12587.73
827.17	12550.22
827.497	12491.92
827.824	12466.38
828.151	12474.06
828.478	12422.09
828.805	12505.7
829.131	12371.02
829.458	12461.18
829.785	12440.85
830.111	12384.8
830.438	12527.17
830.764	12452.82
831.09	12483.56
831.417	12406.95
831.743	12495.08
832.069	12499.15
832.395	12375.54
832.722	12388.42
833.048	12377.8
833.374	12355.65
833.7	12338.7
834.026	12334.63
834.351	12381.19
834.677	12344.8
835.003	12368.08
835.329	12392.48
835.654	12294.41
835.98	12208.31
836.306	12209.66
836.631	12230.23
836.956	12223
837.282	12239.72
837.607	12195.2
837.932	12143
838.258	12178.25
838.583	12093.51
838.908	12039.05
839.233	12050.35
839.558	11952.72
839.883	12042.89
840.208	11953.63
840.533	11981.87
840.858	11942.1
841.182	11929.22
841.507	11964.47
841.832	11885.38
842.156	11917.7
842.481	11913.63
842.805	11780.98
843.13	11783.69
843.454	11812.61
843.778	11698.49
844.103	11719.96
844.427	11720.86
844.751	11651.26
845.075	11670.02
845.399	11653.3
845.723	11591.38
846.047	11555.67
846.371	11462.11
846.695	11466.41
847.019	11335.79
847.343	11373.98
847.666	11274.32
847.99	11218.05
848.313	11218.5
848.637	11131.05
848.96	11197.94
849.284	11045.18
849.607	11000.88
849.931	10999.75
850.254	10963.37
850.577	10918.63
850.9	10749.59
851.223	10812.64
851.546	10764.28
851.869	10680.44
852.192	10737.39
852.515	10645.19
852.838	10575.58
853.161	10626.43
853.483	10541.01
853.806	10451.74
854.129	10491.97
854.451	10468.24
854.774	10296.04
855.096	10290.39
855.419	10321.8
855.741	10347.57
856.063	10205.88
856.385	10164.29
856.708	10196.16
857.03	10119.55
857.352	10093.11
857.674	10111.64
857.996	10101.92
858.318	9994.36
858.64	9963.17
858.961	10014.02
859.283	9896.73
859.605	9886.34
859.926	9901.02
860.248	9783.29
860.57	9816.28
860.891	9840.91
861.212	9788.26
861.534	9707.58
861.855	9730.86
862.176	9685.89
862.498	9694.02
862.819	9750.97
863.14	9689.05
863.461	9650.41
863.782	9604.54
864.103	9608.6
864.424	9586.68
864.745	9647.02
865.065	9544.88
865.386	9550.53
865.707	9468.72
866.027	9564.99
866.348	9480.25
866.668	9565.21
866.989	9430.53
867.309	9338.33
867.63	9422.85
867.95	9496.06
868.27	9350.08
868.59	9388.72
868.91	9348.95
869.23	9405.44
869.55	9276.41
869.87	9341.27
870.19	9344.2
870.51	9301.04
870.83	9303.07
871.15	9242.96
871.469	9222.62
871.789	9237.09
872.109	9293.13
872.428	9206.35
872.748	9196.64
873.067	9160.93
873.386	9186.69
873.706	9218.33
874.025	9091.33
874.344	9102.85
874.663	9090.65
874.982	9092.01
875.301	9102.85
875.62	9003.65
875.939	9012.23
876.258	8974.27
876.577	8974.27
876.896	9003.87
877.214	8901.5
877.533	8950.32
877.852	8910.09
878.17	8920.71
878.489	8906.47
878.807	8919.81
879.125	8838.45
879.444	8861.05
879.762	8893.37
880.08	8885.23
880.398	8862.18
880.716	8793.71
881.034	8801.39
881.352	8852.24
881.67	8754.61
881.988	8679.14
882.306	8763.88
882.624	8702.64
882.941	8611.79
883.259	8633.94
883.577	8612.92
883.894	8566.6
884.212	8522.08
884.529	8555.98
884.846	8480.72
885.164	8586.03
885.481	8498.12
885.798	8514.62
886.115	8398.24
886.432	8464.45
886.75	8419.71
887.067	8392.14
887.383	8392.14
887.7	8396.21
888.017	8324.8
888.334	8363.44
888.651	8331.57
888.967	8300.84
889.284	8251.58
889.6	8245.48
889.917	8165.48
890.233	8233.5
890.55	8173.84
890.866	8151.47
891.182	8174.29
891.498	8137.46
891.815	8071.02
892.131	8053.62
892.447	8049.32
892.763	7986.05
893.079	8045.48
893.395	8011.13
893.71	7934.52
894.026	7931.13
894.342	7932.26
894.657	7837.35
894.973	7840.06
895.289	7852.49
895.604	7776.79
895.92	7777.24
896.235	7731.36
896.55	7715.55
896.865	7647.3
897.181	7676.9
897.496	7677.13
897.811	7553.06
898.126	7653.85
898.441	7493.18
898.756	7487.98
899.071	7437.36
899.386	7485.72
899.7	7409.34
900.015	7417.47
900.33	7351.26
900.644	7339.74
900.959	7323.01
901.273	7328.66
901.588	7307.65
901.902	7271.72
902.216	7240.08
902.531	7216.35
902.845	7185.62
903.159	7172.51
903.473	7137.93
903.787	7084.6
904.101	7037.15
904.415	7084.38
904.729	6992.4
905.042	7020.2
905.356	6973.64
905.67	6890.03
905.984	6915.79
906.297	6912.4
906.611	6878.73
906.924	6818.17
907.237	6862.69
907.551	6777.04
907.864	6790.6
908.177	6760.32
908.491	6758.51
908.804	6664.27
909.117	6660.43
909.43	6637.38
909.743	6531.4
910.056	6582.47
910.368	6539.53
910.681	6501.57
910.994	6492.53
911.307	6471.28
911.619	6453.43
911.932	6422.02
912.244	6389.7
912.557	6389.93
912.869	6335.47
913.181	6305.41
913.494	6297.5
913.806	6198.98
914.118	6247.34
914.43	6195.36
914.742	6200.33
915.054	6167.56
915.366	6171.41
915.678	6147.23
915.99	6108.13
916.302	6048.47
916.613	6048.47
916.925	6005.76
917.236	6009.38
917.548	5928.25
917.859	5968.47
918.171	5950.39
918.482	5904.07
918.794	5862.26
919.105	5891.86
919.416	5796.95
919.727	5806.44
920.038	5791.98
920.349	5812.32
920.66	5748.37
920.971	5685.32
921.282	5704.07
921.593	5647.58
921.903	5646
922.214	5589.73
922.525	5581.82
922.835	5621.59
923.146	5504.76
923.456	5466.57
923.767	5504.98
924.077	5508.15
924.387	5507.92
924.697	5447.58
925.008	5429.96
925.318	5385.66
925.628	5361.03
925.938	5397.41
926.248	5326.68
926.558	5299.79
926.867	5298.21
927.177	5253.92
927.487	5217.53
927.796	5192
928.106	5229.74
928.416	5195.61
928.725	5167.14
929.034	5153.13
929.344	5112.68
929.653	5096.63
929.962	5040.14
930.271	5079.91
930.581	5046.01
930.89	4979.8
931.199	4967.14
931.508	4970.53
931.817	4966.47
932.125	4934.6
932.434	4929.63
932.743	4796.53
933.051	4821.16
933.36	4800.82
933.669	4769.63
933.977	4756.3
934.286	4790.2
934.594	4740.48
934.902	4731.22
935.21	4713.59
935.519	4730.54
935.827	4684.21
936.135	4650.32
936.443	4604.89
936.751	4643.31
937.059	4576.65
937.367	4544.33
937.674	4552.69
937.982	4544.56
938.29	4547.04
938.597	4517.44
938.905	4471.56
939.213	4458.23
939.52	4418.68
939.827	4448.51
940.135	4409.19
940.442	4398.12
940.749	4358.8
941.056	4390.89
941.363	4304.56
941.67	4288.74
941.977	4261.17
942.284	4269.53
942.591	4253.26
942.898	4222.98
943.205	4265.92
943.511	4234.06
943.818	4171.91
944.125	4140.72
944.431	4154.06
944.738	4146.6
945.044	4103.21
945.35	4077.45
945.657	4044.68
945.963	4062.76
946.269	4035.19
946.575	4011.46
946.881	4020.28
947.187	3982.76
947.493	3993.61
947.799	3962.88
948.105	3925.59
948.41	3907.96
948.716	3904.8
949.022	3899.15
949.327	3868.42
949.633	3850.79
949.938	3835.2
950.244	3858.02
950.549	3776.89
950.854	3771.02
951.16	3787.74
951.465	3713.62
951.77	3728.53
952.075	3670.91
952.38	3703.45
952.685	3706.16
952.99	3684.92
953.294	3651.02
953.599	3664.8
953.904	3630.91
954.209	3578.71
954.513	3596.56
954.818	3567.86
955.122	3637.01
955.426	3538.03
955.731	3557.46
956.035	3526.73
956.339	3504.13
956.643	3498.71
956.948	3468.65
957.252	3497.35
957.556	3449.67
957.86	3425.94
958.163	3451.03
958.467	3430.23
958.771	3378.48
959.075	3395.21
959.378	3395.66
959.682	3347.07
959.985	3332.16
960.289	3311.14
960.592	3299.84
960.896	3304.59
961.199	3262.1
961.502	3266.85
961.805	3243.57
962.108	3238.83
962.411	3204.25
962.714	3193.86
963.017	3236.79
963.32	3208.32
963.623	3167.87
963.926	3195.21
964.228	3122.67
964.531	3146.17
964.833	3159.28
965.136	3100.3
965.438	3092.62
965.741	3067.08
966.043	3048.1
966.345	3041.77
966.648	3009.23
966.95	3038.83
967.252	2960.42
967.554	2992.73
967.856	3003.81
968.158	2960.19
968.46	2970.13
968.761	2955.9
969.063	2928.33
969.365	2904.6
969.666	2930.13
969.968	2879.74
970.269	2861.44
970.571	2879.74
970.872	2856.92
971.174	2824.15
971.475	2860.08
971.776	2814.43
972.077	2823.92
972.378	2796.13
972.679	2800.87
972.98	2760.65
973.281	2740.99
973.582	2771.04
973.883	2732.85
974.183	2737.6
974.484	2774.21
974.785	2719.52
975.085	2698.05
975.386	2702.57
975.686	2657.15
975.986	2640.65
976.287	2664.61
976.587	2628.22
976.887	2629.13
977.187	2573.53
977.487	2589.8
977.787	2591.61
978.087	2531.5
978.387	2567.88
978.687	2541.44
978.987	2559.07
979.286	2526.3
979.586	2502.35
979.885	2539.86
980.185	2515
980.484	2495.34
980.784	2448.34
981.083	2448.11
981.382	2461.45
981.682	2448.34
981.981	2459.64
982.28	2464.38
982.579	2410.6
982.878	2408.79
983.177	2374.9
983.475	2401.34
983.774	2413.09
984.073	2361.79
984.372	2352.3
984.67	2353.2
984.969	2336.7
985.267	2313.88
985.566	2296.71
985.864	2314.78
986.162	2302.81
986.461	2262.13
986.759	2275.01
987.057	2258.51
987.355	2226.42
987.653	2260.1
987.951	2234.79
988.249	2235.24
988.547	2239.98
988.844	2179.87
989.142	2189.36
989.44	2176.71
989.737	2162.02
990.035	2135.13
990.332	2135.58
990.63	2173.77
990.927	2135.58
991.224	2159.53
991.521	2127.9
991.819	2112.76
992.116	2161.12
992.413	2111.63
992.71	2097.16
993.006	2070.04
993.303	2068.91
993.6	2070.72
993.897	2073.89
994.193	2012.42
994.49	2011.74
994.787	2028.92
995.083	2011.74
995.379	1979.2
995.676	1968.35
995.972	2001.57
996.268	1965.19
996.565	1930.16
996.861	1931.07
997.157	1950.05
997.453	1909.37
997.749	1919.31
998.044	1906.43
998.34	1902.82
998.636	1887.9
998.932	1904.85
999.227	1855.81
999.523	1903.27
999.818	1889.26
1000.114	1860.33
1000.409	1844.51
1000.704	1824.85
1001	1811.07
1001.295	1797.51
1001.59	1802.48
1001.885	1792.31
1002.18	1759.77
1002.475	1772.65
1002.77	1764.74
1003.065	1753.22
1003.359	1763.39
1003.654	1730.62
1003.949	1706.89
1004.243	1721.35
1004.538	1695.37
1004.832	1679.55
1005.127	1703.95
1005.421	1688.59
1005.715	1667.12
1006.009	1660.79
1006.304	1656.95
1006.598	1635.48
1006.892	1644.52
1007.186	1629.83
1007.48	1594.35
1007.773	1587.12
1008.067	1609.04
1008.361	1579.66
1008.655	1562.94
1008.948	1563.62
1009.242	1577.18
1009.535	1554.8
1009.829	1557.52
1010.122	1513.67
1010.415	1506.44
1010.708	1519.78
1011.001	1513.45
1011.295	1493.34
1011.588	1519.1
1011.881	1490.4
1012.173	1478.42
1012.466	1470.29
1012.759	1466.44
1013.052	1456.5
1013.344	1454.24
1013.637	1424.86
1013.93	1415.37
1014.222	1421.7
1014.514	1462.83
1014.807	1408.37
1015.099	1402.49
1015.391	1374.47
1015.683	1363.17
1015.976	1358.42
1016.268	1391.19
1016.56	1358.2
1016.851	1353.91
1017.143	1355.94
1017.435	1341.02
1017.727	1309.16
1018.018	1295.83
1018.31	1323.62
1018.602	1318.2
1018.893	1310.52
1019.185	1296.96
1019.476	1267.35
1019.767	1254.7
1020.058	1298.31
1020.35	1244.53
1020.641	1249.95
1020.932	1251.76
1021.223	1221.25
1021.514	1228.94
1021.804	1222.16
1022.095	1208.82
1022.386	1216.28
1022.677	1206.11
1022.967	1196.62
1023.258	1158.66
1023.548	1178.99
1023.839	1162.27
1024.129	1146.9
1024.419	1179.45
1024.709	1126.34
1025	1131.09
1025.29	1149.39
1025.58	1139.22
1025.87	1115.95
1026.16	1127.24
1026.449	1104.42
1026.739	1106.45
1027.029	1104.65
1027.319	1104.87
1027.608	1073.01
1027.898	1088.38
1028.187	1070.3
1028.477	1044.99
1028.766	1072.78
1029.055	1038.66
1029.344	1046.12
1029.634	1026.46
1029.923	1004.99
1030.212	998.21
1030.501	1004.54
1030.79	1002.73
1031.078	1006.57
1031.367	1014.93
1031.656	970.41
1031.945	984.88
1032.233	986.68
1032.522	964.76
1032.81	965.21
1033.099	949.85
1033.387	948.94
1033.675	929.96
1033.963	947.59
1034.251	939.9
1034.54	952.79
1034.828	941.26
1035.116	905.78
1035.403	920.47
1035.691	915.27
1035.979	879.57
1036.267	899
1036.554	888.38
1036.842	871.88
1037.129	890.19
1037.417	898.55
1037.704	865.78
1037.992	842.96
1038.279	844.54
1038.566	854.71
1038.853	854.71
1039.14	854.71
