Data from hue_340_FLMS001491_69.txt Node
Date: Mon Feb 06 15:43:27 GMT 2017
User: dcchb
Spectrometer: FLMS00149
Trigger mode: 0
Integration Time (sec): 2.000000E-2
Scans to average: 10
Electric dark correction enabled: true
Nonlinearity correction enabled: false
Boxcar width: 0
XAxis mode: Wavelengths
Number of Pixels in Spectrum: 2048
>>>>>Begin Spectral Data<<<<<
341.393	1.54
341.776	1.54
342.16	1.54
342.543	-68.06
342.927	-67.39
343.31	-61.51
343.693	-70.77
344.077	-74.84
344.46	-70.55
344.843	-38.23
345.226	-29.87
345.61	-19.25
345.993	-22.87
346.376	-6.6
346.759	2.9
347.142	12.39
347.525	40.63
347.908	68.88
348.291	74.08
348.674	82.44
349.057	113.17
349.44	114.53
349.823	130.35
350.206	159.28
350.588	182.33
350.971	208.31
351.354	213.29
351.737	247.41
352.119	244.47
352.502	260.06
352.884	272.04
353.267	270.68
353.65	298.03
354.032	291.7
354.414	287.86
354.797	312.94
355.179	311.36
355.562	312.27
355.944	329.21
356.326	309.55
356.709	309.78
357.091	332.38
357.473	340.74
357.855	335.54
358.238	332.6
358.62	350.23
359.002	319.5
359.384	341.87
359.766	333.28
360.148	324.92
360.53	343.45
360.912	326.95
361.294	333.28
361.676	324.47
362.057	329.89
362.439	342.77
362.821	326.28
363.203	320.4
363.584	327.86
363.966	314.98
364.348	315.43
364.729	307.75
365.111	321.98
365.493	320.4
365.874	328.54
366.256	308.2
366.637	317.01
367.019	293.74
367.4	329.67
367.781	304.81
368.163	329.67
368.544	315.43
368.925	312.04
369.306	300.97
369.688	308.88
370.069	320.4
370.45	323.34
370.831	310.46
371.212	319.95
371.593	286.05
371.974	322.66
372.355	299.16
372.736	304.13
373.117	308.88
373.498	321.53
373.879	301.42
374.26	314.98
374.641	316.11
375.021	312.94
375.402	318.14
375.783	310.68
376.163	310.91
376.544	335.99
376.925	315.66
377.305	293.74
377.686	310.68
378.066	321.98
378.447	321.08
378.827	332.83
379.208	335.54
379.588	316.33
379.968	320.63
380.349	340.29
380.729	325.37
381.109	324.02
381.489	330.12
381.87	323.79
382.25	321.76
382.63	335.09
383.01	320.85
383.39	328.76
383.77	338.48
384.15	343.9
384.53	361.3
384.91	317.46
385.29	344.36
385.67	344.36
386.049	357.91
386.429	339.38
386.809	343.23
387.189	350.23
387.568	341.19
387.948	348.2
388.328	338.93
388.707	345.03
389.087	352.04
389.466	365.82
389.846	377.12
390.225	352.26
390.605	367.41
390.984	354.3
391.363	352.72
391.743	336.45
392.122	357.24
392.501	350.68
392.881	365.15
393.26	368.08
393.639	349.78
394.018	355.88
394.397	381.19
394.776	355.65
395.155	377.12
395.534	364.24
395.913	382.77
396.292	369.67
396.671	345.71
397.05	373.96
397.429	355.43
397.808	363.11
398.186	375.09
398.565	368.08
398.944	386.16
399.323	379.38
399.701	390.46
400.08	378.48
400.458	371.7
400.837	379.38
401.215	383.45
401.594	379.16
401.972	390.46
402.351	377.12
402.729	389.55
403.107	390.91
403.486	427.97
403.864	410.57
404.242	400.4
404.62	424.13
404.999	415.77
405.377	388.42
405.755	400.17
406.133	419.16
406.511	426.84
406.889	409.44
407.267	457.35
407.645	414.64
408.023	414.64
408.401	429.78
408.779	409.89
409.156	423.68
409.534	428.87
409.912	435.43
410.29	429.1
410.667	441.53
411.045	426.16
411.422	437.91
411.8	448.08
412.178	464.8
412.555	445.6
412.933	461.64
413.31	468.42
413.687	470.23
414.065	504.35
414.442	481.98
414.819	476.33
415.197	491.47
415.574	500.51
415.951	488.98
416.328	517.23
416.705	506.61
417.082	502.32
417.46	507.97
417.837	521.53
418.214	506.38
418.591	531.02
418.967	511.58
419.344	545.25
419.721	531.24
420.098	531.24
420.475	529.44
420.852	548.64
421.228	544.12
421.605	551.36
421.982	567.4
422.358	563.33
422.735	561.75
423.111	566.04
423.488	579.6
423.864	567.63
424.241	583.9
424.617	589.32
424.994	572.37
425.37	582.32
425.746	585.48
426.123	621.41
426.499	607.4
426.875	620.96
427.251	626.38
427.627	636.33
428.003	636.55
428.379	634.74
428.756	638.13
429.132	638.81
429.507	654.18
429.883	678.13
430.259	670
430.635	674.52
431.011	651.24
431.387	677.45
431.763	662.09
432.138	674.74
432.514	712.48
432.89	710.67
433.265	738.7
433.641	718.36
434.016	724.68
434.392	730.56
434.767	726.49
435.143	714.74
435.518	749.77
435.894	781.41
436.269	768.98
436.644	759.49
437.02	773.72
437.395	797.22
437.77	800.39
438.145	801.52
438.52	803.55
438.895	809.43
439.271	814.63
439.646	820.5
440.021	811.01
440.395	820.28
440.77	790.67
441.145	816.43
441.52	846.26
441.895	817.56
442.27	873.16
442.645	837.9
443.019	832.48
443.394	841.97
443.769	874.74
444.143	845.81
444.518	860.95
444.892	871.57
445.267	878.58
445.641	881.97
446.016	900.5
446.39	892.36
446.764	917
447.139	902.98
447.513	898.01
447.887	881.52
448.262	892.36
448.636	893.27
449.01	910.22
449.384	883.55
449.758	949.31
450.132	909.09
450.506	931.23
450.88	939.37
451.254	921.52
451.628	940.05
452.002	934.4
452.376	960.16
452.75	964.9
453.123	963.55
453.497	945.24
453.871	953.83
454.244	997.9
454.618	992.25
454.992	997.67
455.365	980.5
455.739	1003.1
456.112	1021.17
456.486	1032.47
456.859	1019.82
457.232	1037.9
457.606	1077.22
457.979	1030.89
458.352	1077.22
458.725	1065.01
459.099	1097.78
459.472	1098.01
459.845	1110.66
460.218	1118.12
460.591	1098.91
460.964	1120.83
461.337	1138.68
461.71	1138.01
462.083	1162.64
462.456	1174.62
462.829	1151.11
463.201	1154.73
463.574	1184.79
463.947	1202.19
464.32	1233.37
464.692	1210.77
465.065	1213.49
465.438	1230.21
465.81	1258.68
466.183	1260.72
466.555	1284.9
466.928	1313.37
467.3	1290.32
467.672	1328.28
468.045	1321.05
468.417	1353.14
468.789	1357.21
469.161	1373.71
469.534	1385.46
469.906	1393.14
470.278	1406.7
470.65	1432.01
471.022	1429.98
471.394	1433.37
471.766	1472.69
472.138	1503.65
472.51	1530.76
472.882	1483.08
473.253	1557.88
473.625	1557.43
473.997	1597.2
474.369	1607.82
474.74	1624.32
475.112	1648.28
475.484	1652.12
475.855	1674.94
476.227	1702.06
476.598	1703.42
476.97	1750.42
477.341	1773.7
477.713	1812.57
478.084	1804.88
478.455	1866.58
478.827	1869.29
479.198	1907.48
479.569	1893.24
479.94	1937.08
480.311	1978.21
480.682	2004.2
481.053	2032.9
481.424	2046.01
481.795	2098.43
482.166	2101.82
482.537	2123.07
482.908	2143.63
483.279	2159.9
483.65	2227.24
484.021	2266.56
484.391	2269.73
484.762	2277.64
485.133	2314.02
485.503	2367.58
485.874	2441.25
486.244	2401.02
486.615	2456.16
486.985	2485.99
487.356	2493.45
487.726	2573
488.097	2580.23
488.467	2584.07
488.837	2621.58
489.207	2658.87
489.578	2697.29
489.948	2709.26
490.318	2778.42
490.688	2750.39
491.058	2799.88
491.428	2838.08
491.798	2862.48
492.168	2949.94
492.538	2910.16
492.908	2961.01
493.278	2978.41
493.648	3005.75
494.017	3023.15
494.387	3051.4
494.757	3094.11
495.126	3102.25
495.496	3102.93
495.866	3186.99
496.235	3169.37
496.605	3206.88
496.974	3188.35
497.344	3235.13
497.713	3285.97
498.082	3241.45
498.452	3320.32
498.821	3333.88
499.19	3346.54
499.559	3402.35
499.928	3345.86
500.298	3409.59
500.667	3407.1
501.036	3416.82
501.405	3410.04
501.774	3475.8
502.143	3489.81
502.512	3475.8
502.88	3491.17
503.249	3508.57
503.618	3522.12
503.987	3532.29
504.356	3562.58
504.724	3587.66
505.093	3623.37
505.462	3635.34
505.83	3635.12
506.199	3671.05
506.567	3702.23
506.936	3689.8
507.304	3729.8
507.672	3704.04
508.041	3706.75
508.409	3732.97
508.777	3770.48
509.145	3803.7
509.514	3770.71
509.882	3824.49
510.25	3810.25
510.618	3866.75
510.986	3854.77
511.354	3905.17
511.722	3875.79
512.09	3935.67
512.458	3885.28
512.826	3920.76
513.193	3913.3
513.561	3951.04
513.929	3946.07
514.297	3977.93
514.664	3998.95
515.032	4031.04
515.4	4030.13
515.767	4050.92
516.135	4057.03
516.502	4036.91
516.869	4130.02
517.237	4104.03
517.604	4075.56
517.972	4114.88
518.339	4127.98
518.706	4118.04
519.073	4144.48
519.44	4153.52
519.808	4185.61
520.175	4186.51
520.542	4220.41
520.909	4250.47
521.276	4221.54
521.643	4241.43
522.009	4274.65
522.376	4275.55
522.743	4329.79
523.11	4306.29
523.477	4346.74
523.843	4371.82
524.21	4382.89
524.577	4426.96
524.943	4429.22
525.31	4422.89
525.676	4470.12
526.043	4501.76
526.409	4547.18
526.776	4588.76
527.142	4554.64
527.508	4571.81
527.874	4580.85
528.241	4618.14
528.607	4620.4
528.973	4730
529.339	4685.71
529.705	4727.29
530.071	4752.15
530.437	4780.62
530.803	4786.95
531.169	4827.85
531.535	4796.89
531.901	4822.43
532.267	4842.99
532.632	4869.66
532.998	4903.33
533.364	4926.16
533.73	4960.96
534.095	5018.81
534.461	4979.71
534.826	5033.27
535.192	5086.83
535.557	5016.1
535.923	5059.49
536.288	5078.92
536.653	5117.79
537.019	5123.89
537.384	5141.74
537.749	5202.31
538.114	5162.76
538.479	5146.04
538.845	5212.02
539.21	5233.04
539.575	5237.79
539.94	5237.56
540.305	5301.29
540.67	5309.65
541.034	5284.79
541.399	5370.21
541.764	5340.83
542.129	5408.85
542.494	5399.36
542.858	5434.39
543.223	5403.88
543.587	5463.09
543.952	5477.33
544.316	5545.8
544.681	5475.97
545.045	5542.64
545.41	5602.07
545.774	5640.49
546.138	5628.28
546.503	5649.75
546.867	5664.67
547.231	5700.82
547.595	5742.18
547.959	5732.91
548.324	5733.59
548.688	5753.93
549.052	5774.95
549.416	5768.62
549.779	5852.46
550.143	5809.75
550.507	5877.09
550.871	5927.03
551.235	5907.15
551.599	5917.09
551.962	5969.97
552.326	5939.24
552.689	6029.4
553.053	5996.86
553.417	5986.01
553.78	6057.65
554.143	6083.64
554.507	6079.12
554.87	6102.17
555.234	6146.91
555.597	6132.45
555.96	6108.72
556.323	6186.24
556.686	6193.24
557.05	6223.52
557.413	6224.65
557.776	6222.17
558.139	6302.16
558.502	6280.02
558.865	6268.27
559.228	6341.71
559.59	6358.89
559.953	6340.13
560.316	6396.17
560.679	6418.09
561.041	6411.77
561.404	6469.62
561.767	6493.57
562.129	6556.62
562.492	6524.98
562.854	6537.86
563.217	6559.79
563.579	6573.8
563.941	6582.16
564.304	6657.86
564.666	6675.26
565.028	6661.48
565.39	6653.34
565.753	6673.23
566.115	6760.01
566.477	6763.4
566.839	6764.07
567.201	6837.52
567.563	6829.83
567.925	6862.6
568.287	6865.54
568.648	6854.47
569.01	6949.61
569.372	6968.59
569.734	6985.99
570.095	7010.62
570.457	7067.12
570.819	7060.11
571.18	7108.02
571.542	7188.02
571.903	7195.7
572.265	7222.37
572.626	7253.78
572.987	7261.01
573.349	7307.79
573.71	7370.84
574.071	7329.48
574.432	7401.12
574.794	7519.31
575.155	7562.47
575.516	7550.04
575.877	7691.96
576.238	7658.06
576.599	7797.49
576.96	7850.82
577.32	7827.55
577.681	7981.22
578.042	8020.99
578.403	8046.3
578.763	8159.74
579.124	8246.75
579.485	8345.73
579.845	8425.95
580.206	8524.93
580.566	8551.82
580.927	8679.73
581.287	8795.66
581.648	8953.39
582.008	9103.22
582.368	9161.07
582.728	9297.11
583.089	9431.35
583.449	9526.26
583.809	9689.19
584.169	9872.01
584.529	10069.52
584.889	10226.81
585.249	10309.29
585.609	10477.65
585.969	10703.18
586.329	10822.72
586.688	11049.61
587.048	11322.82
587.408	11387.45
587.768	11664.28
588.127	11839.42
588.487	12074.67
588.846	12324.83
589.206	12453.87
589.565	12733.41
589.925	13042.33
590.284	13197.12
590.643	13413.16
591.003	13663.78
591.362	14021.74
591.721	14262.86
592.08	14546.92
592.44	14772
592.799	15039.79
593.158	15367.01
593.517	15511.87
593.876	15865.76
594.235	16020.78
594.593	16333.31
594.952	16680.65
595.311	16855.33
595.67	17223.46
596.029	17480.63
596.387	17764.69
596.746	18101.4
597.104	18282.64
597.463	18613.48
597.822	18965.56
598.18	19111.09
598.538	19395.61
598.897	19837.63
599.255	20004.63
599.613	20592.86
599.972	20644.84
600.33	20983.36
600.688	21108.1
601.046	21519.62
601.404	21923.9
601.762	22014.07
602.12	22405.47
602.478	22597.1
602.836	22890.2
603.194	23090.65
603.552	23244.77
603.91	23548.27
604.268	23938.76
604.625	23968.82
604.983	24343.05
605.341	24466.21
605.698	24834.56
606.056	25134.21
606.413	25307.09
606.771	25634.76
607.128	25851.03
607.485	25965.83
607.843	26246.5
608.2	26639.94
608.557	26951.57
608.914	27022.75
609.272	27262.97
609.629	27527.6
609.986	27958.09
610.343	27749.96
610.7	28338.87
611.057	28389.27
611.414	28521.69
611.771	28866.54
612.127	29096.82
612.484	29254.78
612.841	29345.4
613.198	29507.88
613.554	29683.47
613.911	30043.24
614.267	30159.84
614.624	30287.3
614.98	30400.97
615.337	30743.78
615.693	30852.71
616.05	30919.14
616.406	31322.07
616.762	31263.09
617.118	31429.41
617.475	31601.61
617.831	31718.22
618.187	31925.22
618.543	32019.45
618.899	32312.33
619.255	32411.53
619.611	32500.12
619.967	32669.61
620.323	32867.34
620.678	32802.03
621.034	32785.31
621.39	32903.27
621.746	32983.5
622.101	33508.91
622.457	33263.26
622.812	33468.68
623.168	33623.03
623.523	33664.61
623.879	33922.46
624.234	33654.44
624.589	33998.61
624.945	33990.02
625.3	34147.53
625.655	34163.58
626.01	34354.31
626.365	34442.67
626.72	34580.97
627.075	34564.02
627.43	34641.98
627.785	34570.57
628.14	34623.91
628.495	34772.38
628.85	34809.44
629.205	34730.12
629.559	35027.06
629.914	35011.47
630.269	34933.95
630.623	34983.22
630.978	34930.79
631.332	35148.41
631.687	35222.99
632.041	35041.97
632.396	35136.66
632.75	35115.64
633.104	35196.77
633.459	35100.5
633.813	35221.18
634.167	35133.05
634.521	35183.89
634.875	35272.7
635.229	35344.57
635.583	35115.87
635.937	35245.81
636.291	35084.01
636.645	35102.09
636.999	35243.32
637.352	35293.72
637.706	35167.39
638.06	35329.2
638.413	35124.46
638.767	35306.37
639.121	35281.97
639.474	35071.35
639.828	35172.82
640.181	35299.37
640.534	35145.93
640.888	35163.55
641.241	35085.59
641.594	35180.28
641.947	35284.45
642.301	35189.31
642.654	35155.19
643.007	35156.1
643.36	35213.27
643.713	35113.38
644.066	35292.36
644.419	35028.42
644.771	34806.05
645.124	34423.46
645.477	34431.37
645.83	34263.46
646.182	34166.97
646.535	34118.61
646.888	34202.22
647.24	34021.44
647.593	34287.19
647.945	34090.59
648.298	34069.57
648.65	33878.16
649.002	33932.62
649.355	34117.03
649.707	34053.98
650.059	34187.76
650.411	34589.56
650.763	34601.53
651.115	34947.74
651.467	34887.85
651.819	34712.94
652.171	34730.8
652.523	34705.03
652.875	34696.67
653.227	34650.8
653.578	34738.25
653.93	34652.83
654.282	34463.23
654.633	34454.87
654.985	34634.08
655.337	34601.08
655.688	34566.73
656.039	34698.03
656.391	34380.52
656.742	34505.04
657.094	34503.46
657.445	34679.27
657.796	34525.38
658.147	34517.24
658.498	34196.8
658.849	34612.61
659.2	34440.63
659.551	34462.55
659.902	34560.86
660.253	34439.05
660.604	34589.33
660.955	34291.49
661.306	34497.36
661.656	34422.1
662.007	34410.35
662.358	34328.09
662.708	34304.37
663.059	34438.37
663.409	34156.12
663.76	34467.53
664.11	34503.01
664.461	34411.93
664.811	34332.39
665.161	34385.04
665.511	34337.13
665.862	34468.88
666.212	34425.95
666.562	34347.53
666.912	34412.84
667.262	34358.38
667.612	34265.05
667.962	34354.08
668.312	34339.17
668.662	34493.97
669.011	34380.07
669.361	34276.57
669.711	34327.64
670.06	34232.5
670.41	34221.2
670.76	34219.17
671.109	34322.44
671.459	34195.22
671.808	34092.62
672.157	34233.63
672.507	34078.61
672.856	34110.25
673.205	34161.09
673.554	34310.92
673.904	33969.91
674.253	34223.69
674.602	34046.07
674.951	33622.8
675.3	33442.92
675.649	34050.59
675.998	33922
676.346	33977.6
676.695	34090.59
677.044	33823.02
677.393	33936.69
677.741	33991.15
678.09	33875.45
678.438	33813.31
678.787	33967.88
679.135	33956.35
679.484	33678.62
679.832	33871.38
680.181	33511.84
680.529	33745.96
680.877	33570.37
681.225	33491.96
681.573	33867.77
681.922	33583.48
682.27	33421.45
682.618	33454.9
682.966	33338.97
683.314	33444.05
683.661	33414.22
684.009	33154.79
684.357	33165.87
684.705	33135.36
685.053	33037.06
685.4	33176.49
685.748	33011.07
686.095	32979.88
686.443	32850.39
686.79	32785.99
687.138	32828.02
687.485	32824.18
687.832	32683.17
688.18	32739.89
688.527	32531.53
688.874	32401.82
689.221	32600.91
689.568	32427.13
689.915	32297.41
690.262	32292.22
690.609	32337.19
690.956	32107.14
691.303	31987.82
691.65	32012.9
691.997	31913.47
692.344	31772.23
692.69	31849.29
693.037	31719.58
693.383	31538.11
693.73	31725
694.077	31471.9
694.423	31398.45
694.769	31508.28
695.116	31336.53
695.462	31274.84
695.808	31083.89
696.155	31363.43
696.501	30949.88
696.847	30940.39
697.193	30655.42
697.539	30887.73
697.885	30683.9
698.231	30516.67
698.577	30482.77
698.923	30519.16
699.269	30313.96
699.614	30155.77
699.96	30197.13
700.306	30155.55
700.651	29998.26
700.997	30060.64
701.342	29937.25
701.688	29923.24
702.033	29817.48
702.379	29820.42
702.724	29539.75
703.069	29855.67
703.415	29256.59
703.76	29471.5
704.105	29320.32
704.45	29303.82
704.795	29117.16
705.14	29040.78
705.485	28998.29
705.83	28955.58
706.175	29083.03
706.52	28921.46
706.865	28867.22
707.209	28727.11
707.554	28688.24
707.899	28795.36
708.243	28563.95
708.588	28524.41
708.932	28403.73
709.277	28333.68
709.621	28348.59
709.966	28134.59
710.31	28226.33
710.654	28009.84
710.998	28111.53
711.342	28184.53
711.687	27949.73
712.031	27741.38
712.375	27769.62
712.719	27830.86
713.063	27769.62
713.407	27860.24
713.75	27664.54
714.094	27613.24
714.438	27469.29
714.782	27518.56
715.125	27405.79
715.469	27430.65
715.812	27316.75
716.156	27233.37
716.499	27267.72
716.843	27224.33
717.186	27069.98
717.53	27148.4
717.873	27208.51
718.216	27011.45
718.559	26885.58
718.902	26749.76
719.246	26901.4
719.589	26671.8
719.932	26603.1
720.275	26642.42
720.617	26592.93
720.96	26587.51
721.303	26581.86
721.646	26510
721.989	26454.86
722.331	26543.89
722.674	26359.49
723.016	26389.09
723.359	26281.98
723.701	26228.65
724.044	26235.43
724.386	25961.53
724.729	26162.21
725.071	26052.15
725.413	26058.48
725.755	26136.9
726.097	25895.55
726.439	25800.86
726.782	25778.49
727.124	25922.44
727.465	25755.44
727.807	25730.35
728.149	25636.57
728.491	25531.72
728.833	25707.3
729.175	25540.3
729.516	25463.02
729.858	25415.79
730.199	25549.57
730.541	25482.45
730.882	25414.66
731.224	25487.88
731.565	25207.43
731.906	25303.7
732.248	25346.64
732.589	25147.54
732.93	25141.67
733.271	25109.81
733.612	25180.54
733.953	25147.77
734.294	24978.28
734.635	24878.63
734.976	24971.28
735.317	24819.87
735.658	24820.77
735.999	24975.12
736.339	24819.19
736.68	24735.13
737.021	24774.9
737.361	24702.13
737.702	24705.07
738.042	24689.03
738.383	24595.7
738.723	24632.3
739.063	24571.29
739.404	24503.95
739.744	24497.62
740.084	24334.01
740.424	24467.34
740.764	24382.59
741.104	24462.59
741.444	24314.12
741.784	24238.87
742.124	24281.81
742.464	24296.04
742.804	24194.35
743.143	24149.83
743.483	24218.3
743.823	24014.02
744.162	23983.73
744.502	24103.73
744.841	23883.17
745.181	23967.01
745.52	23913.91
745.86	23928.59
746.199	23912.55
746.538	23885.21
746.877	23961.36
747.216	23889.95
747.556	23722.27
747.895	23711.88
748.234	23690.86
748.573	23618.55
748.911	23517.08
749.25	23522.05
749.589	23365.22
749.928	23362.96
750.267	23501.03
750.605	23397.31
750.944	23412.68
751.283	23323.19
751.621	23347.37
751.96	23183.75
752.298	23177.43
752.636	23079.58
752.975	23141.5
753.313	22992.12
753.651	23118.22
753.989	22922.52
754.327	22862.41
754.666	22828.28
755.004	22820.37
755.342	22721.62
755.679	22725.46
756.017	22514.39
756.355	22736.99
756.693	22569.08
757.031	22479.14
757.368	22470.33
757.706	22448.86
758.044	22261.97
758.381	22478.91
758.719	22246.83
759.056	22208.87
759.394	22202.09
759.731	22047.97
760.068	21990.57
760.405	21983.79
760.743	21921.64
761.08	21794.86
761.417	21792.6
761.754	21715.09
762.091	21648.43
762.428	21572.27
762.765	21555.32
763.102	21546.28
763.438	21396.46
763.775	21279.85
764.112	21339.51
764.449	21400.07
764.785	21218.83
765.122	21096.35
765.458	20995.79
765.795	20998.73
766.131	20972.51
766.467	20948.33
766.804	20765.74
767.14	20620.43
767.476	20715.8
767.812	20620.43
768.148	20641.45
768.485	20529.14
768.821	20411.17
769.157	20408.91
769.492	20342.02
769.828	20364.85
770.164	20070.16
770.5	20087.57
770.836	20049.15
771.171	19874.92
771.507	19908.81
771.842	19751.3
772.178	19826.33
772.513	19619.33
772.849	19697.29
773.184	19651.87
773.519	19514.47
773.855	19511.76
774.19	19387.24
774.525	19366.68
774.86	19341.6
775.195	19184.31
775.53	19181.15
775.865	19028.61
776.2	18889.4
776.535	18784.77
776.87	18874.94
777.205	18683.99
777.539	18650.99
777.874	18765.11
778.209	18561.5
778.543	18531.45
778.878	18387.04
779.212	18371.9
779.547	18307.05
779.881	18367.16
780.215	18178.69
780.55	18172.59
780.884	17988.19
781.218	17897.57
781.552	17969.43
781.886	17807.4
782.22	17723.56
782.554	17696.67
782.888	17635.43
783.222	17420.29
783.556	17394.98
783.889	17427.3
784.223	17360.41
784.557	17267.07
784.89	17285.38
785.224	17180.97
785.557	17119.51
785.891	17071.37
786.224	17065.05
786.558	16976.01
786.891	16817.82
787.224	16800.87
787.557	16676.81
787.891	16729.24
788.224	16639.29
788.557	16622.35
788.89	16577.83
789.223	16563.14
789.556	16444.72
789.888	16446.76
790.221	16321.56
790.554	16167.67
790.887	16165.63
791.219	16154.79
791.552	16197.72
791.884	16009.03
792.217	15922.25
792.549	15939.88
792.882	15771.52
793.214	15725.87
793.546	15737.17
793.879	15643.16
794.211	15595.93
794.543	15581.24
794.875	15517.74
795.207	15575.14
795.539	15461.47
795.871	15527.91
796.203	15384.86
796.535	15345.77
796.867	15158.88
797.198	15154.36
797.53	15127.02
797.862	15055.38
798.193	15070.75
798.525	14952.33
798.856	15011.77
799.188	14863.07
799.519	14861.26
799.85	14703.07
800.182	14796.63
800.513	14753.24
800.844	14626.69
801.175	14680.25
801.506	14662.85
801.837	14600.7
802.168	14396.19
802.499	14402.29
802.83	14304.67
803.161	14277.32
803.491	14304.67
803.822	14238.68
804.153	14106.48
804.483	14123.43
804.814	14150.09
805.145	14028.97
805.475	14120.72
805.805	13990.32
806.136	13941.96
806.466	14009.76
806.796	13936.54
807.126	13877.11
807.457	13760.05
807.787	13854.06
808.117	13707.62
808.447	13658.58
808.777	13676.89
809.107	13632.82
809.436	13626.49
809.766	13596.21
810.096	13548.08
810.426	13505.59
810.755	13497.46
811.085	13405.71
811.414	13382.2
811.744	13321.64
812.073	13247.97
812.403	13294.75
812.732	13147.18
813.061	13107.64
813.39	13163.23
813.719	13079.16
814.049	13241.19
814.378	13077.35
814.707	13059.28
815.036	12996.45
815.365	12946.06
815.693	12855.44
816.022	12913.52
816.351	12894.31
816.68	12725.95
817.008	12794.88
817.337	12658.38
817.665	12633.07
817.994	12669.68
818.322	12666.29
818.651	12621.55
818.979	12534.32
819.307	12627.42
819.636	12483.92
819.964	12392.85
820.292	12490.25
820.62	12498.61
820.948	12462.68
821.276	12469.46
821.604	12398.73
821.932	12452.51
822.259	12452.29
822.587	12403.02
822.915	12341.78
823.243	12477.14
823.57	12350.14
823.898	12433.3
824.225	12282.8
824.553	12273.99
824.88	12380.42
825.207	12374.77
825.535	12399.86
825.862	12382.68
826.189	12338.84
826.516	12415.45
826.843	12414.32
827.17	12386.07
827.497	12387.65
827.824	12402.57
828.151	12415.22
828.478	12338.16
828.805	12434.88
829.131	12387.2
829.458	12339.97
829.785	12219.98
830.111	12232.86
830.438	12373.87
830.764	12384.72
831.09	12366.86
831.417	12244.16
831.743	12329.8
832.069	12341.78
832.395	12240.77
832.722	12310.82
833.048	12325.06
833.374	12276.92
833.7	12173.42
834.026	12249.13
834.351	12288.67
834.677	12247.09
835.003	12215.68
835.329	12212.29
835.654	12212.74
835.98	12153.08
836.306	12075.12
836.631	12134.33
836.956	12168.9
837.282	12155.8
837.607	12048.45
837.932	11961
838.258	12031.96
838.583	12051.17
838.908	11979.08
839.233	11950.6
839.558	11907.67
839.883	11848.23
840.208	11838.74
840.533	11895.24
840.858	11812.53
841.182	11805.3
841.507	11787.67
841.832	11754.68
842.156	11651.63
842.481	11726.65
842.805	11654.34
843.13	11695.24
843.454	11645.08
843.778	11557.85
844.103	11553.55
844.427	11564.63
844.751	11491.18
845.075	11521.01
845.399	11441.92
845.723	11372.31
846.047	11380
846.371	11260.68
846.695	11306.55
847.019	11261.81
847.343	11174.58
847.666	11222.94
847.99	11128.7
848.313	11087.58
848.637	10997.63
848.96	10991.76
849.284	10961.48
849.607	10869.28
849.931	10869.73
850.254	10754.7
850.577	10735.72
850.9	10690.07
851.223	10656.63
851.546	10608.94
851.869	10521.04
852.192	10599
852.515	10537.31
852.838	10440.36
853.161	10467.48
853.483	10486.01
853.806	10326.69
854.129	10377.31
854.451	10295.05
854.774	10231.55
855.096	10253.93
855.419	10148.17
855.741	10160.82
856.063	10194.49
856.385	10081.95
856.708	10094.61
857.03	10035.4
857.352	10051.44
857.674	9935.29
857.996	9975.97
858.318	9908.4
858.64	9926.25
858.961	9852.81
859.283	9816.87
859.605	9793.37
859.926	9811.9
860.248	9753.83
860.57	9703.43
860.891	9698.46
861.212	9597.67
861.534	9635.18
861.855	9655.97
862.176	9662.08
862.498	9658.01
862.819	9611.68
863.14	9571.46
863.461	9564.68
863.782	9515.41
864.103	9504.34
864.424	9475.64
864.745	9549.76
865.065	9435.87
865.386	9458.47
865.707	9382.31
866.027	9379.37
866.348	9386.15
866.668	9398.13
866.989	9372.59
867.309	9246.95
867.63	9338.47
867.95	9356.1
868.27	9260.05
868.59	9347.51
868.91	9277.45
869.23	9179.15
869.55	9189.09
869.87	9245.36
870.19	9171.47
870.51	9243.78
870.83	9231.81
871.15	9166.04
871.469	9152.71
871.789	9116.1
872.109	9129.89
872.428	9032.94
872.748	9088.76
873.067	9049.21
873.386	9040.62
873.706	9028.87
874.025	9025.26
874.344	8918.59
874.663	9000.4
874.982	8980.74
875.301	8907.29
875.62	8872.04
875.939	8959.72
876.258	8880.18
876.577	8920.63
876.896	8910.46
877.214	8824.58
877.533	8878.82
877.852	8847.18
878.17	8808.77
878.489	8860.52
878.807	8768.99
879.125	8759.5
879.444	8736.9
879.762	8727.64
880.08	8709.56
880.398	8699.84
880.716	8660.29
881.034	8696.68
881.352	8694.87
881.67	8613.52
881.988	8650.35
882.306	8652.84
882.624	8595.44
882.941	8537.81
883.259	8514.99
883.577	8566.29
883.894	8459.85
884.212	8496.91
884.529	8467.31
884.846	8435.44
885.164	8430.47
885.481	8378.27
885.798	8444.93
886.115	8316.58
886.432	8348.89
886.75	8374.2
887.067	8310.02
887.383	8270.02
887.7	8300.3
888.017	8265.73
888.334	8269.57
888.651	8211.04
888.967	8222.34
889.284	8094.21
889.6	8112.29
889.917	8082.46
890.233	8116.35
890.55	8083.59
890.866	8058.28
891.182	8037.71
891.498	7990.71
891.815	7987.54
892.131	7983.48
892.447	7884.95
892.763	7910.26
893.079	7832.52
893.395	7820.32
893.71	7801.56
894.026	7828.68
894.342	7797.04
894.657	7784.39
894.973	7761.56
895.289	7728.57
895.604	7688.12
895.92	7633.66
896.235	7578.52
896.55	7599.98
896.865	7600.89
897.181	7567.22
897.496	7618.97
897.811	7505.52
898.126	7474.11
898.441	7490.16
898.756	7405.19
899.071	7406.32
899.386	7374.23
899.7	7342.14
900.015	7318.18
900.33	7295.13
900.644	7302.59
900.959	7286.77
901.273	7238.41
901.588	7193.44
901.902	7162.93
902.216	7149.37
902.531	7145.08
902.845	7083.16
903.159	7036.16
903.473	7046.1
903.787	6941.02
904.101	6989.6
904.415	6953.9
904.729	6983.73
905.042	6916.84
905.356	6927.23
905.67	6864.41
905.984	6910.51
906.297	6825.77
906.611	6780.12
906.924	6804.75
907.237	6763.62
907.551	6715.94
907.864	6696.96
908.177	6666.67
908.491	6563.17
908.804	6642.49
909.117	6613.57
909.43	6524.98
909.743	6515.27
910.056	6531.99
910.368	6486.11
910.681	6501.26
910.994	6427.81
911.307	6392.56
911.619	6353.01
911.932	6343.75
912.244	6300.36
912.557	6280.92
912.869	6250.19
913.181	6203.86
913.494	6215.61
913.806	6203.64
914.118	6183.07
914.43	6127.71
914.742	6159.57
915.054	6143.3
915.366	6093.36
915.678	6059.69
915.99	5994.6
916.302	6032.57
916.613	5980.14
916.925	5957.09
917.236	5873.7
917.548	5920.71
917.859	5927.26
918.171	5869.63
918.482	5828.05
918.794	5833.02
919.105	5768.85
919.416	5769.98
919.727	5731.33
920.038	5736.98
920.349	5692.24
920.66	5670.77
920.971	5694.72
921.282	5649.3
921.593	5583.31
921.903	5588.51
922.214	5581.73
922.525	5491.79
922.835	5528.85
923.146	5471.23
923.456	5461.96
923.767	5456.09
924.077	5438.23
924.387	5394.39
924.697	5353.94
925.008	5326.82
925.318	5331.79
925.628	5312.59
925.938	5318.24
926.248	5262.87
926.558	5239.14
926.867	5210.44
927.177	5180.39
927.487	5149.2
927.796	5162.53
928.106	5059.26
928.416	5090.67
928.725	5151.91
929.034	5049.99
929.344	5040.05
929.653	5074.63
929.962	5000.73
930.271	4943.1
930.581	4987.85
930.89	4925.93
931.199	4933.84
931.508	4884.8
931.817	4924.35
932.125	4819.49
932.434	4832.6
932.743	4765.03
933.051	4736.78
933.36	4740.4
933.669	4772.49
933.977	4702.43
934.286	4683.22
934.594	4706.27
934.902	4660.63
935.21	4681.19
935.519	4667.63
935.827	4628.76
936.135	4604.13
936.443	4552.61
936.751	4586.5
937.059	4550.12
937.367	4513.74
937.674	4497.24
937.982	4527.07
938.29	4485.72
938.597	4464.25
938.905	4387.64
939.213	4377.02
939.52	4377.92
939.827	4372.27
940.135	4360.52
940.442	4325.04
940.749	4324.82
941.056	4301.54
941.363	4281.65
941.67	4250.47
941.977	4227.42
942.284	4221.09
942.591	4243.24
942.898	4212.5
943.205	4207.53
943.511	4184.93
943.818	4187.19
944.125	4082.11
944.431	4108.1
944.738	4108.78
945.044	4062.68
945.35	4073.97
945.657	4060.19
945.963	4004.6
946.269	4001.21
946.575	4010.25
946.881	3954.43
947.187	3930.25
947.493	3942.45
947.799	3940.87
948.105	3877.37
948.41	3880.31
948.716	3871.04
949.022	3843.92
949.327	3851.16
949.633	3834.43
949.938	3795.56
950.244	3755.79
950.549	3747.66
950.854	3743.36
951.16	3724.61
951.465	3721.67
951.77	3695.68
952.075	3712.63
952.38	3647.09
952.685	3699.07
952.99	3614.78
953.294	3644.83
953.599	3619.75
953.904	3615.23
954.209	3565.97
954.513	3582.69
954.818	3554.67
955.122	3507.89
955.426	3506.98
955.731	3514.44
956.035	3496.14
956.339	3455.23
956.643	3473.76
956.948	3443.93
957.252	3383.37
957.556	3469.47
957.86	3392.41
958.163	3413.88
958.467	3390.38
958.771	3385.86
959.075	3349.47
959.378	3323.94
959.682	3327.1
959.985	3320.55
960.289	3287.78
960.592	3305.63
960.896	3284.62
961.199	3241.91
961.502	3212.08
961.805	3231.29
962.108	3208.23
962.411	3194
962.714	3180.44
963.017	3144.06
963.32	3126.66
963.623	3152.19
963.926	3128.91
964.228	3098.86
964.531	3071.52
964.833	3093.89
965.136	3010.05
965.438	3051.4
965.741	3059.54
966.043	3056.15
966.345	3026.32
966.648	2979.31
966.95	2982.03
967.252	2975.02
967.554	2970.05
967.856	2982.25
968.158	2937.73
968.46	2924.63
968.761	2935.25
969.063	2878.98
969.365	2903.16
969.666	2898.41
969.968	2883.5
970.269	2875.14
970.571	2839.43
970.872	2847.57
971.174	2837.17
971.475	2817.28
971.776	2811.86
972.077	2776.61
972.378	2821.13
972.679	2767.34
972.98	2746.78
973.281	2749.04
973.582	2711.3
973.883	2720.11
974.183	2655.48
974.484	2691.19
974.785	2645.99
975.085	2699.77
975.386	2698.64
975.686	2636.72
975.986	2601.25
976.287	2630.17
976.587	2600.12
976.887	2604.18
977.187	2619.78
977.487	2590.4
977.787	2569.83
978.087	2550.4
978.387	2535.03
978.687	2543.17
978.987	2509.04
979.286	2535.26
979.586	2511.53
979.885	2493.68
980.185	2485.77
980.484	2473.11
980.784	2464.53
981.083	2446.67
981.382	2411.65
981.682	2451.87
981.981	2401.93
982.28	2404.64
982.579	2413.91
982.878	2396.5
983.177	2374.58
983.475	2398.76
983.774	2342.04
984.073	2325.09
984.372	2342.49
984.67	2326
984.969	2320.12
985.267	2287.81
985.566	2304.76
985.864	2246
986.162	2284.64
986.461	2283.29
986.759	2243.74
987.057	2261.14
987.355	2236.06
987.653	2196.74
987.951	2219.11
988.249	2185.66
988.547	2222.27
988.844	2194.02
989.142	2170.75
989.44	2173.91
989.737	2109.51
990.035	2114.48
990.332	2126.23
990.63	2128.94
990.927	2096.85
991.224	2114.48
991.521	2133.23
991.819	2091.65
992.116	2079.9
992.413	2049.62
992.71	2076.29
993.006	2054.37
993.303	2076.74
993.6	2041.94
993.897	2055.27
994.193	2016.18
994.49	2039.68
994.787	1981.15
995.083	2001.94
995.379	1979.34
995.676	1981.37
995.972	1956.52
996.268	1950.19
996.565	1960.36
996.861	1926.01
997.157	1920.36
997.453	1932.11
997.749	1912.68
998.044	1872.68
998.34	1894.82
998.636	1912
998.932	1875.61
999.227	1862.96
999.523	1864.99
999.818	1832.68
1000.114	1834.49
1000.409	1808.72
1000.704	1831.77
1001	1827.25
1001.295	1775.73
1001.59	1778.67
1001.885	1786.8
1002.18	1766.46
1002.475	1753.81
1002.77	1745.67
1003.065	1723.53
1003.359	1750.19
1003.654	1721.49
1003.949	1686.47
1004.243	1707.26
1004.538	1664.32
1004.832	1689.18
1005.127	1642.63
1005.421	1693.7
1005.715	1648.95
1006.009	1665
1006.304	1640.14
1006.598	1614.83
1006.892	1622.29
1007.186	1611.21
1007.48	1615.73
1007.773	1591.33
1008.067	1577.09
1008.361	1556.75
1008.655	1578
1008.948	1563.31
1009.242	1564.21
1009.535	1540.71
1009.829	1569.63
1010.122	1541.39
1010.415	1519.47
1010.708	1523.53
1011.001	1504.78
1011.295	1501.84
1011.588	1505.45
1011.881	1494.61
1012.173	1471.56
1012.466	1494.38
1012.759	1454.61
1013.052	1463.65
1013.344	1453.25
1013.637	1412.35
1013.93	1404.67
1014.222	1424.78
1014.514	1419.36
1014.807	1414.84
1015.099	1381.84
1015.391	1380.94
1015.683	1380.03
1015.976	1389.98
1016.268	1362.18
1016.56	1344.33
1016.851	1346.81
1017.143	1350.43
1017.435	1319.24
1017.727	1331.9
1018.018	1304.33
1018.31	1300.04
1018.602	1269.53
1018.893	1286.48
1019.185	1305.91
1019.476	1268.85
1019.767	1267.72
1020.058	1277.89
1020.35	1229.98
1020.641	1249.64
1020.932	1225.91
1021.223	1235.86
1021.514	1227.95
1021.804	1226.14
1022.095	1198.12
1022.386	1179.59
1022.677	1188.4
1022.967	1167.38
1023.258	1186.14
1023.548	1174.62
1023.839	1158.12
1024.129	1173.71
1024.419	1188.17
1024.709	1147.27
1025	1125.8
1025.29	1141.4
1025.58	1115.86
1025.87	1116.09
1026.16	1105.69
1026.449	1097.33
1026.739	1110.89
1027.029	1116.31
1027.319	1108.18
1027.608	1061.17
1027.898	1059.82
1028.187	1049.65
1028.477	1047.39
1028.766	1032.7
1029.055	1030.66
1029.344	1045.35
1029.634	1035.64
1029.923	1035.18
1030.212	1027.5
1030.501	1013.04
1030.79	972.59
1031.078	986.6
1031.367	957.22
1031.656	977.33
1031.945	962.87
1032.233	970.1
1032.522	968.52
1032.81	969.88
1033.099	928.52
1033.387	933.04
1033.675	939.59
1033.963	912.48
1034.251	931.46
1034.54	933.04
1034.828	923.1
1035.116	892.59
1035.403	925.13
1035.691	896.43
1035.979	887.39
1036.267	892.14
1036.554	897.34
1036.842	885.36
1037.129	887.39
1037.417	884.68
1037.704	856.66
1037.992	854.85
1038.279	853.49
1038.566	843.1
1038.853	843.1
1039.14	843.1
