Data from hue_290_FLMS001491_00011.txt Node
Date: Tue Feb 07 15:52:22 GMT 2017
User: dcchb
Spectrometer: FLMS00149
Trigger mode: 0
Integration Time (sec): 2.000000E-2
Scans to average: 10
Electric dark correction enabled: true
Nonlinearity correction enabled: false
Boxcar width: 0
XAxis mode: Wavelengths
Number of Pixels in Spectrum: 2048
>>>>>Begin Spectral Data<<<<<
341.393	-4.39
341.776	-4.39
342.16	-4.39
342.543	-99.76
342.927	-51.17
343.31	-69.02
343.693	-84.39
344.077	-80.1
344.46	-71.06
344.843	-30.83
345.226	-34.9
345.61	-45.52
345.993	-21.12
346.376	1.03
346.759	20.69
347.142	37.87
347.525	47.81
347.908	67.7
348.291	78.54
348.674	92.78
349.057	90.52
349.44	106.79
349.823	133.46
350.206	161.25
350.588	197.18
350.971	212.55
351.354	227.01
351.737	217.75
352.119	224.75
352.502	246.45
352.884	261.14
353.267	271.98
353.65	275.37
354.032	297.29
354.414	310.85
354.797	290.06
355.179	314.47
355.562	329.38
355.944	316.28
356.326	307.01
356.709	318.31
357.091	333
357.473	313.11
357.855	320.34
358.238	335.94
358.62	312.21
359.002	322.38
359.384	346.33
359.766	342.04
360.148	336.62
360.53	329.16
360.912	333.68
361.294	332.32
361.676	306.33
362.057	321.47
362.439	329.61
362.821	328.25
363.203	338.42
363.584	335.03
363.966	318.76
364.348	322.83
364.729	308.14
365.111	308.14
365.493	317.41
365.874	315.83
366.256	311.31
366.637	306.33
367.019	305.66
367.4	311.76
367.781	333.68
368.163	299.33
368.544	305.88
368.925	293.45
369.306	304.98
369.688	298.2
370.069	297.29
370.45	297.97
370.831	301.59
371.212	309.05
371.593	305.43
371.974	298.42
372.355	302.49
372.736	317.18
373.117	312.21
373.498	311.31
373.879	314.24
374.26	311.08
374.641	275.83
375.021	308.59
375.402	318.99
375.783	318.76
376.163	329.38
376.544	298.42
376.925	313.79
377.305	320.12
377.686	313.11
378.066	336.84
378.447	325.77
378.827	326.67
379.208	320.34
379.588	331.87
379.968	323.51
380.349	341.81
380.729	313.11
381.109	315.6
381.489	341.14
381.87	310.85
382.25	329.38
382.63	338.42
383.01	330.74
383.39	326.67
383.77	324.41
384.15	307.92
384.53	353.11
384.91	330.74
385.29	319.67
385.67	332.55
386.049	344.75
386.429	335.94
386.809	339.33
387.189	333.68
387.568	346.56
387.948	360.12
388.328	354.92
388.707	344.75
389.087	344.3
389.466	355.6
389.846	360.12
390.225	349.95
390.605	362.38
390.984	357.18
391.363	356.73
391.743	356.73
392.122	358.08
392.501	361.02
392.881	367.35
393.26	353.56
393.639	373
394.018	366.9
394.397	362.6
394.776	385.2
395.155	386.56
395.534	368.25
395.913	392.21
396.292	374.35
396.671	382.04
397.05	380.68
397.429	375.26
397.808	389.04
398.186	368.48
398.565	410.29
398.944	401.47
399.323	393.11
399.701	402.83
400.08	404.41
400.458	400.57
400.837	389.95
401.215	405.31
401.594	400.12
401.972	409.83
402.351	405.99
402.729	406.44
403.107	415.03
403.486	403.96
403.864	431.53
404.242	436.5
404.62	435.37
404.999	417.97
405.377	447.35
405.755	451.64
406.133	442.38
406.511	441.25
406.889	433.34
407.267	430.17
407.645	457.29
408.023	465.43
408.401	458.65
408.779	465.88
409.156	470.85
409.534	492.77
409.912	494.13
410.29	507.23
410.667	482.15
411.045	501.36
411.422	504.29
411.8	499.77
412.178	506.55
412.555	535.48
412.933	535.93
413.31	555.59
413.687	532.54
414.065	563.28
414.442	589.94
414.819	590.62
415.197	613.22
415.574	616.61
415.951	588.36
416.328	586.33
416.705	589.49
417.082	601.24
417.46	633.78
417.837	629.94
418.214	649.38
418.591	651.18
418.967	666.55
419.344	657.28
419.721	665.65
420.098	679.88
420.475	695.02
420.852	686.66
421.228	673.1
421.605	708.58
421.982	721.69
422.358	715.36
422.735	711.97
423.111	737.96
423.488	743.84
423.864	753.55
424.241	776.15
424.617	777.73
424.994	780.22
425.37	779.54
425.746	780.22
426.123	794.46
426.499	795.36
426.875	844.17
427.251	829.94
427.627	862.7
428.003	859.77
428.379	870.39
428.756	862.7
429.132	889.37
429.507	906.77
429.883	889.6
430.259	900.67
430.635	931.4
431.011	907
431.387	928.01
431.763	943.83
432.138	938.41
432.514	982.47
432.89	956.94
433.265	1007.56
433.641	1017.73
434.016	1018.63
434.392	1047.56
434.767	1032.42
435.143	1049.82
435.518	1071.06
435.894	1105.63
436.269	1082.36
436.644	1115.8
437.02	1102.02
437.395	1116.26
437.77	1157.84
438.145	1157.38
438.52	1156.25
438.895	1198.51
439.271	1202.13
439.646	1206.2
440.021	1229.7
440.395	1222.02
440.77	1230.6
441.145	1225.41
441.52	1274.22
441.895	1223.15
442.27	1255.91
442.645	1259.53
443.019	1281.22
443.394	1289.13
443.769	1290.49
444.143	1295.01
444.518	1289.13
444.892	1289.58
445.267	1302.24
445.641	1326.65
446.016	1296.82
446.39	1317.83
446.764	1315.57
447.139	1356.02
447.513	1357.38
447.887	1305.18
448.262	1384.95
448.636	1349.7
449.01	1380.88
449.384	1372.52
449.758	1402.35
450.132	1382.46
450.506	1385.63
450.88	1411.39
451.254	1410.94
451.628	1437.6
452.002	1454.78
452.376	1464.27
452.75	1445.06
453.123	1473.99
453.497	1478.05
453.871	1499.3
454.244	1469.92
454.618	1494.1
454.992	1511.73
455.365	1492.07
455.739	1528.45
456.112	1582.01
456.486	1588.79
456.859	1540.88
457.232	1598.5
457.606	1592.63
457.979	1619.75
458.352	1614.77
458.725	1634.43
459.099	1655.22
459.472	1639.86
459.845	1704.94
460.218	1709.91
460.591	1687.31
460.964	1711.04
461.337	1749.46
461.71	1753.98
462.083	1788.1
462.456	1770.02
462.829	1756.69
463.201	1807.31
463.574	1783.58
463.947	1814.77
464.32	1867.87
464.692	1838.72
465.065	1867.87
465.438	1887.31
465.81	1928.89
466.183	1916.23
466.555	1935.9
466.928	1975.89
467.3	1939.29
467.672	1962.34
468.045	1982.9
468.417	2015.89
468.789	2030.81
469.161	2045.05
469.534	2072.61
469.906	2069.45
470.278	2109.22
470.65	2075.78
471.022	2142.9
471.394	2181.09
471.766	2210.69
472.138	2209.11
472.51	2277.13
472.882	2264.47
473.253	2277.81
473.625	2305.6
473.997	2342.89
474.369	2352.61
474.74	2363.23
475.112	2366.62
475.484	2443
475.855	2432.83
476.227	2497.46
476.598	2520.51
476.97	2521.42
477.341	2570.68
477.713	2578.36
478.084	2565.71
478.455	2621.53
478.827	2619.72
479.198	2747.85
479.569	2697.01
479.94	2761.41
480.311	2789.43
480.682	2815.65
481.053	2878.24
481.424	2913.5
481.795	2929.77
482.166	2944
482.537	2986.04
482.908	3056.09
483.279	3062.42
483.65	3101.51
484.021	3092.48
484.391	3163.21
484.762	3174.96
485.133	3175.64
485.503	3216.77
485.874	3274.62
486.244	3313.49
486.615	3278.46
486.985	3318.23
487.356	3388.96
487.726	3432.81
488.097	3480.49
488.467	3469.41
488.837	3524.33
489.207	3588.06
489.578	3612.46
489.948	3605.68
490.318	3618.34
490.688	3638.22
491.058	3689.75
491.428	3704.89
491.798	3771.55
492.168	3804.55
492.538	3841.38
492.908	3826.24
493.278	3859.01
493.648	3885.45
494.017	3962.73
494.387	3962.06
494.757	3972.68
495.126	4012.9
495.496	3994.6
495.866	4010.19
496.235	4073.69
496.605	4052.9
496.974	4056.29
497.344	4123.86
497.713	4134.93
498.082	4190.75
498.452	4206.12
498.821	4221.94
499.19	4174.93
499.559	4245.21
499.928	4230.07
500.298	4263.07
500.667	4298.77
501.036	4276.17
501.405	4319.79
501.774	4316.62
502.143	4388.71
502.512	4356.62
502.88	4396.4
503.249	4361.14
503.618	4450.63
503.987	4476.39
504.356	4432.33
504.724	4466.9
505.093	4542.38
505.462	4466.45
505.83	4548.03
506.199	4514.58
506.567	4563.62
506.936	4569.72
507.304	4636.39
507.672	4614.92
508.041	4651.3
508.409	4650.85
508.777	4593.68
509.145	4700.12
509.514	4680
509.882	4750.06
510.25	4682.04
510.618	4718.87
510.986	4727.01
511.354	4790.51
511.722	4794.13
512.09	4849.72
512.458	4772.66
512.826	4844.29
513.193	4871.86
513.561	4845.42
513.929	4882.48
514.297	4905.99
514.664	4928.36
515.032	4892.65
515.4	4932.2
515.767	4935.36
516.135	4935.36
516.502	4926.55
516.869	4980.34
517.237	5007.45
517.604	4964.74
517.972	5008.81
518.339	4957.74
518.706	5058.07
519.073	5047.68
519.44	5051.29
519.808	5103.95
520.175	5104.4
520.542	5107.11
520.909	5138.98
521.276	5124.96
521.643	5154.34
522.009	5172.65
522.376	5201.57
522.743	5214.23
523.11	5239.99
523.477	5280.89
523.843	5297.39
524.21	5361.57
524.577	5350.27
524.943	5367.9
525.31	5367.9
525.676	5413.09
526.043	5449.02
526.409	5437.72
526.776	5498.06
527.142	5505.52
527.508	5497.84
527.874	5569.02
528.241	5550.94
528.607	5621
528.973	5596.59
529.339	5633.2
529.705	5652.63
530.071	5648.11
530.437	5713.65
530.803	5727.21
531.169	5713.88
531.535	5690.6
531.901	5756.36
532.267	5807.43
532.632	5787.32
532.998	5784.83
533.364	5852.18
533.73	5874.32
534.095	5917.49
534.461	5895.79
534.826	5938.05
535.192	5976.02
535.557	5977.37
535.923	5964.26
536.288	6024.15
536.653	5980.76
537.019	6047.43
537.384	6054.66
537.749	6090.81
538.114	6065.05
538.479	6052.85
538.845	6050.59
539.21	6135.78
539.575	6103.02
539.94	6130.81
540.305	6201.55
540.67	6154.54
541.034	6187.99
541.399	6233.18
541.764	6222.56
542.129	6243.35
542.494	6252.84
542.858	6254.43
543.223	6241.09
543.587	6265.05
543.952	6332.16
544.316	6364.93
544.681	6286.29
545.045	6343.46
545.41	6406.96
545.774	6422.78
546.138	6418.94
546.503	6408.09
546.867	6420.75
547.231	6478.37
547.595	6476.34
547.959	6500.52
548.324	6496
548.688	6526.51
549.052	6491.03
549.416	6523.35
549.779	6558.82
550.143	6550.24
550.507	6576
550.871	6608.09
551.235	6580.75
551.599	6642.66
551.962	6604.7
552.326	6660.74
552.689	6666.62
553.053	6693.74
553.417	6640.4
553.78	6792.26
554.143	6691.48
554.507	6750.46
554.87	6720.18
555.234	6800.17
555.597	6785.49
555.96	6742.77
556.323	6795.43
556.686	6774.64
557.05	6841.08
557.413	6853.05
557.776	6903.67
558.139	6873.62
558.502	6883.34
558.865	6871.36
559.228	6936.67
559.59	6930.34
559.953	6957.46
560.316	7038.59
560.679	7039.49
561.041	7091.01
561.404	7068.42
561.767	7159.71
562.129	7114.06
562.492	7146.38
562.854	7196.1
563.217	7153.16
563.579	7180.73
563.941	7201.29
564.304	7256.21
564.666	7356.32
565.028	7289.2
565.39	7263.89
565.753	7338.92
566.115	7387.96
566.477	7409.65
566.839	7400.38
567.201	7486.26
567.563	7445.36
567.925	7455.52
568.287	7561.74
568.648	7521.06
569.01	7575.3
569.372	7627.5
569.734	7559.25
570.095	7646.48
570.457	7664.78
570.819	7745.69
571.18	7624.11
571.542	7766.7
571.903	7762.86
572.265	7811.45
572.626	7891.22
572.987	7873.14
573.349	7910.88
573.71	7997.88
574.071	7986.58
574.432	7992.46
574.794	8105.22
575.155	8095.06
575.516	8082.17
575.877	8124.21
576.238	8215.96
576.599	8244.2
576.96	8298.67
577.32	8344.99
577.681	8398.78
578.042	8457.53
578.403	8465.67
578.763	8481.49
579.124	8579.56
579.485	8637.87
579.845	8712.67
580.206	8796.05
580.566	8834.02
580.927	8937.75
581.287	9031.75
581.648	9001.47
582.008	9128.02
582.368	9166.67
582.728	9220.9
583.089	9392.87
583.449	9398.07
583.809	9579.54
584.169	9652.53
584.529	9701.34
584.889	9865.18
585.249	9939.53
585.609	10051.39
585.969	10149.24
586.329	10250.71
586.688	10363.7
587.048	10409.8
587.408	10551.71
587.768	10694.31
588.127	10846.85
588.487	10949.44
588.846	11117.12
589.206	11151.25
589.565	11278.7
589.925	11483.67
590.284	11583.78
590.643	11742.42
591.003	11939.25
591.362	12053.14
591.721	12172.69
592.08	12286.13
592.44	12437.77
592.799	12582.4
593.158	12702.62
593.517	12838.43
593.876	12989.39
594.235	13117.75
594.593	13226.9
594.952	13339.21
595.311	13533.78
595.67	13669.15
596.029	13905.75
596.387	14016.03
596.746	14129.25
597.104	14121.56
597.463	14315.91
597.822	14527.2
598.18	14544.83
598.538	14700.76
598.897	14839.51
599.255	14919.28
599.613	15167.19
599.972	15263.23
600.33	15406.28
600.688	15431.81
601.046	15644.69
601.404	15677.68
601.762	15862.99
602.12	16082.64
602.478	16168.97
602.836	16178.68
603.194	16215.97
603.552	16363.31
603.91	16370.54
604.268	16555.62
604.625	16671.33
604.983	16731.21
605.341	16775.96
605.698	16995.16
606.056	17045.33
606.413	17054.37
606.771	17226.79
607.128	17384.75
607.485	17336.17
607.843	17452.55
608.2	17592.21
608.557	17670.85
608.914	17698.19
609.272	17815.48
609.629	17946.77
609.986	18082.82
610.343	18077.84
610.7	18364.62
611.057	18304.28
611.414	18426.76
611.771	18404.84
612.127	18528.23
612.484	18561.22
612.841	18658.17
613.198	18614.1
613.554	18744.72
613.911	18896.35
614.267	18852.06
614.624	18977.03
614.98	19036.46
615.337	19137.03
615.693	19169.57
616.05	19177.48
616.406	19363.01
616.762	19389.22
617.118	19528.2
617.475	19411.37
617.831	19549.44
618.187	19505.38
618.543	19604.36
618.899	19718.93
619.255	19691.36
619.611	19661.53
619.967	19898.13
620.323	19944.69
620.678	19855.2
621.034	19832.83
621.39	19873.95
621.746	19955.76
622.101	20162.08
622.457	19956.66
622.812	20130.67
623.168	20194.17
623.523	20221.52
623.879	20239.14
624.234	20122.54
624.589	20231.46
624.945	20315.53
625.3	20295.64
625.655	20261.52
626.01	20351
626.365	20335.41
626.72	20413.6
627.075	20386.26
627.43	20394.39
627.785	20350.1
628.14	20430.1
628.495	20456.76
628.85	20455.86
629.205	20287.28
629.559	20570.21
629.914	20470.78
630.269	20544.22
630.623	20446.14
630.978	20517.1
631.332	20488.63
631.687	20623.31
632.041	20361.4
632.396	20476.88
632.75	20463.77
633.104	20461.51
633.459	20357.78
633.813	20388.07
634.167	20430.32
634.521	20422.41
634.875	20367.95
635.229	20437.33
635.583	20446.82
635.937	20471
636.291	20331.34
636.645	20348.07
636.999	20310.1
637.352	20330.44
637.706	20341.29
638.06	20334.73
638.413	20237.11
638.767	20367.28
639.121	20316.43
639.474	20259.03
639.828	20148.07
640.181	20291.12
640.534	20304.68
640.888	20280.05
641.241	20013.84
641.594	20239.82
641.947	20269.42
642.301	20216.09
642.654	20137.68
643.007	20242.08
643.36	20316.88
643.713	20168.64
644.066	20317.56
644.419	20148.52
644.771	20016.78
645.124	19820.62
645.477	19796.22
645.83	19690.23
646.182	19726.39
646.535	19598.93
646.888	19716.44
647.24	19570.01
647.593	19582.44
647.945	19625.37
648.298	19534.53
648.65	19502.44
649.002	19531.59
649.355	19556.9
649.707	19518.94
650.059	19600.29
650.411	19821.98
650.763	19922.09
651.115	20015.42
651.467	19939.26
651.819	19994.18
652.171	19857.46
652.523	19954.4
652.875	19914.86
653.227	19947.4
653.578	20026.49
653.93	19983.56
654.282	20035.08
654.633	19933.61
654.985	19942.2
655.337	20012.03
655.688	20004.35
656.039	20022.43
656.391	19844.13
656.742	19923.45
657.094	19977.68
657.445	20025.59
657.796	20053.84
658.147	19971.81
658.498	19934.97
658.849	20005.25
659.2	20032.37
659.551	19920.28
659.902	20050.45
660.253	20088.41
660.604	20037.34
660.955	20027.62
661.306	20009.77
661.656	20024.91
662.007	20065.14
662.358	20051.35
662.708	20123.21
663.059	20033.95
663.409	19941.07
663.76	20151.69
664.11	20062.65
664.461	20102.65
664.811	20020.84
665.161	20084.34
665.511	19956.44
665.862	20075.53
666.212	20198.69
666.562	20204.57
666.912	20128.86
667.262	20045.02
667.612	19966.61
667.962	20065.14
668.312	20025.82
668.662	20126.38
669.011	20111.24
669.361	20053.16
669.711	20004.57
670.06	19991.92
670.41	20007.96
670.76	19911.92
671.109	20051.13
671.459	20060.62
671.808	19963.22
672.157	19965.03
672.507	19937.46
672.856	19925.48
673.205	19882.32
673.554	20015.42
673.904	19901.98
674.253	19956.66
674.602	19988.75
674.951	19617.24
675.3	19540.18
675.649	19831.92
675.998	19842.09
676.346	19837.57
676.695	19886.16
677.044	19657.24
677.393	19763
677.741	19767.29
678.09	19732.94
678.438	19689.1
678.787	19674.64
679.135	19636.9
679.484	19536.11
679.832	19621.98
680.181	19515.77
680.529	19516.22
680.877	19561.65
681.225	19482.33
681.573	19669.21
681.922	19557.8
682.27	19451.37
682.618	19414.76
682.966	19317.36
683.314	19331.14
683.661	19247.76
684.009	19232.16
684.357	19280.52
684.705	19154.43
685.053	19257.93
685.4	19207.31
685.748	18990.14
686.095	19015.45
686.443	18913.53
686.79	19000.53
687.138	18968.89
687.485	18953.53
687.832	18873.3
688.18	18846.64
688.527	18782.68
688.874	18682.12
689.221	18709.01
689.568	18636.25
689.915	18519.64
690.262	18606.19
690.609	18535.23
690.956	18385.63
691.303	18402.13
691.65	18376.37
691.997	18270.38
692.344	18199.65
692.69	18191.29
693.037	18184.51
693.383	17991.29
693.73	18061.35
694.077	17945.87
694.423	17986.09
694.769	17946.77
695.116	17892.76
695.462	17858.41
695.808	17815.03
696.155	17735.25
696.501	17615.48
696.847	17508.14
697.193	17569.83
697.539	17556.5
697.885	17411.87
698.231	17307.92
698.577	17315.15
698.923	17333.68
699.269	17162.39
699.614	17086.68
699.96	17120.13
700.306	17024.54
700.651	16892.34
700.997	16836.29
701.342	16911.09
701.688	16762.17
702.033	16757.88
702.379	16672.46
702.724	16661.61
703.069	16683.3
703.415	16429.3
703.76	16433.82
704.105	16526.92
704.45	16401.96
704.795	16346.82
705.14	16168.06
705.485	16210.77
705.83	16145.01
706.175	16168.74
706.52	16092.81
706.865	16001.97
707.209	16054.62
707.554	15900.05
707.899	16025.02
708.243	15870.44
708.588	15861.4
708.932	15739.37
709.277	15732.14
709.621	15769.88
709.966	15687.4
710.31	15709.32
710.654	15600.62
710.998	15555.42
711.342	15593.84
711.687	15446.05
712.031	15398.37
712.375	15425.94
712.719	15425.71
713.063	15358.37
713.407	15329.67
713.75	15293.96
714.094	15257.58
714.438	15236.11
714.782	15140.29
715.125	15198.15
715.469	15151.82
715.812	14995.67
716.156	14936.01
716.499	15032.5
716.843	14973.74
717.186	14918.83
717.53	14976.46
717.873	14997.02
718.216	14951.82
718.559	14874.76
718.902	14796.8
719.246	14874.76
719.589	14788.66
719.932	14694.2
720.275	14743.69
720.617	14729.46
720.96	14707.99
721.303	14726.75
721.646	14729.68
721.989	14623.02
722.331	14636.58
722.674	14674.77
723.016	14611.95
723.359	14623.02
723.701	14618.05
724.044	14570.59
724.386	14468.67
724.729	14629.8
725.071	14432.74
725.413	14424.38
725.755	14509.12
726.097	14381.67
726.439	14285.85
726.782	14336.25
727.124	14410.82
727.465	14396.58
727.807	14382.12
728.149	14324.27
728.491	14393.65
728.833	14357.49
729.175	14353.87
729.516	14261.45
729.858	14255.35
730.199	14324.04
730.541	14222.8
730.882	14182.81
731.224	14296.02
731.565	14243.59
731.906	14271.62
732.248	14290.82
732.589	14195.46
732.93	14146.65
733.271	14277.27
733.612	14181
733.953	14151.85
734.294	14196.59
734.635	14159.98
734.976	14255.57
735.317	14137.38
735.658	14207.44
735.999	14211.05
736.339	14105.29
736.68	14254.44
737.021	14151.85
737.361	14083.37
737.702	14183.71
738.042	14146.42
738.383	14204.27
738.723	14255.12
739.063	14166.08
739.404	14173.54
739.744	14140.55
740.084	14080.43
740.424	14202.01
740.764	14191.84
741.104	14123.6
741.444	14121.56
741.784	14025.3
742.124	14212.41
742.464	14218.28
742.804	14221.67
743.143	14257.83
743.483	14305.97
743.823	14181.45
744.162	14265.51
744.502	14277.72
744.841	14338.06
745.181	14364.72
745.52	14377.15
745.86	14443.82
746.199	14397.04
746.538	14450.59
746.877	14581.44
747.216	14583.92
747.556	14608.33
747.895	14706.63
748.234	14718.61
748.573	14649.46
748.911	14735.56
749.25	14867.76
749.589	14826.63
749.928	15012.61
750.267	14968.55
750.605	15020.52
750.944	15090.35
751.283	15131.93
751.621	15249.44
751.96	15317.92
752.298	15364.92
752.636	15338.25
752.975	15519.72
753.313	15522.43
753.651	15754.97
753.989	15735.53
754.327	15836.32
754.666	15855.76
755.004	15977.11
755.342	16088.74
755.679	16266.37
756.017	16245.12
756.355	16333.26
756.693	16467.49
757.031	16615.28
757.368	16661.38
757.706	16792
758.044	16816.86
758.381	17002.17
758.719	16979.79
759.056	17143.41
759.394	17167.36
759.731	17297.07
760.068	17406.9
760.405	17500.01
760.743	17401.03
761.08	17722.15
761.417	17784.29
761.754	17849.83
762.091	17887.57
762.428	17975.93
762.765	18064.96
763.102	18171.17
763.438	18195.81
763.775	18236.94
764.112	18435.8
764.449	18609.81
764.785	18556.93
765.122	18631.05
765.458	18692.07
765.795	18728.22
766.131	18840.08
766.467	18755.57
766.804	18845.06
767.14	18763.48
767.476	18889.57
767.812	18909.91
768.148	19077.14
768.485	19082.34
768.821	19093.86
769.157	19169.79
769.492	19155.33
769.828	19161.66
770.164	19091.6
770.5	19140.64
770.836	19215.67
771.171	19248.66
771.507	19177.7
771.842	19170.24
772.178	19200.07
772.513	19182
772.849	19264.71
773.184	19182.45
773.519	19266.74
773.855	19211.15
774.19	19168.66
774.525	19179.96
774.86	19140.64
775.195	19252.28
775.53	19171.6
775.865	19058.84
776.2	18998.05
776.535	18937.93
776.87	18945.84
777.205	18904.04
777.539	18945.62
777.874	19003.24
778.209	18838.28
778.543	18858.61
778.878	18770.71
779.212	18716.25
779.547	18763.25
779.881	18801.67
780.215	18713.76
780.55	18753.53
780.884	18590.15
781.218	18636.7
781.552	18504.27
781.886	18532.97
782.22	18401.45
782.554	18401.45
782.888	18355.12
783.222	18345.86
783.556	18258.4
783.889	18181.34
784.223	18104.96
784.557	18137.5
784.89	18101.35
785.224	18035.81
785.557	17979.99
785.891	17973.67
786.224	17943.38
786.558	17831.52
786.891	17699.1
787.224	17801.01
787.557	17819.09
787.891	17714.24
788.224	17709.04
788.557	17678.53
788.89	17500.91
789.223	17590.85
789.556	17456.17
789.888	17386.56
790.221	17320.12
790.554	17174.36
790.887	17256.85
791.219	17197.19
791.552	17168.49
791.884	17132.56
792.217	17056.85
792.549	17058.21
792.882	16875.39
793.214	16807.14
793.546	16885.33
793.879	16678.78
794.211	16644.89
794.543	16719.24
794.875	16639.46
795.207	16620.93
795.539	16615.06
795.871	16582.29
796.203	16381.62
796.535	16336.19
796.867	16331
797.198	16272.69
797.53	16316.08
797.862	16260.72
798.193	16207.16
798.525	16093.72
798.856	16178.23
799.188	15928.3
799.519	15913.16
799.85	15859.15
800.182	15963.55
800.513	15844.91
800.844	15752.71
801.175	15789.99
801.506	15780.5
801.837	15659.6
802.168	15639.49
802.499	15602.43
802.83	15548.42
803.161	15503.22
803.491	15443.56
803.822	15380.06
804.153	15358.37
804.483	15265.26
804.814	15201.76
805.145	15270.01
805.475	15150.92
805.805	15216.9
806.136	15133.97
806.466	15115.66
806.796	15076.57
807.126	15000.86
807.457	14898.27
807.787	14930.36
808.117	14911.6
808.447	14722.45
808.777	14843.8
809.107	14767.2
809.436	14784.37
809.766	14693.07
810.096	14678.16
810.426	14581.21
810.755	14526.07
811.085	14611.95
811.414	14566.75
811.744	14524.26
812.073	14436.13
812.403	14484.94
812.732	14395.23
813.061	14297.83
813.39	14268.68
813.719	14264.61
814.049	14269.81
814.378	14201.56
814.707	14195.01
815.036	14191.17
815.365	14098.97
815.693	14019.65
816.022	13939.42
816.351	14002.24
816.68	13873.66
817.008	14048.35
817.337	13817.62
817.665	13866.66
817.994	13824.62
818.322	13891.51
818.651	13690.16
818.979	13674.8
819.307	13804.06
819.636	13717.28
819.964	13590.96
820.292	13672.08
820.62	13676.38
820.948	13525.2
821.276	13668.02
821.604	13501.92
821.932	13624.63
822.259	13640.45
822.587	13615.14
822.915	13571.75
823.243	13549.6
823.57	13473.67
823.898	13584.85
824.225	13535.14
824.553	13519.55
824.88	13555.25
825.207	13548.7
825.535	13570.62
825.862	13614.46
826.189	13460.34
826.516	13604.97
826.843	13594.35
827.17	13497.85
827.497	13613.33
827.824	13598.19
828.151	13588.7
828.478	13526.55
828.805	13623.72
829.131	13540.11
829.458	13490.39
829.785	13428.25
830.111	13522.03
830.438	13635.02
830.764	13506.21
831.09	13493.11
831.417	13510.28
831.743	13597.28
832.069	13608.13
832.395	13483.61
832.722	13557.28
833.048	13473.22
833.374	13524.97
833.7	13334.01
834.026	13491.07
834.351	13424.41
834.677	13354.58
835.003	13386.22
835.329	13373.33
835.654	13349.83
835.98	13301.25
836.306	13380.34
836.631	13256.73
836.956	13300.79
837.282	13343.96
837.607	13220.57
837.932	13204.98
838.258	13209.72
838.583	13214.24
838.908	13093.79
839.233	13109.61
839.558	13138.76
839.883	13021.48
840.208	13041.37
840.533	12960.92
840.858	13065.55
841.182	13002.5
841.507	12996.62
841.832	12839.34
842.156	12958.43
842.481	12966.11
842.805	12845.21
843.13	12897.87
843.454	12809.51
843.778	12785.33
844.103	12684.54
844.427	12644.54
844.751	12726.57
845.075	12681.38
845.399	12598.21
845.723	12498.33
846.047	12568.38
846.371	12385.56
846.695	12444.09
847.019	12330.2
847.343	12341.05
847.666	12257.66
847.99	12161.84
848.313	12252.46
848.637	12112.8
848.96	12038
849.284	12023.09
849.607	11965.69
849.931	11953.26
850.254	11855.63
850.577	11754.62
850.9	11720.27
851.223	11734.06
851.546	11712.36
851.869	11587.17
852.192	11717.79
852.515	11558.02
852.838	11585.36
853.161	11503.1
853.483	11439.6
853.806	11339.94
854.129	11342.2
854.451	11350.56
854.774	11241.64
855.096	11265.14
855.419	11204.35
855.741	11254.29
856.063	11210.23
856.385	11097.46
856.708	11083.9
857.03	11012.49
857.352	11004.36
857.674	10997.35
857.996	10873.74
858.318	10826.06
858.64	10902.21
858.961	10873.74
859.283	10830.58
859.605	10677.13
859.926	10809.33
860.248	10756
860.57	10750.13
860.891	10738.38
861.212	10596.46
861.534	10616.8
861.855	10650.92
862.176	10574.54
862.498	10572.73
862.819	10557.59
863.14	10513.07
863.461	10469.68
863.782	10492.05
864.103	10479.63
864.424	10475.78
864.745	10475.11
865.065	10413.41
865.386	10329.57
865.707	10382.9
866.027	10412.51
866.348	10328.9
866.668	10343.81
866.989	10251.38
867.309	10291.38
867.63	10267.2
867.95	10197.37
868.27	10156.24
868.59	10122.8
868.91	10184.94
869.23	10165.06
869.55	10071.5
869.87	10268.56
870.19	10144.49
870.51	10145.85
870.83	10107.43
871.15	10054.55
871.469	10054.78
871.789	10114.89
872.109	10018.17
872.428	9988.79
872.748	9979.53
873.067	9920.32
873.386	10015.46
873.706	9973.88
874.025	9917.83
874.344	9914.89
874.663	9941.79
874.982	9868.12
875.301	9905.86
875.62	9855.91
875.939	9808.46
876.258	9818.85
876.577	9830.15
876.896	9750.38
877.214	9768.68
877.533	9796.71
877.852	9776.82
878.17	9681.23
878.489	9686.88
878.807	9740.21
879.125	9674.22
879.444	9700.21
879.762	9595.58
880.08	9591.51
880.398	9574.56
880.716	9590.16
881.034	9497.5
881.352	9527.79
881.67	9518.07
881.988	9518.07
882.306	9452.53
882.624	9525.75
882.941	9462.48
883.259	9381.35
883.577	9403.72
883.894	9380.9
884.212	9306.1
884.529	9362.59
884.846	9261.58
885.164	9238.08
885.481	9185.42
885.798	9247.34
886.115	9160.34
886.432	9215.03
886.75	9130.73
887.067	9150.62
887.383	9133.45
887.7	9118.08
888.017	9058.42
888.334	9087.57
888.651	9003.96
888.967	9039.21
889.284	8960.12
889.6	8876.73
889.917	8845.54
890.233	8874.24
890.55	8831.53
890.866	8903.62
891.182	8817.75
891.498	8783.17
891.815	8688.71
892.131	8754.02
892.447	8730.75
892.763	8687.13
893.079	8736.62
893.395	8680.8
893.71	8638.09
894.026	8546.57
894.342	8573.24
894.657	8564.42
894.973	8585.21
895.289	8446.23
895.604	8477.42
895.92	8440.36
896.235	8372.34
896.55	8402.84
896.865	8391.54
897.181	8339.34
897.496	8298.67
897.811	8274.49
898.126	8244.88
898.441	8226.8
898.756	8199.01
899.071	8151.33
899.386	8106.58
899.7	8095.51
900.015	8086.02
900.33	7965.79
900.644	7959.01
900.959	8028.62
901.273	7978.67
901.588	7925.34
901.902	7929.64
902.216	7811
902.531	7848.28
902.845	7779.13
903.159	7731.68
903.473	7769.87
903.787	7705.24
904.101	7643.77
904.415	7650.32
904.729	7696.65
905.042	7585.46
905.356	7555.63
905.67	7623.88
905.984	7523.55
906.297	7499.59
906.611	7447.16
906.924	7402.19
907.237	7442.42
907.551	7425.47
907.864	7285.36
908.177	7337.11
908.491	7306.83
908.804	7213.5
909.117	7175.08
909.43	7215.53
909.743	7222.54
910.056	7186.15
910.368	7147.74
910.681	7051.47
910.994	7036.1
911.307	7028.42
911.619	6988.42
911.932	6984.35
912.244	6924.92
912.557	6880.85
912.869	6929.21
913.181	6814.86
913.494	6870.91
913.806	6766.73
914.118	6764.02
914.43	6723.57
914.742	6782.55
915.054	6637.69
915.366	6661.42
915.678	6643.12
915.99	6602.21
916.302	6552.27
916.613	6518.37
916.925	6519.05
917.236	6515.66
917.548	6401.54
917.859	6457.36
918.171	6426.17
918.482	6420.07
918.794	6327.87
919.105	6352.05
919.416	6277.02
919.727	6324.93
920.038	6285.39
920.349	6221.88
920.66	6200.42
920.971	6194.99
921.282	6126.52
921.593	6143.24
921.903	6133.53
922.214	6052.17
922.525	6028.67
922.835	6058.95
923.146	5970.82
923.456	5993.19
923.767	5951.16
924.077	5926.3
924.387	5902.57
924.697	5870.93
925.008	5877.03
925.318	5789.81
925.628	5850.59
925.938	5811.05
926.248	5716.36
926.558	5752.97
926.867	5744.38
927.177	5722.01
927.487	5676.59
927.796	5608.57
928.106	5635.23
928.416	5601.56
928.725	5558.85
929.034	5527.44
929.344	5548.23
929.653	5557.95
929.962	5414.22
930.271	5441.11
930.581	5377.39
930.89	5420.32
931.199	5362.02
931.508	5376.93
931.817	5323.38
932.125	5260.33
932.434	5279.54
932.743	5286.32
933.051	5231.4
933.36	5264.62
933.669	5173.1
933.977	5141.01
934.286	5138.07
934.594	5138.3
934.902	5068.02
935.21	5096.94
935.519	5068.02
935.827	5037.51
936.135	5038.64
936.443	5009.71
936.751	4998.64
937.059	4965.87
937.367	4966.1
937.674	4925.42
937.982	4928.36
938.29	4875.48
938.597	4891.52
938.905	4784.63
939.213	4814.24
939.52	4809.04
939.827	4839.77
940.135	4759.32
940.442	4718.42
940.749	4702.38
941.056	4716.84
941.363	4641.81
941.67	4637.97
941.977	4633.23
942.284	4576.96
942.591	4581.93
942.898	4531.08
943.205	4529.73
943.511	4531.99
943.818	4535.6
944.125	4510.52
944.431	4469.16
944.738	4480.91
945.044	4422.38
945.35	4396.85
945.657	4410.41
945.963	4381.71
946.269	4359.56
946.575	4366.57
946.881	4338.77
947.187	4306.68
947.493	4290.64
947.799	4273.46
948.105	4228.94
948.41	4241.15
948.716	4194.37
949.022	4171.09
949.327	4200.69
949.633	4136.52
949.938	4118.21
950.244	4144.42
950.549	4094.03
950.854	4113.69
951.16	4043.41
951.465	4075.05
951.77	4048.83
952.075	3997.31
952.38	3986.01
952.685	3994.15
952.99	3924.32
953.294	3969.74
953.599	3915.5
953.904	3929.97
954.209	3909.18
954.513	3879.12
954.818	3831.44
955.122	3832.12
955.426	3846.35
955.731	3822.4
956.035	3828.5
956.339	3810.65
956.643	3812
956.948	3777.43
957.252	3741.05
957.556	3736.98
957.86	3705.57
958.163	3699.92
958.467	3687.94
958.771	3659.69
959.075	3635.74
959.378	3596.87
959.682	3624.66
959.985	3610.43
960.289	3580.15
960.592	3557.32
960.896	3573.82
961.199	3485.46
961.502	3527.27
961.805	3520.26
962.108	3474.61
962.411	3462.63
962.714	3444.56
963.017	3446.36
963.32	3434.16
963.623	3457.66
963.926	3364.56
964.228	3363.65
964.531	3388.51
964.833	3376.31
965.136	3343.99
965.438	3341.28
965.741	3346.48
966.043	3297.89
966.345	3304.67
966.648	3274.62
966.95	3267.84
967.252	3242.08
967.554	3256.54
967.856	3265.8
968.158	3208.4
968.46	3235.52
968.761	3183.32
969.063	3158.01
969.365	3138.8
969.666	3096.77
969.968	3108.75
970.269	3136.32
970.571	3070.78
970.872	3058.58
971.174	3025.58
971.475	3078.92
971.776	3048.86
972.077	3017.22
972.378	2980.39
972.679	3010.67
972.98	2994.85
973.281	2995.3
973.582	2977.9
973.883	2934.06
974.183	2925.7
974.484	2915.08
974.785	2889.77
975.085	2924.57
975.386	2894.74
975.686	2904.68
975.986	2872.82
976.287	2847.28
976.587	2833.95
976.887	2798.02
977.187	2826.95
977.487	2806.38
977.787	2798.25
978.087	2766.16
978.387	2778.59
978.687	2760.51
978.987	2756.66
979.286	2703.11
979.586	2702.2
979.885	2681.64
980.185	2666.95
980.484	2671.47
980.784	2631.92
981.083	2663.11
981.382	2611.13
981.682	2646.61
981.981	2613.84
982.28	2603.45
982.579	2574.75
982.878	2583.56
983.177	2553.96
983.475	2561.64
983.774	2552.38
984.073	2530.68
984.372	2533.17
984.67	2537.24
984.969	2521.87
985.267	2494.75
985.566	2492.26
985.864	2453.4
986.162	2482.77
986.461	2425.37
986.759	2439.84
987.057	2406.39
987.355	2455.66
987.653	2386.73
987.951	2341.99
988.249	2380.86
988.547	2393.28
988.844	2326.85
989.142	2329.11
989.44	2320.07
989.737	2319.39
990.035	2334.08
990.332	2295.66
990.63	2306.28
990.927	2285.72
991.224	2251.59
991.521	2233.97
991.819	2262.21
992.116	2253.4
992.413	2191.93
992.71	2208.2
993.006	2198.04
993.303	2186.28
993.6	2209.33
993.897	2149.22
994.193	2160.3
994.49	2190.13
994.787	2147.64
995.083	2160.75
995.379	2107.87
995.676	2108.32
995.972	2076.91
996.268	2070.36
996.565	2092.73
996.861	2083.24
997.157	2056.12
997.453	2044.82
997.749	2024.71
998.044	2019.06
998.34	2023.58
998.636	2013.18
998.932	1996.46
999.227	1990.81
999.523	1973.63
999.818	1949.23
1000.114	1972.28
1000.409	1929.12
1000.704	1940.64
1001	1924.82
1001.295	1905.39
1001.59	1903.35
1001.885	1891.15
1002.18	1896.12
1002.475	1897.25
1002.77	1875.33
1003.065	1866.07
1003.359	1859.97
1003.654	1879.17
1003.949	1821.1
1004.243	1827.65
1004.538	1792.17
1004.832	1810.25
1005.127	1781.1
1005.421	1797.14
1005.715	1758.05
1006.009	1743.58
1006.304	1739.52
1006.598	1766.86
1006.892	1752.62
1007.186	1733.41
1007.48	1709.91
1007.773	1703.36
1008.067	1697.94
1008.361	1698.84
1008.655	1678.95
1008.948	1665.85
1009.242	1654.77
1009.535	1644.6
1009.829	1651.84
1010.122	1638.73
1010.415	1610.25
1010.708	1615.23
1011.001	1590.82
1011.295	1617.26
1011.588	1591.5
1011.881	1563.02
1012.173	1560.09
1012.466	1551.27
1012.759	1576.81
1013.052	1563.7
1013.344	1533.65
1013.637	1525.28
1013.93	1521.9
1014.222	1516.92
1014.514	1522.12
1014.807	1484.61
1015.099	1435.57
1015.391	1474.44
1015.683	1447.09
1015.976	1459.98
1016.268	1425.63
1016.56	1408.68
1016.851	1436.02
1017.143	1430.15
1017.435	1420.2
1017.727	1435.8
1018.018	1371.16
1018.31	1394.67
1018.602	1366.64
1018.893	1375.91
1019.185	1352.63
1019.476	1354.67
1019.767	1337.04
1020.058	1338.85
1020.35	1330.94
1020.641	1352.86
1020.932	1298.62
1021.223	1295.23
1021.514	1298.62
1021.804	1274.44
1022.095	1267.89
1022.386	1262.01
1022.677	1230.83
1022.967	1277.83
1023.258	1255.69
1023.548	1278.74
1023.839	1216.14
1024.129	1217.95
1024.419	1191.28
1024.709	1191.28
1025	1168.01
1025.29	1165.07
1025.58	1162.58
1025.87	1153.32
1026.16	1181.11
1026.449	1162.81
1026.739	1161.9
1027.029	1154.9
1027.319	1142.7
1027.608	1125.97
1027.898	1116.48
1028.187	1126.65
1028.477	1101.34
1028.766	1108.35
1029.055	1085.52
1029.344	1094.79
1029.634	1088.46
1029.923	1102.47
1030.212	1059.76
1030.501	1064.73
1030.79	1062.02
1031.078	1039.2
1031.367	1036.71
1031.656	1024.28
1031.945	995.58
1032.233	1031.74
1032.522	1030.83
1032.81	1013.66
1033.099	1019.31
1033.387	1020.21
1033.675	978.41
1033.963	991.51
1034.251	958.75
1034.54	962.59
1034.828	963.49
1035.116	975.92
1035.403	952.87
1035.691	948.58
1035.979	962.81
1036.267	939.09
1036.554	919.2
1036.842	925.07
1037.129	918.75
1037.417	901.57
1037.704	921.23
1037.992	903.38
1038.279	907.45
1038.566	899.99
1038.853	899.99
1039.14	899.99
