Data from hue_320_FLMS001491_22.txt Node
Date: Mon Feb 06 15:46:58 GMT 2017
User: dcchb
Spectrometer: FLMS00149
Trigger mode: 0
Integration Time (sec): 2.000000E-2
Scans to average: 10
Electric dark correction enabled: true
Nonlinearity correction enabled: false
Boxcar width: 0
XAxis mode: Wavelengths
Number of Pixels in Spectrum: 2048
>>>>>Begin Spectral Data<<<<<
341.393	-31.84
341.776	-31.84
342.16	-31.84
342.543	-55.34
342.927	-65.51
343.31	-79.97
343.693	-79.07
344.077	-49.69
344.46	-81.78
344.843	-47.88
345.226	-50.82
345.61	-43.13
345.993	-17.6
346.376	6.13
346.759	2.97
347.142	43.19
347.525	42.74
347.908	61.5
348.291	87.71
348.674	97.65
349.057	108.05
349.44	117.99
349.823	143.53
350.206	164.32
350.588	188.05
350.971	215.39
351.354	215.16
351.737	247.93
352.119	238.67
352.502	273.69
352.884	284.54
353.267	295.39
353.65	300.59
354.032	298.78
354.414	301.72
354.797	324.77
355.179	321.6
355.562	307.82
355.944	313.01
356.326	334.93
356.709	334.48
357.091	333.13
357.473	340.13
357.855	327.03
358.238	334.48
358.62	345.33
359.002	350.08
359.384	348.72
359.766	327.7
360.148	329.06
360.53	336.74
360.912	313.69
361.294	345.56
361.676	328.61
362.057	325.9
362.439	336.74
362.821	309.85
363.203	326.8
363.584	325.44
363.966	333.13
364.348	307.59
364.729	306.91
365.111	313.47
365.493	323.18
365.874	301.94
366.256	314.14
366.637	310.3
367.019	313.24
367.4	320.7
367.781	306.91
368.163	299
368.544	322.28
368.925	324.09
369.306	318.44
369.688	319.12
370.069	322.51
370.45	331.54
370.831	302.85
371.212	305.1
371.593	318.44
371.974	300.81
372.355	316.4
372.736	329.06
373.117	322.96
373.498	320.02
373.879	326.35
374.26	313.01
374.641	315.5
375.021	321.83
375.402	322.05
375.783	341.26
376.163	343.07
376.544	329.96
376.925	293.81
377.305	319.34
377.686	300.36
378.066	328.83
378.447	307.82
378.827	342.39
379.208	319.34
379.588	354.82
379.968	339.68
380.349	328.16
380.729	337.42
381.109	341.26
381.489	328.83
381.87	317.53
382.25	326.57
382.63	346.01
383.01	333.35
383.39	333.35
383.77	344.65
384.15	359.11
384.53	346.91
384.91	346.23
385.29	339.23
385.67	371.09
386.049	339
386.429	346.69
386.809	343.97
387.189	349.62
387.568	351.88
387.948	362.73
388.328	348.72
388.707	363.86
389.087	354.82
389.466	369.74
389.846	358.89
390.225	344.65
390.605	339
390.984	350.08
391.363	374.48
391.743	361.37
392.122	374.93
392.501	384.88
392.881	368.61
393.26	357.08
393.639	377.19
394.018	362.96
394.397	364.54
394.776	382.84
395.155	380.36
395.534	380.58
395.913	363.86
396.292	373.35
396.671	380.81
397.05	383.3
397.429	388.72
397.808	373.35
398.186	370.87
398.565	390.53
398.944	373.58
399.323	383.3
399.701	394.37
400.08	400.02
400.458	388.49
400.837	400.7
401.215	393.01
401.594	422.16
401.972	414.25
402.351	414.03
402.729	372.45
403.107	373.35
403.486	416.74
403.864	405.89
404.242	408.83
404.62	419
404.999	419
405.377	405.67
405.755	414.25
406.133	420.81
406.511	414.48
406.889	415.61
407.267	434.82
407.645	422.16
408.023	438.89
408.401	439.79
408.779	432.11
409.156	460.81
409.534	472.33
409.912	481.82
410.29	473.01
410.667	467.81
411.045	471.65
411.422	484.54
411.8	468.94
412.178	494.25
412.555	490.86
412.933	506.91
413.31	511.88
413.687	524.99
414.065	544.65
414.442	537.19
414.819	536.96
415.197	539.45
415.574	556.62
415.951	543.06
416.328	536.51
416.705	553.91
417.082	572.89
417.46	558.66
417.837	585.1
418.214	581.93
418.591	600.01
418.967	579.67
419.344	611.54
419.721	632.33
420.098	595.27
420.475	627.13
420.852	616.28
421.228	614.93
421.605	648.37
421.982	638.2
422.358	663.97
422.735	653.8
423.111	660.8
423.488	663.51
423.864	669.62
424.241	702.38
424.617	669.39
424.994	662.84
425.37	703.06
425.746	698.09
426.123	712.55
426.499	731.08
426.875	714.13
427.251	724.75
427.627	736.28
428.003	718.65
428.379	757.52
428.756	765.66
429.132	773.79
429.507	745.32
429.883	768.14
430.259	782.83
430.635	777.86
431.011	808.82
431.387	797.07
431.763	817.86
432.138	821.93
432.514	854.02
432.89	836.84
433.265	839.1
433.641	865.09
434.016	864.64
434.392	904.19
434.767	904.64
435.143	903.96
435.518	917.29
435.894	894.92
436.269	913.22
436.644	918.42
437.02	953.45
437.395	924.98
437.77	950.74
438.145	971.3
438.52	984.18
438.895	981.92
439.271	977.86
439.646	995.26
440.021	1007.01
440.395	987.8
440.77	994.13
441.145	1010.85
441.52	1028.02
441.895	1010.17
442.27	1014.69
442.645	1000.91
443.019	1057.63
443.394	1057.85
443.769	1041.13
444.143	1049.94
444.518	1091.52
444.892	1059.89
445.267	1066.21
445.641	1066.44
446.016	1072.54
446.39	1067.12
446.764	1076.84
447.139	1054.69
447.513	1100.11
447.887	1062.6
448.262	1066.21
448.636	1110.28
449.01	1111.86
449.384	1103.73
449.758	1120.22
450.132	1110.96
450.506	1106.89
450.88	1116.61
451.254	1133.78
451.628	1135.82
452.002	1144.63
452.376	1175.36
452.75	1169.26
453.123	1195.03
453.497	1213.78
453.871	1190.05
454.244	1192.54
454.618	1198.87
454.992	1227.34
455.365	1202.26
455.739	1205.19
456.112	1237.51
456.486	1245.65
456.859	1250.62
457.232	1259.43
457.606	1282.48
457.979	1282.48
458.352	1292.88
458.725	1287
459.099	1291.97
459.472	1333.78
459.845	1350.28
460.218	1352.54
460.591	1337.17
460.964	1343.04
461.337	1369.03
461.71	1396.83
462.083	1378.3
462.456	1389.37
462.829	1404.51
463.201	1413.32
463.574	1413.32
463.947	1423.49
464.32	1467.11
464.692	1460.1
465.065	1450.84
465.438	1441.35
465.81	1495.58
466.183	1518.18
466.555	1531.06
466.928	1527.9
467.3	1493.55
467.672	1539.42
468.045	1553.66
468.417	1556.82
468.789	1578.74
469.161	1594.79
469.534	1617.61
469.906	1631.85
470.278	1658.97
470.65	1631.85
471.022	1663.94
471.394	1680.89
471.766	1706.42
472.138	1720.43
472.51	1753.43
472.882	1814.22
473.253	1756.82
473.625	1772.86
473.997	1828.23
474.369	1826.65
474.74	1834.1
475.112	1845.86
475.484	1909.13
475.855	1849.47
476.227	1914.33
476.598	1949.58
476.97	1926.53
477.341	2009.69
477.713	2009.01
478.084	2039.75
478.455	2064.38
478.827	2058.28
479.198	2105.96
479.569	2106.64
479.94	2164.72
480.311	2143.93
480.682	2212.85
481.053	2227.31
481.424	2231.38
481.795	2257.37
482.166	2272.74
482.537	2312.28
482.908	2357.93
483.279	2377.14
483.65	2404.94
484.021	2449.46
484.391	2476.8
484.762	2457.82
485.133	2463.69
485.503	2486.52
485.874	2549.57
486.244	2561.32
486.615	2581.43
486.985	2600.41
487.356	2651.71
487.726	2684.7
488.097	2684.25
488.467	2711.14
488.837	2737.36
489.207	2799.95
489.578	2823.46
489.948	2836.56
490.318	2826.62
490.688	2866.62
491.058	2900.29
491.428	2910.91
491.798	2952.04
492.168	3001.98
492.538	3039.04
492.908	3057.35
493.278	3051.25
493.648	3044.02
494.017	3118.82
494.387	3115.2
494.757	3129.21
495.126	3132.6
495.496	3174.41
495.866	3168.76
496.235	3175.54
496.605	3234.75
496.974	3233.39
497.344	3257.57
497.713	3272.71
498.082	3289.89
498.452	3305.93
498.821	3296.21
499.19	3328.08
499.559	3330.56
499.928	3353.39
500.298	3395.42
500.667	3372.59
501.036	3390.9
501.405	3439.26
501.774	3390.9
502.143	3464.57
502.512	3482.87
502.88	3459.82
503.249	3463.44
503.618	3491.24
503.987	3557.9
504.356	3540.5
504.724	3561.06
505.093	3558.13
505.462	3566.94
505.83	3561.29
506.199	3568.07
506.567	3632.7
506.936	3628.18
507.304	3643.77
507.672	3646.49
508.041	3681.74
508.409	3661.17
508.777	3663.89
509.145	3688.74
509.514	3682.42
509.882	3734.17
510.25	3727.61
510.618	3732.81
510.986	3757.22
511.354	3803.32
511.722	3767.16
512.09	3802.64
512.458	3794.73
512.826	3818.68
513.193	3812.36
513.561	3833.15
513.929	3807.84
514.297	3861.85
514.664	3819.59
515.032	3903.88
515.4	3903.65
515.767	3890.1
516.135	3915.86
516.502	3902.3
516.869	3929.87
517.237	3947.95
517.604	3965.8
517.972	3994.95
518.339	3963.54
518.706	3971.45
519.073	3963.99
519.44	3991.34
519.808	3994.73
520.175	4006.25
520.542	4056.19
520.909	4128.96
521.276	4052.35
521.643	4049.87
522.009	4092.35
522.376	4107.94
522.743	4079.24
523.11	4175.29
523.477	4167.6
523.843	4160.6
524.21	4185.68
524.577	4230.65
524.943	4224.32
525.31	4281.72
525.676	4305.9
526.043	4299.8
526.409	4321.27
526.776	4366.02
527.142	4372.79
527.508	4379.57
527.874	4403.98
528.241	4414.83
528.607	4423.41
528.973	4446.24
529.339	4410.08
529.705	4482.4
530.071	4543.86
530.437	4541.6
530.803	4555.61
531.169	4596.52
531.535	4577.76
531.901	4540.25
532.267	4580.92
532.632	4631.77
532.998	4638.32
533.364	4648.49
533.73	4711.32
534.095	4759
534.461	4760.13
534.826	4741.82
535.192	4757.42
535.557	4854.36
535.923	4777.98
536.288	4828.6
536.653	4904.08
537.019	4879.9
537.384	4863.18
537.749	4911.99
538.114	4883.74
538.479	4969.62
538.845	4917.64
539.21	4955.83
539.575	4977.3
539.94	4948.82
540.305	5020.46
540.67	5078.31
541.034	5059.1
541.399	5088.26
541.764	5084.87
542.129	5137.29
542.494	5155.82
542.858	5169.16
543.223	5168.25
543.587	5190.4
543.952	5145.88
544.316	5216.61
544.681	5306.78
545.045	5274.47
545.41	5261.36
545.774	5269.95
546.138	5359.44
546.503	5348.59
546.867	5391.07
547.231	5397.4
547.595	5451.41
547.959	5450.51
548.324	5471.3
548.688	5488.25
549.052	5499.77
549.416	5525.53
549.779	5483.73
550.143	5560.33
550.507	5553.33
550.871	5611.63
551.235	5590.84
551.599	5628.35
551.962	5618.86
552.326	5649.82
552.689	5686.66
553.053	5630.61
553.417	5671.97
553.78	5720.1
554.143	5761.01
554.507	5767.33
554.87	5761.46
555.234	5780.44
555.597	5773.89
555.96	5810.95
556.323	5822.25
556.686	5890.04
557.05	5890.72
557.413	5913.32
557.776	5943.6
558.139	5979.31
558.502	5972.75
558.865	5914.67
559.228	5974.11
559.59	6032.64
559.953	6025.86
560.316	6068.12
560.679	6073.31
561.041	6083.26
561.404	6144.73
561.767	6157.38
562.129	6165.29
562.492	6235.57
562.854	6158.51
563.217	6207.1
563.579	6184.27
563.941	6229.92
564.304	6240.77
564.666	6310.14
565.028	6306.3
565.39	6337.04
565.753	6341.56
566.115	6339.52
566.477	6325.74
566.839	6382.01
567.201	6479.41
567.563	6484.83
567.925	6446.64
568.287	6488.67
568.648	6518.5
569.01	6562.34
569.372	6570.25
569.734	6581.78
570.095	6648.44
570.457	6660.42
570.819	6643.02
571.18	6595.11
571.542	6719.4
571.903	6764.82
572.265	6792.17
572.626	6817.48
572.987	6879.17
573.349	6840.75
573.71	6983.35
574.071	7027.19
574.432	7069.45
574.794	7110.8
575.155	7154.64
575.516	7143.57
575.877	7257.92
576.238	7287.07
576.599	7298.37
576.96	7413.84
577.32	7487.74
577.681	7592.37
578.042	7634.18
578.403	7667.62
578.763	7785.13
579.124	7877.11
579.485	7968.18
579.845	8051.79
580.206	8122.07
580.566	8207.95
580.927	8326.36
581.287	8416.98
581.648	8559.13
582.008	8729.29
582.368	8818.55
582.728	8940.13
583.089	9093.35
583.449	9217.19
583.809	9381.93
584.169	9591.87
584.529	9752.54
584.889	9867.57
585.249	10092.19
585.609	10204.51
585.969	10497.83
586.329	10624.16
586.688	10831.38
587.048	11049.23
587.408	11195.89
587.768	11392.5
588.127	11663.22
588.487	11913.84
588.846	12162.42
589.206	12374.84
589.565	12657.1
589.925	12838.56
590.284	13107.48
590.643	13394.7
591.003	13740.23
591.362	13944.75
591.721	14129.83
592.08	14450.04
592.44	14772.97
592.799	14989.92
593.158	15216.58
593.517	15545.16
593.876	15942.21
594.235	16205.93
594.593	16443.21
594.952	16797.1
595.311	16925.46
595.67	17347.82
596.029	17690.86
596.387	18061.93
596.746	18217.85
597.104	18507.56
597.463	18893.99
597.822	19244.04
598.18	19338.5
598.538	19597.48
598.897	20014.19
599.255	20206.95
599.613	20733.49
599.972	20834.28
600.33	21233.82
600.688	21352.46
601.046	21812.56
601.404	22136.4
601.762	22313.79
602.12	22636.04
602.478	23040.55
602.836	23308.34
603.194	23376.36
603.552	23685.73
603.91	23800.53
604.268	24294.98
604.625	24385.6
604.983	24719.6
605.341	24913.5
605.698	25267.16
606.056	25453.82
606.413	25663.99
606.771	26052
607.128	26377.64
607.485	26475.26
607.843	26741.92
608.2	27109.6
608.557	27318.18
608.914	27390.49
609.272	27864.83
609.629	28027.09
609.986	28380.98
610.343	28306.63
610.7	28702.1
611.057	28942.32
611.414	29068.64
611.771	29198.58
612.127	29557.22
612.484	29690.1
612.841	29939.13
613.198	30057.99
613.554	30181.38
613.911	30494.59
614.267	30622.5
614.624	30771.65
614.98	30912.44
615.337	31288.02
615.693	31426.09
616.05	31412.08
616.406	31810.49
616.762	31744.5
617.118	31969.58
617.475	31948.11
617.831	32289.35
618.187	32532.51
618.543	32531.6
618.899	32930.91
619.255	33064.7
619.611	32921.65
619.967	33231.24
620.323	33391.47
620.678	33304.01
621.034	33400.96
621.39	33614.29
621.746	33659.03
622.101	34093.37
622.457	33937.44
622.812	34025.8
623.168	34309.18
623.523	34331.1
623.879	34548.27
624.234	34318
624.589	34622.85
624.945	34733.13
625.3	34856.51
625.655	34860.13
626.01	34876.4
626.365	35044.3
626.72	35138.09
627.075	35074.81
627.43	35187.58
627.785	35125.43
628.14	35300.57
628.495	35428.48
628.85	35332.88
629.205	35408.14
629.559	35656.94
629.914	35561.35
630.269	35738.07
630.623	35576.95
630.978	35554.35
631.332	35768.35
631.687	35904.39
632.041	35743.27
632.396	36053.32
632.75	35735.81
633.104	35963.83
633.459	35783.72
633.813	35823.04
634.167	35711.63
634.521	35838.41
634.875	35968.57
635.229	36030.95
635.583	35856.94
635.937	35734.68
636.291	35917.05
636.645	35888.12
636.999	35969.03
637.352	36017.16
637.706	35668.69
638.06	36007.44
638.413	35913.89
638.767	35920.89
639.121	36004.73
639.474	35698.52
639.828	35904.39
640.181	35960.21
640.534	35961.79
640.888	35874.57
641.241	35910.04
641.594	35936.94
641.947	35973.09
642.301	35790.95
642.654	35952.3
643.007	35840.44
643.36	35857.84
643.713	35762.7
644.066	35888.12
644.419	35778.75
644.771	35387.57
645.124	35159.78
645.477	35189.16
645.83	35080.91
646.182	34911.2
646.535	34703.97
646.888	34802.95
647.24	34623.75
647.593	34755.72
647.945	34794.14
648.298	34701.04
648.65	34685.9
649.002	34656.07
649.355	34708.49
649.707	34656.07
650.059	34881.37
650.411	35147.35
650.763	35273.23
651.115	35584.4
651.467	35528.59
651.819	35497.4
652.171	35402.26
652.523	35507.12
652.875	35391.64
653.227	35355.03
653.578	35480.68
653.93	35545.99
654.282	35189.61
654.633	35194.36
654.985	35364.3
655.337	35383.96
655.688	35376.73
656.039	35392.32
656.391	35074.36
656.742	35295.82
657.094	35135.38
657.445	35281.59
657.796	35200.01
658.147	35207.46
658.498	35192.32
658.849	35200.46
659.2	35069.39
659.551	35041.59
659.902	35356.16
660.253	35196.39
660.604	35228.71
660.955	35036.4
661.306	35237.97
661.656	35089.73
662.007	35245.88
662.358	35186
662.708	35046.11
663.059	35054.7
663.409	34838.89
663.76	35150.52
664.11	35094.92
664.461	35232.77
664.811	35180.12
665.161	35115.94
665.511	35108.03
665.862	35174.24
666.212	35101.93
666.562	35164.53
666.912	35070.74
667.262	35028.71
667.612	35054.02
667.962	35163.62
668.312	35084.08
668.662	35193.23
669.011	35136.05
669.361	35129.95
669.711	34922.05
670.06	34965.21
670.41	34949.17
670.76	34826.46
671.109	35065.55
671.459	34995.49
671.808	34920.47
672.157	35016.06
672.507	34814.48
672.856	34853.8
673.205	34917.75
673.554	34980.13
673.904	34817.42
674.253	35093.12
674.602	34919.56
674.951	34419.69
675.3	34359.8
675.649	34725.44
675.998	34736.29
676.346	34770.41
676.695	34896.06
677.044	34505.79
677.393	34631.21
677.741	34704.43
678.09	34628.95
678.438	34524.77
678.787	34663.75
679.135	34679.34
679.484	34473.92
679.832	34516.18
680.181	34285.23
680.529	34443.42
680.877	34376.98
681.225	34197.55
681.573	34540.14
681.922	34223.08
682.27	34200.94
682.618	34122.75
682.966	33927.27
683.314	34198.45
683.661	34102.63
684.009	33915.52
684.357	33888.85
684.705	33880.49
685.053	33865.13
685.4	33874.17
685.748	33567.96
686.095	33670.56
686.443	33527.96
686.79	33519.15
687.138	33599.14
687.485	33585.13
687.832	33372.48
688.18	33346.95
688.527	33167.29
688.874	33340.39
689.221	33246.84
689.568	33121.87
689.915	32880.07
690.262	33009.78
690.609	33050.01
690.956	32781.54
691.303	32847.53
691.65	32716.68
691.997	32629.45
692.344	32441.66
692.69	32393.75
693.037	32466.52
693.383	32123.03
693.73	32351.27
694.077	32210.93
694.423	32174.32
694.769	32006.64
695.116	31930.04
695.462	31806.2
695.808	31876.93
696.155	31857.27
696.501	31665.41
696.847	31631.74
697.193	31462.25
697.539	31523.27
697.885	31367.34
698.231	31195.37
698.577	31210.28
698.923	31215.25
699.269	31062.71
699.614	30851.65
699.96	30986.56
700.306	30987.24
700.651	30688.03
700.997	30580.24
701.342	30684.19
701.688	30566
702.033	30392.45
702.379	30465.67
702.724	30409.17
703.069	30479.23
703.415	30039.69
703.76	30166.69
704.105	30079.24
704.45	30040.82
704.795	29941.16
705.14	29823.88
705.485	29726.93
705.83	29563.54
706.175	29757.44
706.52	29583.43
706.865	29512.92
707.209	29528.74
707.554	29363.1
707.899	29446.26
708.243	29266.38
708.588	29183.22
708.932	29167.62
709.277	29016.89
709.621	29117.91
709.966	28943.9
710.31	28917.46
710.654	28719.95
710.998	28722.89
711.342	28788.42
711.687	28679.73
712.031	28524.48
712.375	28372.84
712.719	28485.38
713.063	28352.28
713.407	28560.18
713.75	28204.71
714.094	28317.93
714.438	28036.13
714.782	28216.46
715.125	28042.68
715.469	28007.43
715.812	27914.77
716.156	27774.44
716.499	27736.7
716.843	27882.91
717.186	27532.41
717.53	27704.38
717.873	27777.6
718.216	27674.33
718.559	27573.77
718.902	27427.1
719.246	27552.52
719.589	27338.74
719.932	27177.62
720.275	27347.78
720.617	27176.94
720.96	27239.54
721.303	27075.25
721.646	27222.14
721.989	26923.16
722.331	27053.1
722.674	27004.29
723.016	27134.23
723.359	27005.87
723.701	26962.48
724.044	26824.41
724.386	26682.26
724.729	26742.38
725.071	26692.66
725.413	26777.86
725.755	26767.46
726.097	26580.35
726.439	26461.25
726.782	26395.72
727.124	26509.39
727.465	26400.92
727.807	26287.47
728.149	26256.74
728.491	26326.34
728.833	26203.86
729.175	26122.05
729.516	26141.49
729.858	26140.58
730.199	26127.02
730.541	26094.94
730.882	26125.89
731.224	26192.33
731.565	25913.47
731.906	25821.5
732.248	25872.12
732.589	25819.01
732.93	25681.61
733.271	25727.26
733.612	25659.47
733.953	25763.87
734.294	25456.53
734.635	25559.81
734.976	25645.91
735.317	25358.46
735.658	25566.59
735.999	25381.28
736.339	25329.31
736.68	25550.77
737.021	25287.27
737.361	25323.43
737.702	25349.64
738.042	25228.52
738.383	25191.68
738.723	25251.79
739.063	25249.99
739.404	25197.11
739.744	25113.94
740.084	25068.97
740.424	25203.43
740.764	25109.42
741.104	25077.56
741.444	24976.77
741.784	24825.82
742.124	24929.09
742.464	24769.32
742.804	24725.48
743.143	24720.51
743.483	24745.14
743.823	24603.68
744.162	24593.96
744.502	24636.44
744.841	24418.6
745.181	24536.56
745.52	24465.6
745.86	24504.24
746.199	24411.59
746.538	24403.45
746.877	24459.27
747.216	24354.87
747.556	24352.38
747.895	24321.42
748.234	24187.19
748.573	24123.91
748.911	24301.76
749.25	24071.71
749.589	24003.01
749.928	24033.52
750.267	24002.79
750.605	24020.64
750.944	23874.2
751.283	23874.65
751.621	23909.68
751.96	23771.61
752.298	23722.34
752.636	23712.17
752.975	23622.23
753.313	23690.7
753.651	23659.07
753.989	23539.3
754.327	23430.82
754.666	23361.22
755.004	23273.77
755.342	23374.55
755.679	23332.97
756.017	23176.82
756.355	23290.26
756.693	23077.39
757.031	23061.12
757.368	23118.97
757.706	22980.21
758.044	22966.88
758.381	22935.47
758.719	22756.49
759.056	22836.04
759.394	22733.22
759.731	22552.88
760.068	22598.08
760.405	22520.57
760.743	22394.69
761.08	22494.35
761.417	22287.35
761.754	22269.95
762.091	22243.74
762.428	22154.02
762.765	21974.59
763.102	22137.75
763.438	21978.21
763.775	21932.11
764.112	21768.5
764.449	21808.95
764.785	21695.5
765.122	21647.59
765.458	21543.42
765.795	21541.38
766.131	21466.81
766.467	21345.91
766.804	21354.95
767.14	21120.83
767.476	21171
767.812	21145.69
768.148	21105.69
768.485	21041.28
768.821	20930.78
769.157	20828.63
769.492	20798.13
769.828	20759.48
770.164	20599.71
770.5	20517
770.836	20575.98
771.171	20399.72
771.507	20387.06
771.842	20314.52
772.178	20200.18
772.513	20095.77
772.849	20145.49
773.184	20078.37
773.519	19916.57
773.855	19865.95
774.19	19872.95
774.525	19732.39
774.86	19644.03
775.195	19610.13
775.53	19623.02
775.865	19412.63
776.2	19262.35
776.535	19293.76
776.87	19190.26
777.205	19160.43
777.539	19074.33
777.874	19131.05
778.209	18936.71
778.543	18919.3
778.878	18826.2
779.212	18799.53
779.547	18657.62
779.881	18703.72
780.215	18563.83
780.55	18630.95
780.884	18396.83
781.218	18428.92
781.552	18447.45
781.886	18360.22
782.22	18198.65
782.554	18156.39
782.888	18044.53
783.222	17986.22
783.556	17796.62
783.889	17877.52
784.223	17628.72
784.557	17659.22
784.89	17706.23
785.224	17580.81
785.557	17542.84
785.891	17454.71
786.224	17460.81
786.558	17415.62
786.891	17223.76
787.224	17127.94
787.557	17207.71
787.891	17152.8
788.224	17140.14
788.557	17067.15
788.89	16954.84
789.223	16963.42
789.556	16858.34
789.888	16693.6
790.221	16704.22
790.554	16600.5
790.887	16593.72
791.219	16528.41
791.552	16542.64
791.884	16379.48
792.217	16374.06
792.549	16239.83
792.882	16274.4
793.214	16201.18
793.546	16189.89
793.879	16090.45
794.211	16047.74
794.543	15995.54
794.875	15861.08
795.207	15956.9
795.539	15846.62
795.871	15821.76
796.203	15744.02
796.535	15634.65
796.867	15620.63
797.198	15692.95
797.53	15567.08
797.862	15467.64
798.193	15505.38
798.525	15402.79
798.856	15416.8
799.188	15231.04
799.519	15177.48
799.85	15098.16
800.182	15132.74
800.513	15086.64
800.844	15005.28
801.175	15053.87
801.506	14960.54
801.837	14879.86
802.168	14868.79
802.499	14807.1
802.83	14678.96
803.161	14640.77
803.491	14675.12
803.822	14688.68
804.153	14491.62
804.483	14441
804.814	14428.12
805.145	14409.14
805.475	14339.31
805.805	14383.83
806.136	14330.05
806.466	14300.44
806.796	14235.59
807.126	14183.84
807.457	14107.23
807.787	14056.38
808.117	14053.44
808.447	13967.12
808.777	13943.39
809.107	13930.51
809.436	13910.62
809.766	13855.94
810.096	13860.91
810.426	13774.58
810.755	13733.23
811.085	13753.34
811.414	13677.18
811.744	13672.66
812.073	13628.14
812.403	13592.89
812.732	13446.68
813.061	13568.71
813.39	13496.4
813.719	13402.84
814.049	13451.65
814.378	13409.39
814.707	13293.24
815.036	13326.68
815.365	13211.43
815.693	13176.86
816.022	13147.93
816.351	13061.15
816.68	13017.77
817.008	13078.1
817.337	13003.3
817.665	13052.57
817.994	12967.37
818.322	12992
818.651	12974.15
818.979	12845.11
819.307	12992.45
819.636	12832.23
819.964	12653.48
820.292	12824.1
820.62	12785.68
820.948	12728.06
821.276	12753.37
821.604	12768.05
821.932	12727.38
822.259	12749.98
822.587	12680.15
822.915	12694.84
823.243	12757.66
823.57	12657.77
823.898	12616.87
824.225	12635.63
824.553	12674.72
824.88	12643.09
825.207	12702.75
825.535	12582.52
825.862	12771.22
826.189	12684.89
826.516	12757.88
826.843	12719.92
827.17	12829.75
827.497	12651.45
827.824	12702.29
828.151	12676.98
828.478	12579.58
828.805	12647.61
829.131	12618.45
829.458	12681.28
829.785	12547.49
830.111	12691.9
830.438	12675.18
830.764	12665.01
831.09	12669.53
831.417	12560.38
831.743	12618.45
832.069	12629.07
832.395	12602.18
832.722	12616.42
833.048	12552.92
833.374	12514.05
833.7	12508.4
834.026	12548.85
834.351	12492.81
834.677	12472.92
835.003	12532.81
835.329	12544.56
835.654	12423.43
835.98	12408.06
836.306	12476.08
836.631	12497.1
836.956	12444.9
837.282	12424.56
837.607	12364.45
837.932	12285.13
838.258	12369.87
838.583	12330.78
838.908	12290.55
839.233	12251.46
839.558	12231.12
839.883	12201.74
840.208	12154.74
840.533	12127.84
840.858	12134.62
841.182	12065.47
841.507	12141.4
841.832	11984.8
842.156	12046.27
842.481	12033.61
842.805	12006.94
843.13	11951.58
843.454	11903.44
843.778	11833.16
844.103	11866.83
844.427	11797.01
844.751	11881.3
845.075	11801.3
845.399	11736.89
845.723	11611.47
846.047	11698.93
846.371	11571.93
846.695	11561.76
847.019	11565.83
847.343	11542.55
847.666	11373.29
847.99	11402.67
848.313	11348.88
848.637	11214.87
848.96	11211.03
849.284	11263.01
849.607	11146.4
849.931	11154.31
850.254	11032.96
850.577	10987.54
850.9	10946.18
851.223	10916.8
851.546	10859.4
851.869	10858.5
852.192	10856.47
852.515	10667.09
852.838	10665.74
853.161	10723.36
853.483	10663.93
853.806	10656.7
854.129	10586.42
854.451	10519.75
854.774	10454.22
855.096	10480.88
855.419	10437.27
855.741	10384.39
856.063	10318.18
856.385	10255.8
856.708	10287.22
857.03	10260.1
857.352	10276.14
857.674	10245.18
857.996	10199.53
858.318	10176.26
858.64	10135.81
858.961	10116.15
859.283	10044.06
859.605	9995.7
859.926	10032.76
860.248	10015.13
860.57	9941.69
860.891	9962.03
861.212	9923.16
861.534	9833.67
861.855	9820.56
862.176	9857.85
862.498	9819.88
862.819	9813.1
863.14	9806.55
863.461	9800.9
863.782	9748.25
864.103	9761.13
864.424	9734.24
864.745	9752.77
865.065	9687.23
865.386	9643.39
865.707	9606.33
866.027	9664.86
866.348	9603.39
866.668	9656.5
866.989	9548.7
867.309	9524.07
867.63	9584.86
867.95	9544.64
868.27	9542.83
868.59	9511.42
868.91	9481.59
869.23	9536.05
869.55	9416.73
869.87	9439.78
870.19	9424.41
870.51	9440.91
870.83	9400.46
871.15	9360.69
871.469	9395.94
871.789	9397.97
872.109	9308.71
872.428	9256.51
872.748	9325.66
873.067	9357.97
873.386	9341.7
873.706	9261.48
874.025	9192.33
874.344	9152.33
874.663	9191.2
874.982	9174.25
875.301	9206.57
875.62	9155.95
875.939	9128.38
876.258	9155.27
876.577	9086.34
876.896	9050.64
877.214	9065.78
877.533	9072.33
877.852	9009.73
878.17	8962.73
878.489	9024.88
878.807	9026.68
879.125	9018.77
879.444	8967.48
879.762	8929.74
880.08	8922.05
880.398	8870.76
880.716	8910.3
881.034	8878.44
881.352	8924.77
881.67	8839.12
881.988	8852.45
882.306	8825.33
882.624	8801.38
882.941	8780.36
883.259	8715.73
883.577	8752.57
883.894	8708.73
884.212	8726.35
884.529	8716.41
884.846	8624.43
885.164	8586.7
885.481	8569.07
885.798	8643.87
886.115	8575.4
886.432	8525.68
886.75	8521.84
887.067	8513.48
887.383	8546.02
887.7	8496.75
888.017	8412.91
888.334	8447.26
888.651	8421.5
888.967	8379.47
889.284	8383.31
889.6	8331.11
889.917	8261.05
890.233	8289.53
890.55	8221.06
890.866	8219.93
891.182	8273.26
891.498	8188.97
891.815	8205.91
892.131	8143.77
892.447	8129.31
892.763	8079.59
893.079	8099.02
893.395	8070.1
893.71	8019.48
894.026	8063.32
894.342	8030.33
894.657	7928.86
894.973	7958.69
895.289	7912.14
895.604	7835.3
895.92	7828.75
896.235	7788.3
896.55	7826.94
896.865	7805.7
897.181	7794.63
897.496	7757.56
897.811	7706.27
898.126	7730.22
898.441	7607.74
898.756	7596.89
899.071	7555.08
899.386	7522.32
899.7	7516.67
900.015	7504.24
900.33	7434.18
900.644	7434.18
900.959	7456.78
901.273	7387.18
901.588	7361.19
901.902	7324.13
902.216	7329.55
902.531	7358.25
902.845	7279.38
903.159	7252.49
903.473	7219.73
903.787	7187.86
904.101	7117.36
904.415	7144.7
904.729	7120.97
905.042	7101.76
905.356	7003.69
905.67	7015.21
905.984	7022.22
906.297	7021.54
906.611	6970.24
906.924	6979.73
907.237	6931.15
907.551	6887.08
907.864	6824.93
908.177	6873.29
908.491	6798.49
908.804	6839.17
909.117	6790.36
909.43	6750.59
909.743	6655.45
910.056	6677.37
910.368	6623.58
910.681	6571.61
910.994	6572.74
911.307	6585.39
911.619	6510.37
911.932	6544.04
912.244	6484.6
912.557	6442.12
912.869	6463.36
913.181	6389.92
913.494	6398.5
913.806	6362.12
914.118	6360.31
914.43	6318.28
914.742	6277.83
915.054	6270.37
915.366	6214.78
915.678	6190.15
915.99	6194.67
916.302	6103.6
916.613	6131.84
916.925	6097.27
917.236	6087.33
917.548	6066.31
917.859	6062.69
918.171	6014.33
918.482	5993.54
918.794	5941.11
919.105	5944.5
919.416	5916.03
919.727	5882.81
920.038	5857.5
920.349	5816.82
920.66	5764.62
920.971	5800.55
921.282	5795.13
921.593	5718.75
921.903	5705.87
922.214	5657.05
922.525	5638.98
922.835	5640.11
923.146	5608.69
923.456	5565.76
923.767	5566.89
924.077	5567.11
924.387	5492.09
924.697	5492.77
925.008	5504.06
925.318	5429.72
925.628	5451.41
925.938	5468.36
926.248	5383.39
926.558	5380.9
926.867	5328.25
927.177	5354.01
927.487	5281.25
927.796	5241.25
928.106	5253.9
928.416	5250.96
928.725	5241.92
929.034	5194.02
929.344	5205.32
929.653	5184.07
929.962	5130.06
930.271	5111.08
930.581	5081.25
930.89	5068.14
931.199	4987.69
931.508	5021.59
931.817	5020.01
932.125	5010.29
932.434	4977.07
932.743	4948.37
933.051	4905.21
933.36	4910.41
933.669	4864.76
933.977	4861.6
934.286	4817.08
934.594	4836.96
934.902	4751.54
935.21	4783.41
935.519	4821.6
935.827	4778.21
936.135	4702.05
936.443	4664.54
936.751	4680.13
937.059	4631.32
937.367	4596.52
937.674	4610.3
937.982	4647.82
938.29	4578.21
938.597	4567.59
938.905	4521.27
939.213	4504.32
939.52	4489.4
939.827	4519.68
940.135	4436.07
940.442	4431.32
940.749	4413.92
941.056	4380.93
941.363	4358.78
941.67	4379.57
941.977	4342.96
942.284	4277.66
942.591	4330.08
942.898	4281.72
943.205	4256.19
943.511	4267.26
943.818	4269.75
944.125	4202.4
944.431	4174.83
944.738	4180.71
945.044	4150.43
945.35	4152.24
945.657	4083.31
945.963	4108.85
946.269	4113.14
946.575	4087.6
946.881	4053.93
947.187	4070.43
947.493	4036.76
947.799	3951.79
948.105	4021.62
948.41	3978.91
948.716	3977.55
949.022	3893.26
949.327	3906.37
949.633	3914.05
949.938	3842.19
950.244	3909.76
950.549	3862.07
950.854	3820.27
951.16	3834.5
951.465	3787.73
951.77	3785.47
952.075	3841.51
952.38	3777.56
952.685	3744.79
952.99	3708.41
953.294	3764
953.599	3745.47
953.904	3706.15
954.209	3640.61
954.513	3636.32
954.818	3665.24
955.122	3613.27
955.426	3584.34
955.731	3559.03
956.035	3561.52
956.339	3571.46
956.643	3527.85
956.948	3494.63
957.252	3499.82
957.556	3466.6
957.86	3524.46
958.163	3480.16
958.467	3494.4
958.771	3474.29
959.075	3448.98
959.378	3418.47
959.682	3405.14
959.985	3393.16
960.289	3384.35
960.592	3374.18
960.896	3312.71
961.199	3347.74
961.502	3340.05
961.805	3307.06
962.108	3258.47
962.411	3299.6
962.714	3242.43
963.017	3227.06
963.32	3230.45
963.623	3214.18
963.926	3185.48
964.228	3211.24
964.531	3200.62
964.833	3202.2
965.136	3126.27
965.438	3098.93
965.741	3074.52
966.043	3107.07
966.345	3081.3
966.648	3086.05
966.95	3084.24
967.252	3023.23
967.554	3034.3
967.856	2999.95
968.158	2999.72
968.46	3021.87
968.761	2984.36
969.063	2959.5
969.365	2982.32
969.666	2950.91
969.968	2936.67
970.269	2898.94
970.571	2891.03
970.872	2912.04
971.174	2887.41
971.475	2871.59
971.776	2886.05
972.077	2847.19
972.378	2870.01
972.679	2826.17
972.98	2803.8
973.281	2784.59
973.582	2771.93
973.883	2809.45
974.183	2753.4
974.484	2741.65
974.785	2750.92
975.085	2726.74
975.386	2717.7
975.686	2687.19
975.986	2708.21
976.287	2692.61
976.587	2630.02
976.887	2666.17
977.187	2651.26
977.487	2666.62
977.787	2620.98
978.087	2587.76
978.387	2590.24
978.687	2620.3
978.987	2560.41
979.286	2552.73
979.586	2571.03
979.885	2534.42
980.185	2547.53
980.484	2529.23
980.784	2469.79
981.083	2473.41
981.382	2484.03
981.682	2498.27
981.981	2484.26
982.28	2466.18
982.579	2427.31
982.878	2433.41
983.177	2438.83
983.475	2404.71
983.774	2410.81
984.073	2411.49
984.372	2392.06
984.67	2395.9
984.969	2373.98
985.267	2373.3
985.566	2334.88
985.864	2337.37
986.162	2375.78
986.461	2334.88
986.759	2342.11
987.057	2282.45
987.355	2301.21
987.653	2262.79
987.951	2256.92
988.249	2227.54
988.547	2251.49
988.844	2242.23
989.142	2240.2
989.44	2206.52
989.737	2204.26
990.035	2178.28
990.332	2179.18
990.63	2173.98
990.927	2167.88
991.224	2131.72
991.521	2133.08
991.819	2109.8
992.116	2093.31
992.413	2114.1
992.71	2098.96
993.006	2104.15
993.303	2103.02
993.6	2071.84
993.897	2076.81
994.193	2063.25
994.49	2082.69
994.787	2038.17
995.083	2036.36
995.379	2044.72
995.676	2025.96
995.972	1993.2
996.268	1991.16
996.565	1964.04
996.861	1978.73
997.157	1972.18
997.453	1944.61
997.749	1951.39
998.044	1922.24
998.34	1930.37
998.636	1879.98
998.932	1901.22
999.227	1923.37
999.523	1912.07
999.818	1883.37
1000.114	1860.54
1000.409	1903.71
1000.704	1831.17
1001	1831.17
1001.295	1840.88
1001.59	1832.3
1001.885	1787.33
1002.18	1807.66
1002.475	1802.92
1002.77	1793.43
1003.065	1767.89
1003.359	1796.82
1003.654	1727.67
1003.949	1767.44
1004.243	1726.99
1004.538	1726.99
1004.832	1738.74
1005.127	1691.51
1005.421	1697.16
1005.715	1703.03
1006.009	1696.48
1006.304	1679.08
1006.598	1649.02
1006.892	1656.03
1007.186	1658.29
1007.48	1635.92
1007.773	1641.34
1008.067	1610.38
1008.361	1629.14
1008.655	1581.46
1008.948	1571.74
1009.242	1610.83
1009.535	1573.09
1009.829	1558.41
1010.122	1548.91
1010.415	1534.68
1010.708	1545.75
1011.001	1534.45
1011.295	1520.89
1011.588	1511.4
1011.881	1528.8
1012.173	1508.46
1012.466	1500.78
1012.759	1479.99
1013.052	1462.14
1013.344	1474.34
1013.637	1468.69
1013.93	1428.01
1014.222	1428.24
1014.514	1442.93
1014.807	1435.24
1015.099	1401.57
1015.391	1435.47
1015.683	1421.01
1015.976	1417.39
1016.268	1398.86
1016.56	1391.4
1016.851	1353.89
1017.143	1372.42
1017.435	1342.14
1017.727	1341.01
1018.018	1341.69
1018.31	1333.33
1018.602	1344.63
1018.893	1322.93
1019.185	1310.5
1019.476	1300.33
1019.767	1305.3
1020.058	1304.63
1020.35	1270.05
1020.641	1262.14
1020.932	1266.21
1021.223	1277.51
1021.514	1241.35
1021.804	1244.29
1022.095	1234.8
1022.386	1244.52
1022.677	1202.93
1022.967	1219.88
1023.258	1218.98
1023.548	1196.83
1023.839	1186.66
1024.129	1189.15
1024.419	1192.99
1024.709	1176.04
1025	1202.03
1025.29	1129.49
1025.58	1162.48
1025.87	1148.25
1026.16	1133.78
1026.449	1133.33
1026.739	1131.52
1027.029	1110.06
1027.319	1096.27
1027.608	1107.8
1027.898	1089.49
1028.187	1078.42
1028.477	1053.56
1028.766	1096.27
1029.055	1058.53
1029.344	1042.49
1029.634	1066.21
1029.923	1045.88
1030.212	1019.66
1030.501	1017.63
1030.79	1021.47
1031.078	1014.24
1031.367	1002.49
1031.656	1021.92
1031.945	975.6
1032.233	994.13
1032.522	992.54
1032.81	977.18
1033.099	961.13
1033.387	970.4
1033.675	946.22
1033.963	963.17
1034.251	946.44
1034.54	950.51
1034.828	918.2
1035.116	927.69
1035.403	938.08
1035.691	913.9
1035.979	910.74
1036.267	926.78
1036.554	900.34
1036.842	889.95
1037.129	907.35
1037.417	885.2
1037.704	879.1
1037.992	880.23
1038.279	889.5
1038.566	864.64
1038.853	864.64
1039.14	864.64
