Data from hue_230_FLMS001491_00072.txt Node
Date: Tue Feb 07 16:37:43 GMT 2017
User: dcchb
Spectrometer: FLMS00149
Trigger mode: 0
Integration Time (sec): 2.000000E-2
Scans to average: 10
Electric dark correction enabled: true
Nonlinearity correction enabled: false
Boxcar width: 0
XAxis mode: Wavelengths
Number of Pixels in Spectrum: 2048
>>>>>Begin Spectral Data<<<<<
341.393	-3.04
341.776	-3.04
342.16	-3.04
342.543	-62.7
342.927	-50.04
343.31	-65.18
343.693	-54.56
344.077	-62.7
344.46	-67.89
344.843	-54.11
345.226	-68.57
345.61	-33.77
345.993	-13.21
346.376	-2.36
346.759	3.97
347.142	11.88
347.525	47.36
347.908	64.53
348.291	80.58
348.674	93.01
349.057	121.03
349.44	109.5
349.823	137.3
350.206	144.08
350.588	171.42
350.971	179.33
351.354	219.33
351.737	223.85
352.119	235.38
352.502	262.49
352.884	281.93
353.267	263.4
353.65	286
354.032	286.67
354.414	288.03
354.797	281.25
355.179	340.91
355.562	304.75
355.944	322.6
356.326	334.36
356.709	313.57
357.091	307.69
357.473	327.12
357.855	331.19
358.238	340.23
358.62	328.48
359.002	328.03
359.384	335.26
359.766	331.42
360.148	334.81
360.53	322.15
360.912	317.41
361.294	330.06
361.676	314.47
362.057	328.48
362.439	331.87
362.821	314.24
363.203	314.7
363.584	311.31
363.966	337.97
364.348	328.25
364.729	323.73
365.111	308.82
365.493	307.69
365.874	297.29
366.256	314.47
366.637	294.13
367.019	315.83
367.4	314.02
367.781	309.95
368.163	296.16
368.544	281.02
368.925	280.12
369.306	309.5
369.688	299.33
370.069	312.66
370.45	313.34
370.831	309.05
371.212	316.95
371.593	291.64
371.974	295.71
372.355	292.1
372.736	309.5
373.117	294.81
373.498	288.03
373.879	318.76
374.26	285.77
374.641	303.85
375.021	311.31
375.402	297.29
375.783	316.73
376.163	304.07
376.544	305.66
376.925	331.64
377.305	314.02
377.686	302.49
378.066	319.21
378.447	313.57
378.827	324.64
379.208	335.94
379.588	331.87
379.968	309.95
380.349	347.69
380.729	313.11
381.109	318.76
381.489	314.92
381.87	329.38
382.25	351.3
382.63	344.75
383.01	314.02
383.39	324.19
383.77	331.42
384.15	326.9
384.53	340.68
384.91	352.66
385.29	343.39
385.67	333.45
386.049	337.07
386.429	336.84
386.809	351.98
387.189	340.68
387.568	349.27
387.948	351.3
388.328	339.1
388.707	361.47
389.087	370.74
389.466	341.36
389.846	357.63
390.225	374.13
390.605	363.73
390.984	370.51
391.363	364.64
391.743	371.87
392.122	364.86
392.501	352.21
392.881	378.87
393.26	377.29
393.639	374.81
394.018	375.03
394.397	379.78
394.776	368.03
395.155	394.92
395.534	380
395.913	368.03
396.292	388.82
396.671	381.13
397.05	390.85
397.429	385.88
397.808	384.98
398.186	368.48
398.565	402.83
398.944	368.93
399.323	394.69
399.701	383.62
400.08	378.65
400.458	378.42
400.837	411.42
401.215	429.95
401.594	418.65
401.972	425.2
402.351	407.8
402.729	429.04
403.107	412.55
403.486	426.1
403.864	401.02
404.242	419.78
404.62	426.33
404.999	415.48
405.377	457.06
405.755	443.05
406.133	431.75
406.511	446.22
406.889	458.42
407.267	466.1
407.645	474.01
408.023	466.56
408.401	449.38
408.779	469.49
409.156	487.35
409.534	463.39
409.912	497.52
410.29	495.03
410.667	511.53
411.045	515.14
411.422	497.97
411.8	496.84
412.178	522.83
412.555	559.43
412.933	537.51
413.31	536.38
413.687	538.42
414.065	539.1
414.442	561.69
414.819	573.45
415.197	574.35
415.574	588.36
415.951	575.93
416.328	605.08
416.705	595.14
417.082	602.37
417.46	608.7
417.837	620.9
418.214	629.49
418.591	636.72
418.967	619.77
419.344	657.96
419.721	674.46
420.098	650.96
420.475	670.17
420.852	673.33
421.228	668.81
421.605	699.54
421.982	702.93
422.358	708.36
422.735	709.94
423.111	725.08
423.488	735.25
423.864	747.9
424.241	765.3
424.617	763.27
424.994	782.25
425.37	755.81
425.746	782.25
426.123	792.65
426.499	839.2
426.875	824.74
427.251	842.14
427.627	835.59
428.003	837.62
428.379	871.29
428.756	888.47
429.132	904.06
429.507	902.7
429.883	916.04
430.259	896.37
430.635	920.78
431.011	950.38
431.387	930.05
431.763	966.88
432.138	946.77
432.514	968.01
432.89	1010.95
433.265	1018.63
433.641	1012.3
434.016	1056.14
434.392	1062.47
434.767	1074.45
435.143	1080.1
435.518	1104.28
435.894	1116.71
436.269	1153.09
436.644	1148.57
437.02	1165.52
437.395	1196.25
437.77	1215.91
438.145	1213.88
438.52	1252.75
438.895	1219.3
439.271	1285.74
439.646	1290.94
440.021	1295.69
440.395	1282.58
440.77	1311.51
441.145	1343.82
441.52	1363.03
441.895	1340.43
442.27	1383.37
442.645	1385.63
443.019	1429.24
443.394	1400.09
443.769	1426.08
444.143	1385.4
444.518	1434.67
444.892	1476.47
445.267	1490.94
445.641	1468.56
446.016	1480.09
446.39	1490.94
446.764	1523.48
447.139	1531.84
447.513	1492.29
447.887	1526.87
448.262	1538.84
448.636	1549.24
449.01	1568.45
449.384	1591.95
449.758	1602.12
450.132	1608.9
450.506	1608.67
450.88	1639.63
451.254	1637.15
451.628	1669.46
452.002	1676.47
452.376	1669.91
452.75	1707.2
453.123	1692.29
453.497	1724.83
453.871	1765.28
454.244	1803.7
454.618	1784.71
454.992	1788.1
455.365	1829.23
455.739	1853.41
456.112	1889.34
456.486	1910.13
456.859	1891.83
457.232	1899.51
457.606	1904.26
457.979	1959.17
458.352	1959.85
458.725	1993.97
459.099	2009.34
459.472	2068.32
459.845	2091.37
460.218	2080.98
460.591	2101.77
460.964	2127.08
461.337	2146.74
461.71	2185.83
462.083	2186.28
462.456	2192.16
462.829	2226.51
463.201	2283.46
463.574	2264.47
463.947	2290.91
464.32	2319.39
464.692	2366.39
465.065	2379.95
465.438	2384.7
465.81	2446.39
466.183	2432.38
466.555	2490.91
466.928	2508.08
467.3	2519.61
467.672	2555.77
468.045	2609.32
468.417	2626.05
468.789	2612.26
469.161	2675.09
469.534	2682.99
469.906	2746.04
470.278	2739.72
470.65	2772.03
471.022	2812.03
471.394	2871.24
471.766	2870.33
472.138	2952.82
472.51	2955.53
472.882	3025.13
473.253	3028.07
473.625	3118.69
473.997	3132.02
474.369	3158.24
474.74	3181.29
475.112	3245.69
475.484	3322.3
475.855	3348.29
476.227	3366.59
476.598	3474.39
476.97	3453.82
477.341	3518.23
477.713	3570.43
478.084	3591.67
478.455	3689.75
478.827	3719.58
479.198	3787.82
479.569	3823.53
479.94	3915.5
480.311	3908.72
480.682	3973.36
481.053	4073.24
481.424	4125.67
481.795	4106.91
482.166	4221.94
482.537	4238.43
482.908	4301.48
483.279	4364.31
483.65	4474.36
484.021	4537.41
484.391	4570.85
484.762	4572.21
485.133	4623.28
485.503	4687.46
485.874	4756.61
486.244	4796.16
486.615	4885.42
486.985	4928.13
487.356	5003.16
487.726	5099.43
488.097	5117.73
488.467	5106.89
488.837	5181.01
489.207	5289.25
489.578	5351.17
489.948	5380.32
490.318	5440.66
490.688	5499.64
491.058	5541.68
491.428	5562.69
491.798	5628.68
492.168	5733.99
492.538	5707.32
492.908	5809.24
493.278	5837.94
493.648	5847.88
494.017	5903.47
494.387	5983.25
494.757	5971.27
495.126	6084.94
495.496	6035.45
495.866	6099.4
496.235	6198.38
496.605	6208.78
496.974	6223.69
497.344	6297.81
497.713	6332.62
498.082	6355.89
498.452	6434.99
498.821	6378.26
499.19	6464.36
499.559	6510.92
499.928	6479.05
500.298	6582.55
500.667	6592.72
501.036	6545.49
501.405	6645.6
501.774	6590.01
502.143	6663.45
502.512	6687.41
502.88	6751.36
503.249	6759.27
503.618	6777.8
503.987	6807.63
504.356	6831.36
504.724	6861.42
505.093	6863
505.462	6843.11
505.83	6910
506.199	6960.4
506.567	7023.22
506.936	6989.55
507.304	7055.08
507.672	7078.59
508.041	7106.61
508.409	7112.71
508.777	7175.31
509.145	7221.41
509.514	7160.16
509.882	7196.1
510.25	7184.34
510.618	7279.03
510.986	7213.72
511.354	7317.67
511.722	7344.79
512.09	7389.31
512.458	7359.03
512.826	7426.15
513.193	7444.45
513.561	7381.4
513.929	7443.55
514.297	7454.39
514.664	7440.38
515.032	7524.22
515.4	7576.43
515.767	7566.03
516.135	7600.15
516.502	7532.13
516.869	7663.43
517.237	7640.38
517.604	7590.21
517.972	7691
518.339	7689.19
518.706	7693.26
519.073	7662.07
519.44	7674.28
519.808	7767.15
520.175	7672.24
520.542	7809.19
520.909	7881.28
521.276	7776.87
521.643	7818.68
522.009	7887.83
522.376	7888.06
522.743	7872.91
523.11	7859.36
523.477	7976.19
523.843	7945.91
524.21	8043.98
524.577	8065.68
524.943	8033.36
525.31	8014.15
525.676	8060.93
526.043	8043.53
526.409	8064.77
526.776	8079.69
527.142	8138.44
527.508	8170.08
527.874	8202.85
528.241	8248.95
528.607	8192.91
528.973	8192
529.339	8216.86
529.705	8213.92
530.071	8265.67
530.437	8245.56
530.803	8286.69
531.169	8241.94
531.535	8250.53
531.901	8277.88
532.267	8281.49
532.632	8316.52
532.998	8305.45
533.364	8208.95
533.73	8256.63
534.095	8358.33
534.461	8319.68
534.826	8339.34
535.192	8263.19
535.557	8325.56
535.923	8291.89
536.288	8275.16
536.653	8264.77
537.019	8275.84
537.384	8253.7
537.749	8281.04
538.114	8277.2
538.479	8234.03
538.845	8260.47
539.21	8152.68
539.575	8219.35
539.94	8181.61
540.305	8305.9
540.67	8175.05
541.034	8161.49
541.399	8196.52
541.764	8214.15
542.129	8113.59
542.494	8103.19
542.858	8186.35
543.223	8159.91
543.587	8179.12
543.952	8104.55
544.316	8132.79
544.681	8130.99
545.045	8112
545.41	8142.74
545.774	8127.15
546.138	8060.71
546.503	8087.15
546.867	7996.3
547.231	8123.76
547.595	8046.02
547.959	8078.11
548.324	8025
548.688	8001.5
549.052	7960.6
549.416	7982.06
549.779	7989.07
550.143	7997.88
550.507	8014.83
550.871	8042.85
551.235	8026.58
551.599	7921.05
551.962	7937.32
552.326	7971.22
552.689	7952.46
553.053	7916.3
553.417	7935.51
553.78	8027.03
554.143	7979.58
554.507	7995.62
554.87	7906.81
555.234	7972.8
555.597	7895.29
555.96	7940.03
556.323	8001.72
556.686	7946.58
557.05	7992.91
557.413	7939.58
557.776	7910.88
558.139	7948.84
558.502	7943.87
558.865	7880.37
559.228	8002.63
559.59	8019.8
559.953	7998.56
560.316	8080.37
560.679	8023.42
561.041	8036.53
561.404	8018.22
561.767	8118.11
562.129	8050.31
562.492	8062.97
562.854	8098.22
563.217	8044.44
563.579	8087.37
563.941	8114.72
564.304	8072.46
564.666	8152.23
565.028	8183.19
565.39	8190.19
565.753	8213.02
566.115	8188.39
566.477	8215.5
566.839	8245.79
567.201	8230.19
567.563	8261.38
567.925	8325.78
568.287	8294.37
568.648	8257.31
569.01	8318.33
569.372	8384.99
569.734	8350.64
570.095	8376.4
570.457	8429.06
570.819	8422.28
571.18	8429.51
571.542	8463.86
571.903	8415.73
572.265	8420.47
572.626	8511.54
572.987	8543.63
573.349	8494.82
573.71	8580.24
574.071	8561.26
574.432	8566.46
574.794	8636.28
575.155	8660.69
575.516	8617.75
575.877	8608.49
576.238	8686.23
576.599	8736.85
576.96	8698.66
577.32	8729.84
577.681	8792.66
578.042	8753.34
578.403	8780.91
578.763	8744.3
579.124	8844.64
579.485	8878.31
579.845	8893.9
580.206	8857.97
580.566	8831.08
580.927	8878.31
581.287	8951.76
581.648	8949.72
582.008	8919.89
582.368	8963.06
582.728	8879.67
583.089	8942.04
583.449	8959.89
583.809	8935.03
584.169	8984.75
584.529	8983.39
584.889	9063.39
585.249	9038.99
585.609	9010.96
585.969	9044.18
586.329	9018.87
586.688	9075.37
587.048	8994.01
587.408	9025.88
587.768	9026.56
588.127	9051.64
588.487	9103.62
588.846	9151.98
589.206	9085.09
589.565	9115.82
589.925	9147.23
590.284	9117.4
590.643	9220.45
591.003	9171.19
591.362	9216.38
591.721	9232.88
592.08	9171.86
592.44	9265.65
592.799	9240.79
593.158	9191.98
593.517	9195.14
593.876	9261.35
594.235	9300.67
594.593	9245.53
594.952	9289.15
595.311	9197.63
595.67	9273.33
596.029	9311.52
596.387	9264.74
596.746	9247.79
597.104	9310.39
597.463	9295.93
597.822	9310.62
598.18	9295.25
598.538	9351.29
598.897	9356.49
599.255	9327.11
599.613	9446.21
599.972	9364.4
600.33	9431.52
600.688	9330.05
601.046	9410.05
601.404	9439.2
601.762	9461.12
602.12	9423.16
602.478	9473.32
602.836	9503.15
603.194	9426.55
603.552	9359.43
603.91	9385.19
604.268	9453.89
604.625	9424.96
604.983	9522.14
605.341	9398.52
605.698	9412.53
606.056	9500.44
606.413	9473.32
606.771	9508.13
607.128	9520.33
607.485	9385.87
607.843	9433.1
608.2	9521.91
608.557	9476.26
608.914	9565.75
609.272	9589.71
609.629	9576.15
609.986	9695.01
610.343	9569.59
610.7	9642.59
611.057	9578.63
611.414	9622.25
611.771	9610.95
612.127	9604.85
612.484	9593.32
612.841	9676.03
613.198	9614.79
613.554	9625.64
613.911	9716.71
614.267	9604.39
614.624	9669.48
614.98	9620.89
615.337	9683.94
615.693	9698.63
616.05	9694.34
616.406	9736.14
616.762	9754.9
617.118	9720.78
617.475	9666.09
617.831	9777.27
618.187	9769.81
618.543	9768.68
618.899	9819.08
619.255	9756.71
619.611	9772.75
619.967	9859.98
620.323	9873.54
620.678	9759.64
621.034	9685.52
621.39	9805.07
621.746	9791.28
622.101	9881.22
622.457	9813.88
622.812	9781.79
623.168	9850.49
623.523	9791.96
623.879	9858.85
624.234	9857.95
624.589	9759.87
624.945	9759.42
625.3	9850.94
625.655	9838.51
626.01	9896.82
626.365	9855.46
626.72	9793.77
627.075	9731.17
627.43	9796.25
627.785	9774.79
628.14	9844.84
628.495	9851.39
628.85	9755.58
629.205	9775.24
629.559	9759.64
629.914	9746.09
630.269	9786.54
630.623	9780.43
630.978	9692.75
631.332	9710.15
631.687	9775.24
632.041	9695.69
632.396	9737.05
632.75	9750.61
633.104	9682.13
633.459	9682.36
633.813	9656.14
634.167	9662.92
634.521	9640.33
634.875	9558.29
635.229	9620.89
635.583	9564.4
635.937	9593.1
636.291	9568.92
636.645	9565.98
636.999	9511.52
637.352	9586.54
637.706	9494.79
638.06	9533.21
638.413	9497.05
638.767	9441.46
639.121	9462.25
639.474	9470.61
639.828	9385.19
640.181	9464.74
640.534	9496.37
640.888	9436.04
641.241	9423.83
641.594	9342.93
641.947	9426.32
642.301	9373.67
642.654	9412.76
643.007	9454.57
643.36	9410.28
643.713	9381.35
644.066	9410.28
644.419	9305.19
644.771	9265.87
645.124	9182.94
645.477	9171.86
645.83	9133.22
646.182	9114.69
646.535	9108.81
646.888	9045.99
647.24	9011.42
647.593	9107.68
647.945	9035.82
648.298	8941.59
648.65	8979.33
649.002	8953.56
649.355	8974.81
649.707	8969.83
650.059	9015.26
650.411	9181.35
650.763	9136.61
651.115	9290.5
651.467	9207.12
651.819	9197.85
652.171	9219.77
652.523	9176.83
652.875	9248.92
653.227	9130.51
653.578	9138.42
653.93	9170.73
654.282	9187.68
654.633	9172.54
654.985	9142.03
655.337	9171.41
655.688	9136.16
656.039	9229.71
656.391	9193.78
656.742	9114.24
657.094	9145.65
657.445	9113.33
657.796	9232.88
658.147	9176.16
658.498	9159.43
658.849	9163.95
659.2	9281.46
659.551	9147.46
659.902	9187.68
660.253	9178.42
660.604	9174.35
660.955	9166.44
661.306	9191.98
661.656	9116.5
662.007	9211.64
662.358	9225.2
662.708	9224.29
663.059	9196.95
663.409	9180.9
663.76	9212.31
664.11	9267.23
664.461	9227.91
664.811	9228.59
665.161	9157.63
665.511	9185.87
665.862	9255.93
666.212	9257.06
666.562	9246.89
666.912	9181.58
667.262	9227
667.612	9207.12
667.962	9216.38
668.312	9235.14
668.662	9195.59
669.011	9231.3
669.361	9109.27
669.711	9237.17
670.06	9152.43
670.41	9194.91
670.76	9158.76
671.109	9164.86
671.459	9193.56
671.808	9154.24
672.157	9170.28
672.507	9093
672.856	9113.11
673.205	9163.5
673.554	9180.9
673.904	9110.62
674.253	9224.97
674.602	9081.47
674.951	8961.7
675.3	8929.38
675.649	9093.45
675.998	9070.4
676.346	9074.69
676.695	9088.93
677.044	9027.23
677.393	9079.89
677.741	9108.14
678.09	9020.91
678.438	8988.37
678.787	8996.05
679.135	9038.76
679.484	8903.17
679.832	9020.68
680.181	8974.81
680.529	8991.76
680.877	8953.79
681.225	8932.32
681.573	8964.86
681.922	8839.44
682.27	8815.04
682.618	8881.7
682.966	8777.52
683.314	8847.8
683.661	8822.04
684.009	8733
684.357	8693.91
684.705	8728.49
685.053	8761.93
685.4	8746.11
685.748	8636.06
686.095	8734.81
686.443	8622.05
686.79	8639
687.138	8643.52
687.485	8706.34
687.832	8582.95
688.18	8622.95
688.527	8569.17
688.874	8531.65
689.221	8426.12
689.568	8446.23
689.915	8443.75
690.262	8418.21
690.609	8445.78
690.956	8400.36
691.303	8390.64
691.65	8321.72
691.997	8314.48
692.344	8281.27
692.69	8340.02
693.037	8296.41
693.383	8234.94
693.73	8266.8
694.077	8145.9
694.423	8126.47
694.769	8126.69
695.116	8073.14
695.462	8102.74
695.808	8055.06
696.155	8050.08
696.501	8013.02
696.847	7979.13
697.193	7941.84
697.539	7923.53
697.885	7935.29
698.231	7780.04
698.577	7864.55
698.923	7856.42
699.269	7790.66
699.614	7821.16
699.96	7777.32
700.306	7711.11
700.651	7675.63
700.997	7612.58
701.342	7631.34
701.688	7610.55
702.033	7596.54
702.379	7496.65
702.724	7533.26
703.069	7563.77
703.415	7470.67
703.76	7456.43
704.105	7411.46
704.45	7466.82
704.795	7320.16
705.14	7352.48
705.485	7316.32
705.83	7273.83
706.175	7311.12
706.52	7269.99
706.865	7241.07
707.209	7256.21
707.554	7222.76
707.899	7222.31
708.243	7169.88
708.588	7178.7
708.932	7136.21
709.277	7155.87
709.621	7156.1
709.966	7061.41
710.31	7060.05
710.654	6986.61
710.998	6997.01
711.342	7062.31
711.687	7016.21
712.031	6984.35
712.375	6950
712.719	7013.28
713.063	6978.25
713.407	6957.23
713.75	6939.61
714.094	6951.36
714.438	6902.54
714.782	6901.19
715.125	6848.76
715.469	6871.81
715.812	6809.67
716.156	6782.77
716.499	6746.62
716.843	6813.73
717.186	6762.21
717.53	6827.97
717.873	6813.28
718.216	6806.95
718.559	6716.79
718.902	6712.04
719.246	6740.29
719.589	6727.86
719.932	6655.32
720.275	6638.6
720.617	6728.54
720.96	6709.33
721.303	6709.78
721.646	6680.63
721.989	6634.75
722.331	6624.36
722.674	6623.91
723.016	6655.09
723.359	6597.02
723.701	6632.5
724.044	6597.24
724.386	6578.71
724.729	6572.16
725.071	6644.25
725.413	6599.5
725.755	6614.42
726.097	6565.6
726.439	6531.25
726.782	6565.38
727.124	6594.76
727.465	6512.95
727.807	6534.42
728.149	6538.71
728.491	6463.23
728.833	6510.24
729.175	6462.56
729.516	6505.04
729.858	6453.97
730.199	6503.91
730.541	6533.51
730.882	6518.83
731.224	6520.41
731.565	6493.29
731.906	6529.67
732.248	6485.83
732.589	6449
732.93	6425.95
733.271	6465.49
733.612	6481.99
733.953	6513.63
734.294	6437.47
734.635	6434.31
734.976	6465.95
735.317	6429.34
735.658	6477.47
735.999	6426.85
736.339	6473.18
736.68	6473.18
737.021	6443.8
737.361	6425.27
737.702	6496.23
738.042	6471.6
738.383	6480.86
738.723	6456.45
739.063	6478.37
739.404	6482.44
739.744	6489
740.084	6511.82
740.424	6474.08
740.764	6464.36
741.104	6547.53
741.444	6536.23
741.784	6432.27
742.124	6535.55
742.464	6551.37
742.804	6552.5
743.143	6531.03
743.483	6564.02
743.823	6539.39
744.162	6613.29
744.502	6669.78
744.841	6673.17
745.181	6660.52
745.52	6649.9
745.86	6697.58
746.199	6718.37
746.538	6710.69
746.877	6786.39
747.216	6831.81
747.556	6863.45
747.895	6859.61
748.234	6919.72
748.573	6872.94
748.911	6979.83
749.25	6981.41
749.589	7025.03
749.928	7100.51
750.267	7100.73
750.605	7175.76
750.944	7266.6
751.283	7280.61
751.621	7365.13
751.96	7389.54
752.298	7467.28
752.636	7499.59
752.975	7566.71
753.313	7637.21
753.651	7658.91
753.989	7742.75
754.327	7898.22
754.666	7909.3
755.004	8016.41
755.342	8159.69
755.679	8192
756.017	8241.94
756.355	8378.44
756.693	8473.58
757.031	8518.32
757.368	8681.71
757.706	8709.28
758.044	8826.56
758.381	8958.99
758.719	9083.5
759.056	9165.76
759.394	9234.91
759.731	9282.82
760.068	9426.77
760.405	9602.36
760.743	9662.92
761.08	9823.6
761.417	9934.33
761.754	10008
762.091	10099.97
762.428	10219.97
762.765	10411.15
763.102	10527.31
763.438	10617.02
763.775	10694.31
764.112	10856.56
764.449	10922.33
764.785	11023.34
765.122	11100.85
765.458	11082.55
765.795	11281.19
766.131	11398.02
766.467	11369.77
766.804	11584.46
767.14	11620.39
767.476	11717.79
767.812	11755.07
768.148	11961.62
768.485	11916.88
768.821	12024.22
769.157	12151.67
769.492	12117.77
769.828	12334.94
770.164	12341.27
770.5	12414.26
770.836	12439.57
771.171	12437.31
771.507	12548.05
771.842	12614.48
772.178	12658.1
772.513	12701.26
772.849	12779.45
773.184	12853.57
773.519	12886.57
773.855	12906.45
774.19	12970.86
774.525	12987.13
774.86	13069.39
775.195	13125.66
775.53	13048.15
775.865	13047.92
776.2	13105.77
776.535	13127.01
776.87	13117.07
777.205	13114.81
777.539	13182.15
777.874	13208.59
778.209	13192.1
778.543	13164.07
778.878	13233.45
779.212	13219.44
779.547	13209.72
779.881	13302.15
780.215	13192.32
780.55	13247.24
780.884	13212.21
781.218	13345.09
781.552	13329.95
781.886	13246.78
782.22	13157.75
782.554	13235.49
782.888	13129.95
783.222	13188.93
783.556	13162.49
783.889	13113.91
784.223	13141.7
784.557	13042.72
784.89	13086.56
785.224	13088.14
785.557	13099.67
785.891	13058.09
786.224	13175.15
786.558	13118.43
786.891	12988.49
787.224	12936.06
787.557	12940.58
787.891	12923.4
788.224	12948.71
788.557	13003.85
788.89	12966.79
789.223	12889.28
789.556	12818.32
789.888	12879.56
790.221	12783.97
790.554	12744.88
790.887	12753.69
791.219	12679.12
791.552	12762.73
791.884	12649.06
792.217	12633.47
792.549	12582.4
792.882	12559.57
793.214	12567.71
793.546	12582.85
793.879	12475.28
794.211	12440.25
794.543	12463.3
794.875	12538.1
795.207	12563.19
795.539	12466.01
795.871	12505.34
796.203	12357.09
796.535	12290.43
796.867	12277.32
797.198	12245
797.53	12219.69
797.862	12211.33
798.193	12194.61
798.525	12127.04
798.856	12201.39
799.188	12005.69
799.519	12005.01
799.85	11961.17
800.182	11961.62
800.513	11901.74
800.844	11860.38
801.175	11957.78
801.506	11930.43
801.837	11839.82
802.168	11896.54
802.499	11823.32
802.83	11775.86
803.161	11790.1
803.491	11706.26
803.822	11773.83
804.153	11729.99
804.483	11609.54
804.814	11642.31
805.145	11581.97
805.475	11548.3
805.805	11429.21
806.136	11554.4
806.466	11464.46
806.796	11511.46
807.126	11448.41
807.457	11400.51
807.787	11362.54
808.117	11379.94
808.447	11346.72
808.777	11317.8
809.107	11285.71
809.436	11170
809.766	11186.5
810.096	11234.18
810.426	11135.65
810.755	11205.03
811.085	11142.43
811.414	11178.36
811.744	11023.79
812.073	11072.15
812.403	11068.76
812.732	10962.55
813.061	11007.3
813.39	10948.77
813.719	10898.82
814.049	10971.36
814.378	10891.14
814.707	10892.5
815.036	10861.76
815.365	10797.58
815.693	10814.98
816.022	10765.72
816.351	10728.88
816.68	10661.32
817.008	10665.61
817.337	10659.96
817.665	10599.85
817.994	10662.67
818.322	10665.84
818.651	10582
818.979	10540.64
819.307	10608.66
819.636	10646.17
819.964	10463.58
820.292	10549.45
820.62	10509.68
820.948	10524.37
821.276	10567.98
821.604	10471.26
821.932	10549.68
822.259	10493.86
822.587	10498.16
822.915	10459.06
823.243	10523.69
823.57	10445.28
823.898	10493.18
824.225	10515.56
824.553	10481.21
824.88	10507.2
825.207	10531.83
825.535	10455.67
825.862	10485.73
826.189	10453.41
826.516	10511.04
826.843	10557.36
827.17	10544.93
827.497	10550.13
827.824	10489.12
828.151	10478.04
828.478	10488.21
828.805	10564.6
829.131	10486.41
829.458	10506.29
829.785	10450.02
830.111	10457.25
830.438	10558.27
830.764	10481.89
831.09	10495.22
831.417	10455.67
831.743	10547.19
832.069	10518.49
832.395	10477.82
832.722	10484.82
833.048	10478.04
833.374	10461.32
833.7	10350.14
834.026	10389.91
834.351	10396.24
834.677	10441.43
835.003	10429.46
835.329	10388.78
835.654	10344.04
835.98	10325.05
836.306	10339.74
836.631	10368.44
836.956	10353.75
837.282	10332.06
837.607	10356.69
837.932	10271.04
838.258	10318.27
838.583	10258.16
838.908	10240.76
839.233	10249.8
839.558	10144.72
839.883	10118.05
840.208	10124.61
840.533	10195.57
840.858	10106.3
841.182	10136.58
841.507	10103.14
841.832	10120.76
842.156	10022.46
842.481	10064.5
842.805	9964.61
843.13	9991.05
843.454	9982.69
843.778	9987.44
844.103	9966.87
844.427	9917.83
844.751	9913.31
845.075	9895.69
845.399	9855.69
845.723	9816.14
846.047	9813.88
846.371	9693.88
846.695	9761
847.019	9706.54
847.343	9629.93
847.666	9551.51
847.99	9578.86
848.313	9497.73
848.637	9518.97
848.96	9430.16
849.284	9493.66
849.607	9375.25
849.931	9371.63
850.254	9313.78
850.577	9281.46
850.9	9217.51
851.223	9188.59
851.546	9168.7
851.869	9097.06
852.192	9094.13
852.515	9069.27
852.838	8979.55
853.161	8978.2
853.483	8945.65
853.806	8933.9
854.129	8926.9
854.451	8862.27
854.774	8868.59
855.096	8780.91
855.419	8775.94
855.741	8729.62
856.063	8757.18
856.385	8733.68
856.708	8676.28
857.03	8670.18
857.352	8648.26
857.674	8632.22
857.996	8569.62
858.318	8575.49
858.64	8545.89
858.961	8462.73
859.283	8525.78
859.605	8448.49
859.926	8445.33
860.248	8479
860.57	8356.97
860.891	8378.44
861.212	8328.04
861.534	8409.85
861.855	8312.22
862.176	8330.08
862.498	8375.27
862.819	8300.02
863.14	8277.42
863.461	8260.25
863.782	8283.07
864.103	8232.68
864.424	8194.49
864.745	8248.5
865.065	8189.29
865.386	8196.75
865.707	8172.34
866.027	8194.26
866.348	8138.44
866.668	8131.44
866.989	8120.14
867.309	8092.57
867.63	8072.23
867.95	8066.13
868.27	7997.88
868.59	8057.54
868.91	7981.39
869.23	8011.67
869.55	8006.24
869.87	8012.8
870.19	8003.98
870.51	7952.46
870.83	7980.48
871.15	7881.28
871.469	7981.84
871.789	7908.62
872.109	7956.75
872.428	7815.74
872.748	7803.76
873.067	7864.1
873.386	7908.39
873.706	7888.73
874.025	7785.01
874.344	7773.03
874.663	7804.44
874.982	7801.96
875.301	7731.9
875.62	7732.35
875.939	7747.27
876.258	7761.73
876.577	7722.41
876.896	7710.66
877.214	7719.47
877.533	7653.49
877.852	7696.2
878.17	7678.57
878.489	7640.83
878.807	7685.57
879.125	7580.72
879.444	7620.27
879.762	7602.87
880.08	7606.93
880.398	7565.35
880.716	7577.55
881.034	7539.14
881.352	7525.35
881.67	7470.67
881.988	7533.04
882.306	7495.75
882.624	7451.23
882.941	7469.08
883.259	7410.33
883.577	7366.49
883.894	7350.67
884.212	7344.11
884.529	7364.91
884.846	7345.24
885.164	7299.82
885.481	7343.44
885.798	7286.26
886.115	7216.21
886.432	7256.89
886.75	7230.9
887.067	7211.46
887.383	7159.26
887.7	7242.65
888.017	7130.11
888.334	7166.94
888.651	7147.96
888.967	7129.43
889.284	7039.94
889.6	7097.57
889.917	7022.77
890.233	7049.66
890.55	7013.73
890.866	7038.36
891.182	7005.59
891.498	6942.32
891.815	6945.71
892.131	6929.89
892.447	6866.84
892.763	6835.65
893.079	6854.41
893.395	6855.09
893.71	6868.65
894.026	6827.97
894.342	6784.81
894.657	6778.03
894.973	6731.02
895.289	6724.7
895.604	6764.7
895.92	6672.95
896.235	6619.39
896.55	6685.15
896.865	6662.32
897.181	6607.86
897.496	6657.13
897.811	6573.51
898.126	6546.4
898.441	6491.93
898.756	6485.15
899.071	6471.37
899.386	6425.95
899.7	6432.95
900.015	6387.53
900.33	6349.11
900.644	6307.53
900.959	6347.53
901.273	6334.88
901.588	6301.88
901.902	6254.43
902.216	6248.78
902.531	6277.93
902.845	6191.6
903.159	6190.47
903.473	6232.51
903.787	6089.46
904.101	6137.82
904.415	6096.46
904.729	6016.24
905.042	5994.77
905.356	6046.52
905.67	6031.15
905.984	5989.35
906.297	5940.99
906.611	5976.47
906.924	5958.39
907.237	5939.63
907.551	5903.25
907.864	5844.04
908.177	5822.8
908.491	5846.75
908.804	5758.85
909.117	5751.84
909.43	5721.78
909.743	5692.86
910.056	5722.24
910.368	5686.31
910.681	5657.15
910.994	5573.77
911.307	5632.75
911.619	5550.49
911.932	5575.12
912.244	5497.38
912.557	5495.8
912.869	5455.58
913.181	5453.09
913.494	5459.64
913.806	5482.02
914.118	5406.31
914.43	5338.52
914.742	5353.43
915.054	5341
915.366	5331.74
915.678	5289.48
915.99	5306.88
916.302	5251.06
916.613	5198.41
916.925	5233.44
917.236	5206.32
917.548	5193.44
917.859	5161.12
918.171	5174.68
918.482	5084.06
918.794	5069.6
919.105	5026.44
919.416	5095.81
919.727	5061.69
920.038	5004.97
920.349	5009.49
920.66	4985.76
920.971	4923.84
921.282	4904.18
921.593	4918.42
921.903	4899.89
922.214	4924.52
922.525	4846.1
922.835	4843.39
923.146	4835.71
923.456	4754.8
923.767	4745.77
924.077	4751.87
924.387	4684.98
924.697	4764.07
925.008	4680.91
925.318	4668.7
925.628	4657.18
925.938	4662.38
926.248	4605.43
926.558	4614.24
926.867	4575.83
927.177	4580.57
927.487	4540.35
927.796	4547.35
928.106	4557.97
928.416	4488.37
928.725	4504.19
929.034	4496.05
929.344	4505.09
929.653	4458.54
929.962	4404.98
930.271	4381.71
930.581	4348.26
930.89	4375.15
931.199	4329.96
931.508	4356.62
931.817	4287.7
932.125	4290.86
932.434	4329.05
932.743	4238.89
933.051	4223.97
933.36	4232.11
933.669	4191.66
933.977	4168.83
934.286	4167.7
934.594	4152.11
934.902	4117.76
935.21	4141.26
935.519	4098.55
935.827	4091.09
936.135	4101.49
936.443	4046.35
936.751	4052
937.059	4040.92
937.367	4035.5
937.674	3996.63
937.982	3978.78
938.29	4008.16
938.597	3971.55
938.905	3860.36
939.213	3872.34
939.52	3879.57
939.827	3898.56
940.135	3837.31
940.442	3863.08
940.749	3864.66
941.056	3833.7
941.363	3828.28
941.67	3832.12
941.977	3783.98
942.284	3730.2
942.591	3705.11
942.898	3687.94
943.205	3675.96
943.511	3664.21
943.818	3685.23
944.125	3650.43
944.431	3632.12
944.738	3649.75
945.044	3631.22
945.35	3595.51
945.657	3578.11
945.963	3549.41
946.269	3513.71
946.575	3551.67
946.881	3524.55
947.187	3521.84
947.493	3470.54
947.799	3477.32
948.105	3455.18
948.41	3418.12
948.716	3444.78
949.022	3410.43
949.327	3411.34
949.633	3388.51
949.938	3382.86
950.244	3359.59
950.549	3372.02
950.854	3340.15
951.16	3296.99
951.465	3299.02
951.77	3291.34
952.075	3294.73
952.38	3271.45
952.685	3295.18
952.99	3205.24
953.294	3211.34
953.599	3211.57
953.904	3225.13
954.209	3200.49
954.513	3145.36
954.818	3190.1
955.122	3148.29
955.426	3129.76
955.731	3118.92
956.035	3107.16
956.339	3105.58
956.643	3076.88
956.948	3092.48
957.252	3062.65
957.556	3059.93
957.86	3015.19
958.163	3018.8
958.467	3005.47
958.771	3012.25
959.075	2980.16
959.378	2978.58
959.682	2968.41
959.985	2951.24
960.289	2959.37
960.592	2905.59
960.896	2861.29
961.199	2863.78
961.502	2904.46
961.805	2873.72
962.108	2885.93
962.411	2840.28
962.714	2858.58
963.017	2828.98
963.32	2838.24
963.623	2782.43
963.926	2784.46
964.228	2780.17
964.531	2764.57
964.833	2786.72
965.136	2768.87
965.438	2731.81
965.741	2733.61
966.043	2697.91
966.345	2690
966.648	2675.54
966.95	2646.84
967.252	2664.69
967.554	2674.18
967.856	2674.86
968.158	2645.48
968.46	2626.95
968.761	2605.03
969.063	2601.87
969.365	2580.4
969.666	2565.71
969.968	2524.81
970.269	2545.14
970.571	2543.79
970.872	2513.96
971.174	2504.02
971.475	2515.54
971.776	2517.35
972.077	2508.54
972.378	2458.82
972.679	2486.62
972.98	2457.46
973.281	2490.91
973.582	2467.18
973.883	2426.96
974.183	2423.34
974.484	2420.18
974.785	2417.24
975.085	2400.06
975.386	2420.85
975.686	2405.04
975.986	2378.14
976.287	2384.02
976.587	2339.5
976.887	2347.41
977.187	2318.71
977.487	2315.77
977.787	2302.67
978.087	2287.98
978.387	2289.33
978.687	2306.28
978.987	2272.61
979.286	2271.93
979.586	2261.99
979.885	2261.54
980.185	2271.48
980.484	2227.87
980.784	2210.24
981.083	2202.33
981.382	2158.26
981.682	2213.85
981.981	2189
982.28	2181.54
982.579	2156.91
982.878	2144.25
983.177	2125.49
983.475	2137.25
983.774	2092.28
984.073	2114.87
984.372	2126.85
984.67	2094.31
984.969	2092.28
985.267	2083.91
985.566	2112.84
985.864	2055.21
986.162	2050.47
986.461	2055.21
986.759	2016.12
987.057	2032.16
987.355	2028.1
987.653	2031.49
987.951	2020.64
988.249	1988.1
988.547	1998.72
988.844	1965.73
989.142	1970.47
989.44	1934.31
989.737	1959.62
990.035	1917.36
990.332	1924.37
990.63	1929.12
990.927	1942.45
991.224	1933.64
991.521	1878.72
991.819	1923.92
992.116	1868.33
992.413	1866.52
992.71	1843.02
993.006	1867.2
993.303	1840.08
993.6	1855.9
993.897	1848.44
994.193	1819.06
994.49	1812.96
994.787	1846.86
995.083	1776.35
995.379	1820.19
995.676	1802.34
995.972	1798.5
996.268	1766.41
996.565	1758.72
996.861	1774.77
997.157	1760.08
997.453	1714.43
997.749	1703.13
998.044	1706.3
998.34	1722.34
998.636	1695
998.932	1682.12
999.227	1666.3
999.523	1674.21
999.818	1676.02
1000.114	1678.73
1000.409	1658.39
1000.704	1640.76
1001	1626.07
1001.295	1615.9
1001.59	1611.84
1001.885	1600.31
1002.18	1615.9
1002.475	1597.6
1002.77	1588.11
1003.065	1575.68
1003.359	1562.12
1003.654	1547.43
1003.949	1560.09
1004.243	1521.44
1004.538	1541.56
1004.832	1552.18
1005.127	1520.31
1005.421	1510.6
1005.715	1515.34
1006.009	1524.38
1006.304	1476.7
1006.598	1498.39
1006.892	1499.52
1007.186	1455.68
1007.48	1455.46
1007.773	1462.01
1008.067	1472.4
1008.361	1437.6
1008.655	1434.44
1008.948	1403.48
1009.242	1412.29
1009.535	1385.18
1009.829	1394.89
1010.122	1381.11
1010.415	1362.35
1010.708	1363.03
1011.001	1383.82
1011.295	1360.54
1011.588	1364.61
1011.881	1350.6
1012.173	1322.58
1012.466	1328.68
1012.759	1328.68
1013.052	1329.81
1013.344	1312.86
1013.637	1317.15
1013.93	1310.15
1014.222	1306.53
1014.514	1259.53
1014.807	1285.97
1015.099	1277.61
1015.391	1271.51
1015.683	1285.29
1015.976	1249.13
1016.268	1236.93
1016.56	1235.57
1016.851	1225.86
1017.143	1213.65
1017.435	1223.82
1017.727	1203.49
1018.018	1209.59
1018.31	1184.28
1018.602	1160.1
1018.893	1176.14
1019.185	1190.6
1019.476	1156.93
1019.767	1173.66
1020.058	1145.86
1020.35	1139.53
1020.641	1131.17
1020.932	1114.22
1021.223	1136.37
1021.514	1120.32
1021.804	1111.96
1022.095	1098.86
1022.386	1099.99
1022.677	1065.41
1022.967	1072.87
1023.258	1085.75
1023.548	1061.79
1023.839	1090.95
1024.129	1072.64
1024.419	1052.53
1024.709	1040.1
1025	1033.55
1025.29	1053.43
1025.58	1032.19
1025.87	1000.1
1026.16	1023.83
1026.449	1019.99
1026.739	998.52
1027.029	1000.1
1027.319	973.43
1027.608	990.16
1027.898	978.41
1028.187	981.57
1028.477	967.56
1028.766	946.77
1029.055	956.71
1029.344	956.94
1029.634	943.83
1029.923	939.99
1030.212	937.73
1030.501	938.63
1030.79	930.72
1031.078	915.81
1031.367	876.49
1031.656	910.16
1031.945	895.47
1032.233	904.28
1032.522	885.98
1032.81	873.55
1033.099	876.04
1033.387	867.45
1033.675	869.93
1033.963	877.39
1034.251	860.9
1034.54	868.13
1034.828	840.11
1035.116	825.64
1035.403	838.3
1035.691	849.37
1035.979	808.24
1036.267	811.18
1036.554	839.88
1036.842	815.02
1037.129	800.56
1037.417	807.79
1037.704	802.82
1037.992	780.22
1038.279	803.95
1038.566	796.94
1038.853	796.94
1039.14	796.94
