Data from hue_60_FLMS001491_31.txt Node
Date: Mon Feb 06 15:17:16 GMT 2017
User: dcchb
Spectrometer: FLMS00149
Trigger mode: 0
Integration Time (sec): 2.000000E-2
Scans to average: 10
Electric dark correction enabled: true
Nonlinearity correction enabled: false
Boxcar width: 0
XAxis mode: Wavelengths
Number of Pixels in Spectrum: 2048
>>>>>Begin Spectral Data<<<<<
341.393	-24.97
341.776	-24.97
342.16	-24.97
342.543	-65.42
342.927	-73.56
343.31	-78.75
343.693	-79.88
344.077	-64.74
344.46	-57.06
344.843	-45.99
345.226	-28.13
345.61	-37.85
345.993	-18.87
346.376	-15.25
346.759	4.41
347.142	35.14
347.525	34.46
347.908	69.04
348.291	73.56
348.674	93.9
349.057	116.04
349.44	128.25
349.823	125.53
350.206	174.12
350.588	200.11
350.971	201.46
351.354	204.63
351.737	246.21
352.119	257.73
352.502	281.46
352.884	257.28
353.267	282.14
353.65	284.4
354.032	293.21
354.414	290.73
354.797	295.47
355.179	315.36
355.562	319.88
355.944	326.88
356.326	348.58
356.709	331.4
357.091	344.74
357.473	339.09
357.855	328.69
358.238	342.7
358.62	359.2
359.002	338.18
359.384	345.87
359.766	329.37
360.148	343.15
360.53	319.88
360.912	327.34
361.294	326.66
361.676	321.01
362.057	349.26
362.439	332.99
362.821	329.14
363.203	335.7
363.584	316.04
363.966	332.53
364.348	338.86
364.729	315.81
365.111	319.43
365.493	312.65
365.874	309.71
366.256	320.56
366.637	302.25
367.019	323.04
367.4	320.1
367.781	327.79
368.163	335.92
368.544	292.53
368.925	334.34
369.306	309.94
369.688	286.89
370.069	304.51
370.45	300.9
370.831	299.77
371.212	301.57
371.593	297.51
371.974	298.18
372.355	312.2
372.736	318.3
373.117	332.53
373.498	331.4
373.879	314.23
374.26	301.35
374.641	312.2
375.021	296.6
375.402	317.62
375.783	305.19
376.163	332.08
376.544	328.01
376.925	305.19
377.305	308.58
377.686	328.47
378.066	325.75
378.447	329.14
378.827	311.97
379.208	333.89
379.588	329.37
379.968	314.46
380.349	336.6
380.729	328.01
381.109	329.6
381.489	345.41
381.87	342.93
382.25	338.64
382.63	339.54
383.01	327.56
383.39	327.79
383.77	361.23
384.15	341.57
384.53	332.53
384.91	351.29
385.29	341.35
385.67	340.44
386.049	350.84
386.429	333.44
386.809	366.43
387.189	349.26
387.568	347.67
387.948	352.87
388.328	346.54
388.707	352.65
389.087	347.67
389.466	358.3
389.846	342.93
390.225	341.8
390.605	366.21
390.984	344.96
391.363	338.64
391.743	344.06
392.122	342.25
392.501	346.32
392.881	345.19
393.26	376.6
393.639	355.58
394.018	356.04
394.397	360.33
394.776	356.04
395.155	382.7
395.534	363.27
395.913	359.2
396.292	365.75
396.671	369.82
397.05	354.91
397.429	387.22
397.808	370.27
398.186	385.87
398.565	365.3
398.944	373.21
399.323	377.73
399.701	373.44
400.08	363.04
400.458	381.57
400.837	378.41
401.215	394.45
401.594	363.95
401.972	384.96
402.351	386.54
402.729	383.83
403.107	383.38
403.486	362.59
403.864	389.03
404.242	403.27
404.62	358.3
404.999	404.85
405.377	396.71
405.755	395.36
406.133	386.54
406.511	384.96
406.889	382.7
407.267	430.61
407.645	404.17
408.023	407.79
408.401	385.87
408.779	418.86
409.156	407.79
409.534	417.5
409.912	441.23
410.29	428.35
410.667	429.71
411.045	427.22
411.422	428.8
411.8	452.53
412.178	439.2
412.555	446.65
412.933	431.97
413.31	438.07
413.687	431.06
414.065	443.94
414.442	452.76
414.819	459.76
415.197	436.71
415.574	467.67
415.951	477.61
416.328	461.8
416.705	466.99
417.082	466.77
417.46	481.46
417.837	460.67
418.214	474
418.591	499.31
418.967	501.79
419.344	485.98
419.721	488.69
420.098	469.93
420.475	506.09
420.852	495.24
421.228	497.5
421.605	504.28
421.982	494.34
422.358	493.89
422.735	517.84
423.111	528.23
423.488	493.21
423.864	521.68
424.241	518.74
424.617	545.41
424.994	507.44
425.37	514
425.746	530.49
426.123	530.27
426.499	521.68
426.875	558.52
427.251	518.52
427.627	557.61
428.003	533.66
428.379	568.91
428.756	547.67
429.132	549.03
429.507	575.92
429.883	562.36
430.259	550.61
430.635	570.95
431.011	568.69
431.387	575.92
431.763	579.31
432.138	598.29
432.514	593.54
432.89	597.84
433.265	632.19
433.641	599.65
434.016	617.05
434.392	619.98
434.767	629.25
435.143	636.03
435.518	624.28
435.894	635.35
436.269	615.24
436.644	656.14
437.02	655.91
437.395	643.71
437.77	642.58
438.145	658.85
438.52	681
438.895	689.36
439.271	663.15
439.646	683.94
440.021	680.1
440.395	675.12
440.77	681.23
441.145	691.62
441.52	711.96
441.895	699.53
442.27	692.3
442.645	706.54
443.019	703.15
443.394	715.57
443.769	720.32
444.143	695.46
444.518	702.92
444.892	740.21
445.267	746.08
445.641	745.4
446.016	754.9
446.39	737.04
446.764	742.47
447.139	755.12
447.513	737.95
447.887	755.12
448.262	755.57
448.636	760.09
449.01	767.55
449.384	794.89
449.758	791.73
450.132	789.02
450.506	803.93
450.88	785.18
451.254	778.85
451.628	814.78
452.002	819.3
452.376	811.39
452.75	818.17
453.123	828.57
453.497	840.32
453.871	854.33
454.244	882.12
454.618	843.48
454.992	878.06
455.365	864.5
455.739	893.2
456.112	863.82
456.486	899.52
456.859	944.27
457.232	923.7
457.606	948.79
457.979	932.07
458.352	944.95
458.725	959.64
459.099	963.03
459.472	974.78
459.845	978.62
460.218	997.83
460.591	1007.09
460.964	994.66
461.337	1045.74
461.71	1036.02
462.083	1053.64
462.456	1076.92
462.829	1048.22
463.201	1087.77
463.574	1113.3
463.947	1133.19
464.32	1123.47
464.692	1132.06
465.065	1132.74
465.438	1140.2
465.81	1164.38
466.183	1221.32
466.555	1233.07
466.928	1228.56
467.3	1207.09
467.672	1263.81
468.045	1267.42
468.417	1299.06
468.789	1318.27
469.161	1335.9
469.534	1343.81
469.906	1389
470.278	1413.64
470.65	1457.25
471.022	1462.22
471.394	1499.51
471.766	1500.86
472.138	1533.63
472.51	1605.49
472.882	1606.62
473.253	1623.12
473.625	1702.22
473.997	1745.38
474.369	1762.33
474.74	1790.12
475.112	1851.82
475.484	1866.5
475.855	1903.34
476.227	1954.41
476.598	2007.52
476.97	2039.61
477.341	2138.14
477.713	2177.23
478.084	2217.23
478.455	2286.15
478.827	2351.24
479.198	2438.01
479.569	2461.52
479.94	2580.16
480.311	2633.26
480.682	2746.03
481.053	2813.15
481.424	2848.4
481.795	2937.89
482.166	3007.49
482.537	3129.07
482.908	3216.07
483.279	3312.34
483.65	3409.06
484.021	3522.51
484.391	3596.85
484.762	3705.33
485.133	3809.05
485.503	3880.01
485.874	4001.59
486.244	4141.02
486.615	4223.96
486.985	4344.41
487.356	4496.49
487.726	4597.96
488.097	4786.65
488.467	4864.17
488.837	5042.47
489.207	5169.02
489.578	5321.55
489.948	5453.75
490.318	5515.45
490.688	5637.48
491.058	5829.34
491.428	6011.03
491.798	6132.16
492.168	6321.3
492.538	6458.47
492.908	6525.82
493.278	6689.2
493.648	6836.32
494.017	7013.94
494.387	7134.61
494.757	7242.41
495.126	7465.45
495.496	7527.37
495.866	7781.83
496.235	7845.56
496.605	8031.77
496.974	8138.88
497.344	8338.42
497.713	8451.42
498.082	8634.91
498.452	8726.89
498.821	8873.55
499.19	9021.8
499.559	9227.22
499.928	9360.54
500.298	9447.32
500.667	9587.66
501.036	9735.9
501.405	9956.46
501.774	9955.56
502.143	10113.29
502.512	10258.15
502.88	10373.85
503.249	10489.33
503.618	10620.4
503.987	10805.03
504.356	10893.39
504.724	11080.05
505.093	11156.88
505.462	11309.87
505.83	11419.25
506.199	11653.82
506.567	11821.95
506.936	11847.94
507.304	12017.88
507.672	12176.52
508.041	12277.98
508.409	12400.46
508.777	12617.86
509.145	12739.44
509.514	12758.87
509.882	12955.25
510.25	13049.71
510.618	13133.55
510.986	13306.66
511.354	13504.39
511.722	13612.64
512.09	13722.69
512.458	13772.86
512.826	13947.32
513.193	14086.3
513.561	14112.96
513.929	14318.61
514.297	14465.04
514.664	14625.72
515.032	14809.89
515.4	14876.33
515.767	14993.84
516.135	15120.39
516.502	15089.21
516.869	15428.18
517.237	15595.64
517.604	15501.17
517.972	15707.04
518.339	15792.47
518.706	15939.58
519.073	16025.68
519.44	16175.05
519.808	16429.96
520.175	16408.5
520.542	16692.56
520.909	16740.69
521.276	16806.22
521.643	16967.12
522.009	17129.83
522.376	17298.64
522.743	17408.69
523.11	17533.66
523.477	17680.1
523.843	17845.75
524.21	18123.93
524.577	18188.11
524.943	18260.42
525.31	18406.63
525.676	18618.15
526.043	18755.33
526.409	18817.47
526.776	19069.89
527.142	19028.77
527.508	19241.87
527.874	19458.58
528.241	19531.35
528.607	19698.58
528.973	19925.24
529.339	19805.69
529.705	20037.33
530.071	20165.01
530.437	20281.39
530.803	20395.06
531.169	20595.96
531.535	20475.96
531.901	20657.2
532.267	20802.28
532.632	20909.85
532.998	20989.62
533.364	21157.75
533.73	21145.09
534.095	21449.94
534.461	21361.36
534.826	21628.24
535.192	21648.36
535.557	21865.75
535.923	21830.5
536.288	22013.55
536.653	22068.01
537.019	21983.04
537.384	22162.69
537.749	22279.08
538.114	22289.02
538.479	22301.22
538.845	22412.86
539.21	22508.67
539.575	22543.02
539.94	22526.98
540.305	22830.47
540.67	22758.84
541.034	22839.06
541.399	22928.1
541.764	23062.33
542.129	23139.62
542.494	23161.31
542.858	23348.2
543.223	23392.04
543.587	23510
543.952	23389.55
544.316	23598.14
544.681	23560.85
545.045	23749.32
545.41	23883.33
545.774	23955.64
546.138	23945.7
546.503	23940.5
546.867	24008.97
547.231	24175.3
547.595	24216.43
547.959	24345.01
548.324	24309.98
548.688	24345.46
549.052	24596.3
549.416	24612.8
549.779	24630.2
550.143	24636.3
550.507	24875.84
550.871	24911.77
551.235	24949.29
551.599	25163.97
551.962	25206
552.326	25262.27
552.689	25400.8
553.053	25414.13
553.417	25478.77
553.78	25737.06
554.143	25621.36
554.507	25808.02
554.87	25862.03
555.234	26202.81
555.597	25942.26
555.96	26084.62
556.323	26295.92
556.686	26413.2
557.05	26576.14
557.413	26635.34
557.776	26721.67
558.139	26858.84
558.502	26937.71
558.865	26930.48
559.228	27108.78
559.59	27239.4
559.953	27362.56
560.316	27635.77
560.679	27718.71
561.041	27716.22
561.404	27907.63
561.767	28123.22
562.129	27969.77
562.492	28312.81
562.854	28362.08
563.217	28381.06
563.579	28439.59
563.941	28709.64
564.304	28727.95
564.666	28949.86
565.028	29069.41
565.39	29062.85
565.753	29332.9
566.115	29361.37
566.477	29533.8
566.839	29517.08
567.201	29734.02
567.563	29784.87
567.925	29904.41
568.287	30010.17
568.648	30016.27
569.01	30186.21
569.372	30455.58
569.734	30293.55
570.095	30607.67
570.457	30617.84
570.819	30712.3
571.18	30736.93
571.542	30959.98
571.903	31064.15
572.265	31187.77
572.626	31212.85
572.987	31280.19
573.349	31389.12
573.71	31516.35
574.071	31566.29
574.432	31695.1
574.794	31950.69
575.155	31889.67
575.516	31805.15
575.877	31925.6
576.238	32039.95
576.599	32203.11
576.96	32208.31
577.32	32254.41
577.681	32405.36
578.042	32417.57
578.403	32502.76
578.763	32521.97
579.124	32652.81
579.485	32711.12
579.845	32912.02
580.206	32736.2
580.566	32806.71
580.927	32831.79
581.287	32896.2
581.648	32785.01
582.008	33060.03
582.368	32854.84
582.728	33063.2
583.089	32916.08
583.449	33026.82
583.809	32988.4
584.169	33099.13
584.529	33036.76
584.889	33276.3
585.249	32957.66
585.609	33086.47
585.969	33286.02
586.329	33197.66
586.688	33269.75
587.048	33345.45
587.408	33191.56
587.768	33206.02
588.127	33235.17
588.487	33344.55
588.846	33559.68
589.206	33182.52
589.565	33210.54
589.925	33510.64
590.284	33351.78
590.643	33418.67
591.003	33531.66
591.362	33488.27
591.721	33452.11
592.08	33606.01
592.44	33715.38
592.799	33650.3
593.158	33522.4
593.517	33630.42
593.876	33624.77
594.235	33610.53
594.593	33600.36
594.952	33709.74
595.311	33605.78
595.67	33713.58
596.029	33951.31
596.387	33894.14
596.746	34016.17
597.104	33742.73
597.463	33898.2
597.822	34015.72
598.18	33874.7
598.538	33932.55
598.897	34111.08
599.255	33790.86
599.613	34384.29
599.972	34165.32
600.33	34229.04
600.688	34167.12
601.046	34314.24
601.404	34426.78
601.762	34481.24
602.12	34455.7
602.478	34580.22
602.836	34536.61
603.194	34236.73
603.552	34333
603.91	34335.26
604.268	34570.05
604.625	34538.19
604.983	34577.96
605.341	34449.83
605.698	34716.94
606.056	34740.89
606.413	34829.93
606.771	34917.16
607.128	34991.51
607.485	34814.79
607.843	34902.7
608.2	35140.21
608.557	35249.13
608.914	35051.62
609.272	35311.5
609.629	35403.02
609.986	35587.43
610.343	35328.68
610.7	35642.79
611.057	35673.53
611.414	35567.54
611.771	35854.76
612.127	35963.24
612.484	35773.18
612.841	35836.46
613.198	35906.06
613.554	35873.75
613.911	36086.62
614.267	36015.44
614.624	36088.2
614.98	36171.59
615.337	36412.04
615.693	36299.27
616.05	36222.89
616.406	36493.16
616.762	36340.17
617.118	36455.65
617.475	36395.77
617.831	36501.07
618.187	36590.79
618.543	36657.91
618.899	36996.88
619.255	36722.09
619.611	36790.56
619.967	36923.44
620.323	36965.47
620.678	36900.61
621.034	36724.8
621.39	36820.16
621.746	36779.03
622.101	37222.19
622.457	37014.51
622.812	37077.56
623.168	37249.08
623.523	37108.29
623.879	37330.88
624.234	37141.96
624.589	37186.71
624.945	37214.05
625.3	37374.27
625.655	37431.45
626.01	37376.31
626.365	37407.94
626.72	37441.84
627.075	37506.7
627.43	37353.93
627.785	37290.66
628.14	37429.41
628.495	37483.2
628.85	37454.72
629.205	37423.08
629.559	37568.39
629.914	37256.76
630.269	37485.68
630.623	37375.63
630.978	37143.77
631.332	37390.54
631.687	37485.46
632.041	37287.72
632.396	37309.64
632.75	37293.37
633.104	37268.29
633.459	37132.92
633.813	37064.9
634.167	37146.93
634.521	37188.29
634.875	37220.6
635.229	37332.69
635.583	36940.84
635.937	37013.83
636.291	37031.46
636.645	37083.88
636.999	36982.64
637.352	37037.11
637.706	36851.57
638.06	37021.74
638.413	36913.27
638.767	36856.09
639.121	37062.87
639.474	36730.45
639.828	36765.02
640.181	36793.27
640.534	36884.57
640.888	36687.96
641.241	36548.76
641.594	36700.84
641.947	36827.85
642.301	36596.89
642.654	36680.05
643.007	36607.06
643.36	36622.2
643.713	36636.66
644.066	36746.49
644.419	36462.21
644.771	36244.58
645.124	35899.06
645.477	35844.14
645.83	35698.38
646.182	35473.98
646.535	35418.39
646.888	35692.73
647.24	35201.67
647.593	35450.25
647.945	35454.77
648.298	35235.8
648.65	35140.21
649.002	35140.43
649.355	35175.46
649.707	35196.25
650.059	35361.67
650.411	35887.98
650.763	35741.32
651.115	36088.66
651.467	36025.83
651.819	35914.87
652.171	35957.59
652.523	35909.45
652.875	35838.27
653.227	35726.41
653.578	36001.2
653.93	35857.48
654.282	35784.93
654.633	35693.41
654.985	35618.39
655.337	35583.58
655.688	35671.27
656.039	35796.91
656.391	35613.64
656.742	35578.61
657.094	35490.93
657.445	35807.08
657.796	35761.66
658.147	35516.69
658.498	35545.39
658.849	35653.64
659.2	35646.18
659.551	35592.85
659.902	35745.61
660.253	35527.09
660.604	35686.63
660.955	35398.73
661.306	35538.16
661.656	35532.51
662.007	35581.78
662.358	35541.33
662.708	35416.58
663.059	35351.27
663.409	35090.26
663.76	35511.5
664.11	35308.79
664.461	35601.44
664.811	35365.96
665.161	35355.12
665.511	35302.69
665.862	35277.83
666.212	35443.25
666.562	35459.07
666.912	35316.47
667.262	35302.69
667.612	35297.94
667.962	35441.67
668.312	35182.69
668.662	35504.94
669.011	35301.11
669.361	35149.02
669.711	35288.68
670.06	35244.38
670.41	35156.93
670.76	35162.13
671.109	35208.68
671.459	35280.99
671.808	35116.48
672.157	35126.87
672.507	35077.16
672.856	35060.21
673.205	35044.16
673.554	35110.6
673.904	34898.18
674.253	35235.34
674.602	35048.01
674.951	34584.51
675.3	34333.45
675.649	34988.12
675.998	34802.59
676.346	34990.83
676.695	35081.22
677.044	34797.16
677.393	34880.78
677.741	34835.58
678.09	34815.69
678.438	34734.57
678.787	34789.71
679.135	34819.76
679.484	34603.5
679.832	34755.81
680.181	34501.8
680.529	34610.05
680.877	34528.92
681.225	34415.03
681.573	34601.01
681.922	34330.06
682.27	34327.12
682.618	34274.01
682.966	34194.69
683.314	34227.24
683.661	34157.63
684.009	34076.73
684.357	34028.6
684.705	33974.81
685.053	33970.07
685.4	33886.45
685.748	33716.74
686.095	33617.99
686.443	33642.84
686.79	33540.93
687.138	33543.19
687.485	33680.13
687.832	33471.55
688.18	33575.95
688.527	33233.59
688.874	33250.76
689.221	33175.29
689.568	33175.74
689.915	33052.58
690.262	33123.99
690.609	32916.99
690.956	32805.13
691.303	32747.95
691.65	32727.39
691.997	32669.76
692.344	32425.7
692.69	32477.45
693.037	32499.82
693.383	32139.83
693.73	32403.78
694.077	32158.36
694.423	32251.02
694.769	32137.8
695.116	31905.49
695.462	31924.92
695.808	31850.35
696.155	31947.75
696.501	31672.27
696.847	31547.53
697.193	31445.16
697.539	31522.67
697.885	31312.51
698.231	31288.1
698.577	31165.62
698.923	31159.52
699.269	30946.87
699.614	30971.28
699.96	30870.26
700.306	30707.1
700.651	30874.78
700.997	30579.87
701.342	30723.37
701.688	30581.68
702.033	30508.24
702.379	30489.03
702.724	30343.95
703.069	30542.36
703.415	30089.72
703.76	30112.54
704.105	30081.13
704.45	30062.6
704.795	29827.58
705.14	29766.11
705.485	29776.96
705.83	29642.5
706.175	29747.58
706.52	29629.84
706.865	29452.9
707.209	29482.28
707.554	29316.4
707.899	29317.99
708.243	29259.68
708.588	29107.82
708.932	28969.75
709.277	28935.17
709.621	28988.96
709.966	28758.9
710.31	28708.51
710.654	28621.96
710.998	28628.74
711.342	28589.64
711.687	28607.04
712.031	28401.63
712.375	28423.09
712.719	28506.03
713.063	28365.47
713.407	28411.8
713.75	28264.68
714.094	28245.92
714.438	28036.21
714.782	27974.07
715.125	28047.06
715.469	27953.05
715.812	27897.01
716.156	27710.34
716.499	27687.75
716.843	27746.73
717.186	27568.65
717.53	27708.54
717.873	27732.04
718.216	27688.42
718.559	27533.4
718.902	27365.27
719.246	27533.4
719.589	27376.34
719.932	27120.08
720.275	27180.64
720.617	27105.84
720.96	27055.67
721.303	27117.59
721.646	27153.98
721.989	26933.64
722.331	27081.43
722.674	26938.16
723.016	26982.45
723.359	26876.02
723.701	26915.11
724.044	26729.81
724.386	26734.55
724.729	26663.59
725.071	26644.84
725.413	26650.49
725.755	26580.66
726.097	26412.3
726.439	26396.03
726.782	26289.14
727.124	26483.71
727.465	26302.02
727.807	26213.44
728.149	26252.3
728.491	26165.98
728.833	26209.82
729.175	26147.45
729.516	26039.65
729.858	26021.58
730.199	26104.51
730.541	25923.95
730.882	25920.56
731.224	26027.45
731.565	25804.18
731.906	25817.74
732.248	25761.02
732.589	25701.58
732.93	25483.28
733.271	25570.29
733.612	25615.94
733.953	25726.89
734.294	25540.23
734.635	25529.39
734.976	25452.1
735.317	25384.98
735.658	25306.57
735.999	25358.54
736.339	25265.89
736.68	25418.65
737.021	25197.42
737.361	25138.21
737.702	25311.99
738.042	25171.88
738.383	25110.64
738.723	25140.47
739.063	25093.24
739.404	25122.39
739.744	24962.85
740.084	24937.76
740.424	24860.02
740.764	24892.57
741.104	25018.44
741.444	24824.77
741.784	24715.17
742.124	24826.35
742.464	24769.63
742.804	24734.6
743.143	24690.54
743.483	24746.13
743.823	24505.01
744.162	24505.23
744.502	24637.43
744.841	24321.51
745.181	24529.64
745.52	24389.3
745.86	24347.95
746.199	24294.39
746.538	24210.55
746.877	24414.84
747.216	24263.43
747.556	24114.73
747.895	24114.96
748.234	24145.24
748.573	24084.23
748.911	24011.69
749.25	23988.41
749.589	23874.74
749.928	23877.9
750.267	23962.42
750.605	23749.32
750.944	23782.09
751.283	23707.96
751.621	23689.89
751.96	23685.59
752.298	23679.04
752.636	23645.59
752.975	23462.55
753.313	23404.02
753.651	23479.95
753.989	23363.34
754.327	23292.61
754.666	23080.41
755.004	23251.03
755.342	23288.77
755.679	23194.31
756.017	23009
756.355	23133.29
756.693	22883.13
757.031	22923.58
757.368	22824.37
757.706	22793.41
758.044	22693.08
758.381	22671.16
758.719	22510.71
759.056	22660.99
759.394	22662.79
759.731	22399.52
760.068	22365.17
760.405	22275.91
760.743	22220.77
761.08	22244.27
761.417	22113.2
761.754	22010.16
762.091	22051.51
762.428	21927.45
762.765	21818.97
763.102	21891.06
763.438	21764.29
763.775	21566.1
764.112	21730.84
764.449	21609.49
764.785	21474.12
765.122	21413.11
765.458	21393
765.795	21348.25
766.131	21204.3
766.467	21200.01
766.804	21127.92
767.14	20968.6
767.476	20992.33
767.812	21008.37
768.148	20988.26
768.485	20788.49
768.821	20759.34
769.157	20698.78
769.492	20572.91
769.828	20656.74
770.164	20480.93
770.5	20338.56
770.836	20392.35
771.171	20198.23
771.507	20255.17
771.842	20107.83
772.178	20134.05
772.513	20138.79
772.849	20005.91
773.184	19825.81
773.519	19902.87
773.855	19765.47
774.19	19645.02
774.525	19624.68
774.86	19701.06
775.195	19425.36
775.53	19385.59
775.865	19256.1
776.2	19347.85
776.535	19193.05
776.87	19037.8
777.205	18963.23
777.539	18988.99
777.874	19011.36
778.209	18747.64
778.543	18671.49
778.878	18585.16
779.212	18625.39
779.547	18504.94
779.881	18600.98
780.215	18277.37
780.55	18386.07
780.884	18263.14
781.218	18201.67
781.552	18235.11
781.886	18122.8
782.22	18102.91
782.554	17958.51
782.888	17798.06
783.222	17744.51
783.556	17765.3
783.889	17704.96
784.223	17561.23
784.557	17562.59
784.89	17603.94
785.224	17430.84
785.557	17299.09
785.891	17323.73
786.224	17190.17
786.558	17222.03
786.891	17077.86
787.224	16982.27
787.557	16946.56
787.891	16953.34
788.224	16938.65
788.557	16801.25
788.89	16733.68
789.223	16761.93
789.556	16620.01
789.888	16537.98
790.221	16559.45
790.554	16395.16
790.887	16383.64
791.219	16407.37
791.552	16323.98
791.884	16229.06
792.217	16142.74
792.549	16102.51
792.882	16017.77
793.214	15926.47
793.546	15960.15
793.879	15828.17
794.211	15837.89
794.543	15816.65
794.875	15822.75
795.207	15823.2
795.539	15745.91
795.871	15637.89
796.203	15538.69
796.535	15388.63
796.867	15460.05
797.198	15389.54
797.53	15312.7
797.862	15250.11
798.193	15282.65
798.525	15124.46
798.856	15129.43
799.188	15032.94
799.519	15000.62
799.85	14892.83
800.182	14916.56
800.513	14866.84
800.844	14805.15
801.175	14905.71
801.506	14826.84
801.837	14655.32
802.168	14679.95
802.499	14601.54
802.83	14561.31
803.161	14559.28
803.491	14566.74
803.822	14553.18
804.153	14402.22
804.483	14265.05
804.814	14300.75
805.145	14253.98
805.475	14259.4
805.805	14305.95
806.136	14171.49
806.466	14187.08
806.796	14100.53
807.126	14038.39
807.457	13901.89
807.787	13961.33
808.117	13990.25
808.447	13893.08
808.777	13927.2
809.107	13852.18
809.436	13811.05
809.766	13845.85
810.096	13726.76
810.426	13711.39
810.755	13703.71
811.085	13648.12
811.414	13576.48
811.744	13573.32
812.073	13481.57
812.403	13446.09
812.732	13450.83
813.061	13393.89
813.39	13345.07
813.719	13291.51
814.049	13281.35
814.378	13288.13
814.707	13166.32
815.036	13202.48
815.365	13157.06
815.693	13057.62
816.022	13021.92
816.351	12976.72
816.68	12896.72
817.008	12953.44
817.337	12814.92
817.665	12824.41
817.994	12880
818.322	12799.78
818.651	12733.56
818.979	12707.8
819.307	12771.98
819.636	12729.5
819.964	12679.1
820.292	12662.38
820.62	12605.21
820.948	12624.64
821.276	12601.82
821.604	12605.88
821.932	12611.76
822.259	12636.39
822.587	12453.12
822.915	12576.73
823.243	12539.22
823.57	12508.71
823.898	12609.05
824.225	12465.55
824.553	12487.02
824.88	12498.77
825.207	12512.1
825.535	12530.63
825.862	12557.07
826.189	12486.56
826.516	12550.52
826.843	12559.78
827.17	12602.04
827.497	12554.13
827.824	12546.22
828.151	12606.56
828.478	12508.26
828.805	12618.76
829.131	12561.82
829.458	12420.8
829.785	12417.87
830.111	12574.02
830.438	12523.63
830.764	12476.17
831.09	12450.18
831.417	12385.32
831.743	12471.2
832.069	12407.02
832.395	12417.87
832.722	12398.66
833.048	12438.66
833.374	12397.3
833.7	12360.92
834.026	12328.38
834.351	12293.35
834.677	12421.48
835.003	12362.73
835.329	12403.85
835.654	12291.54
835.98	12268.04
836.306	12260.58
836.631	12176.29
836.956	12256.74
837.282	12210.87
837.607	12118.89
837.932	12165.67
838.258	12199.57
838.583	12102.85
838.908	12075.28
839.233	12028.95
839.558	12066.69
839.883	11906.47
840.208	11912.57
840.533	12004.09
840.858	11958.44
841.182	11982.62
841.507	11962.28
841.832	11867.37
842.156	11916.64
842.481	11901.49
842.805	11838.67
843.13	11801.61
843.454	11787.83
843.778	11798.67
844.103	11753.02
844.427	11658.56
844.751	11686.13
845.075	11617.66
845.399	11646.36
845.723	11538.11
846.047	11540.15
846.371	11469.87
846.695	11470.55
847.019	11398.46
847.343	11343.77
847.666	11295.86
847.99	11186.26
848.313	11263.55
848.637	11189.2
848.96	11115.07
849.284	11110.78
849.607	10998.92
849.931	11007.51
850.254	10852.93
850.577	10869.21
850.9	10736.78
851.223	10743.11
851.546	10719.38
851.869	10672.37
852.192	10721.86
852.515	10626.27
852.838	10565.48
853.161	10547.41
853.483	10549.21
853.806	10412.72
854.129	10385.15
854.451	10433.28
854.774	10348.54
855.096	10362.55
855.419	10320.97
855.741	10264.25
856.063	10232.39
856.385	10177.92
856.708	10134.54
857.03	10059.96
857.352	10158.26
857.674	10094.31
857.996	10064.93
858.318	9963.24
858.64	10000.08
858.961	10000.08
859.283	9930.25
859.605	9912.17
859.926	9860.42
860.248	9905.84
860.57	9778.16
860.891	9853.87
861.212	9833.98
861.534	9778.16
861.855	9748.11
862.176	9775.68
862.498	9729.8
862.819	9746.07
863.14	9692.97
863.461	9648.9
863.782	9613.87
864.103	9585.17
864.424	9606.41
864.745	9585.85
865.065	9535.23
865.386	9475.34
865.707	9504.72
866.027	9583.36
866.348	9496.81
866.668	9523.7
866.989	9517.6
867.309	9370.26
867.63	9357.38
867.95	9459.98
868.27	9381.56
868.59	9415.91
868.91	9410.04
869.23	9298.85
869.55	9269.93
869.87	9308.12
870.19	9288.91
870.51	9300.21
870.83	9298.63
871.15	9260.66
871.469	9248.68
871.789	9205.75
872.109	9202.81
872.428	9129.36
872.748	9249.36
873.067	9168.46
873.386	9189.7
873.706	9128.01
874.025	9117.39
874.344	9135.69
874.663	9039.42
874.982	9036.03
875.301	9092.3
875.62	9064.51
875.939	9073.55
876.258	9010.95
876.577	9009.59
876.896	8942.48
877.214	8923.72
877.533	8941.8
877.852	8900.67
878.17	8907.68
878.489	8889.37
878.807	8908.13
879.125	8895.7
879.444	8888.47
879.762	8809.6
880.08	8857.28
880.398	8797.4
880.716	8841.24
881.034	8793.55
881.352	8803.27
881.67	8693.22
881.988	8714.01
882.306	8705.87
882.624	8700.22
882.941	8661.58
883.259	8604.63
883.577	8561.02
883.894	8490.29
884.212	8546.78
884.529	8590.17
884.846	8533.45
885.164	8518.53
885.481	8482.6
885.798	8479.66
886.115	8484.64
886.432	8403.51
886.75	8355.6
887.067	8410.74
887.383	8365.32
887.7	8303.62
888.017	8336.62
888.334	8357.86
888.651	8304.75
888.967	8308.6
889.284	8230.18
889.6	8217.52
889.917	8154.93
890.233	8171.65
890.55	8130.52
890.866	8186.11
891.182	8134.59
891.498	8112.67
891.815	8140.24
892.131	8000.58
892.447	8019.79
892.763	8009.39
893.079	7947.93
893.395	7931.66
893.71	7923.29
894.026	7872.22
894.342	7880.81
894.657	7816.4
894.973	7905.89
895.289	7811.66
895.604	7814.37
895.92	7698.89
896.235	7699.57
896.55	7754.94
896.865	7661.38
897.181	7634.49
897.496	7647.14
897.811	7566.47
898.126	7586.35
898.441	7549.07
898.756	7568.95
899.071	7443.31
899.386	7550.87
899.7	7436.53
900.015	7435.17
900.33	7400.6
900.644	7388.17
900.959	7308.62
901.273	7300.49
901.588	7288.28
901.902	7219.13
902.216	7175.07
902.531	7174.84
902.845	7128.97
903.159	7079.7
903.473	7120.6
903.787	7109.53
904.101	7067.05
904.415	7038.35
904.729	7055.29
905.042	6981.4
905.356	6974.84
905.67	6897.33
905.984	6938.46
906.297	6872.25
906.611	6871.34
906.924	6890.33
907.237	6840.39
907.551	6763.78
907.864	6730.33
908.177	6745.92
908.491	6771.46
908.804	6740.27
909.117	6620.73
909.43	6598.36
909.743	6601.75
910.056	6579.83
910.368	6520.17
910.681	6489.43
910.994	6498.02
911.307	6436.55
911.619	6416.22
911.932	6461.19
912.244	6399.27
912.557	6423.67
912.869	6329.44
913.181	6322.66
913.494	6335.99
913.806	6324.69
914.118	6245.6
914.43	6232.72
914.742	6221.42
915.054	6174.87
915.366	6142.78
915.678	6145.94
915.99	6097.58
916.302	6071.82
916.613	6052.61
916.925	6034.98
917.236	5998.15
917.548	5958.6
917.859	5940.75
918.171	5921.31
918.482	5878.83
918.794	5846.96
919.105	5882.67
919.416	5823.91
919.727	5837.93
920.038	5826.63
920.349	5732.84
920.66	5712.28
920.971	5680.19
921.282	5744.37
921.593	5657.59
921.903	5610.13
922.214	5638.38
922.525	5626.63
922.835	5584.6
923.146	5530.36
923.456	5528.78
923.767	5479.06
924.077	5526.3
924.387	5442.68
924.697	5438.84
925.008	5403.81
925.318	5389.12
925.628	5377.37
925.938	5387.32
926.248	5297.37
926.558	5245.62
926.867	5291.73
927.177	5279.75
927.487	5227.55
927.796	5175.12
928.106	5173.99
928.416	5136.7
928.725	5157.49
929.034	5118.85
929.344	5130.6
929.653	5127.89
929.962	5059.41
930.271	5011.73
930.581	5028.91
930.89	4977.61
931.199	4952.53
931.508	4953.2
931.817	4936.48
932.125	4910.04
932.434	4943.26
932.743	4844.51
933.051	4801.79
933.36	4845.86
933.669	4790.27
933.977	4723.15
934.286	4784.17
934.594	4726.32
934.902	4708.24
935.21	4688.35
935.519	4701.01
935.827	4695.13
936.135	4644.28
936.443	4624.4
936.751	4606.77
937.059	4583.5
937.367	4564.06
937.674	4604.74
937.982	4527.9
938.29	4518.19
938.597	4511.18
938.905	4428.92
939.213	4443.39
939.52	4422.82
939.827	4425.08
940.135	4383.95
940.442	4368.81
940.749	4365.65
941.056	4380.34
941.363	4309.38
941.67	4314.58
941.977	4263.96
942.284	4236.84
942.591	4220.12
942.898	4202.26
943.205	4254.24
943.511	4170.17
943.818	4167.46
944.125	4144.41
944.431	4118.65
944.738	4082.27
945.044	4077.52
945.35	4047.92
945.657	4030.74
945.963	4057.18
946.269	4019.22
946.575	4049.95
946.881	3972.66
947.187	3972.66
947.493	4004.3
947.799	3961.59
948.105	3922.04
948.41	3893.8
948.716	3908.03
949.022	3841.59
949.327	3896.06
949.633	3825.32
949.938	3841.59
950.244	3828.03
950.549	3803.85
950.854	3721.6
951.16	3788.04
951.465	3735.38
951.77	3719.79
952.075	3677.08
952.38	3713.01
952.685	3699
952.99	3654.48
953.294	3635.5
953.599	3650.64
953.904	3633.01
954.209	3613.13
954.513	3622.84
954.818	3595.05
955.122	3587.59
955.426	3570.87
955.731	3487.03
956.035	3545.33
956.339	3493.81
956.643	3529.06
956.948	3457.88
957.252	3446.12
957.556	3426.69
957.86	3393.7
958.163	3415.39
958.467	3400.25
958.771	3362.51
959.075	3384.66
959.378	3350.53
959.682	3341.49
959.985	3347.14
960.289	3321.61
960.592	3269.86
960.896	3274.38
961.199	3279.8
961.502	3233.02
961.805	3274.38
962.108	3234.38
962.411	3234.83
962.714	3190.31
963.017	3193.02
963.32	3219.92
963.623	3169.07
963.926	3150.54
964.228	3116.19
964.531	3113.25
964.833	3123.65
965.136	3104.44
965.438	3055.4
965.741	3044.1
966.043	3045.91
966.345	3062.86
966.648	3014.27
966.95	3029.19
967.252	3009.98
967.554	2967.72
967.856	2951.67
968.158	2922.75
968.46	2974.5
968.761	2937.21
969.063	2938.34
969.365	2928.85
969.666	2914.61
969.968	2839.36
970.269	2861.51
970.571	2883.65
970.872	2807.04
971.174	2836.42
971.475	2823.32
971.776	2796.42
972.077	2774.28
972.378	2776.54
972.679	2783.09
972.98	2754.62
973.281	2755.75
973.582	2763.43
973.883	2742.19
974.183	2728.18
974.484	2722.98
974.785	2685.69
975.085	2672.13
975.386	2687.5
975.686	2675.52
975.986	2653.6
976.287	2666.26
976.587	2608.41
976.887	2622.42
977.187	2604.56
977.487	2613.15
977.787	2549.42
978.087	2536.77
978.387	2541.74
978.687	2516.88
978.987	2550.78
979.286	2505.13
979.586	2496.09
979.885	2498.58
980.185	2514.17
980.484	2484.79
980.784	2480.5
981.083	2481.63
981.382	2465.58
981.682	2455.64
981.981	2432.82
982.28	2411.58
982.579	2410.45
982.878	2400.5
983.177	2377.23
983.475	2367.96
983.774	2355.98
984.073	2360.95
984.372	2319.83
984.67	2325.48
984.969	2355.31
985.267	2298.36
985.566	2304.69
985.864	2319.6
986.162	2297.45
986.461	2287.28
986.759	2268.98
987.057	2263.1
987.355	2266.72
987.653	2221.98
987.951	2228.53
988.249	2189.89
988.547	2195.31
988.844	2188.76
989.142	2210.22
989.44	2159.38
989.737	2170.45
990.035	2178.13
990.332	2173.39
990.63	2143.33
990.927	2144.46
991.224	2125.93
991.521	2111.47
991.819	2134.97
992.116	2099.94
992.413	2089.1
992.71	2076.44
993.006	2060.85
993.303	2038.48
993.6	2023.56
993.897	2009.78
994.193	2017.24
994.49	2043.22
994.787	2007.74
995.083	1985.15
995.379	1948.99
995.676	1981.53
995.972	2001.64
996.268	1955.99
996.565	1923.68
996.861	1943.56
997.157	1962.55
997.453	1908.99
997.749	1925.03
998.044	1911.7
998.34	1890.23
998.636	1868.76
998.932	1887.3
999.227	1831.7
999.523	1873.28
999.818	1849.56
1000.114	1847.75
1000.409	1851.82
1000.704	1808.88
1001	1783.34
1001.295	1827.18
1001.59	1811.14
1001.885	1777.47
1002.18	1747.86
1002.475	1754.87
1002.77	1739.95
1003.065	1747.41
1003.359	1752.61
1003.654	1748.09
1003.949	1717.81
1004.243	1709.45
1004.538	1679.84
1004.832	1716.9
1005.127	1657.7
1005.421	1632.16
1005.715	1664.93
1006.009	1680.97
1006.304	1645.95
1006.598	1658.6
1006.892	1653.18
1007.186	1625.38
1007.48	1610.69
1007.773	1611.6
1008.067	1586.96
1008.361	1558.04
1008.655	1571.37
1008.948	1593.52
1009.242	1562.11
1009.535	1553.97
1009.829	1530.92
1010.122	1519.62
1010.415	1550.13
1010.708	1485.95
1011.001	1535.89
1011.295	1481.66
1011.588	1503.58
1011.881	1480.07
1012.173	1474.42
1012.466	1460.64
1012.759	1486.85
1013.052	1454.54
1013.344	1449.79
1013.637	1441.66
1013.93	1436.01
1014.222	1400.3
1014.514	1402.11
1014.807	1415.44
1015.099	1413.86
1015.391	1411.38
1015.683	1375.9
1015.976	1375.22
1016.268	1357.14
1016.56	1331.6
1016.851	1336.35
1017.143	1324.6
1017.435	1367.31
1017.727	1323.24
1018.018	1309.91
1018.31	1295.22
1018.602	1309.46
1018.893	1303.13
1019.185	1310.36
1019.476	1277.37
1019.767	1257.93
1020.058	1252.06
1020.35	1264.26
1020.641	1246.86
1020.932	1224.71
1021.223	1251.38
1021.514	1235.33
1021.804	1214.77
1022.095	1206.63
1022.386	1212.51
1022.677	1195.11
1022.967	1188.78
1023.258	1163.47
1023.548	1172.51
1023.839	1153.53
1024.129	1181.55
1024.419	1155.11
1024.709	1154.66
1025	1137.48
1025.29	1129.57
1025.58	1122.12
1025.87	1099.29
1026.16	1106.52
1026.449	1110.14
1026.739	1107.43
1027.029	1088.22
1027.319	1066.53
1027.608	1062.01
1027.898	1045.74
1028.187	1062.68
1028.477	1071.72
1028.766	1043.48
1029.055	1043.48
1029.344	1045.28
1029.634	1022.68
1029.923	1014.32
1030.212	998.5
1030.501	1014.78
1030.79	994.66
1031.078	988.79
1031.367	995.12
1031.656	1010.03
1031.945	970.03
1032.233	977.49
1032.522	964.61
1032.81	975.68
1033.099	969.13
1033.387	944.04
1033.675	940.88
1033.963	931.84
1034.251	937.49
1034.54	928.68
1034.828	928.22
1035.116	880.09
1035.403	922.35
1035.691	912.86
1035.979	908.56
1036.267	889.36
1036.554	869.92
1036.842	882.12
1037.129	869.02
1037.417	868.56
1037.704	846.87
1037.992	860.66
1038.279	854.1
1038.566	873.76
1038.853	873.76
1039.14	873.76
