Data from hue_220_FLMS001491_00068.txt Node
Date: Tue Feb 07 16:39:48 GMT 2017
User: dcchb
Spectrometer: FLMS00149
Trigger mode: 0
Integration Time (sec): 2.000000E-2
Scans to average: 10
Electric dark correction enabled: true
Nonlinearity correction enabled: false
Boxcar width: 0
XAxis mode: Wavelengths
Number of Pixels in Spectrum: 2048
>>>>>Begin Spectral Data<<<<<
341.393	-24.94
341.776	-24.94
342.16	-24.94
342.543	-52.29
342.927	-71.5
343.31	-67.88
343.693	-63.36
344.077	-58.39
344.46	-63.36
344.843	-71.5
345.226	-53.64
345.61	-29.24
345.993	-21.1
346.376	-12.74
346.759	9.18
347.142	29.52
347.525	49.63
347.908	73.81
348.291	77.2
348.674	84.21
349.057	117.65
349.44	126.69
349.823	147.03
350.206	166.92
350.588	185.9
350.971	206.24
351.354	236.52
351.737	228.61
352.119	255.5
352.502	254.37
352.884	272.9
353.267	298.66
353.65	295.73
354.032	301.6
354.414	312
354.797	334.14
355.179	321.71
355.562	320.81
355.944	333.47
356.326	314.03
356.709	336.86
357.091	327.36
357.473	348.38
357.855	341.83
358.238	338.44
358.62	349.28
359.002	335.27
359.384	334.37
359.766	351.09
360.148	338.21
360.53	347.93
360.912	333.24
361.294	335.27
361.676	322.39
362.057	318.78
362.439	338.66
362.821	335.05
363.203	333.47
363.584	339.57
363.966	325.1
364.348	306.12
364.729	314.48
365.111	309.74
365.493	335.05
365.874	295.05
366.256	307.7
366.637	308.38
367.019	280.13
367.4	305.22
367.781	307.7
368.163	324.43
368.544	300.7
368.925	312.68
369.306	304.77
369.688	301.6
370.069	291.66
370.45	305.44
370.831	289.85
371.212	291.88
371.593	298.44
371.974	323.97
372.355	330.75
372.736	309.74
373.117	311.55
373.498	313.13
373.879	313.58
374.26	314.03
374.641	318.32
375.021	308.16
375.402	315.84
375.783	302.05
376.163	336.4
376.544	332.11
376.925	349.74
377.305	310.42
377.686	329.62
378.066	306.35
378.447	316.97
378.827	318.32
379.208	311.77
379.588	312.9
379.968	340.92
380.349	329.17
380.729	348.38
381.109	319.45
381.489	309.74
381.87	329.85
382.25	316.52
382.63	340.02
383.01	326.91
383.39	339.34
383.77	358.32
384.15	332.56
384.53	336.4
384.91	338.89
385.29	336.4
385.67	352.67
386.049	342.73
386.429	341.6
386.809	345.44
387.189	345.67
387.568	337.99
387.948	348.83
388.328	330.75
388.707	336.86
389.087	365.78
389.466	354.93
389.846	349.74
390.225	349.74
390.605	360.81
390.984	366.91
391.363	368.95
391.743	368.95
392.122	371.66
392.501	361.71
392.881	369.85
393.26	367.36
393.639	382.96
394.018	396.29
394.397	361.71
394.776	358.55
395.155	366.91
395.534	382.05
395.913	373.24
396.292	394.71
396.671	392.22
397.05	377.98
397.429	387.93
397.808	385.22
398.186	389.28
398.565	394.26
398.944	386.35
399.323	414.82
399.701	387.93
400.08	392.67
400.458	399.23
400.837	384.54
401.215	416.63
401.594	419.11
401.972	426.57
402.351	393.8
402.729	403.75
403.107	431.99
403.486	408.04
403.864	412.11
404.242	408.27
404.62	438.1
404.999	429.96
405.377	422.28
405.755	429.73
406.133	447.59
406.511	446.46
406.889	432.9
407.267	467.47
407.645	476.06
408.023	469.06
408.401	469.51
408.779	445.33
409.156	449.39
409.534	486.68
409.912	499.79
410.29	512.44
410.667	512.22
411.045	511.54
411.422	527.81
411.8	521.71
412.178	527.13
412.555	545.66
412.933	546.57
413.31	565.1
413.687	552.22
414.065	594.93
414.442	583.85
414.819	594.02
415.197	596.96
415.574	596.96
415.951	603.06
416.328	640.8
416.705	613.01
417.082	631.31
417.46	630.63
417.837	646.68
418.214	631.09
418.591	676.73
418.967	693
419.344	643.06
419.721	698.65
420.098	706.79
420.475	699.33
420.852	702.95
421.228	708.15
421.605	733.46
421.982	759.9
422.358	755.6
422.735	768.48
423.111	759.9
423.488	800.57
423.864	804.41
424.241	793.57
424.617	832.44
424.994	849.84
425.37	860.23
425.746	850.74
426.123	861.59
426.499	881.02
426.875	894.36
427.251	936.61
427.627	934.35
428.003	937.52
428.379	945.2
428.756	962.38
429.132	963.28
429.507	992.43
429.883	1026.1
430.259	1010.51
430.635	1015.48
431.011	1010.28
431.387	1069.27
431.763	1064.52
432.138	1087.57
432.514	1088.47
432.89	1098.42
433.265	1143.16
433.641	1136.38
434.016	1154.46
434.392	1170.96
434.767	1219.32
435.143	1205.53
435.518	1253.67
435.894	1253.22
436.269	1288.24
436.644	1301.12
437.02	1326.43
437.395	1337.73
437.77	1348.81
438.145	1359.88
438.52	1427.9
438.895	1429.93
439.271	1400.56
439.646	1469.71
440.021	1488.46
440.395	1509.93
440.77	1505.64
441.145	1544.73
441.52	1539.76
441.895	1559.2
442.27	1590.38
442.645	1576.14
443.019	1631.28
443.394	1644.62
443.769	1655.46
444.143	1651.85
444.518	1664.96
444.892	1676.71
445.267	1696.59
445.641	1680.1
446.016	1719.87
446.39	1732.3
446.764	1742.47
447.139	1758.74
447.513	1791.96
447.887	1797.16
448.262	1782.24
448.636	1780.66
449.01	1840.09
449.384	1856.36
449.758	1848.91
450.132	1862.24
450.506	1883.26
450.88	1907.44
451.254	1887.1
451.628	1939.75
452.002	1942.24
452.376	1981.56
452.75	1957.38
453.123	1997.15
453.497	2014.33
453.871	2077.37
454.244	2071.95
454.618	2062.23
454.992	2116.02
455.365	2105.62
455.739	2170.71
456.112	2174.32
456.486	2196.02
456.859	2197.37
457.232	2253.42
457.606	2242.57
457.979	2277.37
458.352	2329.35
458.725	2332.74
459.099	2326.41
459.472	2381.77
459.845	2391.72
460.218	2414.32
460.591	2429.23
460.964	2469.91
461.337	2524.37
461.71	2539.28
462.083	2599.39
462.456	2565.05
462.829	2583.8
463.201	2610.24
463.574	2663.57
463.947	2663.8
464.32	2707.64
464.692	2725.27
465.065	2774.53
465.438	2772.27
465.81	2810.69
466.183	2850.91
466.555	2903.34
466.928	2885.04
467.3	2909.44
467.672	2979.27
468.045	3035.54
468.417	3014.75
468.789	3071.92
469.161	3140.17
469.534	3130
469.906	3167.06
470.278	3242.54
470.65	3242.77
471.022	3328.42
471.394	3338.58
471.766	3413.61
472.138	3398.24
472.51	3460.84
472.882	3531.8
473.253	3519.37
473.625	3586.71
473.997	3655.41
474.369	3703.77
474.74	3688.41
475.112	3770.44
475.484	3849.98
475.855	3856.54
476.227	3882.3
476.598	4016.98
476.97	3994.84
477.341	4173.59
477.713	4124.55
478.084	4192.12
478.455	4289.75
478.827	4281.16
479.198	4402.96
479.569	4376.07
479.94	4528.61
480.311	4543.3
480.682	4635.05
481.053	4717.76
481.424	4765.44
481.795	4819.45
482.166	4855.15
482.537	4920.92
482.908	4995.04
483.279	5030.52
483.65	5089.72
484.021	5216.05
484.391	5273.67
484.762	5276.84
485.133	5317.74
485.503	5388.47
485.874	5488.13
486.244	5509.15
486.615	5591.63
486.985	5648.81
487.356	5705.75
487.726	5766.09
488.097	5905.52
488.467	5846.32
488.837	6047.21
489.207	6035.24
489.578	6141.9
489.948	6155.69
490.318	6212.63
490.688	6267.32
491.058	6329.01
491.428	6329.24
491.798	6465.51
492.168	6490.14
492.538	6477.94
492.908	6599.06
493.278	6620.31
493.648	6650.14
494.017	6686.07
494.387	6796.8
494.757	6854.2
495.126	6922.9
495.496	6889.23
495.866	6921.32
496.235	7005.83
496.605	7047.41
496.974	7076.79
497.344	7134.64
497.713	7079.05
498.082	7160.4
498.452	7209.9
498.821	7276.33
499.19	7205.38
499.559	7292.83
499.928	7358.59
500.298	7335.99
500.667	7427.52
501.036	7455.31
501.405	7488.98
501.774	7447.86
502.143	7519.04
502.512	7572.82
502.88	7520.4
503.249	7531.47
503.618	7606.72
503.987	7666.83
504.356	7653.73
504.724	7641.3
505.093	7661.18
505.462	7650.34
505.83	7705.93
506.199	7695.98
506.567	7845.81
506.936	7783.44
507.304	7879.26
507.672	7892.36
508.041	7899.37
508.409	7934.17
508.777	7882.65
509.145	7983.43
509.514	7918.13
509.882	8006.48
510.25	8017.33
510.618	7971.46
510.986	8055.07
511.354	8018.91
511.722	8064.79
512.09	8117.67
512.458	8135.07
512.826	8100.72
513.193	8178.46
513.561	8217.33
513.929	8131.23
514.297	8212.13
514.664	8188.4
515.032	8277.89
515.4	8271.11
515.767	8219.81
516.135	8197.89
516.502	8119.7
516.869	8234.5
517.237	8260.49
517.604	8185.24
517.972	8284.44
518.339	8297.55
518.706	8245.12
519.073	8324.44
519.44	8310.88
519.808	8328.51
520.175	8253.03
520.542	8359.47
520.909	8391.33
521.276	8354.27
521.643	8280.83
522.009	8421.16
522.376	8397.21
522.743	8501.84
523.11	8413.93
523.477	8452.8
523.843	8451.9
524.21	8489.64
524.577	8507.71
524.943	8498
525.31	8512.91
525.676	8525.79
526.043	8472.69
526.409	8536.19
526.776	8574.83
527.142	8526.47
527.508	8532.8
527.874	8534.15
528.241	8510.88
528.607	8561.27
528.973	8533.48
529.339	8545.68
529.705	8612.12
530.071	8559.69
530.437	8562.85
530.803	8575.96
531.169	8536.64
531.535	8533.48
531.901	8471.78
532.267	8453.7
532.632	8521.05
532.998	8480.14
533.364	8441.5
533.73	8472.91
534.095	8463.42
534.461	8465.91
534.826	8441.5
535.192	8479.69
535.557	8425.23
535.923	8398.34
536.288	8458.22
536.653	8393.37
537.019	8340.26
537.384	8334.16
537.749	8329.41
538.114	8360.37
538.479	8284.9
538.845	8270.43
539.21	8200.38
539.575	8224.78
539.94	8242.64
540.305	8177.1
540.67	8154.5
541.034	8177.1
541.399	8139.36
541.764	8140.94
542.129	8120.38
542.494	8045.35
542.858	8054.17
543.223	8034.96
543.587	8026.37
543.952	8008.07
544.316	7956.54
544.681	7952.93
545.045	7926.26
545.41	7902.76
545.774	7912.7
546.138	7840.84
546.503	7823.89
546.867	7795.19
547.231	7827.51
547.595	7752.48
547.959	7754.06
548.324	7711.12
548.688	7663.67
549.052	7648.08
549.416	7632.48
549.779	7647.62
550.143	7659.15
550.507	7611.92
550.871	7597.46
551.235	7532.37
551.599	7577.12
551.962	7557.23
552.326	7516.78
552.689	7469.32
553.053	7455.54
553.417	7409.44
553.78	7448.76
554.143	7482.2
554.507	7383.45
554.87	7422.09
555.234	7435.43
555.597	7394.07
555.96	7355.65
556.323	7363.11
556.686	7312.94
557.05	7350
557.413	7283.79
557.776	7263.68
558.139	7338.25
558.502	7313.4
558.865	7282.44
559.228	7268.2
559.59	7259.84
559.953	7281.98
560.316	7284.02
560.679	7297.58
561.041	7295.54
561.404	7319.72
561.767	7321.98
562.129	7289.22
562.492	7336.9
562.854	7259.39
563.217	7201.76
563.579	7308.42
563.941	7271.14
564.304	7233.62
564.666	7300.29
565.028	7271.81
565.39	7337.35
565.753	7331.25
566.115	7350.68
566.477	7359.95
566.839	7351.81
567.201	7411.25
567.563	7309.33
567.925	7386.84
568.287	7376.44
568.648	7373.96
569.01	7441.08
569.372	7437.46
569.734	7451.92
570.095	7446.05
570.457	7414.86
570.819	7481.98
571.18	7387.07
571.542	7445.6
571.903	7441.08
572.265	7437.23
572.626	7503.9
572.987	7493.28
573.349	7542.54
573.71	7496.89
574.071	7533.05
574.432	7574.41
574.794	7566.5
575.155	7590.68
575.516	7561.3
575.877	7622.09
576.238	7610.56
576.599	7626.83
576.96	7656.21
577.32	7613.27
577.681	7632.03
578.042	7678.36
578.403	7704.12
578.763	7670.9
579.124	7714.29
579.485	7776.89
579.845	7718.36
580.206	7730.33
580.566	7746.6
580.927	7798.35
581.287	7778.69
581.648	7774.85
582.008	7783.21
582.368	7782.08
582.728	7798.13
583.089	7867.05
583.449	7850.1
583.809	7879.03
584.169	7870.44
584.529	7888.52
584.889	7970.1
585.249	7936.88
585.609	7850.78
585.969	7898.46
586.329	7933.27
586.688	7963.55
587.048	7993.15
587.408	7936.88
587.768	8008.29
588.127	7971.91
588.487	7960.38
588.846	8135.75
589.206	7991.57
589.565	8010.33
589.925	8024.79
590.284	8045.13
590.643	8059.14
591.003	8130.55
591.362	8121.06
591.721	8109.53
592.08	8084.45
592.44	8132.13
592.799	8154.05
593.158	8169.64
593.517	8133.26
593.876	8134.62
594.235	8166.48
594.593	8157.67
594.952	8162.19
595.311	8209.42
595.67	8143.43
596.029	8287.61
596.387	8206.71
596.746	8255.52
597.104	8189.3
597.463	8201.51
597.822	8196.99
598.18	8251.68
598.538	8178.68
598.897	8236.53
599.255	8174.62
599.613	8293.26
599.972	8236.99
600.33	8270.66
600.688	8305.46
601.046	8308.62
601.404	8373.25
601.762	8340.03
602.12	8352.69
602.478	8328.28
602.836	8381.62
603.194	8362.63
603.552	8390.88
603.91	8333.93
604.268	8348.17
604.625	8261.84
604.983	8355.18
605.341	8291.9
605.698	8358.34
606.056	8392.46
606.413	8373.71
606.771	8407.15
607.128	8395.85
607.485	8394.5
607.843	8416.87
608.2	8389.07
608.557	8485.12
608.914	8441.5
609.272	8520.37
609.629	8502.52
609.986	8504.32
610.343	8462.74
610.7	8553.36
611.057	8535.74
611.414	8528.73
611.771	8526.92
612.127	8561.5
612.484	8523.31
612.841	8552.46
613.198	8510.2
613.554	8551.78
613.911	8493.03
614.267	8613.93
614.624	8592.68
614.98	8555.85
615.337	8618.9
615.693	8556.3
616.05	8623.87
616.406	8635.39
616.762	8522.85
617.118	8662.06
617.475	8574.83
617.831	8630.65
618.187	8723.98
618.543	8637.65
618.899	8695.05
619.255	8704.32
619.611	8653.92
619.967	8691.21
620.323	8746.35
620.678	8762.85
621.034	8653.02
621.39	8706.58
621.746	8657.09
622.101	8752
622.457	8700.93
622.812	8697.54
623.168	8681.72
623.523	8747.48
623.879	8699.12
624.234	8662.51
624.589	8662.29
624.945	8726.24
625.3	8660.48
625.655	8744.32
626.01	8744.54
626.365	8712
626.72	8639.01
627.075	8714.94
627.43	8706.58
627.785	8630.87
628.14	8683.53
628.495	8677.2
628.85	8677.88
629.205	8654.15
629.559	8727.37
629.914	8580.48
630.269	8676.52
630.623	8617.77
630.978	8650.31
631.332	8646.47
631.687	8581.61
632.041	8617.32
632.396	8699.12
632.75	8627.49
633.104	8600.14
633.459	8550.42
633.813	8513.36
634.167	8482.4
634.521	8535.28
634.875	8535.51
635.229	8524.44
635.583	8448.51
635.937	8520.14
636.291	8514.04
636.645	8429.98
636.999	8440.82
637.352	8499.13
637.706	8418
638.06	8447.38
638.413	8449.18
638.767	8408.96
639.121	8429.75
639.474	8448.96
639.828	8379.36
640.181	8356.98
640.534	8385.46
640.888	8379.36
641.241	8353.59
641.594	8388.62
641.947	8364.22
642.301	8352.46
642.654	8327.83
643.007	8312.47
643.36	8396.53
643.713	8277.21
644.066	8350.88
644.419	8284.9
644.771	8204.22
645.124	8212.58
645.477	8190.66
645.83	8092.13
646.182	8129.19
646.535	8081.06
646.888	8137.55
647.24	8021.63
647.593	8107.05
647.945	8099.14
648.298	8083.09
648.65	8033.6
649.002	8042.42
649.355	8110.89
649.707	8069.53
650.059	8118.35
650.411	8151.34
650.763	8214.61
651.115	8258.91
651.467	8272.69
651.819	8243.31
652.171	8262.75
652.523	8181.62
652.875	8250.55
653.227	8205.12
653.578	8248.74
653.93	8208.74
654.282	8181.62
654.633	8201.96
654.985	8210.77
655.337	8196.99
655.688	8228.4
656.039	8220.72
656.391	8206.03
656.742	8213.71
657.094	8273.82
657.445	8262.07
657.796	8253.26
658.147	8227.27
658.498	8266.36
658.849	8245.57
659.2	8230.89
659.551	8263.43
659.902	8260.71
660.253	8281.96
660.604	8244.67
660.955	8225.46
661.306	8275.63
661.656	8225.01
662.007	8266.82
662.358	8281.05
662.708	8293.71
663.059	8309.75
663.409	8285.12
663.76	8339.13
664.11	8230.66
664.461	8329.87
664.811	8273.82
665.161	8240.6
665.511	8202.41
665.862	8336.87
666.212	8326.25
666.562	8333.26
666.912	8343.65
667.262	8369.64
667.612	8264.78
667.962	8363.99
668.312	8282.41
668.662	8361.73
669.011	8346.81
669.361	8300.94
669.711	8334.84
670.06	8293.93
670.41	8275.86
670.76	8327.83
671.109	8333.71
671.459	8295.06
671.808	8250.09
672.157	8299.81
672.507	8191.11
672.856	8213.03
673.205	8274.05
673.554	8270.66
673.904	8229.08
674.253	8307.72
674.602	8259.59
674.951	8137.55
675.3	8123.32
675.649	8198.57
675.998	8225.24
676.346	8173.94
676.695	8232.02
677.044	8135.75
677.393	8185.69
677.741	8180.94
678.09	8128.74
678.438	8092.58
678.787	8125.35
679.135	8136.88
679.484	8109.98
679.832	8118.12
680.181	8085.58
680.529	8072.02
680.877	8065.24
681.225	8075.18
681.573	8040.61
681.922	8037.9
682.27	7992.7
682.618	8008.97
682.966	7994.28
683.314	7987.95
683.661	7935.98
684.009	7875.41
684.357	7926.49
684.705	7873.15
685.053	7895.3
685.4	7884.91
685.748	7846.26
686.095	7806.72
686.443	7809.88
686.79	7700.05
687.138	7776.21
687.485	7758.81
687.832	7748.64
688.18	7786.38
688.527	7703.22
688.874	7683.78
689.221	7701.18
689.568	7566.5
689.915	7594.52
690.262	7611.92
690.609	7566.04
690.956	7507.29
691.303	7550.23
691.65	7498.02
691.997	7516.55
692.344	7449.21
692.69	7440.17
693.037	7404.01
693.383	7376.22
693.73	7392.26
694.077	7305.49
694.423	7353.62
694.769	7302.1
695.116	7266.62
695.462	7254.64
695.808	7207.18
696.155	7230.01
696.501	7128.99
696.847	7173.29
697.193	7087.41
697.539	7161.53
697.885	7034.08
698.231	7085.38
698.577	7030.69
698.923	7005.15
699.269	6974.87
699.614	6947.3
699.96	6893.52
700.306	6924.93
700.651	6843.58
700.997	6848.32
701.342	6828.21
701.688	6792.51
702.033	6835.44
702.379	6754.77
702.724	6732.85
703.069	6749.12
703.415	6612.62
703.76	6639.74
704.105	6615.79
704.45	6666.86
704.795	6547.31
705.14	6584.6
705.485	6565.62
705.83	6576.69
706.175	6519.29
706.52	6535.79
706.865	6502.12
707.209	6422.57
707.554	6451.27
707.899	6472.29
708.243	6402.23
708.588	6346.42
708.932	6288.56
709.277	6334.66
709.621	6299.18
709.966	6331.27
710.31	6289.47
710.654	6280.43
710.998	6282.46
711.342	6204.95
711.687	6200.43
712.031	6226.64
712.375	6203.37
712.719	6227.1
713.063	6147.55
713.407	6187.78
713.75	6116.59
714.094	6170.15
714.438	6117.27
714.782	6104.16
715.125	6101
715.469	6128.57
715.812	6068.46
716.156	6053.09
716.499	6042.02
716.843	6037.04
717.186	6008.57
717.53	6022.58
717.873	6141.22
718.216	6050.15
718.559	5976.71
718.902	5957.27
719.246	6021.9
719.589	5975.58
719.932	5905.97
720.275	6007.89
720.617	5964.5
720.96	5943.94
721.303	5934.9
721.646	5934.22
721.989	5926.54
722.331	5962.92
722.674	5890.38
723.016	5908.91
723.359	5907.56
723.701	5893.55
724.044	5889.25
724.386	5859.87
724.729	5894.68
725.071	5883.6
725.413	5901.91
725.755	5892.19
726.097	5867.11
726.439	5820.33
726.782	5868.91
727.124	5858.97
727.465	5844.06
727.807	5853.32
728.149	5865.75
728.491	5827.56
728.833	5868.46
729.175	5841.57
729.516	5847.22
729.858	5770.16
730.199	5892.64
730.541	5789.59
730.882	5816.49
731.224	5806.77
731.565	5764.06
731.906	5859.42
732.248	5840.89
732.589	5807.9
732.93	5800.89
733.271	5816.94
733.612	5829.59
733.953	5884.28
734.294	5860.78
734.635	5768.8
734.976	5800.67
735.317	5823.26
735.658	5827.11
735.999	5813.77
736.339	5768.58
736.68	5832.76
737.021	5844.51
737.361	5884.28
737.702	5832.98
738.042	5832.76
738.383	5847.67
738.723	5856.03
739.063	5872.98
739.404	5928.35
739.744	5904.62
740.084	5891.74
740.424	5947.1
740.764	5934.22
741.104	5955.01
741.444	5912.75
741.784	5931.06
742.124	6023.49
742.464	5952.3
742.804	6036.82
743.143	6032.3
743.483	6058.06
743.823	5995.24
744.162	6046.54
744.502	6083.82
744.841	6115.01
745.181	6148.68
745.52	6149.81
745.86	6234.33
746.199	6200.43
746.538	6263.25
746.877	6331.73
747.216	6385.51
747.556	6359.3
747.895	6433.42
748.234	6427.09
748.573	6559.29
748.911	6593.19
749.25	6636.12
749.589	6714.09
749.928	6756.57
750.267	6816.46
750.605	6869.57
750.944	6915.44
751.283	6975.55
751.621	7075.21
751.96	7142.33
752.298	7238.59
752.636	7356.11
752.975	7426.16
753.313	7498.93
753.651	7628.42
753.989	7695.53
754.327	7769.88
754.666	7905.47
755.004	8041.96
755.342	8109.53
755.679	8257.33
756.017	8329.87
756.355	8549.97
756.693	8614.15
757.031	8716.75
757.368	8877.65
757.706	9054.59
758.044	9165.78
758.381	9318.31
758.719	9446.45
759.056	9623.62
759.394	9771.41
759.731	9906.55
760.068	10056.83
760.405	10178.63
760.743	10340.43
761.08	10642.57
761.417	10670.37
761.754	10881.21
762.091	11078.49
762.428	11158.72
762.765	11334.98
763.102	11559.61
763.438	11675.99
763.775	11813.16
764.112	12005.25
764.449	12226.03
764.785	12312.81
765.122	12493.82
765.458	12623.99
765.795	12800.03
766.131	13051.32
766.467	13060.36
766.804	13155.95
767.14	13356.85
767.476	13566.34
767.812	13661.48
768.148	13803.85
768.485	13888.36
768.821	14032.09
769.157	14086.1
769.492	14274.57
769.828	14490.16
770.164	14476.82
770.5	14609.02
770.836	14790.26
771.171	14849.69
771.507	14912.97
771.842	15073.87
772.178	15155.9
772.513	15261.43
772.849	15351.6
773.184	15343.24
773.519	15550.01
773.855	15577.58
774.19	15629.11
774.525	15631.14
774.86	15819.39
775.195	15834.3
775.53	16019.83
775.865	15989.78
776.2	15994.97
776.535	15973.05
776.87	16067.06
777.205	16116.78
777.539	16209.88
777.874	16367.39
778.209	16339.37
778.543	16263.44
778.878	16375.3
779.212	16373.95
779.547	16409.65
779.881	16471.35
780.215	16527.62
780.55	16551.57
780.884	16587.73
781.218	16552.25
781.552	16571.91
781.886	16547.5
782.22	16505.24
782.554	16587.95
782.888	16499.82
783.222	16565.81
783.556	16554.73
783.889	16598.57
784.223	16508.86
784.557	16538.01
784.89	16572.59
785.224	16549.76
785.557	16472.02
785.891	16498.24
786.224	16551.57
786.558	16575.98
786.891	16490.1
787.224	16467.05
787.557	16367.85
787.891	16473.15
788.224	16488.75
788.557	16575.52
788.89	16435.64
789.223	16444.68
789.556	16348.86
789.888	16432.25
790.221	16314.29
790.554	16249.88
790.887	16366.72
791.219	16222.09
791.552	16200.62
791.884	16192.48
792.217	16223.44
792.549	16238.81
792.882	16196.1
793.214	16133.5
793.546	16135.99
793.879	16037.91
794.211	15986.39
794.543	16107.51
794.875	16048.08
795.207	16101.41
795.539	15964.24
795.871	16033.62
796.203	15921.3
796.535	15874.53
796.867	15812.61
797.198	15767.41
797.53	15808.09
797.862	15739.61
798.193	15767.18
798.525	15701.65
798.856	15696.68
799.188	15540.98
799.519	15514.54
799.85	15393.63
800.182	15473.41
800.513	15421.88
800.844	15380.98
801.175	15440.87
801.506	15379.17
801.837	15395.67
802.168	15376.91
802.499	15270.7
802.83	15209.91
803.161	15156.13
803.491	15184.37
803.822	15098.05
804.153	15044.49
804.483	14985.51
804.814	15008.33
805.145	14976.47
805.475	14906.87
805.805	14863.48
806.136	14882.69
806.466	14860.77
806.796	14811.73
807.126	14749.13
807.457	14752.75
807.787	14718.17
808.117	14727.21
808.447	14639.53
808.777	14788.45
809.107	14623.94
809.436	14567.44
809.766	14592.07
810.096	14561.79
810.426	14435.02
810.755	14418.07
811.085	14521.79
811.414	14493.55
811.744	14316.37
812.073	14333.78
812.403	14339.65
812.732	14268.92
813.061	14320.67
813.39	14185.98
813.719	14177.62
814.049	14248.35
814.378	14188.69
814.707	14069.15
815.036	14102.14
815.365	14068.47
815.693	13922.94
816.022	13957.29
816.351	13929.72
816.68	13795.48
817.008	13977.63
817.337	13773.79
817.665	13814.24
817.994	13778.54
818.322	13889.04
818.651	13744.86
818.979	13740.12
819.307	13821.47
819.636	13729.05
819.964	13656.51
820.292	13708.48
820.62	13739.67
820.948	13658.31
821.276	13698.54
821.604	13642.04
821.932	13727.46
822.259	13691.98
822.587	13665.54
822.915	13615.15
823.243	13674.36
823.57	13675.94
823.898	13626.22
824.225	13547.58
824.553	13666.9
824.88	13592.55
825.207	13707.35
825.535	13666.9
825.862	13688.82
826.189	13601.37
826.516	13721.36
826.843	13708.03
827.17	13866.22
827.497	13697.18
827.824	13697.86
828.151	13662.38
828.478	13726.56
828.805	13766.33
829.131	13634.81
829.458	13611.08
829.785	13618.54
830.111	13666.67
830.438	13715.71
830.764	13579.67
831.09	13738.54
831.417	13645.43
831.743	13701.25
832.069	13712.78
832.395	13583.51
832.722	13646.56
833.048	13664.19
833.374	13603.4
833.7	13526.57
834.026	13588.48
834.351	13586
834.677	13589.39
835.003	13572.67
835.329	13652.89
835.654	13597.75
835.98	13471.88
836.306	13538.54
836.631	13521.14
836.956	13539.9
837.282	13623.29
837.607	13428.04
837.932	13495.61
838.258	13436.4
838.583	13455.61
838.908	13378.09
839.233	13345.1
839.558	13354.14
839.883	13250.19
840.208	13268.94
840.533	13315.72
840.858	13174.03
841.182	13210.19
841.507	13203.86
841.832	13228.49
842.156	13167.03
842.481	13128.16
842.805	13111.21
843.13	13077.99
843.454	13035.96
843.778	13001.83
844.103	12983.3
844.427	12879.8
844.751	12951.89
845.075	12880.93
845.399	12862.18
845.723	12809.07
846.047	12816.75
846.371	12717.77
846.695	12735.17
847.019	12654.5
847.343	12500.15
847.666	12495.41
847.99	12404.79
848.313	12423.54
848.637	12352.81
848.96	12371.79
849.284	12236.66
849.607	12226.71
849.931	12189.2
850.254	12052.48
850.577	11951.69
850.9	11955.31
851.223	12014.74
851.546	11924.8
851.869	11818.14
852.192	11896.33
852.515	11773.62
852.838	11741.08
853.161	11708.53
853.483	11680.29
853.806	11626.95
854.129	11555.77
854.451	11565.03
854.774	11458.82
855.096	11506.73
855.419	11451.59
855.741	11434.87
856.063	11294.99
856.385	11354.42
856.708	11303.12
857.03	11244.37
857.352	11222.9
857.674	11203.46
857.996	11179.96
858.318	11126.18
858.64	11118.94
858.961	11066.06
859.283	11028.33
859.605	10991.49
859.926	11021.32
860.248	10983.36
860.57	10920.08
860.891	10981.1
861.212	10848.9
861.534	10866.97
861.855	10828.11
862.176	10824.26
862.498	10796.02
862.819	10778.84
863.14	10733.42
863.461	10720.09
863.782	10746.53
864.103	10735.9
864.424	10661.78
864.745	10755.11
865.065	10655.23
865.386	10555.12
865.707	10589.02
866.027	10541.11
866.348	10543.59
866.668	10561.9
866.989	10565.51
867.309	10434.22
867.63	10489.13
867.95	10506.31
868.27	10457.72
868.59	10447.78
868.91	10388.57
869.23	10367.78
869.55	10316.93
869.87	10367.1
870.19	10386.99
870.51	10353.99
870.83	10322.58
871.15	10332.52
871.469	10302.02
871.789	10363.48
872.109	10244.39
872.428	10242.81
872.748	10243.49
873.067	10191.96
873.386	10241.23
873.706	10222.92
874.025	10164.17
874.344	10114.9
874.663	10111.74
874.982	10125.75
875.301	10165.98
875.62	10147.67
875.939	10082.14
876.258	10048.92
876.577	10057.73
876.896	10005.3
877.214	9926.66
877.533	9968.47
877.852	10007.56
878.17	9918.98
878.489	9939.09
878.807	9951.52
879.125	9846.44
879.444	9920.56
879.762	9846.21
880.08	9884.85
880.398	9792.88
880.716	9813.22
881.034	9791.07
881.352	9732.31
881.67	9705.87
881.988	9690.51
882.306	9660.68
882.624	9658.64
882.941	9579.55
883.259	9580.23
883.577	9651.64
883.894	9592.43
884.212	9592.21
884.529	9580.45
884.846	9512.89
885.164	9577.06
885.481	9528.7
885.798	9516.95
886.115	9380.23
886.432	9396.28
886.75	9338.43
887.067	9434.24
887.383	9275.38
887.7	9389.5
888.017	9362.15
888.334	9297.3
888.651	9275.83
888.967	9284.42
889.284	9177.3
889.6	9236.06
889.917	9114.48
890.233	9190.18
890.55	9040.36
890.866	9116.74
891.182	9130.3
891.498	9035.84
891.815	8999.45
892.131	8972.11
892.447	8943.18
892.763	8885.11
893.079	8914.26
893.395	8831.77
893.71	8797.42
894.026	8795.39
894.342	8807.14
894.657	8682.62
894.973	8751.1
895.289	8681.95
895.604	8675.62
895.92	8623.42
896.235	8594.27
896.55	8643.76
896.865	8556.07
897.181	8525.11
897.496	8556.53
897.811	8519.01
898.126	8438.79
898.441	8416.42
898.756	8377.77
899.071	8349.53
899.386	8355.85
899.7	8279.92
900.015	8239.7
900.33	8192.92
900.644	8176.88
900.959	8185.91
901.273	8112.47
901.588	8094.62
901.902	8142.98
902.216	8068.86
902.531	8030.66
902.845	8008.07
903.159	7957.22
903.473	7840.84
903.787	7939.14
904.101	7847.39
904.415	7826.15
904.729	7821.18
905.042	7741.18
905.356	7706.83
905.67	7716.1
905.984	7632.03
906.297	7688.3
906.611	7544.35
906.924	7548.19
907.237	7544.35
907.551	7535.54
907.864	7477.23
908.177	7457.35
908.491	7447.4
908.804	7448.76
909.117	7370.79
909.43	7303
909.743	7264.13
910.056	7284.7
910.368	7320.4
910.681	7198.14
910.994	7206.96
911.307	7172.38
911.619	7107.07
911.932	7172.16
912.244	7058.71
912.557	7084.7
912.869	6945.95
913.181	6969.22
913.494	6987.75
913.806	6950.47
914.118	6903.46
914.43	6835.67
914.742	6858.49
915.054	6851.03
915.366	6798.83
915.678	6803.35
915.99	6735.78
916.302	6743.47
916.613	6683.36
916.925	6661.21
917.236	6640.87
917.548	6681.32
917.859	6580.53
918.171	6545.05
918.482	6552.74
918.794	6506.86
919.105	6470.03
919.416	6483.13
919.727	6435.23
920.038	6410.14
920.349	6377.37
920.66	6374.44
920.971	6327.66
921.282	6365.62
921.593	6261.22
921.903	6307.55
922.214	6250.37
922.525	6246.08
922.835	6176.48
923.146	6140.09
923.456	6178.96
923.767	6165.63
924.077	6088.34
924.387	6063.26
924.697	5992.75
925.008	6049.02
925.318	5963.37
925.628	5970.83
925.938	5980.32
926.248	5895.35
926.558	5906.88
926.867	5884.73
927.177	5890.38
927.487	5754.57
927.796	5766.32
928.106	5716.83
928.416	5718.86
928.725	5745.07
929.034	5696.49
929.344	5682.25
929.653	5681.57
929.962	5618.3
930.271	5650.61
930.581	5591.18
930.89	5578.75
931.199	5532.88
931.508	5506.44
931.817	5527
932.125	5468.7
932.434	5464.86
932.743	5432.99
933.051	5370.4
933.36	5371.75
933.669	5350.06
933.977	5340.34
934.286	5354.35
934.594	5315.48
934.902	5278.87
935.21	5243.62
935.519	5205.2
935.827	5235.94
936.135	5204.75
936.443	5126.33
936.751	5168.59
937.059	5149.16
937.367	5098.54
937.674	5145.32
937.982	5126.79
938.29	5022.83
938.597	5043.17
938.905	5004.53
939.213	4981.48
939.52	4966.11
939.827	4968.6
940.135	4960.24
940.442	4875.04
940.749	4883.18
941.056	4880.92
941.363	4831.65
941.67	4816.96
941.977	4755.95
942.284	4763.63
942.591	4735.16
942.898	4710.75
943.205	4762.05
943.511	4708.04
943.818	4688.15
944.125	4657.65
944.431	4653.58
944.738	4644.99
945.044	4626.91
945.35	4590.53
945.657	4543.3
945.963	4569.06
946.269	4485.9
946.575	4492.68
946.881	4431.89
947.187	4519.8
947.493	4417.43
947.799	4461.94
948.105	4395.73
948.41	4330.42
948.716	4360.7
949.022	4367.03
949.327	4301.72
949.633	4308.5
949.938	4262.63
950.244	4318.45
950.549	4240.71
950.854	4194.61
951.16	4218.34
951.465	4220.14
951.77	4161.16
952.075	4165.46
952.38	4152.12
952.685	4112.8
952.99	4073.71
953.294	4051.33
953.599	4044.33
953.904	4064.44
954.209	3974.73
954.513	4056.53
954.818	4036.19
955.122	3959.81
955.426	3972.24
955.731	3950.32
956.035	3938.12
956.339	3928.63
956.643	3905.35
956.948	3871.45
957.252	3903.09
957.556	3860.83
957.86	3870.77
958.163	3835.07
958.467	3819.93
958.771	3745.81
959.075	3773.6
959.378	3711.46
959.682	3742.19
959.985	3754.39
960.289	3718.91
960.592	3697.22
960.896	3677.33
961.199	3714.17
961.502	3665.13
961.805	3628.75
962.108	3625.36
962.411	3603.44
962.714	3606.6
963.017	3574.74
963.32	3553.95
963.623	3522.31
963.926	3521.86
964.228	3486.6
964.531	3492.03
964.833	3477.11
965.136	3451.35
965.438	3460.84
965.741	3415.42
966.043	3401.41
966.345	3400.05
966.648	3348.75
966.95	3409.32
967.252	3355.08
967.554	3337.91
967.856	3299.04
968.158	3294.29
968.46	3276.89
968.761	3250.23
969.063	3288.19
969.365	3262.65
969.666	3267.63
969.968	3187.85
970.269	3201.41
970.571	3213.84
970.872	3184.01
971.174	3163.22
971.475	3168.65
971.776	3190.34
972.077	3138.82
972.378	3127.29
972.679	3083.45
972.98	3117.35
973.281	3092.04
973.582	3094.3
973.883	3051.36
974.183	3067.86
974.484	3025.82
974.785	2974.07
975.085	3021.76
975.386	3024.92
975.686	2984.47
975.986	2948.31
976.287	2965.94
976.587	2930.01
976.887	2948.31
977.187	2890.23
977.487	2881.87
977.787	2887.3
978.087	2863.12
978.387	2844.59
978.687	2857.69
978.987	2834.42
979.286	2831.71
979.586	2833.97
979.885	2785.38
980.185	2756.45
980.484	2759.16
980.784	2740.86
981.083	2763.01
981.382	2767.3
981.682	2746.51
981.981	2720.3
982.28	2758.71
982.579	2687.53
982.878	2710.58
983.177	2668.09
983.475	2652.5
983.774	2645.5
984.073	2641.88
984.372	2558.49
984.67	2616.34
984.969	2593.52
985.267	2607.53
985.566	2566.4
985.864	2556.91
986.162	2542.45
986.461	2520.3
986.759	2516.69
987.057	2504.48
987.355	2483.69
987.653	2486.86
987.951	2478.04
988.249	2456.12
988.547	2442.56
988.844	2469.91
989.142	2458.83
989.44	2423.58
989.737	2398.72
990.035	2406.41
990.332	2393.52
990.63	2362.34
990.927	2368.67
991.224	2363.92
991.521	2348.78
991.819	2344.94
992.116	2327.31
992.413	2325.73
992.71	2334.32
993.006	2318.95
993.303	2287.31
993.6	2280.53
993.897	2295.9
994.193	2254.32
994.49	2242.79
994.787	2236.24
995.083	2206.86
995.379	2217.71
995.676	2198.73
995.972	2185.17
996.268	2146.98
996.565	2170.71
996.861	2148.33
997.157	2151.95
997.453	2138.39
997.749	2121.67
998.044	2104.27
998.34	2130.71
998.636	2106.07
998.932	2078.5
999.227	2062.46
999.523	2067.43
999.818	2040.54
1000.114	2040.09
1000.409	2029.24
1000.704	2039.64
1001	2007.77
1001.295	1990.82
1001.59	2008.9
1001.885	1986.53
1002.18	1988.11
1002.475	1965.06
1002.77	1956.25
1003.065	1946.08
1003.359	1925.51
1003.654	1924.84
1003.949	1940.88
1004.243	1879.64
1004.538	1878.06
1004.832	1848.91
1005.127	1846.42
1005.421	1848
1005.715	1818.17
1006.009	1860.88
1006.304	1805.07
1006.598	1814.33
1006.892	1798.06
1007.186	1773.43
1007.48	1809.36
1007.773	1779.3
1008.067	1753.99
1008.361	1756.25
1008.655	1739.98
1008.948	1768.46
1009.242	1714.67
1009.535	1723.26
1009.829	1682.81
1010.122	1713.09
1010.415	1672.41
1010.708	1701.34
1011.001	1657.05
1011.295	1643.04
1011.588	1628.57
1011.881	1639.42
1012.173	1627.44
1012.466	1615.69
1012.759	1601.68
1013.052	1614.56
1013.344	1597.61
1013.637	1566.43
1013.93	1579.08
1014.222	1564.85
1014.514	1544.28
1014.807	1570.72
1015.099	1516.71
1015.391	1535.24
1015.683	1506.32
1015.976	1510.84
1016.268	1505.64
1016.56	1495.7
1016.851	1463.15
1017.143	1447.11
1017.435	1453.89
1017.727	1451.63
1018.018	1450.72
1018.31	1450.72
1018.602	1415.25
1018.893	1440.1
1019.185	1417.96
1019.476	1382.7
1019.767	1396.04
1020.058	1393.32
1020.35	1384.51
1020.641	1356.04
1020.932	1371.63
1021.223	1348.35
1021.514	1341.12
1021.804	1335.47
1022.095	1304.06
1022.386	1309.26
1022.677	1303.16
1022.967	1304.06
1023.258	1271.97
1023.548	1295.93
1023.839	1277.85
1024.129	1264.29
1024.419	1250.05
1024.709	1250.5
1025	1244.85
1025.29	1243.5
1025.58	1211.41
1025.87	1216.15
1026.16	1210.05
1026.449	1197.85
1026.739	1180
1027.029	1182.93
1027.319	1188.13
1027.608	1172.77
1027.898	1170.05
1028.187	1155.14
1028.477	1122.15
1028.766	1136.83
1029.055	1113.78
1029.344	1136.61
1029.634	1112.88
1029.923	1114.91
1030.212	1116.72
1030.501	1100.9
1030.79	1117.4
1031.078	1092.54
1031.367	1084.63
1031.656	1058.19
1031.945	1063.16
1032.233	1060.9
1032.522	1057.51
1032.81	1039.89
1033.099	1033.11
1033.387	1025.43
1033.675	1006.67
1033.963	1029.04
1034.251	982.71
1034.54	998.76
1034.828	975.26
1035.116	1003.96
1035.403	996.27
1035.691	981.58
1035.979	964.86
1036.267	984.07
1036.554	963.51
1036.842	937.97
1037.129	980.45
1037.417	950.62
1037.704	947.23
1037.992	949.95
1038.279	935.48
1038.566	901.81
1038.853	901.81
1039.14	901.81
