Data from hue_220_FLMS001491_00079.txt Node
Date: Tue Feb 07 16:39:56 GMT 2017
User: dcchb
Spectrometer: FLMS00149
Trigger mode: 0
Integration Time (sec): 2.000000E-2
Scans to average: 10
Electric dark correction enabled: true
Nonlinearity correction enabled: false
Boxcar width: 0
XAxis mode: Wavelengths
Number of Pixels in Spectrum: 2048
>>>>>Begin Spectral Data<<<<<
341.393	-20.79
341.776	-20.79
342.16	-20.79
342.543	-80.22
342.927	-71.18
343.31	-60.79
343.693	-66.44
344.077	-71.41
344.46	-74.12
344.843	-49.94
345.226	-37.74
345.61	-15.37
345.993	-23.28
346.376	-0.23
346.759	10.85
347.142	27.12
347.525	37.29
347.908	65.54
348.291	67.34
348.674	88.13
349.057	103.05
349.44	141.01
349.823	150.5
350.206	173.78
350.588	199.54
350.971	202.71
351.354	214.68
351.737	231.86
352.119	263.27
352.502	270.05
352.884	281.8
353.267	272.76
353.65	304.4
354.032	305.98
354.414	309.14
354.797	315.92
355.179	319.99
355.562	315.7
355.944	327.22
356.326	345.3
356.709	338.52
357.091	319.31
357.473	331.29
357.855	353.44
358.238	335.36
358.62	323.38
359.002	336.49
359.384	364.96
359.766	341.01
360.148	342.82
360.53	334.45
360.912	352.31
361.294	327
361.676	339.43
362.057	353.44
362.439	329.71
362.821	343.27
363.203	345.98
363.584	336.71
363.966	310.73
364.348	313.21
364.729	310.05
365.111	315.7
365.493	312.08
365.874	306.88
366.256	315.92
366.637	325.19
367.019	321.12
367.4	310.27
367.781	318.41
368.163	312.31
368.544	323.61
368.925	317.51
369.306	318.64
369.688	315.02
370.069	310.05
370.45	304.85
370.831	309.14
371.212	329.26
371.593	323.38
371.974	323.83
372.355	319.54
372.736	331.52
373.117	324.96
373.498	304.17
373.879	322.93
374.26	326.77
374.641	311.18
375.021	319.09
375.402	307.56
375.783	319.31
376.163	320.44
376.544	336.04
376.925	330.61
377.305	334.45
377.686	305.08
378.066	310.95
378.447	312.08
378.827	326.55
379.208	333.1
379.588	336.49
379.968	320.9
380.349	331.97
380.729	348.24
381.109	317.28
381.489	327.45
381.87	353.44
382.25	344.85
382.63	344.4
383.01	322.93
383.39	350.5
383.77	341.46
384.15	366.09
384.53	338.97
384.91	344.85
385.29	354.34
385.67	340.78
386.049	364.06
386.429	360.44
386.809	366.32
387.189	357.28
387.568	345.75
387.948	346.21
388.328	364.96
388.707	349.14
389.087	350.73
389.466	363.38
389.846	356.6
390.225	374.45
390.605	358.86
390.984	358.18
391.363	347.79
391.743	366.32
392.122	364.06
392.501	383.94
392.881	392.08
393.26	391.18
393.639	363.83
394.018	395.02
394.397	377.62
394.776	400.22
395.155	396.6
395.534	411.74
395.913	403.38
396.292	382.59
396.671	378.3
397.05	388.01
397.429	397.73
397.808	397.05
398.186	414.23
398.565	396.6
398.944	392.76
399.323	383.04
399.701	404.06
400.08	395.24
400.458	438.41
400.837	434.34
401.215	441.57
401.594	416.26
401.972	418.75
402.351	406.09
402.729	442.47
403.107	417.84
403.486	428.24
403.864	427.79
404.242	437.5
404.62	435.69
404.999	443.38
405.377	451.51
405.755	458.07
406.133	453.55
406.511	447.9
406.889	441.34
407.267	472.08
407.645	470.5
408.023	488.35
408.401	494.68
408.779	486.54
409.156	515.69
409.534	518.18
409.912	523.38
410.29	512.3
410.667	533.55
411.045	531.06
411.422	547.33
411.8	548.23
412.178	561.12
412.555	557.95
412.933	573.32
413.31	578.74
413.687	602.02
414.065	583.71
414.442	596.82
414.819	625.07
415.197	647.21
415.574	602.92
415.951	639.53
416.328	649.47
416.705	657.16
417.082	677.72
417.46	674.56
417.837	661.23
418.214	700.77
418.591	665.07
418.967	678.4
419.344	721.79
419.721	722.01
420.098	717.04
420.475	730.15
420.852	761.79
421.228	745.97
421.605	754.78
421.982	795.23
422.358	799.53
422.735	797.72
423.111	799.98
423.488	819.64
423.864	826.87
424.241	856.02
424.617	856.02
424.994	883.59
425.37	884.72
425.746	900.99
426.123	903.03
426.499	909.81
426.875	940.09
427.251	926.98
427.627	970.6
428.003	986.64
428.379	978.28
428.756	979.64
429.132	1017.37
429.507	1006.08
429.883	1032.06
430.259	1026.41
430.635	1061.89
431.011	1096.47
431.387	1089.01
431.763	1089.01
432.138	1107.99
432.514	1143.47
432.89	1141.44
433.265	1169.01
433.641	1203.81
434.016	1214.21
434.392	1231.15
434.767	1242.68
435.143	1261.66
435.518	1314.77
435.894	1283.81
436.269	1321.1
436.644	1369.23
437.02	1356.8
437.395	1362.68
437.77	1394.99
438.145	1440.87
438.52	1439.06
438.895	1466.4
439.271	1482.67
439.646	1524.71
440.021	1546.63
440.395	1576.68
440.77	1541.88
441.145	1567.42
441.52	1606.74
441.895	1626.85
442.27	1646.06
442.645	1660.75
443.019	1664.14
443.394	1685.83
443.769	1693.51
444.143	1690.8
444.518	1737.58
444.892	1736.68
445.267	1758.37
445.641	1783.46
446.016	1773.96
446.39	1801.08
446.764	1826.39
447.139	1820.97
447.513	1829.78
447.887	1818.48
448.262	1847.86
448.636	1877.01
449.01	1918.14
449.384	1943.45
449.758	1923.79
450.132	1936.67
450.506	1966.95
450.88	1964.02
451.254	1979.83
451.628	2017.12
452.002	2033.17
452.376	2046.05
452.75	2052.15
453.123	2053.96
453.497	2079.27
453.871	2131.24
454.244	2151.58
454.618	2154.29
454.992	2150.9
455.365	2164.01
455.739	2235.2
456.112	2245.14
456.486	2241.52
456.859	2279.04
457.232	2305.25
457.606	2310.67
457.979	2318.36
458.352	2364.23
458.725	2429.31
459.099	2422.54
459.472	2471.12
459.845	2488.52
460.218	2488.07
460.591	2500.5
460.964	2538.01
461.337	2587.5
461.71	2643.77
462.083	2664.79
462.456	2644.9
462.829	2664.79
463.201	2685.81
463.574	2692.13
463.947	2791.79
464.32	2807.84
464.692	2845.35
465.065	2861.85
465.438	2887.61
465.81	2924.22
466.183	2916.53
466.555	2961.5
466.928	3018
467.3	3015.74
467.672	3066.81
468.045	3140.26
468.417	3139.8
468.789	3153.82
469.161	3170.76
469.534	3253.25
469.906	3303.87
470.278	3286.92
470.65	3369.85
471.022	3400.36
471.394	3389.97
471.766	3455.05
472.138	3484.65
472.51	3569.17
472.882	3644.2
473.253	3644.2
473.625	3704.54
473.997	3777.3
474.369	3806
474.74	3800.35
475.112	3867.69
475.484	3969.39
475.855	3998.54
476.227	4017.3
476.598	4100.01
476.97	4141.13
477.341	4194.01
477.713	4310.85
478.084	4276.05
478.455	4370.05
478.827	4423.84
479.198	4543.84
479.569	4577.05
479.94	4654.57
480.311	4686.2
480.682	4749.48
481.053	4848.91
481.424	4894.33
481.795	4957.84
482.166	4973.2
482.537	5076.48
482.908	5143.37
483.279	5159.64
483.65	5280.09
484.021	5360.54
484.391	5390.14
484.762	5440.76
485.133	5492.06
485.503	5526.63
485.874	5628.55
486.244	5707.19
486.615	5747.87
486.985	5818.6
487.356	5938.6
487.726	5982.67
488.097	6029.9
488.467	6021.54
488.837	6182.21
489.207	6249.33
489.578	6306.5
489.948	6338.82
490.318	6363.22
490.688	6407.06
491.058	6516.21
491.428	6542.43
491.798	6645.02
492.168	6712.37
492.538	6727.96
492.908	6780.16
493.278	6821.97
493.648	6860.84
494.017	6909.87
494.387	7046.14
494.757	7080.27
495.126	7100.6
495.496	7065.58
495.866	7128.17
496.235	7180.15
496.605	7251.11
496.974	7262.86
497.344	7336.98
497.713	7365
498.082	7344.67
498.452	7414.95
498.821	7491.1
499.19	7486.58
499.559	7517.77
499.928	7551.21
500.298	7628.73
500.667	7661.95
501.036	7586.69
501.405	7682.28
501.774	7654.04
502.143	7773.81
502.512	7780.13
502.88	7753.24
503.249	7796.41
503.618	7894.03
503.987	7832.11
504.356	7919.34
504.724	7906.46
505.093	7927.93
505.462	7943.75
505.83	7956.4
506.199	8013.8
506.567	8042.05
506.936	8089.28
507.304	8143.97
507.672	8147.81
508.041	8110.07
508.409	8153.68
508.777	8236.62
509.145	8265.32
509.514	8286.56
509.882	8217.41
510.25	8312.55
510.618	8321.82
510.986	8360.23
511.354	8344.19
511.722	8378.54
512.09	8371.98
512.458	8350.51
512.826	8450.17
513.193	8462.6
513.561	8409.27
513.929	8534.69
514.297	8491.53
514.664	8503.51
515.032	8502.83
515.4	8558.42
515.767	8542.15
516.135	8527.23
516.502	8478.2
516.869	8593.9
517.237	8592.99
517.604	8548.02
517.972	8550.96
518.339	8640
518.706	8577.85
519.073	8580.57
519.44	8598.19
519.808	8625.54
520.175	8600
520.542	8696.72
520.909	8635.93
521.276	8677.51
521.643	8731.07
522.009	8711.64
522.376	8753.22
522.743	8714.57
523.11	8766.55
523.477	8828.69
523.843	8842.03
524.21	8843.16
524.577	8841.12
524.943	8874.12
525.31	8807.68
525.676	8946.88
526.043	8913.21
526.409	8957.5
526.776	9023.04
527.142	8959.99
527.508	8927.9
527.874	8972.65
528.241	9001.8
528.607	8997.28
528.973	9050.16
529.339	8963.61
529.705	9024.85
530.071	9012.42
530.437	9024.17
530.803	8991.63
531.169	9086.99
531.535	8990.05
531.901	8972.42
532.267	8985.75
532.632	8965.41
532.998	9016.71
533.364	9019.2
533.73	8983.27
534.095	8997.96
534.461	9035.47
534.826	8983.49
535.192	8960.89
535.557	8964.06
535.923	8941.46
536.288	8900.78
536.653	8940.1
537.019	8861.91
537.384	8937.84
537.749	8894.68
538.114	8872.31
538.479	8847.68
538.845	8870.05
539.21	8818.3
539.575	8817.62
539.94	8823.95
540.305	8801.12
540.67	8757.06
541.034	8748.24
541.399	8746.89
541.764	8719.54
542.129	8755.25
542.494	8717.06
542.858	8677.51
543.223	8659.21
543.587	8662.37
543.952	8597.29
544.316	8624.86
544.681	8561.13
545.045	8656.95
545.41	8534.92
545.774	8533.33
546.138	8523.62
546.503	8559.55
546.867	8508.93
547.231	8536.05
547.595	8487.23
547.959	8464.41
548.324	8437.29
548.688	8463.96
549.052	8452.43
549.416	8407.01
549.779	8427.8
550.143	8347.13
550.507	8390.29
550.871	8262.38
551.235	8321.36
551.599	8280.91
551.962	8268.03
552.326	8317.52
552.689	8325.66
553.053	8180.58
553.417	8204.08
553.78	8292.89
554.143	8213.12
554.507	8235.49
554.87	8253.34
555.234	8305.09
555.597	8236.62
555.96	8170.86
556.323	8180.8
556.686	8214.25
557.05	8205.66
557.413	8193.68
557.776	8216.73
558.139	8170.18
558.502	8151.2
558.865	8114.59
559.228	8180.58
559.59	8164.76
559.953	8165.44
560.316	8259.9
560.679	8227.58
561.041	8235.04
561.404	8202.27
561.767	8196.62
562.129	8169.73
562.492	8274.36
562.854	8225.55
563.217	8151.42
563.579	8256.28
563.941	8237.3
564.304	8254.7
564.666	8247.24
565.028	8310.74
565.39	8202.95
565.753	8259.9
566.115	8292.44
566.477	8300.35
566.839	8272.32
567.201	8260.12
567.563	8334.24
567.925	8347.13
568.287	8396.39
568.648	8404.75
569.01	8362.72
569.372	8454.24
569.734	8356.16
570.095	8476.39
570.457	8474.13
570.819	8462.15
571.18	8475.94
571.542	8482.49
571.903	8536.72
572.265	8511.64
572.626	8544.41
572.987	8498.53
573.349	8562.26
573.71	8600.9
574.071	8541.02
574.432	8622.37
574.794	8654.01
575.155	8658.53
575.516	8586.89
575.877	8682.48
576.238	8677.96
576.599	8743.72
576.96	8735.82
577.32	8715.25
577.681	8795.47
578.042	8750.28
578.403	8807.45
578.763	8767.45
579.124	8900.1
579.485	8863.27
579.845	8943.04
580.206	8867.11
580.566	8891.97
580.927	8936.49
581.287	8920.44
581.648	8879.31
582.008	8972.87
582.368	9018.52
582.728	8962.7
583.089	9060.1
583.449	9002.93
583.809	9091.74
584.169	9057.39
584.529	9114.79
584.889	9159.99
585.249	9123.15
585.609	9086.09
585.969	9186.2
586.329	9159.08
586.688	9208.35
587.048	9162.47
587.408	9148.01
587.768	9201.79
588.127	9169.93
588.487	9228.46
588.846	9287.67
589.206	9204.73
589.565	9287.44
589.925	9277.27
590.284	9320.43
590.643	9286.31
591.003	9357.04
591.362	9372.63
591.721	9325.18
592.08	9328.12
592.44	9388.91
592.799	9475.46
593.158	9373.09
593.517	9379.41
593.876	9447.89
594.235	9342.35
594.593	9399.75
594.952	9468
595.311	9381.22
595.67	9434.55
596.029	9481.11
596.387	9456.47
596.746	9526.08
597.104	9513.42
597.463	9475.68
597.822	9510.26
598.18	9420.77
598.538	9535.34
598.897	9533.08
599.255	9493.31
599.613	9544.16
599.972	9559.97
600.33	9577.6
600.688	9530.37
601.046	9536.7
601.404	9577.6
601.762	9546.87
602.12	9628.22
602.478	9563.59
602.836	9595
603.194	9507.55
603.552	9581.67
603.91	9522.46
604.268	9607.66
604.625	9560.2
604.983	9652.85
605.341	9543.48
605.698	9619.63
606.056	9660.31
606.413	9631.39
606.771	9624.38
607.128	9665.51
607.485	9620.76
607.843	9630.71
608.2	9674.1
608.557	9692.63
608.914	9632.06
609.272	9688.33
609.629	9704.83
609.986	9750.03
610.343	9703.7
610.7	9816.92
611.057	9767.88
611.414	9774.21
611.771	9832.74
612.127	9789.35
612.484	9764.49
612.841	9837.71
613.198	9771.49
613.554	9749.12
613.911	9893.3
614.267	9883.36
614.624	9841.78
614.98	9870.7
615.337	9933.98
615.693	9950.92
616.05	9900.3
616.406	9939.63
616.762	9917.48
617.118	9888.33
617.475	9917.48
617.831	9914.77
618.187	9943.69
618.543	9936.91
618.899	9993.64
619.255	10011.94
619.611	9989.34
619.967	10040.19
620.323	10050.13
620.678	9997.03
621.034	10001.77
621.39	9941.43
621.746	9984.37
622.101	10065.5
622.457	10005.61
622.812	10046.29
623.168	9998.83
623.523	10005.84
623.879	9963.35
624.234	10023.47
624.589	10075.22
624.945	10022.11
625.3	10057.59
625.655	9968.55
626.01	10003.58
626.365	10007.42
626.72	10044.26
627.075	9997.93
627.43	9974.43
627.785	10001.54
628.14	9963.81
628.495	9989.34
628.85	9990.25
629.205	9945.28
629.559	9900.76
629.914	9942.79
630.269	9988.89
630.623	9932.85
630.978	9928.55
631.332	9972.85
631.687	9875.22
632.041	9886.97
632.396	9882.9
632.75	9842.45
633.104	9890.14
633.459	9886.29
633.813	9894.43
634.167	9842.45
634.521	9859.4
634.875	9849.91
635.229	9816.69
635.583	9749.12
635.937	9703.47
636.291	9767.88
636.645	9767.88
636.999	9680.2
637.352	9747.54
637.706	9644.04
638.06	9733.76
638.413	9678.39
638.767	9669.12
639.121	9685.85
639.474	9570.6
639.828	9644.49
640.181	9656.24
640.534	9623.02
640.888	9613.76
641.241	9510.94
641.594	9571.27
641.947	9580.54
642.301	9602.23
642.654	9601.33
643.007	9623.25
643.36	9552.29
643.713	9540.54
644.066	9627.32
644.419	9560.2
644.771	9444.05
645.124	9393.65
645.477	9328.57
645.83	9335.12
646.182	9288.34
646.535	9281.34
646.888	9288.8
647.24	9260.1
647.593	9285.86
647.945	9311.17
648.298	9217.38
648.65	9198.85
649.002	9268.68
649.355	9191.4
649.707	9234.33
650.059	9270.26
650.411	9466.19
650.763	9412.41
651.115	9466.64
651.467	9438.17
651.819	9454.67
652.171	9489.69
652.523	9419.64
652.875	9413.09
653.227	9424.16
653.578	9468.23
653.93	9454.67
654.282	9449.92
654.633	9393.43
654.985	9417.38
655.337	9406.76
655.688	9402.01
656.039	9465.74
656.391	9381.22
656.742	9437.04
657.094	9397.04
657.445	9463.48
657.796	9443.59
658.147	9423.93
658.498	9455.57
658.849	9450.82
659.2	9369.7
659.551	9420.09
659.902	9411.28
660.253	9460.09
660.604	9473.2
660.955	9406.76
661.306	9461.67
661.656	9434.33
662.007	9480.88
662.358	9456.7
662.708	9513.2
663.059	9475.68
663.409	9438.4
663.76	9478.62
664.11	9490.15
664.461	9485.63
664.811	9518.39
665.161	9476.81
665.511	9460.32
665.862	9493.31
666.212	9533.53
666.562	9458.73
666.912	9481.78
667.262	9469.81
667.612	9503.25
667.962	9458.28
668.312	9394.78
668.662	9462.8
669.011	9463.93
669.361	9456.47
669.711	9433.88
670.06	9443.37
670.41	9387.55
670.76	9471.16
671.109	9477.04
671.459	9431.39
671.808	9411.73
672.157	9459.41
672.507	9397.27
672.856	9423.26
673.205	9395.91
673.554	9430.03
673.904	9380.32
674.253	9416.48
674.602	9449.02
674.951	9266.65
675.3	9230.27
675.649	9378.28
675.998	9370.15
676.346	9389.36
676.695	9322.01
677.044	9303.94
677.393	9337.16
677.741	9373.54
678.09	9341
678.438	9311.62
678.787	9274.56
679.135	9240.89
679.484	9166.99
679.832	9227.33
680.181	9182.81
680.529	9258.29
680.877	9187.33
681.225	9162.92
681.573	9220.1
681.922	9157.95
682.27	9123.38
682.618	9097.84
682.966	9120.66
683.314	9172.41
683.661	9090.83
684.009	9042.02
684.357	9034.56
684.705	9044.06
685.053	9037.73
685.4	9039.31
685.748	8903.72
686.095	8904.4
686.443	8914.57
686.79	8863.27
687.138	8863.5
687.485	8913.44
687.832	8820.33
688.18	8798.86
688.527	8782.82
688.874	8747.79
689.221	8720.45
689.568	8704.86
689.915	8721.8
690.262	8668.47
690.609	8617.85
690.956	8597.51
691.303	8600.23
691.65	8538.98
691.997	8618.53
692.344	8549.15
692.69	8501.7
693.037	8491.75
693.383	8447.46
693.73	8471.19
694.077	8416.05
694.423	8347.13
694.769	8325.88
695.116	8306
695.462	8289.5
695.808	8284.53
696.155	8264.19
696.501	8164.08
696.847	8106.68
697.193	8101.26
697.539	8160.01
697.885	8059.9
698.231	8024.87
698.577	7999.34
698.923	8041.82
699.269	7964.31
699.614	7881.15
699.96	7931.54
700.306	7903.3
700.651	7878.44
700.997	7802.73
701.342	7774.94
701.688	7808.38
702.033	7732.23
702.379	7724.77
702.724	7686.8
703.069	7715.28
703.415	7629.86
703.76	7620.36
704.105	7594.6
704.45	7517.32
704.795	7556.19
705.14	7475.51
705.485	7482.52
705.83	7391.9
706.175	7398
706.52	7362.07
706.865	7369.3
707.209	7337.89
707.554	7339.47
707.899	7329.52
708.243	7321.39
708.588	7293.82
708.932	7232.35
709.277	7203.43
709.621	7239.13
709.966	7188.96
710.31	7182.64
710.654	7160.72
710.998	7165.46
711.342	7143.77
711.687	7098.12
712.031	7075.07
712.375	7048.85
712.719	7067.61
713.063	7098.57
713.407	7022.87
713.75	7058.57
714.094	7012.47
714.438	6985.58
714.782	6953.49
715.125	6921.85
715.469	6959.82
715.812	6905.36
716.156	6866.71
716.499	6908.29
716.843	6860.84
717.186	6855.41
717.53	6938.12
717.873	6895.19
718.216	6878.24
718.559	6866.71
718.902	6789.88
719.246	6830.78
719.589	6860.84
719.932	6758.69
720.275	6777.9
720.617	6804.34
720.96	6810.89
721.303	6801.18
721.646	6791.46
721.989	6735.87
722.331	6736.32
722.674	6781.06
723.016	6746.94
723.359	6721.86
723.701	6681.86
724.044	6738.35
724.386	6674.4
724.729	6756.88
725.071	6723.44
725.413	6735.64
725.755	6640.96
726.097	6684.12
726.439	6668.3
726.782	6633.95
727.124	6703.55
727.465	6699.48
727.807	6651.12
728.149	6711.69
728.491	6633.72
728.833	6701.97
729.175	6617.91
729.516	6639.37
729.858	6639.15
730.199	6629.88
730.541	6609.32
730.882	6608.19
731.224	6680.28
731.565	6619.49
731.906	6630.79
732.248	6605.93
732.589	6540.39
732.93	6588.08
733.271	6610.67
733.612	6663.78
733.953	6637.57
734.294	6648.19
734.635	6626.27
734.976	6686.83
735.317	6638.02
735.658	6637.11
735.999	6632.37
736.339	6609.77
736.68	6620.16
737.021	6648.19
737.361	6647.51
737.702	6625.14
738.042	6682.08
738.383	6625.59
738.723	6671.24
739.063	6645.47
739.404	6658.36
739.744	6722.76
740.084	6676.89
740.424	6661.29
740.764	6668.98
741.104	6770.44
741.444	6730.44
741.784	6690.9
742.124	6821.52
742.464	6801.63
742.804	6810.44
743.143	6798.47
743.483	6796.88
743.823	6841.63
744.162	6881.85
744.502	6906.49
744.841	6902.64
745.181	6962.98
745.52	6967.95
745.86	7009.31
746.199	7003.21
746.538	7079.14
746.877	7092.02
747.216	7132.47
747.556	7257.44
747.895	7198.68
748.234	7251.79
748.573	7309.64
748.911	7375.63
749.25	7449.52
749.589	7492.68
749.928	7563.87
750.267	7587.37
750.605	7670.76
750.944	7736.97
751.283	7807.7
751.621	7880.7
751.96	7885.22
752.298	8053.12
752.636	8155.04
752.975	8160.69
753.313	8242.04
753.651	8407.01
753.989	8513.67
754.327	8627.12
754.666	8671.41
755.004	8852.42
755.342	8934.45
755.679	9078.18
756.017	9128.12
756.355	9360.43
756.693	9402.92
757.031	9644.94
757.368	9668.22
757.706	9831.61
758.044	9997.93
758.381	10181.43
758.719	10311.82
759.056	10465.04
759.394	10591.81
759.731	10619.83
760.068	10795.2
760.405	10992.93
760.743	11106.15
761.08	11363.99
761.417	11500.71
761.754	11738.45
762.091	11900.25
762.428	12065.45
762.765	12111.77
763.102	12469.73
763.438	12479.22
763.775	12662.04
764.112	12907.91
764.449	13053.89
764.785	13211.4
765.122	13414.11
765.458	13431.96
765.795	13743.14
766.131	13881.89
766.467	14007.99
766.804	14140.19
767.14	14189.68
767.476	14404.37
767.812	14524.59
768.148	14700.18
768.485	14823.34
768.821	14868.08
769.157	15131.35
769.492	15123.44
769.828	15383.32
770.164	15386.26
770.5	15582.42
770.836	15694.73
771.171	15766.59
771.507	15906.25
771.842	15968.62
772.178	16092.91
772.513	16170.42
772.849	16285.9
773.184	16349.17
773.519	16431.21
773.855	16548.49
774.19	16558.89
774.525	16661.71
774.86	16943.28
775.195	16892.44
775.53	16961.59
775.865	17005.2
776.2	17014.24
776.535	16975.37
776.87	17182.83
777.205	17188.7
777.539	17163.39
777.874	17255.37
778.209	17270.96
778.543	17362.03
778.878	17301.92
779.212	17421.46
779.547	17429.15
779.881	17552.76
780.215	17486.55
780.55	17553.44
780.884	17548.01
781.218	17574.23
781.552	17634.79
781.886	17657.84
782.22	17674.79
782.554	17711.17
782.888	17573.55
783.222	17537.17
783.556	17477.73
783.889	17545.08
784.223	17510.5
784.557	17500.56
784.89	17606.77
785.224	17480.44
785.557	17487
785.891	17487.22
786.224	17541.23
786.558	17594.57
786.891	17457.39
787.224	17479.77
787.557	17510.05
787.891	17398.41
788.224	17539.65
788.557	17397.51
788.89	17427.79
789.223	17462.14
789.556	17365.19
789.888	17416.04
790.221	17265.76
790.554	17183.05
790.887	17196.61
791.219	17191.41
791.552	17170.17
791.884	17165.88
792.217	17141.02
792.549	17166.33
792.882	16990.29
793.214	17042.94
793.546	17103.51
793.879	16991.19
794.211	16908.48
794.543	17044.07
794.875	16940.12
795.207	16983.73
795.539	16879.78
795.871	16895.83
796.203	16824.42
796.535	16712.55
796.867	16659.22
797.198	16742.16
797.53	16748.26
797.862	16646.34
798.193	16637.98
798.525	16628.49
798.856	16540.81
799.188	16502.16
799.519	16377.2
799.85	16391.21
800.182	16336.52
800.513	16379.68
800.844	16213.36
801.175	16336.75
801.506	16270.98
801.837	16244.77
802.168	16176.75
802.499	16189.18
802.83	16073.02
803.161	16006.36
803.491	16052.69
803.822	16110.76
804.153	16020.6
804.483	15901.5
804.814	15843.65
805.145	15819.92
805.475	15865.57
805.805	15763.2
806.136	15776.53
806.466	15775.63
806.796	15705.35
807.126	15568.86
807.457	15591.68
807.787	15532.47
808.117	15570.89
808.447	15502.64
808.777	15518.01
809.107	15478.69
809.436	15477.11
809.766	15367.28
810.096	15321.18
810.426	15312.14
810.755	15320.28
811.085	15290.67
811.414	15223.33
811.744	15198.92
812.073	15201.86
812.403	15154.86
812.732	15048.87
813.061	15085.25
813.39	15054.52
813.719	15088.87
814.049	15058.59
814.378	15033.05
814.707	15016.55
815.036	14923.68
815.365	14903.34
815.693	14778.82
816.022	14818.14
816.351	14821.76
816.68	14700.86
817.008	14762.78
817.337	14726.17
817.665	14651.82
817.994	14725.94
818.322	14652.5
818.651	14648.43
818.979	14482.11
819.307	14582.44
819.636	14566.17
819.964	14461.54
820.292	14560.07
820.62	14527.53
820.948	14477.13
821.276	14560.07
821.604	14410.24
821.932	14545.15
822.259	14539.96
822.587	14480.52
822.915	14422.22
823.243	14402.11
823.57	14477.59
823.898	14440.98
824.225	14340.19
824.553	14377.7
824.88	14436
825.207	14510.13
825.535	14362.56
825.862	14507.42
826.189	14314.88
826.516	14481.43
826.843	14457.47
827.17	14384.03
827.497	14462.67
827.824	14571.14
828.151	14526.85
828.478	14465.61
828.805	14553.52
829.131	14419.73
829.458	14339.74
829.785	14421.54
830.111	14473.74
830.438	14506.74
830.764	14484.36
831.09	14468.09
831.417	14415.89
831.743	14494.08
832.069	14474.2
832.395	14396.01
832.722	14421.54
833.048	14331.37
833.374	14367.08
833.7	14294.31
834.026	14362.79
834.351	14425.38
834.677	14445.5
835.003	14365.5
835.329	14398.27
835.654	14377.7
835.98	14256.8
836.306	14329.57
836.631	14301.77
836.956	14325.5
837.282	14284.6
837.607	14228.1
837.932	14142.9
838.258	14224.03
838.583	14162.79
838.908	14071.27
839.233	14151.27
839.558	14024.49
839.883	14076.24
840.208	14115.79
840.533	14060.2
840.858	13913.08
841.182	14029.24
841.507	14053.42
841.832	13870.14
842.156	13855.45
842.481	13810.26
842.805	13861.78
843.13	13819.07
843.454	13779.52
843.778	13708.57
844.103	13720.77
844.427	13584.5
844.751	13712.63
845.075	13615.46
845.399	13509.7
845.723	13525.75
846.047	13562.81
846.371	13410.72
846.695	13436.48
847.019	13326.66
847.343	13232.42
847.666	13215.02
847.99	13111.52
848.313	13202.59
848.637	13131.86
848.96	13045.08
849.284	13039.43
849.607	12885.08
849.931	12899.77
850.254	12848.25
850.577	12737.74
850.9	12653.68
851.223	12613.68
851.546	12621.36
851.869	12523.96
852.192	12568.26
852.515	12452.33
852.838	12448.71
853.161	12453.68
853.483	12326.46
853.806	12353.8
854.129	12341.6
854.451	12202.84
854.774	12172.79
855.096	12188.15
855.419	12034.94
855.741	12075.16
856.063	11984.77
856.385	11994.71
856.708	11889.4
857.03	11905.45
857.352	11992.45
857.674	11837.88
857.996	11839.46
858.318	11777.32
858.64	11801.05
858.961	11679.69
859.283	11743.65
859.605	11634.04
859.926	11674.5
860.248	11555.63
860.57	11579.58
860.891	11686.02
861.212	11577.55
861.534	11505.01
861.855	11382.53
862.176	11432.24
862.498	11494.61
862.819	11457.78
863.14	11373.71
863.461	11325.8
863.782	11274.28
864.103	11332.36
864.424	11348.85
864.745	11285.13
865.065	11194.73
865.386	11047.85
865.707	11169.2
866.027	11156.09
866.348	11143.89
866.668	11188.18
866.989	11076.09
867.309	11007.17
867.63	11099.14
867.95	10978.92
868.27	11032.25
868.59	10989.99
868.91	11020.05
869.23	11029.99
869.55	10951.58
869.87	10911.58
870.19	10875.87
870.51	10917
870.83	10874.74
871.15	10822.09
871.469	10876.1
871.789	10882.43
872.109	10839.26
872.428	10819.15
872.748	10830.22
873.067	10745.71
873.386	10799.04
873.706	10736.89
874.025	10739.6
874.344	10689.66
874.663	10682.66
874.982	10660.51
875.301	10662.54
875.62	10632.26
875.939	10670.45
876.258	10595.88
876.577	10549.33
876.896	10519.5
877.214	10557.01
877.533	10485.83
877.852	10598.82
878.17	10572.83
878.489	10498.93
878.807	10531.25
879.125	10504.58
879.444	10427.3
879.762	10423.45
880.08	10408.77
880.398	10362.44
880.716	10325.38
881.034	10317.24
881.352	10276.79
881.67	10308.88
881.988	10329.22
882.306	10286.28
882.624	10145.95
882.941	10182.78
883.259	10198.38
883.577	10106.17
883.894	10134.87
884.212	10141.65
884.529	10154.08
884.846	10089
885.164	10061.66
885.481	10020.98
885.798	9965.61
886.115	9905.28
886.432	9990.47
886.75	9956.57
887.067	9903.47
887.383	9872.51
887.7	9911.6
888.017	9808.33
888.334	9900.98
888.651	9808.78
888.967	9778.95
889.284	9683.36
889.6	9651.5
889.917	9635.9
890.233	9666.86
890.55	9634.1
890.866	9589.8
891.182	9573.31
891.498	9545.06
891.815	9531.27
892.131	9494.44
892.447	9403.37
892.763	9392.3
893.079	9467.77
893.395	9424.16
893.71	9376.48
894.026	9361.56
894.342	9364.73
894.657	9171.51
894.973	9266.87
895.289	9289.25
895.604	9241.56
895.92	9168.12
896.235	9028.69
896.55	9061
896.865	9084.28
897.181	8965.41
897.496	9007.9
897.811	8962.93
898.126	8900.1
898.441	8914.12
898.756	8845.64
899.071	8740.79
899.386	8826.21
899.7	8729.04
900.015	8686.78
900.33	8614.91
900.644	8674.57
900.959	8670.05
901.273	8556.39
901.588	8580.79
901.902	8519.32
902.216	8519.1
902.531	8472.09
902.845	8460.57
903.159	8403.62
903.473	8332.21
903.787	8358.88
904.101	8315.26
904.415	8324.07
904.729	8302.38
905.042	8221.48
905.356	8193.91
905.67	8178.99
905.984	8192.1
906.297	8090.41
906.611	8045.89
906.924	8074.59
907.237	8044.31
907.551	7962.5
907.864	7885.44
908.177	7869.85
908.491	7886.57
908.804	7801.6
909.117	7812.9
909.43	7727.48
909.743	7621.95
910.056	7647.93
910.368	7606.81
910.681	7612.46
910.994	7654.71
911.307	7542.85
911.619	7490.42
911.932	7533.14
912.244	7446.13
912.557	7420.37
912.869	7402.74
913.181	7378.34
913.494	7380.37
913.806	7226.93
914.118	7285.23
914.43	7176.08
914.742	7186.48
915.054	7178.57
915.366	7184.44
915.678	7138.57
915.99	7122.98
916.302	7098.57
916.613	7058.12
916.925	7025.8
917.236	7036.2
917.548	6997.78
917.859	6957.56
918.171	6923.89
918.482	6877.11
918.794	6874.4
919.105	6831.01
919.416	6806.15
919.727	6781.52
920.038	6802.53
920.349	6726.38
920.66	6671.91
920.971	6685.02
921.282	6650.22
921.593	6615.65
921.903	6621.29
922.214	6560.05
922.525	6524.12
922.835	6548.53
923.146	6454.07
923.456	6432.37
923.767	6384.01
924.077	6404.8
924.387	6386.5
924.697	6379.04
925.008	6386.95
925.318	6305.82
925.628	6282.32
925.938	6287.52
926.248	6208.65
926.558	6177.69
926.867	6167.52
927.177	6171.36
927.487	6141.08
927.796	6087.98
928.106	6063.34
928.416	6053.4
928.725	6003.91
929.034	5963.46
929.344	5977.47
929.653	5945.61
929.962	5891.6
930.271	5873.74
930.581	5891.37
930.89	5816.34
931.199	5828.77
931.508	5797.81
931.817	5778.61
932.125	5775.44
932.434	5735.44
932.743	5745.84
933.051	5709.23
933.36	5689.57
933.669	5666.52
933.977	5647.08
934.286	5604.82
934.594	5570.48
934.902	5537.03
935.21	5491.83
935.519	5513.98
935.827	5472.4
936.135	5475.11
936.443	5376.58
936.751	5416.81
937.059	5439.18
937.367	5361.21
937.674	5334.77
937.982	5334.77
938.29	5232.86
938.597	5287.77
938.905	5237.38
939.213	5257.71
939.52	5214.1
939.827	5203.7
940.135	5170.26
940.442	5123.26
940.749	5146.76
941.056	5160.77
941.363	5086.65
941.67	5062.24
941.977	5086.87
942.284	5016.37
942.591	4948.12
942.898	4948.57
943.205	4966.65
943.511	4968
943.818	4942.92
944.125	4899.76
944.431	4874.22
944.738	4846.88
945.044	4849.59
945.35	4836.48
945.657	4808.24
945.963	4768.24
946.269	4775.92
946.575	4694.34
946.881	4706.99
947.187	4674.68
947.493	4700.89
947.799	4618.64
948.105	4627.67
948.41	4624.51
948.716	4550.16
949.022	4547.9
949.327	4542.93
949.633	4519.2
949.938	4481.69
950.244	4502.03
950.549	4481.46
950.854	4420.67
951.16	4422.71
951.465	4401.01
951.77	4408.02
952.075	4377.96
952.38	4313.33
952.685	4346.55
952.99	4342.03
953.294	4309.94
953.599	4266.78
953.904	4300.45
954.209	4261.81
954.513	4217.52
954.818	4179.78
955.122	4203.28
955.426	4152.89
955.731	4167.35
956.035	4133.9
956.339	4126.22
956.643	4118.99
956.948	4080.57
957.252	4037.63
957.556	4041.02
957.86	4043.51
958.163	4032.89
958.467	4031.98
958.771	3979.56
959.075	3947.47
959.378	3975.04
959.682	3933.68
959.985	3905.66
960.289	3914.25
960.592	3902.27
960.896	3854.14
961.199	3838.09
961.502	3834.93
961.805	3832.44
962.108	3787.47
962.411	3780.47
962.714	3808.49
963.017	3768.04
963.32	3771.2
963.623	3765.78
963.926	3689.85
964.228	3691.43
964.531	3686.23
964.833	3677.87
965.136	3606.23
965.438	3625.89
965.741	3592.67
966.043	3586.35
966.345	3559.91
966.648	3597.87
966.95	3575.27
967.252	3530.53
967.554	3526.69
967.856	3490.3
968.158	3502.28
968.46	3459.8
968.761	3459.8
969.063	3409.4
969.365	3464.32
969.666	3424.54
969.968	3401.27
970.269	3383.64
970.571	3371.66
970.872	3360.59
971.174	3373.02
971.475	3332.12
971.776	3352
972.077	3300.93
972.378	3263.42
972.679	3284.89
972.98	3254.6
973.281	3246.69
973.582	3234.04
973.883	3213.02
974.183	3191.55
974.484	3177.32
974.785	3118.79
975.085	3163.31
975.386	3175.28
975.686	3125.12
975.986	3109.97
976.287	3108.62
976.587	3056.64
976.887	3063.2
977.187	3041.73
977.487	3020.49
977.787	3057.77
978.087	3036.98
978.387	3021.39
978.687	2997.66
978.987	2998.34
979.286	2956.98
979.586	2957.89
979.885	2943.2
980.185	2919.47
980.484	2899.81
980.784	2902.07
981.083	2897.32
981.382	2880.15
981.682	2873.37
981.981	2837.67
982.28	2841.06
982.579	2780.94
982.878	2803.32
983.177	2756.31
983.475	2795.63
983.774	2748.85
984.073	2745.24
984.372	2742.07
984.67	2744.11
984.969	2735.75
985.267	2760.61
985.566	2684.9
985.864	2712.02
986.162	2690.55
986.461	2677.9
986.759	2654.85
987.057	2631.57
987.355	2612.81
987.653	2625.92
987.951	2591.8
988.249	2595.41
988.547	2572.14
988.844	2574.62
989.142	2554.74
989.44	2521.97
989.737	2507.28
990.035	2535.75
990.332	2475.64
990.63	2497.34
990.927	2456.66
991.224	2471.12
991.521	2477.22
991.819	2435.64
992.116	2441.07
992.413	2435.87
992.71	2390.9
993.006	2397.9
993.303	2378.47
993.6	2397
993.897	2364.23
994.193	2363.78
994.49	2360.62
994.787	2326.49
995.083	2336.66
995.379	2294.18
995.676	2295.08
995.972	2293.72
996.268	2261.18
996.565	2269.32
996.861	2271.8
997.157	2223.67
997.453	2228.19
997.749	2239.04
998.044	2206.27
998.34	2193.61
998.636	2187.74
998.932	2232.03
999.227	2199.72
999.523	2179.15
999.818	2127.4
1000.114	2117.68
1000.409	2140.28
1000.704	2126.72
1001	2110.9
1001.295	2061.19
1001.59	2061.87
1001.885	2088.08
1002.18	2072.94
1002.475	2058.7
1002.77	2060.06
1003.065	2053.28
1003.359	2023.22
1003.654	1970.12
1003.949	1995.43
1004.243	2003.79
1004.538	1998.82
1004.832	1977.12
1005.127	1933.73
1005.421	1919.95
1005.715	1918.37
1006.009	1958.37
1006.304	1903.9
1006.598	1888.99
1006.892	1888.31
1007.186	1854.19
1007.48	1895.09
1007.773	1874.75
1008.067	1839.73
1008.361	1846.51
1008.655	1787.98
1008.948	1829.56
1009.242	1825.94
1009.535	1784.13
1009.829	1796.34
1010.122	1795.21
1010.415	1756.79
1010.708	1761.76
1011.001	1736.68
1011.295	1733.97
1011.588	1700.75
1011.881	1693.74
1012.173	1695.32
1012.466	1681.09
1012.759	1686.06
1013.052	1669.56
1013.344	1670.46
1013.637	1656.45
1013.93	1615.1
1014.222	1621.2
1014.514	1620.3
1014.807	1618.71
1015.099	1624.36
1015.391	1605.16
1015.683	1634.99
1015.976	1557.25
1016.268	1572.16
1016.56	1562.44
1016.851	1546.4
1017.143	1539.17
1017.435	1522.45
1017.727	1509.79
1018.018	1498.72
1018.31	1519.51
1018.602	1483.12
1018.893	1481.77
1019.185	1465.27
1019.476	1466.18
1019.767	1453.75
1020.058	1427.99
1020.35	1394.09
1020.641	1430.02
1020.932	1434.09
1021.223	1410.58
1021.514	1406.97
1021.804	1389.57
1022.095	1362.68
1022.386	1371.49
1022.677	1367.65
1022.967	1353.86
1023.258	1323.81
1023.548	1345.05
1023.839	1327.2
1024.129	1335.11
1024.419	1316.35
1024.709	1291.04
1025	1281.77
1025.29	1277.93
1025.58	1274.99
1025.87	1253.53
1026.16	1255.56
1026.449	1277.03
1026.739	1252.62
1027.029	1244.04
1027.319	1219.18
1027.608	1227.31
1027.898	1217.14
1028.187	1221.44
1028.477	1191.38
1028.766	1219.18
1029.055	1180.31
1029.344	1187.54
1029.634	1165.85
1029.923	1165.62
1030.212	1145.28
1030.501	1147.99
1030.79	1140.08
1031.078	1142.57
1031.367	1121.33
1031.656	1119.97
1031.945	1110.71
1032.233	1124.26
1032.522	1097.15
1032.81	1060.99
1033.099	1082.01
1033.387	1075.45
1033.675	1058.5
1033.963	1086.07
1034.251	1070.48
1034.54	1061.22
1034.828	1054.21
1035.116	1023.48
1035.403	1018.73
1035.691	1023.93
1035.979	999.3
1036.267	1013.98
1036.554	1009.01
1036.842	1012.18
1037.129	998.17
1037.417	987.09
1037.704	993.42
1037.992	956.13
1038.279	966.53
1038.566	946.19
1038.853	946.19
1039.14	946.19
