Data from hue_50_FLMS001491_98.txt Node
Date: Mon Feb 06 15:11:22 GMT 2017
User: dcchb
Spectrometer: FLMS00149
Trigger mode: 0
Integration Time (sec): 2.000000E-2
Scans to average: 10
Electric dark correction enabled: true
Nonlinearity correction enabled: false
Boxcar width: 0
XAxis mode: Wavelengths
Number of Pixels in Spectrum: 2048
>>>>>Begin Spectral Data<<<<<
341.393	-14.34
341.776	-14.34
342.16	-14.34
342.543	-44.17
342.927	-65.18
343.31	-51.4
343.693	-71.96
344.077	-61.79
344.46	-60.66
344.843	-64.96
345.226	-43.26
345.61	-15.47
345.993	-5.07
346.376	-25.18
346.759	2.39
347.142	21.6
347.525	36.28
347.908	60.46
348.291	88.26
348.674	89.39
349.057	101.37
349.44	124.42
349.823	122.84
350.206	153.34
350.588	201.25
350.971	210.97
351.354	232.44
351.737	247.35
352.119	228.82
352.502	265.88
352.884	279.44
353.267	291.19
353.65	302.72
354.032	300.46
354.414	302.49
354.797	314.47
355.179	344.52
355.562	309.05
355.944	324.86
356.326	339.55
356.709	334.13
357.091	349.5
357.473	335.49
357.855	350.17
358.238	365.99
358.62	347.01
359.002	363.73
359.384	358.76
359.766	342.94
360.148	342.04
360.53	334.13
360.912	354.69
361.294	326.22
361.676	322.15
362.057	355.82
362.439	335.49
362.821	326.22
363.203	349.27
363.584	345.88
363.966	324.19
364.348	315.83
364.729	325.32
365.111	326.45
365.493	311.08
365.874	323.96
366.256	311.08
366.637	323.73
367.019	330.06
367.4	330.29
367.781	310.4
368.163	328.48
368.544	323.06
368.925	328.71
369.306	311.76
369.688	306.79
370.069	318.76
370.45	305.66
370.831	300.68
371.212	304.53
371.593	335.94
371.974	342.04
372.355	322.83
372.736	325.77
373.117	333.68
373.498	341.14
373.879	348.14
374.26	326.67
374.641	326.67
375.021	311.31
375.402	329.61
375.783	333.68
376.163	336.84
376.544	358.08
376.925	322.6
377.305	330.51
377.686	339.33
378.066	344.75
378.447	336.16
378.827	340.01
379.208	326.9
379.588	330.51
379.968	338.88
380.349	339.55
380.729	340.01
381.109	336.39
381.489	345.88
381.87	323.73
382.25	348.14
382.63	337.75
383.01	338.42
383.39	347.69
383.77	363.96
384.15	342.27
384.53	354.47
384.91	350.17
385.29	356.73
385.67	360.12
386.049	374.81
386.429	346.11
386.809	372.55
387.189	367.12
387.568	353.11
387.948	364.41
388.328	361.7
388.707	377.29
389.087	375.48
389.466	364.41
389.846	365.99
390.225	374.13
390.605	366.9
390.984	389.5
391.363	368.03
391.743	371.42
392.122	383.62
392.501	371.19
392.881	395.37
393.26	363.96
393.639	398.53
394.018	405.99
394.397	379.78
394.776	391.53
395.155	422.26
395.534	401.25
395.913	398.31
396.292	386.33
396.671	395.37
397.05	397.86
397.429	411.87
397.808	402.6
398.186	404.41
398.565	415.71
398.944	395.6
399.323	403.05
399.701	411.87
400.08	410.74
400.458	416.61
400.837	422.49
401.215	413
401.594	408.25
401.972	410.51
402.351	417.74
402.729	417.52
403.107	420
403.486	455.48
403.864	434.01
404.242	425.65
404.62	431.75
404.999	437.86
405.377	431.98
405.755	457.97
406.133	438.76
406.511	426.33
406.889	451.64
407.267	457.52
407.645	444.64
408.023	469.27
408.401	476.5
408.779	438.76
409.156	445.77
409.534	470.85
409.912	465.65
410.29	479.21
410.667	452.54
411.045	471.53
411.422	487.57
411.8	492.32
412.178	500.9
412.555	493.22
412.933	483.28
413.31	490.06
413.687	518.31
414.065	502.94
414.442	497.06
414.819	520.34
415.197	507.46
415.574	529.38
415.951	503.16
416.328	531.86
416.705	530.51
417.082	512.88
417.46	517.4
417.837	545.2
418.214	539.32
418.591	535.03
418.967	557.4
419.344	526.89
419.721	583.61
420.098	559.43
420.475	559.89
420.852	563.73
421.228	572.54
421.605	576.16
421.982	578.64
422.358	575.03
422.735	550.62
423.111	571.41
423.488	595.14
423.864	605.76
424.241	623.61
424.617	620.45
424.994	629.26
425.37	589.04
425.746	610.96
426.123	631.07
426.499	613.9
426.875	639.43
427.251	624.07
427.627	622.48
428.003	638.3
428.379	649.6
428.756	638.98
429.132	654.35
429.507	667.91
429.883	648.92
430.259	684.63
430.635	677.17
431.011	669.04
431.387	687.79
431.763	698.41
432.138	707.23
432.514	710.16
432.89	690.96
433.265	714.91
433.641	728.7
434.016	746.55
434.392	743.84
434.767	746.55
435.143	750.62
435.518	765.76
435.894	755.14
436.269	772.08
436.644	765.3
437.02	774.34
437.395	763.95
437.77	782.48
438.145	780.9
438.52	813.89
438.895	834.46
439.271	817.73
439.646	832.87
440.021	832.87
440.395	824.06
440.77	838.52
441.145	851.63
441.52	838.75
441.895	859.99
442.27	864.06
442.645	828.81
443.019	867.9
443.394	859.09
443.769	895.02
444.143	884.85
444.518	879.65
444.892	896.15
445.267	894.11
445.641	912.42
446.016	923.72
446.39	921.23
446.764	923.49
447.139	923.72
447.513	949.25
447.887	916.49
448.262	934.34
448.636	940.44
449.01	951.97
449.384	984.06
449.758	954.23
450.132	1001.68
450.506	967.33
450.88	970.27
451.254	992.19
451.628	1003.26
452.002	1024.73
452.376	990.84
452.75	1044.17
453.123	1049.14
453.497	1049.59
453.871	1058.18
454.244	1105.41
454.618	1075.13
454.992	1060.89
455.365	1094.11
455.739	1104.96
456.112	1116.93
456.486	1154.9
456.859	1142.24
457.232	1167.1
457.606	1151.06
457.979	1158.97
458.352	1164.16
458.725	1215.69
459.099	1192.86
459.472	1232.41
459.845	1275.12
460.218	1252.52
460.591	1269.92
460.964	1257.04
461.337	1288
461.71	1302.47
462.083	1342.69
462.456	1348.79
462.829	1323.48
463.201	1363.93
463.574	1379.3
463.947	1424.04
464.32	1418.17
464.692	1445.06
465.065	1445.06
465.438	1478.28
465.81	1498.39
466.183	1514.44
466.555	1527.77
466.928	1563.25
467.3	1570.03
467.672	1592.18
468.045	1637.6
468.417	1653.19
468.789	1651.84
469.161	1716.01
469.534	1737.48
469.906	1720.99
470.278	1779.06
470.65	1808.44
471.022	1839.63
471.394	1895.9
471.766	1895.22
472.138	1919.62
472.51	1979.06
472.882	2002.33
473.253	2045.27
473.625	2062.67
473.997	2134.08
474.369	2131.6
474.74	2189
475.112	2233.29
475.484	2288.65
475.855	2387.86
476.227	2404.13
476.598	2474.86
476.97	2479.84
477.341	2583.11
477.713	2613.84
478.084	2651.58
478.455	2767.51
478.827	2802.09
479.198	2918.92
479.569	2945.13
479.94	3046.15
480.311	3126.6
480.682	3178.12
481.053	3312.36
481.424	3353.49
481.795	3423.09
482.166	3529.07
482.537	3612.46
482.908	3729.29
483.279	3775.4
483.65	3878.44
484.021	4044.54
484.391	4111.43
484.762	4153.92
485.133	4263.07
485.503	4409.73
485.874	4560.01
486.244	4661.93
486.615	4742.83
486.985	4850.62
487.356	4967.23
487.726	5113.89
488.097	5269.37
488.467	5332.42
488.837	5468.46
489.207	5607.44
489.578	5754.33
489.948	5842.91
490.318	5990.93
490.688	6105.5
491.058	6298.27
491.428	6456.68
491.798	6477.7
492.168	6721.31
492.538	6851.92
492.908	6910.23
493.278	7136.21
493.648	7201.52
494.017	7403.32
494.387	7447.61
494.757	7622.75
495.126	7861.84
495.496	7848.96
495.866	8055.28
496.235	8168.05
496.605	8359.91
496.974	8434.26
497.344	8628.83
497.713	8749.73
498.082	8842.83
498.452	9022.71
498.821	9187
499.19	9210.73
499.559	9365.76
499.928	9510.39
500.298	9666.99
500.667	9753.99
501.036	9775.46
501.405	9951.73
501.774	10103.82
502.143	10216.13
502.512	10347.2
502.88	10444.37
503.249	10656.12
503.618	10701.99
503.987	10803.23
504.356	10905.6
504.724	11029.89
505.093	11191.7
505.462	11240.96
505.83	11398.25
506.199	11481.63
506.567	11666.26
506.936	11678.92
507.304	11869.87
507.672	12007.27
508.041	12156.64
508.409	12267.38
508.777	12416.3
509.145	12492.45
509.514	12602.06
509.882	12753.92
510.25	12749.4
510.618	12898.09
510.986	13006.79
511.354	13121.14
511.722	13311.19
512.09	13426.44
512.458	13420.57
512.826	13518.87
513.193	13687.45
513.561	13730.61
513.929	13918.63
514.297	14045.86
514.664	14141.45
515.032	14184.84
515.4	14430.71
515.767	14491.95
516.135	14545.51
516.502	14576.92
516.869	14832.05
517.237	14942.79
517.604	14860.3
517.972	15128.54
518.339	15176.23
518.706	15377.12
519.073	15327.63
519.44	15539.15
519.808	15704.35
520.175	15672.94
520.542	15896.66
520.909	15942.31
521.276	16130.32
521.643	16226.82
522.009	16349.53
522.376	16313.6
522.743	16539.58
523.11	16692.8
523.477	16818.22
523.843	16982.28
524.21	17184.08
524.577	17248.94
524.943	17404.87
525.31	17450.74
525.676	17632.88
526.043	17727.34
526.409	17849.6
526.776	17980.67
527.142	18096.37
527.508	18180.21
527.874	18405.29
528.241	18457.27
528.607	18478.51
528.973	18766.64
529.339	18646.19
529.705	18961.44
530.071	18978.39
530.437	19144.03
530.803	19147.87
531.169	19293.18
531.535	19369.11
531.901	19520.52
532.267	19551.03
532.632	19743.11
532.998	19732.72
533.364	19904.46
533.73	20019.49
534.095	20174.96
534.461	20172.25
534.826	20322.3
535.192	20292.93
535.557	20538.8
535.923	20546.48
536.288	20610.66
536.653	20779.47
537.019	20619.7
537.384	20772.69
537.749	20900.82
538.114	20966.81
538.479	20925.68
538.845	21186.46
539.21	21057.65
539.575	21217.42
539.94	21388.04
540.305	21435.04
540.67	21640.69
541.034	21573.35
541.399	21682.49
541.764	21719.78
542.129	21854.02
542.494	21817.41
542.858	22019.21
543.223	22062.15
543.587	22169.71
543.952	22166.1
544.316	22268.69
544.681	22258.07
545.045	22338.3
545.41	22537.39
545.774	22515.69
546.138	22536.71
546.503	22527.9
546.867	22675.01
547.231	22950.71
547.595	22950.94
547.959	23046.07
548.324	23079.52
548.688	23176.92
549.052	23206.52
549.416	23180.99
549.779	23374.2
550.143	23477.7
550.507	23682.22
550.871	23472.05
551.235	23565.16
551.599	23884.7
551.962	23892.61
552.326	23921.53
552.689	24092.15
553.053	23957.24
553.417	24140.96
553.78	24305.7
554.143	24341.41
554.507	24472.48
554.87	24584.34
555.234	24676.77
555.597	24721.51
555.96	24819.59
556.323	24877.89
556.686	24936.19
557.05	25071.33
557.413	25064.33
557.776	25145.23
558.139	25270.65
558.502	25404.43
558.865	25414.6
559.228	25622.5
559.59	25696.85
559.953	25713.35
560.316	26060.91
560.679	25983.4
561.041	26198.08
561.404	26290.06
561.767	26436.04
562.129	26424.97
562.492	26639.43
562.854	26523.72
563.217	26666.77
563.579	26779.76
563.941	27064.73
564.304	27044.61
564.666	27285.96
565.028	27320.76
565.39	27395.56
565.753	27645.5
566.115	27690.47
566.477	27861.54
566.839	27783.13
567.201	28017.47
567.563	27974.76
567.925	28259.95
568.287	28200.74
568.648	28349.89
569.01	28366.84
569.372	28645.48
569.734	28533.61
570.095	28764.79
570.457	28744.46
570.819	28907.16
571.18	29062.19
571.542	29158.23
571.903	29143.09
572.265	29385.34
572.626	29453.59
572.987	29445.68
573.349	29459.24
573.71	29699.23
574.071	29881.15
574.432	29923.18
574.794	30114.14
575.155	30074.82
575.516	29977.64
575.877	30300.12
576.238	30403.85
576.599	30566.78
576.96	30634.8
577.32	30695.59
577.681	30843.16
578.042	31020.33
578.403	30955.92
578.763	31160.44
579.124	31293.09
579.485	31395.01
579.845	31679.97
580.206	31390.26
580.566	31561.78
580.927	31688.79
581.287	31879.06
581.648	31905.73
582.008	32081.54
582.368	32096.46
582.728	32292.39
583.089	32229.79
583.449	32355.89
583.809	32531.25
584.169	32611.02
584.529	32544.81
584.889	32928.98
585.249	32779.38
585.609	32936.66
585.969	33200.84
586.329	33130.78
586.688	33321.51
587.048	33371.91
587.408	33404.45
587.768	33469.53
588.127	33593.14
588.487	33708.39
588.846	34105.9
589.206	33906.58
589.565	33956.52
589.925	34231.32
590.284	34183.41
590.643	34254.14
591.003	34570.29
591.362	34719.89
591.721	34589.95
592.08	34830.85
592.44	34988.36
592.799	35067.91
593.158	35183.83
593.517	35104.06
593.876	35250.73
594.235	35381.8
594.593	35407.56
594.952	35674.22
595.311	35485.75
595.67	35703.14
596.029	35986.98
596.387	35973.87
596.746	36216.8
597.104	36068.78
597.463	36074.88
597.822	36312.39
598.18	36254.54
598.538	36325.95
598.897	36617.24
599.255	36365.95
599.613	37005.03
599.972	36884.58
600.33	36904.24
600.688	36864.24
601.046	37038.02
601.404	37281.63
601.762	37297.68
602.12	37559.14
602.478	37507.39
602.836	37491.34
603.194	37484.11
603.552	37541.96
603.91	37490.89
604.268	37821.28
604.625	37690.44
604.983	37940.15
605.341	37905.12
605.698	38046.58
606.056	38199.57
606.413	38182.63
606.771	38392.79
607.128	38399.57
607.485	38359.8
607.843	38404.54
608.2	38561.15
608.557	38863.29
608.914	38611.54
609.272	38814.7
609.629	38948.03
609.986	39049.72
610.343	39175.14
610.7	39363.16
611.057	39335.82
611.414	39413.33
611.771	39407.68
612.127	39656.26
612.484	39631.18
612.841	39804.96
613.198	39655.13
613.554	39756.14
613.911	39937.38
614.267	40038.17
614.624	39887.67
614.98	40079.98
615.337	40298.95
615.693	40180.54
616.05	40307.32
616.406	40493.3
616.762	40414.21
617.118	40438.16
617.475	40475.45
617.831	40798.15
618.187	40726.74
618.543	40850.58
618.899	40892.39
619.255	40975.55
619.611	40975.77
619.967	41076.34
620.323	41056.9
620.678	40938.03
621.034	40941.88
621.39	40998.37
621.746	41045.6
622.101	41469.77
622.457	41181.64
622.812	41211.25
623.168	41349.32
623.523	41299.61
623.879	41402.2
624.234	41169.89
624.589	41455.53
624.945	41514.97
625.3	41470.68
625.655	41600.39
626.01	41507.28
626.365	41687.84
626.72	41607.17
627.075	41444.91
627.43	41654.4
627.785	41580.28
628.14	41645.81
628.495	41624.34
628.85	41664.12
629.205	41545.7
629.559	41694.17
629.914	41635.87
630.269	41773.04
630.623	41600.39
630.978	41476.55
631.332	41777.33
631.687	41867.05
632.041	41620.05
632.396	41733.04
632.75	41600.84
633.104	41629.32
633.459	41561.52
633.813	41588.41
634.167	41552.03
634.521	41488.98
634.875	41656.66
635.229	41521.97
635.583	41413.28
635.937	41316.1
636.291	41293.96
636.645	41413.73
636.999	41213.05
637.352	41448.98
637.706	41232.94
638.06	41362.43
638.413	41217.57
638.767	41061.19
639.121	41309.32
639.474	40928.09
639.828	41026.84
640.181	41181.19
640.534	41071.36
640.888	41009.22
641.241	40837.02
641.594	40822.56
641.947	41058.71
642.301	40904.36
642.654	40919.05
643.007	40880.41
643.36	40965.38
643.713	40877.24
644.066	40917.47
644.419	40563.35
644.771	40557.93
645.124	40078.4
645.477	40068.9
645.83	39787.1
646.182	39795.46
646.535	39490.39
646.888	39662.36
647.24	39507.79
647.593	39685.64
647.945	39535.36
648.298	39501.24
648.65	39382.37
649.002	39106.9
649.355	39411.52
649.707	39327.91
650.059	39441.12
650.411	40059.64
650.763	39983.26
651.115	40378.5
651.467	40215.11
651.819	40252.4
652.171	40213.76
652.523	40119.3
652.875	40142.8
653.227	39900.77
653.578	40192.06
653.93	40200.88
654.282	39914.33
654.633	39819.42
654.985	39823.71
655.337	39988
655.688	40039.53
656.039	40043.37
656.391	39833.88
656.742	39769.7
657.094	39897.38
657.445	39983.71
657.796	39861.23
658.147	39630.05
658.498	39651.74
658.849	39751.62
659.2	39610.16
659.551	39656.49
659.902	39707.11
660.253	39745.3
660.604	39713.43
660.955	39591.85
661.306	39548.69
661.656	39736.03
662.007	39596.6
662.358	39688.12
662.708	39678.63
663.059	39669.37
663.409	39339.88
663.76	39709.14
664.11	39611.06
664.461	39593.44
664.811	39578.52
665.161	39510.95
665.511	39391.18
665.862	39465.76
666.212	39659.2
666.562	39619.88
666.912	39518.86
667.262	39560.67
667.612	39483.83
667.962	39625.98
668.312	39385.98
668.662	39643.6
669.011	39418.98
669.361	39416.27
669.711	39477.96
670.06	39391.63
670.41	39292.88
670.76	39316.83
671.109	39371.3
671.459	39443.61
671.808	39132.88
672.157	39349.83
672.507	39166.78
672.856	39131.3
673.205	39099.21
673.554	39196.84
673.904	39070.96
674.253	39364.29
674.602	39183.73
674.951	38489.28
675.3	38406.57
675.649	38978.31
675.998	38916.17
676.346	38986.22
676.695	39136.05
677.044	38871.65
677.393	38890.86
677.741	39024.19
678.09	38930.4
678.438	38795.04
678.787	38853.12
679.135	38892.21
679.484	38568.38
679.832	38762.5
680.181	38602.5
680.529	38715.95
680.877	38529.28
681.225	38512.56
681.573	38843.85
681.922	38538.77
682.27	38256.97
682.618	38387.59
682.966	38335.16
683.314	38420.36
683.661	38207.94
684.009	38041.16
684.357	38176.52
684.705	37930.88
685.053	38067.15
685.4	38009.98
685.748	37771.11
686.095	37795.97
686.443	37609.99
686.79	37642.98
687.138	37602.3
687.485	37680.04
687.832	37548.29
688.18	37449.99
688.527	37336.77
688.874	37301.07
689.221	37208.41
689.568	37172.71
689.915	37171.58
690.262	37057.23
690.609	36789.67
690.956	36812.72
691.303	36794.64
691.65	36535.66
691.997	36547.41
692.344	36410.7
692.69	36405.05
693.037	36371.15
693.383	36150.14
693.73	36287.31
694.077	36085.28
694.423	36069.69
694.769	36095
695.116	35913.99
695.462	35872.63
695.808	35727.78
696.155	35673.77
696.501	35506.76
696.847	35537.72
697.193	35327.79
697.539	35342.93
697.885	35100.22
698.231	35194.23
698.577	35102.71
698.923	35046.66
699.269	34830.17
699.614	34717.63
699.96	34605.77
700.306	34567.58
700.651	34394.93
700.997	34295.27
701.342	34390.64
701.688	34217.98
702.033	34074.94
702.379	34103.19
702.724	34138.21
703.069	34069.06
703.415	33780.03
703.76	33794.94
704.105	33858.22
704.45	33682.41
704.795	33469.08
705.14	33394.96
705.485	33387.95
705.83	33147.28
706.175	33281.06
706.52	33032.93
706.865	33054.63
707.209	33014.17
707.554	32747.29
707.899	32834.74
708.243	32790.45
708.588	32784.58
708.932	32601.3
709.277	32521.31
709.621	32436.34
709.966	32324.47
710.31	32487.86
710.654	32139.62
710.998	32150.92
711.342	32124.93
711.687	32026.86
712.031	31862.57
712.375	31780.31
712.719	31852.62
713.063	31823.02
713.407	31832.74
713.75	31721.1
714.094	31636.36
714.438	31508.23
714.782	31654.44
715.125	31420.09
715.469	31448.79
715.812	31359.53
716.156	31170.38
716.499	31344.39
716.843	31135.58
717.186	31086.77
717.53	31096.71
717.873	31211.28
718.216	31120.66
718.559	30952.76
718.902	30710.96
719.246	30751.86
719.589	30707.79
719.932	30524.97
720.275	30478.42
720.617	30514.58
720.96	30582.6
721.303	30366.56
721.646	30526.1
721.989	30116.62
722.331	30301.7
722.674	30162.05
723.016	30258.31
723.359	30107.36
723.701	30162.5
724.044	30023.97
724.386	29677.54
724.729	29940.81
725.071	29757.31
725.413	29852
725.755	29871.66
726.097	29641.38
726.439	29499.24
726.782	29570.2
727.124	29713.47
727.465	29454.72
727.807	29450.88
728.149	29369.3
728.491	29334.95
728.833	29395.06
729.175	29253.6
729.516	29185.57
729.858	29084.11
730.199	29056.09
730.541	29044.34
730.882	29142.19
731.224	29069.42
731.565	28971.57
731.906	28927.95
732.248	28922.76
732.589	28881.85
732.93	28722.76
733.271	28714.17
733.612	28648.87
733.953	28828.3
734.294	28677.11
734.635	28526.38
734.976	28666.49
735.317	28435.31
735.658	28425.59
735.999	28446.16
736.339	28480.28
736.68	28483.22
737.021	28467.63
737.361	28311.47
737.702	28365.26
738.042	28275.99
738.383	28197.35
738.723	28323
739.063	28123.46
739.404	28123.46
739.744	28158.03
740.084	27922.56
740.424	28100.86
740.764	27982.22
741.104	27923.01
741.444	27754.43
741.784	27754.2
742.124	27740.19
742.464	27725.73
742.804	27612.73
743.143	27643.92
743.483	27589.01
743.823	27523.02
744.162	27520.76
744.502	27461.55
744.841	27334.1
745.181	27504.26
745.52	27342.01
745.86	27323.25
746.199	27346.75
746.538	27247.32
746.877	27369.8
747.216	27242.12
747.556	27124.84
747.895	27129.13
748.234	27002.13
748.573	26978.63
748.911	26892.98
749.25	26935.92
749.589	26750.16
749.928	26798.52
750.267	26828.57
750.605	26786.54
750.944	26621.8
751.283	26629.48
751.621	26637.62
751.96	26497.74
752.298	26440.79
752.636	26469.94
752.975	26340.23
753.313	26229.27
753.651	26412.99
753.989	26203.73
754.327	26144.3
754.666	26044.64
755.004	26133.45
755.342	26119.21
755.679	25932.33
756.017	25862.5
756.355	25880.12
756.693	25740.02
757.031	25846.23
757.368	25562.17
757.706	25696.17
758.044	25590.41
758.381	25517.87
758.719	25475.62
759.056	25462.96
759.394	25352.23
759.731	25178.22
760.068	25262.97
760.405	25087.83
760.743	24971.45
761.08	24972.8
761.417	24899.59
761.754	24862.07
762.091	24904.11
762.428	24600.16
762.765	24564.9
763.102	24646.71
763.438	24559.93
763.775	24411.46
764.112	24336.21
764.449	24392.93
764.785	24256.66
765.122	24056.67
765.458	23962.66
765.795	23975.32
766.131	23990.23
766.467	23844.7
766.804	23732.84
767.14	23601.09
767.476	23698.94
767.812	23426.18
768.148	23554.76
768.485	23373.75
768.821	23353.64
769.157	23247.2
769.492	23354.77
769.828	23166.07
770.164	23032.29
770.5	22961.78
770.836	22868.9
771.171	22875.91
771.507	22778.96
771.842	22606.09
772.178	22602.02
772.513	22542.81
772.849	22416.94
773.184	22255.81
773.519	22248.36
773.855	22081.13
774.19	22077.29
774.525	21947.8
774.86	22003.16
775.195	21939.44
775.53	21921.81
775.865	21689.95
776.2	21581.93
776.535	21473.46
776.87	21485.44
777.205	21377.42
777.539	21337.87
777.874	21275.95
778.209	21321.6
778.543	21045.68
778.878	20934.72
779.212	20916.64
779.547	20823.76
779.881	20818.11
780.215	20697.89
780.55	20751.45
780.884	20565.46
781.218	20509.64
781.552	20468.52
781.886	20248.41
782.22	20264.91
782.554	20212.7
782.888	19959.38
783.222	19942.43
783.556	19937.91
783.889	19894.07
784.223	19752.38
784.557	19619.5
784.89	19774.3
785.224	19674.64
785.557	19460.86
785.891	19473.51
786.224	19333.63
786.558	19406.4
786.891	19200.3
787.224	19142.9
787.557	19169.57
787.891	19060.19
788.224	19051.15
788.557	18948.78
788.89	18953.98
789.223	18802.34
789.556	18745.85
789.888	18694.1
790.221	18659.52
790.554	18490.04
790.887	18489.81
791.219	18495.91
791.552	18358.06
791.884	18312.41
792.217	18184.73
792.549	18118.29
792.882	18020.22
793.214	17950.84
793.546	18063.38
793.879	17864.06
794.211	17769.15
794.543	17873.78
794.875	17744.07
795.207	17780.68
795.539	17670.85
795.871	17624.97
796.203	17498.65
796.535	17356.05
796.867	17394.7
797.198	17271.31
797.53	17373
797.862	17194.93
798.193	17166.91
798.525	17085.1
798.856	17131.2
799.188	16886.46
799.519	16873.36
799.85	16829.52
800.182	16928.5
800.513	16825.45
800.844	16629.29
801.175	16770.76
801.506	16684.21
801.837	16578.22
802.168	16557.43
802.499	16423.2
802.83	16315.4
803.161	16335.06
803.491	16361.5
803.822	16384.78
804.153	16156.09
804.483	16159.02
804.814	16094.62
805.145	16127.84
805.475	15966.49
805.805	15940.27
806.136	15932.14
806.466	16037.67
806.796	15852.82
807.126	15838.35
807.457	15733.72
807.787	15748.19
808.117	15590.45
808.447	15561.07
808.777	15613.73
809.107	15613.5
809.436	15500.96
809.766	15478.59
810.096	15402.21
810.426	15414.64
810.755	15330.35
811.085	15273.4
811.414	15291.7
811.744	15118.15
812.073	15220.74
812.403	15167.64
812.732	15062.1
813.061	15087.64
813.39	14943.24
813.719	14948.89
814.049	14982.33
814.378	14917.7
814.707	14769
815.036	14834.09
815.365	14713.86
815.693	14627.31
816.022	14680.87
816.351	14644.94
816.68	14438.39
817.008	14518.39
817.337	14431.39
817.665	14401.33
817.994	14446.53
818.322	14420.31
818.651	14356.59
818.979	14315.23
819.307	14326.08
819.636	14226.19
819.964	14169.02
820.292	14271.39
820.62	14243.82
820.948	14221.67
821.276	14112.98
821.604	14145.29
821.932	14291.5
822.259	14195.23
822.587	14122.47
822.915	14105.97
823.243	14221.9
823.57	14092.86
823.898	14145.52
824.225	14048.57
824.553	14039.08
824.88	14128.8
825.207	14171.73
825.535	14115.91
825.862	14128.8
826.189	14033.2
826.516	14088.8
826.843	14151.17
827.17	14170.6
827.497	14144.16
827.824	14143.71
828.151	14100.55
828.478	14110.04
828.805	14142.81
829.131	14101.45
829.458	14060.55
829.785	13992.53
830.111	13995.24
830.438	14065.97
830.764	14076.59
831.09	14123.6
831.417	13943.26
831.743	14033.43
832.069	14023.94
832.395	13950.04
832.722	13981
833.048	13958.86
833.374	13974.9
833.7	13914.56
834.026	13899.42
834.351	13972.42
834.677	13895.81
835.003	13856.49
835.329	13936.71
835.654	13894
835.98	13796.15
836.306	13792.08
836.631	13750.27
836.956	13823.04
837.282	13783.04
837.607	13791.18
837.932	13745.98
838.258	13633.44
838.583	13687
838.908	13577.17
839.233	13656.27
839.558	13582.82
839.883	13528.13
840.208	13492.88
840.533	13457.17
840.858	13440.9
841.182	13522.94
841.507	13409.94
841.832	13418.98
842.156	13383.96
842.481	13301.7
842.805	13349.15
843.13	13280.23
843.454	13269.16
843.778	13207.69
844.103	13209.72
844.427	13153.45
844.751	13197.52
845.075	13061.48
845.399	13070.29
845.723	13006.79
846.047	12973.35
846.371	12979.22
846.695	12909.62
847.019	12793.46
847.343	12829.62
847.666	12583.07
847.99	12599.8
848.313	12687.7
848.637	12479.8
848.96	12525.45
849.284	12496.52
849.607	12425.11
849.931	12336.53
850.254	12356.86
850.577	12291.1
850.9	12116.19
851.223	12206.13
851.546	12116.64
851.869	11986.25
852.192	12047.95
852.515	11914.16
852.838	11879.36
853.161	11944.45
853.483	11861.06
853.806	11782.64
854.129	11823.32
854.451	11662.42
854.774	11668.07
855.096	11578.58
855.419	11576.09
855.741	11569.99
856.063	11505.36
856.385	11471.24
856.708	11435.53
857.03	11445.02
857.352	11429.21
857.674	11311.92
857.996	11374.29
858.318	11297.46
858.64	11315.31
858.961	11159.16
859.283	11230.79
859.605	11131.36
859.926	11135.65
860.248	11115.99
860.57	11081.42
860.891	11075.77
861.212	11034.64
861.534	11013.62
861.855	11002.78
862.176	10999.16
862.498	10988.54
862.819	10939.27
863.14	10938.37
863.461	10871.48
863.782	10869.9
864.103	10796.23
864.424	10792.84
864.745	10804.36
865.065	10793.06
865.386	10717.13
865.707	10718.94
866.027	10743.12
866.348	10641.2
866.668	10721.88
866.989	10704.7
867.309	10563.24
867.63	10573.86
867.95	10579.74
868.27	10535.22
868.59	10532.96
868.91	10531.83
869.23	10453.19
869.55	10406.63
869.87	10486.63
870.19	10408.44
870.51	10446.18
870.83	10435.56
871.15	10333.41
871.469	10373.87
871.789	10376.13
872.109	10367.54
872.428	10382.68
872.748	10271.72
873.067	10277.37
873.386	10370.7
873.706	10210.48
874.025	10140.2
874.344	10193.76
874.663	10247.09
874.982	10178.39
875.301	10161.89
875.62	10129.13
875.939	10088.68
876.258	10096.58
876.577	10091.61
876.896	10036.25
877.214	10024.04
877.533	9998.06
877.852	10017.26
878.17	9988.79
878.489	10055.23
878.807	9961.45
879.125	9964.61
879.444	9923.48
879.762	9980.2
880.08	9951.5
880.398	9848
880.716	9869.25
881.034	9841.68
881.352	9798.74
881.67	9852.75
881.988	9896.82
882.306	9800.55
882.624	9731.62
882.941	9724.17
883.259	9701.57
883.577	9679.19
883.894	9719.42
884.212	9682.13
884.529	9586.99
884.846	9607.33
885.164	9566.2
885.481	9594.9
885.798	9524.85
886.115	9499.09
886.432	9525.75
886.75	9477.39
887.067	9438.3
887.383	9440.1
887.7	9388.81
888.017	9384.51
888.334	9385.87
888.651	9347.68
888.967	9320.79
889.284	9239.88
889.6	9221.35
889.917	9153.56
890.233	9167.12
890.55	9123.28
890.866	9147.46
891.182	9114.24
891.498	9060.91
891.815	9064.52
892.131	9005.99
892.447	9047.12
892.763	9005.54
893.079	9001.47
893.395	8965.09
893.71	8884.64
894.026	8937.75
894.342	8852.32
894.657	8854.81
894.973	8810.06
895.289	8768.03
895.604	8749.95
895.92	8700.24
896.235	8675.38
896.55	8707.69
896.865	8691.65
897.181	8684.42
897.496	8596.74
897.811	8532.78
898.126	8473.35
898.441	8495.04
898.756	8467.25
899.071	8482.62
899.386	8441.49
899.7	8365.56
900.015	8342.28
900.33	8313.58
900.644	8319
900.959	8289.4
901.273	8318.1
901.588	8219.8
901.902	8174.38
902.216	8110.65
902.531	8194.94
902.845	8132.12
903.159	8137.54
903.473	8041.05
903.787	7993.36
904.101	7948.62
904.415	7947.49
904.729	7950.65
905.042	7856.87
905.356	7808.06
905.67	7799.02
905.984	7821.39
906.297	7829.07
906.611	7773.26
906.924	7641.51
907.237	7679.7
907.551	7693.26
907.864	7638.12
908.177	7612.36
908.491	7641.06
908.804	7577.33
909.117	7490.78
909.43	7427.95
909.743	7419.14
910.056	7396.09
910.368	7355.87
910.681	7324
910.994	7305.47
911.307	7280.61
911.619	7190.9
911.932	7208.3
912.244	7152.48
912.557	7173.27
912.869	7142.54
913.181	7087.4
913.494	7107.51
913.806	7025.25
914.118	7044.46
914.43	6978.7
914.742	6946.84
915.054	6890.57
915.366	6893.05
915.678	6889.89
915.99	6848.99
916.302	6812.6
916.613	6813.28
916.925	6805.37
917.236	6691.48
917.548	6693.74
917.859	6687.86
918.171	6644.47
918.482	6593.4
918.794	6554.76
919.105	6559.5
919.416	6588.2
919.727	6579.39
920.038	6493.29
920.349	6415.78
920.66	6385.04
920.971	6404.25
921.282	6382.56
921.593	6351.6
921.903	6341.2
922.214	6311.83
922.525	6284.03
922.835	6229.34
923.146	6188.66
923.456	6176.24
923.767	6150.02
924.077	6161.55
924.387	6127.88
924.697	6078.84
925.008	6097.82
925.318	6095.11
925.628	6045.62
925.938	6003.81
926.248	5988.22
926.558	5958.84
926.867	5925.4
927.177	5883.81
927.487	5873.64
927.796	5819.41
928.106	5791.61
928.416	5796.81
928.725	5766.3
929.034	5756.81
929.344	5787.09
929.653	5722.01
929.962	5604.95
930.271	5617.61
930.581	5595.46
930.89	5573.54
931.199	5532.41
931.508	5561.56
931.817	5564.95
932.125	5525.86
932.434	5494.22
932.743	5435.24
933.051	5391.62
933.36	5382.36
933.669	5398.86
933.977	5406.31
934.286	5345.98
934.594	5326.09
934.902	5300.55
935.21	5251.74
935.519	5270.5
935.827	5259.88
936.135	5175.58
936.443	5182.59
936.751	5128.35
937.059	5136.04
937.367	5105.76
937.674	5105.98
937.982	5076.15
938.29	5037.96
938.597	5032.09
938.905	4983.5
939.213	5006.32
939.52	4979.21
939.827	4977.4
940.135	4878.64
940.442	4934.69
940.749	4912.54
941.056	4934.69
941.363	4812.88
941.67	4793
941.977	4772.43
942.284	4786.67
942.591	4775.37
942.898	4706.9
943.205	4763.39
943.511	4697.63
943.818	4721.81
944.125	4694.92
944.431	4627.35
944.738	4582.15
945.044	4590.06
945.35	4555.94
945.657	4521.82
945.963	4542.61
946.269	4473
946.575	4531.99
946.881	4477.3
947.187	4475.94
947.493	4467.81
947.799	4420.12
948.105	4409.05
948.41	4405.89
948.716	4421.48
949.022	4356.4
949.327	4340.58
949.633	4327.47
949.938	4253.12
950.244	4264.2
950.549	4280.47
950.854	4242.73
951.16	4216.51
951.465	4163.86
951.77	4160.7
952.075	4181.03
952.38	4122.5
952.685	4125.89
952.99	4132.45
953.294	4121.6
953.599	4055.16
953.904	4065.1
954.209	4053.13
954.513	4051.55
954.818	3982.62
955.122	3970.42
955.426	3962.28
955.731	3950.76
956.035	3879.8
956.339	3870.53
956.643	3911.44
956.948	3907.14
957.252	3837.54
957.556	3885.45
957.86	3836.41
958.163	3806.81
958.467	3859.46
958.771	3793.47
959.075	3768.16
959.378	3736.75
959.682	3760.93
959.985	3715.96
960.289	3709.86
960.592	3672.57
960.896	3689.07
961.199	3659.92
961.502	3662.4
961.805	3638.68
962.108	3591.45
962.411	3597.77
962.714	3595.96
963.017	3558.68
963.32	3552.8
963.623	3507.83
963.926	3549.64
964.228	3508.28
964.531	3473.03
964.833	3443.88
965.136	3437.78
965.438	3433.94
965.741	3407.04
966.043	3386.7
966.345	3414.5
966.648	3409.75
966.95	3358.23
967.252	3342.86
967.554	3341.06
967.856	3339.7
968.158	3288.63
968.46	3305.8
968.761	3285.92
969.063	3285.69
969.365	3262.41
969.666	3226.26
969.968	3236.2
970.269	3253.15
970.571	3218.35
970.872	3206.37
971.174	3201.17
971.475	3174.96
971.776	3117.56
972.077	3137.22
972.378	3106.49
972.679	3134.28
972.98	3089.99
973.281	3059.26
973.582	3070.55
973.883	3071.23
974.183	3064.23
974.484	3042.08
974.785	3004.12
975.085	2971.12
975.386	3003.66
975.686	2965.02
975.986	2936.32
976.287	2946.26
976.587	2905.81
976.887	2940.16
977.187	2916.21
977.487	2887.96
977.787	2861.75
978.087	2912.82
978.387	2871.92
978.687	2838.92
978.987	2831.69
979.286	2832.82
979.586	2804.12
979.885	2773.39
980.185	2782.65
980.484	2768.87
980.784	2741.07
981.083	2723.9
981.382	2724.12
981.682	2710.34
981.981	2727.96
982.28	2730.45
982.579	2657.01
982.878	2692.26
983.177	2648.42
983.475	2680.28
983.774	2621.98
984.073	2640.06
984.372	2581.75
984.67	2609.32
984.969	2553.73
985.267	2584.01
985.566	2577.23
985.864	2561.42
986.162	2562.55
986.461	2531.81
986.759	2521.42
987.057	2528.2
987.355	2506.28
987.653	2504.69
987.951	2464.47
988.249	2468.99
988.547	2437.35
988.844	2444.13
989.142	2402.1
989.44	2444.58
989.737	2410.46
990.035	2399.16
990.332	2411.82
990.63	2378.82
990.927	2351.48
991.224	2359.16
991.521	2343.34
991.819	2331.59
992.116	2313.51
992.413	2287.3
992.71	2323.23
993.006	2287.98
993.303	2273.06
993.6	2274.19
993.897	2265.83
994.193	2257.47
994.49	2261.08
994.787	2230.12
995.083	2202.78
995.379	2188.32
995.676	2224.48
995.972	2200.52
996.268	2184.93
996.565	2207.98
996.861	2198.49
997.157	2190.13
997.453	2158.71
997.749	2149.22
998.044	2128.43
998.34	2096.12
998.636	2087.53
998.932	2072.16
999.227	2089.11
999.523	2058.83
999.818	2063.8
1000.114	2042.11
1000.409	2029.68
1000.704	2028.1
1001	2005.72
1001.295	1994.88
1001.59	1979.51
1001.885	1977.7
1002.18	1953.52
1002.475	1963.24
1002.77	1936.35
1003.065	1957.59
1003.359	1933.18
1003.654	1913.3
1003.949	1883.69
1004.243	1889.57
1004.538	1926.86
1004.832	1901.55
1005.127	1897.03
1005.421	1854.09
1005.715	1833.75
1006.009	1838.27
1006.304	1822.45
1006.598	1804.6
1006.892	1805.73
1007.186	1808.67
1007.48	1764.15
1007.773	1781.55
1008.067	1771.38
1008.361	1739.52
1008.655	1737.48
1008.948	1742.23
1009.242	1724.83
1009.535	1743.58
1009.829	1721.21
1010.122	1701.55
1010.415	1701.78
1010.708	1675.11
1011.001	1655.9
1011.295	1683.25
1011.588	1666.98
1011.881	1632.4
1012.173	1643.7
1012.466	1635.56
1012.759	1587.2
1013.052	1607.32
1013.344	1606.64
1013.637	1618.16
1013.93	1588.33
1014.222	1558.5
1014.514	1557.6
1014.807	1546.3
1015.099	1556.7
1015.391	1562.12
1015.683	1545.85
1015.976	1554.44
1016.268	1506.53
1016.56	1492.07
1016.851	1474.44
1017.143	1483.7
1017.435	1474.66
1017.727	1475.12
1018.018	1437.15
1018.31	1452.52
1018.602	1442.35
1018.893	1444.61
1019.185	1430.82
1019.476	1404.84
1019.767	1405.06
1020.058	1395.8
1020.35	1405.51
1020.641	1390.83
1020.932	1368
1021.223	1351.73
1021.514	1344.95
1021.804	1363.93
1022.095	1339.07
1022.386	1326.42
1022.677	1315.57
1022.967	1313.76
1023.258	1292.07
1023.548	1299.08
1023.839	1299.08
1024.129	1294.56
1024.419	1294.78
1024.709	1251.85
1025	1278.29
1025.29	1236.25
1025.58	1224.28
1025.87	1233.77
1026.16	1231.73
1026.449	1194.67
1026.739	1216.37
1027.029	1212.75
1027.319	1193.32
1027.608	1179.98
1027.898	1176.59
1028.187	1175.01
1028.477	1177.72
1028.766	1151.06
1029.055	1150.15
1029.344	1156.03
1029.634	1123.49
1029.923	1090.72
1030.212	1107.44
1030.501	1075.81
1030.79	1087.56
1031.078	1094.34
1031.367	1043.49
1031.656	1064.05
1031.945	1091.4
1032.233	1076.26
1032.522	1053.88
1032.81	1047.33
1033.099	1058.18
1033.387	1040.78
1033.675	1042.13
1033.963	1053.21
1034.251	1015.92
1034.54	998.97
1034.828	991.51
1035.116	976.82
1035.403	1004.62
1035.691	962.59
1035.979	977.95
1036.267	970.95
1036.554	945.19
1036.842	973.21
1037.129	958.07
1037.417	930.5
1037.704	955.58
1037.992	938.18
1038.279	930.72
1038.566	932.98
1038.853	932.98
1039.14	932.98
