Data from hue_60_FLMS001491_67.txt Node
Date: Mon Feb 06 15:17:44 GMT 2017
User: dcchb
Spectrometer: FLMS00149
Trigger mode: 0
Integration Time (sec): 2.000000E-2
Scans to average: 10
Electric dark correction enabled: true
Nonlinearity correction enabled: false
Boxcar width: 0
XAxis mode: Wavelengths
Number of Pixels in Spectrum: 2048
>>>>>Begin Spectral Data<<<<<
341.393	21.02
341.776	21.02
342.16	21.02
342.543	-65.99
342.927	-50.39
343.31	-72.31
343.693	-60.11
344.077	-73.22
344.46	-45.42
344.843	-53.11
345.226	-32.09
345.61	-28.25
345.993	-19.21
346.376	-9.72
346.759	4.75
347.142	11.07
347.525	47
347.908	52.2
348.291	68.92
348.674	91.3
349.057	118.19
349.44	141.69
349.823	155.93
350.206	159.09
350.588	200.67
350.971	218.3
351.354	219.66
351.737	249.48
352.119	269.6
352.502	281.57
352.884	280.22
353.267	287.9
353.65	303.49
354.032	306.66
354.414	297.17
354.797	310.05
355.179	330.16
355.562	303.49
355.944	346.21
356.326	333.32
356.709	340.56
357.091	361.8
357.473	365.87
357.855	363.61
358.238	359.99
358.62	357.96
359.002	349.37
359.384	360.89
359.766	364.51
360.148	358.63
360.53	343.49
360.912	347.34
361.294	326.55
361.676	342.14
362.057	336.26
362.439	345.3
362.821	338.07
363.203	367.45
363.584	330.16
363.966	319.31
364.348	315.7
364.729	344.62
365.111	315.7
365.493	334
365.874	333.32
366.256	332.42
366.637	314.79
367.019	327.22
367.4	319.54
367.781	332.42
368.163	306.43
368.544	319.54
368.925	321.8
369.306	343.27
369.688	316.6
370.069	300.78
370.45	327.67
370.831	309.14
371.212	343.72
371.593	331.97
371.974	317.73
372.355	333.55
372.736	329.48
373.117	320.67
373.498	314.79
373.879	321.35
374.26	334.23
374.641	318.86
375.021	330.39
375.402	311.86
375.783	331.29
376.163	333.78
376.544	340.1
376.925	335.13
377.305	341.23
377.686	318.18
378.066	343.95
378.447	326.77
378.827	349.82
379.208	357.05
379.588	349.14
379.968	349.82
380.349	332.87
380.729	348.01
381.109	333.1
381.489	329.48
381.87	344.85
382.25	338.3
382.63	357.28
383.01	351.86
383.39	353.21
383.77	343.04
384.15	348.92
384.53	368.35
384.91	346.66
385.29	356.6
385.67	348.92
386.049	361.12
386.429	368.8
386.809	362.7
387.189	374
387.568	359.54
387.948	364.28
388.328	357.73
388.707	379.65
389.087	340.78
389.466	362.25
389.846	348.01
390.225	346.43
390.605	357.5
390.984	370.61
391.363	374.23
391.743	353.66
392.122	384.17
392.501	377.84
392.881	368.35
393.26	344.17
393.639	364.06
394.018	363.15
394.397	380.33
394.776	374
395.155	377.39
395.534	397.28
395.913	367.9
396.292	394.57
396.671	408.8
397.05	375.58
397.429	395.7
397.808	370.84
398.186	386.66
398.565	378.3
398.944	367
399.323	390.27
399.701	392.31
400.08	397.73
400.458	399.76
400.837	392.08
401.215	403.61
401.594	385.53
401.972	402.7
402.351	407.67
402.729	397.05
403.107	409.71
403.486	395.02
403.864	400.44
404.242	402.7
404.62	395.24
404.999	413.1
405.377	399.76
405.755	409.93
406.133	410.16
406.511	400.89
406.889	419.42
407.267	439.31
407.645	430.5
408.023	416.03
408.401	421.01
408.779	419.65
409.156	428.01
409.534	450.84
409.912	457.39
410.29	428.46
410.667	433.21
411.045	450.16
411.422	437.5
411.8	461.68
412.178	456.03
412.555	456.49
412.933	447.9
413.31	459.87
413.687	446.99
414.065	471.4
414.442	461.91
414.819	465.07
415.197	479.76
415.574	475.92
415.951	479.08
416.328	470.04
416.705	479.08
417.082	488.8
417.46	465.98
417.837	499.2
418.214	494.45
418.591	477.05
418.967	489.7
419.344	508.24
419.721	503.72
420.098	514.11
420.475	515.92
420.852	508.24
421.228	514.34
421.605	501.68
421.982	503.26
422.358	525.41
422.735	527.9
423.111	512.3
423.488	517.5
423.864	555.69
424.241	555.69
424.617	522.47
424.994	526.77
425.37	541.45
425.746	543.94
426.123	568.12
426.499	559.08
426.875	557.27
427.251	581
427.627	570.83
428.003	576.48
428.379	574.22
428.756	558.86
429.132	580.1
429.507	564.5
429.883	577.61
430.259	581.91
430.635	565.86
431.011	592.3
431.387	622.13
431.763	602.47
432.138	589.81
432.514	609.02
432.89	599.08
433.265	618.06
433.641	625.52
434.016	638.18
434.392	637.72
434.767	647.44
435.143	633.66
435.518	649.93
435.894	645.63
436.269	641.34
436.644	657.84
437.02	665.29
437.395	667.33
437.77	670.26
438.145	679.3
438.52	709.81
438.895	693.99
439.271	682.92
439.646	692.64
440.021	700.32
440.395	706.42
440.77	712.98
441.145	704.61
441.52	725.86
441.895	719.98
442.27	724.05
442.645	726.76
443.019	733.09
443.394	733.31
443.769	753.65
444.143	734.67
444.518	745.07
444.892	753.88
445.267	776.93
445.641	747.1
446.016	751.62
446.39	763.6
446.764	780.32
447.139	793.65
447.513	770.83
447.887	787.55
448.262	786.65
448.636	796.59
449.01	793.88
449.384	793.65
449.758	789.81
450.132	794.1
450.506	816.02
450.88	830.49
451.254	798.85
451.628	844.27
452.002	836.14
452.376	844.27
452.75	869.81
453.123	853.76
453.497	867.32
453.871	861.9
454.244	888.79
454.618	892.63
454.992	867.77
455.365	904.61
455.739	893.31
456.112	938.05
456.486	920.65
456.859	928.56
457.232	951.61
457.606	937.83
457.979	945.74
458.352	974.44
458.725	988
459.099	995
459.472	992.52
459.845	1013.31
460.218	1022.35
460.591	1012.4
460.964	1038.62
461.337	1062.34
461.71	1064.15
462.083	1046.75
462.456	1076.13
462.829	1105.73
463.201	1099.86
463.574	1124.26
463.947	1128.56
464.32	1152.51
464.692	1185.51
465.065	1178.05
465.438	1201.55
465.81	1195.67
466.183	1224.15
466.555	1256.01
466.928	1228.67
467.3	1265.28
467.672	1302.79
468.045	1320.42
468.417	1324.71
468.789	1369.23
469.161	1341.21
469.534	1407.87
469.906	1433.18
470.278	1445.61
470.65	1470.7
471.022	1492.16
471.394	1550.24
471.766	1578.72
472.138	1568.32
472.51	1624.82
472.882	1599.96
473.253	1664.14
473.625	1720.18
473.997	1748.2
474.369	1766.96
474.74	1828.65
475.112	1875.88
475.484	1911.14
475.855	1973.28
476.227	1983.45
476.598	2063.67
476.97	2102.32
477.341	2154.75
477.713	2242.43
478.084	2239.49
478.455	2335.98
478.827	2382.99
479.198	2502.08
479.569	2545.02
479.94	2592.25
480.311	2641.29
480.682	2737.33
481.053	2826.82
481.424	2901.84
481.795	2980.03
482.166	3073.59
482.537	3147.49
482.908	3267.03
483.279	3354.94
483.65	3444.2
484.021	3546.8
484.391	3654.82
484.762	3745.89
485.133	3832.22
485.503	3921.48
485.874	4078.99
486.244	4151.76
486.615	4283.05
486.985	4413.22
487.356	4551.97
487.726	4618.18
488.097	4803.72
488.467	4902.7
488.837	5067.44
489.207	5209.58
489.578	5321.44
489.948	5457.26
490.318	5592.85
490.688	5677.14
491.058	5855.44
491.428	6015.21
491.798	6141.31
492.168	6343.56
492.538	6468.98
492.908	6600.05
493.278	6784
493.648	6878.69
494.017	7097.44
494.387	7221.73
494.757	7386.25
495.126	7488.16
495.496	7643.64
495.866	7796.41
496.235	7976.97
496.605	8055.16
496.974	8242.72
497.344	8415.37
497.713	8518.65
498.082	8661.47
498.452	8825.3
498.821	8996.15
499.19	9063.04
499.559	9258.51
499.928	9426.87
500.298	9549.81
500.667	9709.35
501.036	9810.14
501.405	9931.04
501.774	10115.44
502.143	10197.25
502.512	10368.99
502.88	10530.57
503.249	10632.04
503.618	10806.5
503.987	10951.58
504.356	11041.52
504.724	11102.08
505.093	11303.66
505.462	11447.61
505.83	11647.6
506.199	11729.41
506.567	11894.6
506.936	11998.33
507.304	12205.33
507.672	12276.29
508.041	12424.76
508.409	12550.86
508.777	12715.6
509.145	12843.73
509.514	12961.47
509.882	13078.98
510.25	13163.5
510.618	13345.86
510.986	13397.16
511.354	13739.07
511.722	13705.18
512.09	13948.11
512.458	13929.8
512.826	14109.23
513.193	14236.24
513.561	14339.96
513.929	14535.44
514.297	14633.06
514.664	14854.98
515.032	14949.44
515.4	15117.12
515.767	15250.22
516.135	15343.33
516.502	15319.37
516.869	15627.39
517.237	15708.74
517.604	15719.81
517.972	15958.68
518.339	16066.02
518.706	16184.89
519.073	16288.61
519.44	16386.91
519.808	16525.89
520.175	16600.02
520.542	16818.77
520.909	16980.12
521.276	17058.53
521.643	17186.89
522.009	17374.23
522.376	17467.79
522.743	17658.29
523.11	17824.39
523.477	18016.02
523.843	18159.52
524.21	18269.35
524.577	18450.14
524.943	18517.93
525.31	18685.16
525.676	18816.91
526.043	18886.96
526.409	19192.26
526.776	19272.94
527.142	19358.81
527.508	19532.82
527.874	19684.91
528.241	19867.73
528.607	19826.37
528.973	20101.39
529.339	20069.08
529.705	20351.1
530.071	20508.61
530.437	20468.61
530.803	20696.18
531.169	20810.98
531.535	20807.81
531.901	20995.38
532.267	21009.17
532.632	21140.69
532.998	21285.54
533.364	21412.54
533.73	21481.92
534.095	21562.82
534.461	21724.4
534.826	21856.37
535.192	21923.27
535.557	22090.72
535.923	22005.3
536.288	22177.72
536.653	22275.12
537.019	22185.63
537.384	22307.66
537.749	22466.53
538.114	22587.65
538.479	22667.65
538.845	22699.52
539.21	22692.96
539.575	22831.04
539.94	22888.66
540.305	23009.56
540.67	23007.76
541.034	23143.57
541.399	23170.01
541.764	23306.73
542.129	23494.98
542.494	23465.82
542.858	23554.63
543.223	23558.25
543.587	23669.89
543.952	23774.29
544.316	23866.27
544.681	23845.02
545.045	23988.3
545.41	24194.62
545.774	24153.04
546.138	24206.37
546.503	24247.95
546.867	24304.45
547.231	24424.44
547.595	24560.26
547.959	24647.49
548.324	24661.5
548.688	24824.88
549.052	24823.08
549.416	24844.32
549.779	24897.88
550.143	25031.21
550.507	25201.15
550.871	25252.67
551.235	25191.43
551.599	25446.11
551.962	25482.49
552.326	25650.85
552.689	25743.96
553.053	25698.76
553.417	25749.38
553.78	26053.1
554.143	26013.78
554.507	26161.8
554.87	26270.27
555.234	26392.07
555.597	26212.42
555.96	26459.64
556.323	26604.05
556.686	26622.58
557.05	26824.15
557.413	26900.54
557.776	26903.7
558.139	27056.92
558.502	27197.48
558.865	27296.23
559.228	27446.96
559.59	27544.81
559.953	27611.48
560.316	27846.95
560.679	27930.79
561.041	28031.35
561.404	28165.36
561.767	28411.23
562.129	28239.94
562.492	28623.88
562.854	28614.84
563.217	28628.17
563.579	28722.18
563.941	28944.1
564.304	29109.07
564.666	29172.57
565.028	29370.98
565.39	29278.55
565.753	29533.91
566.115	29575.95
566.477	29857.07
566.839	29887.58
567.201	29930.74
567.563	30024.07
567.925	30358.52
568.287	30278.3
568.648	30348.81
569.01	30582.47
569.372	30802.81
569.734	30599.65
570.095	30856.14
570.457	30966.87
570.819	31049.58
571.18	31099.07
571.542	31234.43
571.903	31193.3
572.265	31301.55
572.626	31525.5
572.987	31626.74
573.349	31593.97
573.71	31807.53
574.071	31978.82
574.432	32012.04
574.794	32238.7
575.155	32173.39
575.516	32061.98
575.877	32394.85
576.238	32317.57
576.599	32406.83
576.96	32569.09
577.32	32519.37
577.681	32839.59
578.042	32911.23
578.403	32743.77
578.763	32765.24
579.124	32868.29
579.485	33053.82
579.845	33113.93
580.206	33054.72
580.566	33138.79
580.927	33083.2
581.287	33144.67
581.648	33274.38
582.008	33358.9
582.368	33293.36
582.728	33279.35
583.089	33306.69
583.449	33358.67
583.809	33331.55
584.169	33543.75
584.529	33442.51
584.889	33661.49
585.249	33469.85
585.609	33334.72
585.969	33698.77
586.329	33581.04
586.688	33681.83
587.048	33592.11
587.408	33530.64
587.768	33624.88
588.127	33680.47
588.487	33561.83
588.846	33778.77
589.206	33514.82
589.565	33625.56
589.925	33819
590.284	33748.04
590.643	33757.98
591.003	33928.15
591.362	34068.71
591.721	33947.58
592.08	33934.47
592.44	33971.08
592.799	33960.46
593.158	33865.78
593.517	34015.38
593.876	34018.54
594.235	33950.97
594.593	34059.44
594.952	34115.49
595.311	34017.64
595.67	34167.46
596.029	34284.3
596.387	34349.61
596.746	34417.63
597.104	34288.82
597.463	34252.43
597.822	34442.26
598.18	34347.8
598.538	34388.93
598.897	34620.11
599.255	34267.12
599.613	34733.1
599.972	34615.36
600.33	34614.91
600.688	34547.79
601.046	34651.97
601.404	34879.31
601.762	34698.75
602.12	34934.67
602.478	34904.84
602.836	34856.48
603.194	34611.97
603.552	34888.8
603.91	34790.05
604.268	35011.96
604.625	34985.29
604.983	35071.39
605.341	34998.18
605.698	35215.8
606.056	35202.69
606.413	35203.82
606.771	35266.87
607.128	35448.11
607.485	35317.04
607.843	35480.2
608.2	35675.9
608.557	35642.68
608.914	35478.62
609.272	35757.03
609.629	35776.91
609.986	36089.45
610.343	35777.59
610.7	35975.78
611.057	36051.26
611.414	36009.45
611.771	36074.76
612.127	36196.34
612.484	36186.62
612.841	36330.34
613.198	36223.23
613.554	36190.46
613.911	36550.9
614.267	36401.08
614.624	36495.99
614.98	36605.82
615.337	36720.84
615.693	36778.47
616.05	36647.85
616.406	36870.89
616.762	36596.1
617.118	36893.95
617.475	36879.26
617.831	36945.02
618.187	37087.84
618.543	37151.34
618.899	37389.75
619.255	37115.18
619.611	37266.59
619.967	37365.57
620.323	37508.39
620.678	37377.1
621.034	37336.87
621.39	37312.92
621.746	37176.65
622.101	37725.11
622.457	37428.85
622.812	37485.12
623.168	37691.66
623.523	37600.14
623.879	37739.8
624.234	37474.04
624.589	37717.43
624.945	37701.16
625.3	37713.81
625.655	37771.44
626.01	37823.86
626.365	37836.97
626.72	37825.67
627.075	37806.01
627.43	37683.3
627.785	37784.77
628.14	37778.22
628.495	37898.21
628.85	37815.05
629.205	37776.63
629.559	38012.56
629.914	37767.37
630.269	37872.9
630.623	37890.98
630.978	37691.44
631.332	37754.71
631.687	37876.97
632.041	37813.24
632.396	37839.91
632.75	37740.02
633.104	37763.98
633.459	37585
633.813	37693.92
634.167	37617.09
634.521	37671.1
634.875	37752.68
635.229	37662.96
635.583	37422.29
635.937	37549.3
636.291	37387.49
636.645	37515.17
636.999	37405.57
637.352	37573.02
637.706	37388.4
638.06	37500.71
638.413	37490.31
638.767	37270.21
639.121	37290.77
639.474	37155.41
639.828	37335.97
640.181	37238.34
640.534	37282.41
640.888	37140.94
641.241	36957.9
641.594	37035.64
641.947	37136.88
642.301	37017.78
642.654	37132.81
643.007	37263.65
643.36	37159.7
643.713	37044.68
644.066	37095.97
644.419	36898.46
644.771	36770.78
645.124	36418.93
645.477	36357.01
645.83	36143.23
646.182	36038.6
646.535	35919.06
646.888	36043.8
647.24	35611.49
647.593	35808.32
647.945	35906.63
648.298	35686.52
648.65	35548.9
649.002	35502.34
649.355	35702.79
649.707	35603.36
650.059	35821.43
650.411	36092.38
650.763	36224.58
651.115	36572.37
651.467	36500.96
651.819	36503.67
652.171	36369.89
652.523	36400.62
652.875	36303
653.227	36133.06
653.578	36503.9
653.93	36323.56
654.282	36120.86
654.633	36227.97
654.985	36212.61
655.337	36255.54
655.688	36237.69
656.039	36381.64
656.391	35990.24
656.742	36026.17
657.094	36152.04
657.445	36314.07
657.796	36152.5
658.147	36000.18
658.498	35895.55
658.849	36090.35
659.2	36004.25
659.551	35967.87
659.902	36089.67
660.253	36049.9
660.604	36047.64
660.955	35890.36
661.306	35891.94
661.656	35957.92
662.007	35932.84
662.358	35843.13
662.708	35972.84
663.059	35851.94
663.409	35668.67
663.76	35992.5
664.11	35972.61
664.461	35922.9
664.811	35974.42
665.161	35886.97
665.511	35810.58
665.862	35866.4
666.212	35851.03
666.562	35954.31
666.912	35837.48
667.262	35824.82
667.612	35805.61
667.962	35802.22
668.312	35815.56
668.662	35831.6
669.011	35865.27
669.361	35716.12
669.711	35771.94
670.06	35704.15
670.41	35597.48
670.76	35474.1
671.109	35660.31
671.459	35585.05
671.808	35469.58
672.157	35719.29
672.507	35431.16
672.856	35581.44
673.205	35419.18
673.554	35603.36
673.904	35517.71
674.253	35626.86
674.602	35482.68
674.951	35011.28
675.3	34865.75
675.649	35477.26
675.998	35365.4
676.346	35359.97
676.695	35442.23
677.044	35177.15
677.393	35314.1
677.741	35312.07
678.09	35201.33
678.438	35129.7
678.787	35229.13
679.135	35146.19
679.484	34917.27
679.832	35185.06
680.181	34862.36
680.529	34997.95
680.877	34898.74
681.225	34884.73
681.573	35239.53
681.922	34801.8
682.27	34707.56
682.618	34648.13
682.966	34687.68
683.314	34738.75
683.661	34668.47
684.009	34443.84
684.357	34415.82
684.705	34291.53
685.053	34573.55
685.4	34458.53
685.748	34100.8
686.095	34181.47
686.443	34031.65
686.79	34058.54
687.138	34124.98
687.485	34075.04
687.832	33987.58
688.18	33937.19
688.527	33740.13
688.874	33731.54
689.221	33663.3
689.568	33630.75
689.915	33470.08
690.262	33590.08
690.609	33393.47
690.956	33366.13
691.303	33323.19
691.65	33206.81
691.997	33160.26
692.344	33002.3
692.69	32870.32
693.037	33086.59
693.383	32775.41
693.73	32720.5
694.077	32747.61
694.423	32681.17
694.769	32597.79
695.116	32456.77
695.462	32471.69
695.808	32241.41
696.155	32286.38
696.501	32180.85
696.847	32159.38
697.193	31887.3
697.539	32026.28
697.885	31784.7
698.231	31730.47
698.577	31741.31
698.923	31666.06
699.269	31612.05
699.614	31356.01
699.96	31428.55
700.306	31402.56
700.651	31204.83
700.997	31103.59
701.342	31082.57
701.688	30896.14
702.033	30883.26
702.379	30917.61
702.724	30789.7
703.069	30796.03
703.415	30442.59
703.76	30513.77
704.105	30444.85
704.45	30441.23
704.795	30229.49
705.14	30170.28
705.485	30092.99
705.83	30020.68
706.175	30068.81
706.52	29940.46
706.865	29810.52
707.209	29790.86
707.554	29753.34
707.899	29676.06
708.243	29569.84
708.588	29571.43
708.932	29366.69
709.277	29401.94
709.621	29324.88
709.966	29166.92
710.31	29205.56
710.654	28950.88
710.998	29138.44
711.342	29072.68
711.687	29038.11
712.031	28943.65
712.375	28783.2
712.719	28869.75
713.063	28762.63
713.407	28818.45
713.75	28642.86
714.094	28551.57
714.438	28533.71
714.782	28596.99
715.125	28390.89
715.469	28487.39
715.812	28378.24
716.156	28122.65
716.499	28133.95
716.843	28085.59
717.186	28055.76
717.53	28162.2
717.873	28081.97
718.216	27942.32
718.559	27826.39
718.902	27668.65
719.246	27772.15
719.589	27679.95
719.932	27626.39
720.275	27595.66
720.617	27505.27
720.96	27468.88
721.303	27500.52
721.646	27432.27
721.989	27322.45
722.331	27493.97
722.674	27259.4
723.016	27393.63
723.359	27180.98
723.701	27227.31
724.044	27078.38
724.386	26967.43
724.729	27042.68
725.071	27037.48
725.413	27113.64
725.755	26941.89
726.097	26801.33
726.439	26814.66
726.782	26804.27
727.124	26789.58
727.465	26701.67
727.807	26591.39
728.149	26568.79
728.491	26491.51
728.833	26572.86
729.175	26403.37
729.516	26438.85
729.858	26426.42
730.199	26349.59
730.541	26315.24
730.882	26383.49
731.224	26273.89
731.565	26134.45
731.906	26170.61
732.248	26157.96
732.589	26115.02
732.93	25954.12
733.271	25966.55
733.612	26056.72
733.953	26014.23
734.294	25972.65
734.635	25803.39
734.976	25850.85
735.317	25809.26
735.658	25767.46
735.999	25745.54
736.339	25690.4
736.68	25708.48
737.021	25546.45
737.361	25496.96
737.702	25720.23
738.042	25577.18
738.383	25572.89
738.723	25459.67
739.063	25360.92
739.404	25443.17
739.744	25256.74
740.084	25228.04
740.424	25281.37
740.764	25240.47
741.104	25233.46
741.444	25163.86
741.784	25005.9
742.124	25075.95
742.464	25042.96
742.804	25030.3
743.143	24947.14
743.483	24994.82
743.823	24773.81
744.162	24990.08
744.502	24737.88
744.841	24701.05
745.181	24799.12
745.52	24641.39
745.86	24752.57
746.199	24674.15
746.538	24620.82
746.877	24621.5
747.216	24701.5
747.556	24461.05
747.895	24544.67
748.234	24404.1
748.573	24455.18
748.911	24439.81
749.25	24386.93
749.589	24274.62
749.928	24300.38
750.267	24244.11
750.605	24213.37
750.944	24064.45
751.283	24059.48
751.621	24074.17
751.96	24041.85
752.298	23986.49
752.636	23948.3
752.975	23870.11
753.313	23695.87
753.651	23813.61
753.989	23716.44
754.327	23610
754.666	23540.62
755.004	23635.54
755.342	23604.13
755.679	23420.63
756.017	23303.12
756.355	23379.05
756.693	23207.75
757.031	23313.29
757.368	23173.63
757.706	23153.52
758.044	23072.84
758.381	23071.71
758.719	23012.73
759.056	22915.78
759.394	22880.53
759.731	22765.05
760.068	22812.06
760.405	22690.7
760.743	22639.63
761.08	22645.96
761.417	22499.97
761.754	22432.63
762.091	22390.6
762.428	22332.75
762.765	22172.75
763.102	22266.08
763.438	22066.31
763.775	21994.22
764.112	22066.09
764.449	22045.97
764.785	21824.06
765.122	21719.88
765.458	21808.92
765.795	21541.13
766.131	21679.88
766.467	21589.04
766.804	21518.3
767.14	21332.09
767.476	21371.19
767.812	21234.47
768.148	21332.77
768.485	21187.69
768.821	21034.7
769.157	20947.92
769.492	20957.42
769.828	20943.4
770.164	20660.47
770.5	20800.36
770.836	20765.1
771.171	20528.95
771.507	20483.98
771.842	20443.98
772.178	20433.36
772.513	20266.36
772.849	20230.88
773.184	20167.83
773.519	20214.16
773.855	20126.48
774.19	19975.97
774.525	19970.1
774.86	19894.39
775.195	19866.82
775.53	19718.35
775.865	19563.1
776.2	19531.92
776.535	19406.5
776.87	19326.5
777.205	19297.8
777.539	19276.56
777.874	19227.52
778.209	19011.48
778.543	19094.41
778.878	18912.72
779.212	18893.97
779.547	18779.62
779.881	18845.15
780.215	18647.19
780.55	18648.1
780.884	18588.89
781.218	18529.46
781.552	18444.26
781.886	18422.34
782.22	18342.12
782.554	18309.12
782.888	18042.24
783.222	17964.05
783.556	17988.45
783.889	17908
784.223	17858.97
784.557	17713.21
784.89	17797.5
785.224	17657.16
785.557	17653.32
785.891	17492.2
786.224	17534
786.558	17526.09
786.891	17361.35
787.224	17218.08
787.557	17194.35
787.891	17296.04
788.224	17152.32
788.557	17074.81
788.89	17087.69
789.223	17044.52
789.556	16791.87
789.888	16859.9
790.221	16774.93
790.554	16701.48
790.887	16648.6
791.219	16610.86
791.552	16633.23
791.884	16462.17
792.217	16419.91
792.549	16453.35
792.882	16169.07
793.214	16227.37
793.546	16201.16
793.879	16198.9
794.211	15979.24
794.543	16116.41
794.875	16120.93
795.207	16093.59
795.539	15929.07
795.871	15973.37
796.203	15806.36
796.535	15737.89
796.867	15737.67
797.198	15661.74
797.53	15667.84
797.862	15555.98
798.193	15491.57
798.525	15480.5
798.856	15448.86
799.188	15335.19
799.519	15281.86
799.85	15242.31
800.182	15182.88
800.513	15178.13
800.844	15091.35
801.175	15078.25
801.506	15081.41
801.837	14941.98
802.168	14881.42
802.499	14981.08
802.83	14885.03
803.161	14734.98
803.491	14841.19
803.822	14774.07
804.153	14631.93
804.483	14535.89
804.814	14454.99
805.145	14465.38
805.475	14461.54
805.805	14343.58
806.136	14421.54
806.466	14294.99
806.796	14342.67
807.126	14192.4
807.457	14191.94
807.787	14193.53
808.117	14152.62
808.447	14198.95
808.777	14126.41
809.107	14094.09
809.436	14047.54
809.766	14052.29
810.096	13906.75
810.426	13866.98
810.755	13899.75
811.085	13799.41
811.414	13809.13
811.744	13715.35
812.073	13660.88
812.403	13640.77
812.732	13514.22
813.061	13650.71
813.39	13529.36
813.719	13436.93
814.049	13562.81
814.378	13420.89
814.707	13413.21
815.036	13390.16
815.365	13325.53
815.693	13204.17
816.022	13198.3
816.351	13213.21
816.68	13132.99
817.008	13066.1
817.337	12992.2
817.665	12998.08
817.994	13078.53
818.322	13046.44
818.651	12939.55
818.979	12878.53
819.307	12985.42
819.636	12921.69
819.964	12857.29
820.292	12918.53
820.62	12882.37
820.948	12812.54
821.276	12890.96
821.604	12824.75
821.932	12836.72
822.259	12819.78
822.587	12804.41
822.915	12713.79
823.243	12778.87
823.57	12769.83
823.898	12734.13
824.225	12685.77
824.553	12761.47
824.88	12773
825.207	12745.88
825.535	12764.64
825.862	12778.87
826.189	12678.54
826.516	12725.77
826.843	12749.04
827.17	12750.17
827.497	12748.37
827.824	12782.26
828.151	12771.42
828.478	12756.5
828.805	12755.37
829.131	12666.33
829.458	12740.46
829.785	12640.8
830.111	12632.21
830.438	12755.37
830.764	12646
831.09	12674.69
831.417	12573
831.743	12652.32
832.069	12668.82
832.395	12607.8
832.722	12603.74
833.048	12553.12
833.374	12608.71
833.7	12483.97
834.026	12516.51
834.351	12604.87
834.677	12579.33
835.003	12575.94
835.329	12544.08
835.654	12541.82
835.98	12430.86
836.306	12438.09
836.631	12423.18
836.956	12502.27
837.282	12472.44
837.607	12372.78
837.932	12302.95
838.258	12436.96
838.583	12359.45
838.908	12302.73
839.233	12318.09
839.558	12277.87
839.883	12222.96
840.208	12201.94
840.533	12273.8
840.858	12214.14
841.182	12208.72
841.507	12186.8
841.832	12153.58
842.156	12113.13
842.481	12094.15
842.805	12075.84
843.13	11956.52
843.454	12002.85
843.778	11956.3
844.103	11954.26
844.427	11877.43
844.751	11914.71
845.075	11864.77
845.399	11837.88
845.723	11742.52
846.047	11758.79
846.371	11711.56
846.695	11634.95
847.019	11601.05
847.343	11423.2
847.666	11481.51
847.99	11482.18
848.313	11431.79
848.637	11348.4
848.96	11397.89
849.284	11327.61
849.607	11185.47
849.931	11174.62
850.254	11077.67
850.577	11051.23
850.9	10890.11
851.223	10974.85
851.546	10939.83
851.869	10838.36
852.192	10861.86
852.515	10738.25
852.838	10715.42
853.161	10756.33
853.483	10665.03
853.806	10661.64
854.129	10699.61
854.451	10563.56
854.774	10507.29
855.096	10493.06
855.419	10499.84
855.741	10407.86
856.063	10420.97
856.385	10354.98
856.708	10273.63
857.03	10260.75
857.352	10331.71
857.674	10258.04
857.996	10266.85
858.318	10173.29
858.64	10168.32
858.961	10122.67
859.283	10100.75
859.605	10066.4
859.926	10023.01
860.248	10114.99
860.57	9923.58
860.891	9989.57
861.212	9970.36
861.534	9904.82
861.855	9846.52
862.176	9912.28
862.498	9896.01
862.819	9905.95
863.14	9792.28
863.461	9782.79
863.782	9778.5
864.103	9745.28
864.424	9730.37
864.745	9715.45
865.065	9679.75
865.386	9699.18
865.707	9649.92
866.027	9689.01
866.348	9693.3
866.668	9588.45
866.989	9641.33
867.309	9532.4
867.63	9611.27
867.95	9529.01
868.27	9538.05
868.59	9555.45
868.91	9496.7
869.23	9452.86
869.55	9442.46
869.87	9468.68
870.19	9391.39
870.51	9460.99
870.83	9448.57
871.15	9379.87
871.469	9324.27
871.789	9411.73
872.109	9378.96
872.428	9332.86
872.748	9345.07
873.067	9311.85
873.386	9322.92
873.706	9269.13
874.025	9235.01
874.344	9197.27
874.663	9305.07
874.982	9217.38
875.301	9230.04
875.62	9163.6
875.939	9165.86
876.258	9168.57
876.577	9139.42
876.896	9120.44
877.214	9106.88
877.533	9080.67
877.852	9108.91
878.17	9075.47
878.489	9148.69
878.807	9108.01
879.125	8981.68
879.444	9064.39
879.762	9026.2
880.08	8991.4
880.398	8988.92
880.716	8902.14
881.034	8927.9
881.352	8896.72
881.67	8936.26
881.988	8946.88
882.306	8849.03
882.624	8869.6
882.941	8820.79
883.259	8771.52
883.577	8747.34
883.894	8728.36
884.212	8754.57
884.529	8729.49
884.846	8752.76
885.164	8661.47
885.481	8679.09
885.798	8651.75
886.115	8637.06
886.432	8592.77
886.75	8523.84
887.067	8539.44
887.383	8469.61
887.7	8520.91
888.017	8515.03
888.334	8492.21
888.651	8439.1
888.967	8441.13
889.284	8402.94
889.6	8373.57
889.917	8345.77
890.233	8307.58
890.55	8297.18
890.866	8337.86
891.182	8226.22
891.498	8200.46
891.815	8227.81
892.131	8169.95
892.447	8130.86
892.763	8111.88
893.079	8101.26
893.395	8090.86
893.71	8093.57
894.026	8054.7
894.342	7979
894.657	7930.19
894.973	7895.61
895.289	7961.15
895.604	8003.63
895.92	7834.37
896.235	7788.72
896.55	7861.71
896.865	7785.33
897.181	7798.44
897.496	7794.37
897.811	7687.48
898.126	7713.92
898.441	7692.23
898.756	7572.68
899.071	7578.56
899.386	7630.31
899.7	7591.21
900.015	7516.86
900.33	7515.73
900.644	7498.56
900.959	7525.9
901.273	7475.06
901.588	7426.25
901.902	7390.31
902.216	7346.7
902.531	7315.06
902.845	7280.71
903.159	7210.66
903.473	7232.58
903.787	7270.77
904.101	7193.94
904.415	7212.24
904.729	7135.18
905.042	7050.44
905.356	7127.72
905.67	7070.77
905.984	7010.44
906.297	7024.67
906.611	7002.08
906.924	7007.27
907.237	6914.62
907.551	6918.01
907.864	6910.78
908.177	6878.69
908.491	6841.18
908.804	6770.22
909.117	6755.3
909.43	6786.04
909.743	6682.31
910.056	6667.62
910.368	6657.45
910.681	6610.22
910.994	6607.51
911.307	6559.6
911.619	6581.75
911.932	6583.78
912.244	6481.41
912.557	6528.64
912.869	6453.62
913.181	6465.59
913.494	6433.05
913.806	6391.92
914.118	6382.66
914.43	6315.09
914.742	6312.6
915.054	6280.96
915.366	6282.55
915.678	6264.02
915.99	6240.51
916.302	6165.49
916.613	6188.31
916.925	6156.45
917.236	6174.75
917.548	6118.71
917.859	6041.2
918.171	6021.99
918.482	6016.79
918.794	5997.58
919.105	5951.71
919.416	5923.46
919.727	5925.04
920.038	5951.26
920.349	5803.69
920.66	5789.23
920.971	5820.86
921.282	5796.23
921.593	5789.68
921.903	5680.98
922.214	5703.58
922.525	5677.59
922.835	5709.68
923.146	5626.29
923.456	5613.86
923.767	5627.2
924.077	5589.01
924.387	5574.32
924.697	5491.61
925.008	5563.47
925.318	5473.3
925.628	5437.15
925.938	5408.67
926.248	5420.42
926.558	5353.98
926.867	5355.11
927.177	5379.97
927.487	5325.51
927.796	5281.67
928.106	5298.39
928.416	5263.36
928.725	5227.43
929.034	5214.55
929.344	5193.76
929.653	5176.36
929.962	5138.17
930.271	5132.29
930.581	5090.49
930.89	5081
931.199	5054.78
931.508	5088.45
931.817	5051.62
932.125	5029.92
932.434	4970.72
932.743	4892.53
933.051	4943.37
933.36	4890.94
933.669	4908.35
933.977	4873.54
934.286	4845.3
934.594	4846.43
934.902	4814.79
935.21	4774.56
935.519	4775.69
935.827	4749.71
936.135	4706.54
936.443	4660.44
936.751	4696.15
937.059	4645.08
937.367	4629.71
937.674	4658.86
937.982	4607.79
938.29	4587.45
938.597	4583.16
938.905	4569.6
939.213	4501.12
939.52	4503.61
939.827	4542.71
940.135	4497.06
940.442	4432.65
940.749	4462.26
941.056	4432.2
941.363	4377.96
941.67	4351.75
941.977	4378.64
942.284	4338.42
942.591	4330.51
942.898	4313.11
943.205	4322.37
943.511	4321.24
943.818	4230.62
944.125	4189.04
944.431	4182.04
944.738	4196.95
945.044	4190.62
945.35	4144.98
945.657	4151.3
945.963	4127.12
946.269	4076.95
946.575	4081.7
946.881	4049.84
947.187	4077.41
947.493	4030.85
947.799	4032.44
948.105	3975.26
948.41	3947.92
948.716	3984.08
949.022	3959.22
949.327	3943.17
949.633	3859.11
949.938	3907.24
950.244	3898.2
950.549	3861.14
950.854	3861.37
951.16	3817.07
951.465	3823.18
951.77	3806.45
952.075	3800.35
952.38	3759.68
952.685	3742.27
952.99	3695.27
953.294	3730.75
953.599	3711.77
953.904	3661.15
954.209	3670.86
954.513	3663.63
954.818	3634.03
955.122	3640.13
955.426	3610.53
955.731	3623.41
956.035	3570.08
956.339	3534.37
956.643	3546.35
956.948	3542.96
957.252	3535.27
957.556	3530.75
957.86	3485.11
958.163	3486.69
958.467	3440.81
958.771	3445.11
959.075	3412.34
959.378	3394.94
959.682	3405.11
959.985	3413.47
960.289	3362.17
960.592	3351.32
960.896	3378.44
961.199	3337.77
961.502	3316.3
961.805	3301.83
962.108	3276.3
962.411	3274.49
962.714	3264.77
963.017	3254.15
963.32	3233.36
963.623	3209.63
963.926	3206.02
964.228	3168.73
964.531	3184.78
964.833	3202.63
965.136	3120.6
965.438	3119.01
965.741	3152.01
966.043	3101.39
966.345	3067.04
966.648	3100.94
966.95	3103.65
967.252	3063.2
967.554	3042.63
967.856	3012.58
968.158	3010.54
968.46	3022.29
968.761	2958.79
969.063	2965.35
969.365	2940.26
969.666	2937.1
969.968	2972.8
970.269	2937.55
970.571	2919.7
970.872	2884.22
971.174	2883.31
971.475	2894.39
971.776	2855.52
972.077	2869.53
972.378	2790.66
972.679	2842.86
972.98	2826.37
973.281	2790.66
973.582	2795.63
973.883	2747.5
974.183	2749.08
974.484	2731.68
974.785	2738.01
975.085	2745.01
975.386	2748.18
975.686	2707.05
975.986	2685.13
976.287	2723.77
976.587	2693.26
976.887	2656.88
977.187	2657.56
977.487	2639.7
977.787	2619.82
978.087	2622.53
978.387	2601.06
978.687	2616.88
978.987	2578.46
979.286	2580.95
979.586	2575.3
979.885	2537.56
980.185	2548.18
980.484	2504.79
980.784	2519.48
981.083	2493.95
981.382	2501.86
981.682	2453.95
981.981	2482.19
982.28	2466.83
982.579	2441.52
982.878	2453.49
983.177	2418.47
983.475	2416.66
983.774	2404.91
984.073	2390.9
984.372	2378.92
984.67	2371.01
984.969	2369.2
985.267	2349.77
985.566	2370.56
985.864	2334.85
986.162	2335.53
986.461	2309.54
986.759	2288.3
987.057	2292.6
987.355	2261.41
987.653	2274.52
987.951	2285.14
988.249	2261.41
988.547	2261.41
988.844	2236.78
989.142	2234.97
989.44	2224.12
989.737	2214.86
990.035	2209.43
990.332	2193.39
990.63	2164.24
990.927	2181.64
991.224	2152.03
991.521	2158.81
991.819	2181.64
992.116	2157.91
992.413	2096.44
992.71	2072.26
993.006	2086.95
993.303	2089.66
993.6	2100.96
993.897	2103
994.193	2061.87
994.49	2034.75
994.787	2014.64
995.083	2024.13
995.379	2059.38
995.676	2035.2
995.972	2017.57
996.268	2034.75
996.565	2032.94
996.861	2010.57
997.157	1980.29
997.453	1947.07
997.749	1965.15
998.044	1933.73
998.34	1960.4
998.636	1900.29
998.932	1891.7
999.227	1893.96
999.523	1868.2
999.818	1875.88
1000.114	1885.6
1000.409	1883.34
1000.704	1838.14
1001	1834.08
1001.295	1825.49
1001.59	1830.91
1001.885	1812.38
1002.18	1799.73
1002.475	1793.4
1002.77	1821.87
1003.065	1787.75
1003.359	1782.55
1003.654	1745.04
1003.949	1761.99
1004.243	1767.19
1004.538	1755.66
1004.832	1736.45
1005.127	1701.65
1005.421	1719.05
1005.715	1687.87
1006.009	1710.92
1006.304	1676.57
1006.598	1675.89
1006.892	1670.01
1007.186	1638.38
1007.48	1634.99
1007.773	1615.1
1008.067	1594.31
1008.361	1592.05
1008.655	1586.17
1008.948	1599.73
1009.242	1614.19
1009.535	1567.87
1009.829	1581.65
1010.122	1564.48
1010.415	1569.9
1010.708	1559.96
1011.001	1515.44
1011.295	1527.64
1011.588	1528.77
1011.881	1497.59
1012.173	1514.99
1012.466	1505.5
1012.759	1527.42
1013.052	1491.03
1013.344	1479.28
1013.637	1469.34
1013.93	1453.07
1014.222	1465.72
1014.514	1423.69
1014.807	1415.78
1015.099	1421.21
1015.391	1427.53
1015.683	1435.22
1015.976	1420.53
1016.268	1434.31
1016.56	1431.6
1016.851	1367.65
1017.143	1371.49
1017.435	1384.37
1017.727	1340.53
1018.018	1372.85
1018.31	1344.15
1018.602	1342.11
1018.893	1321.1
1019.185	1314.99
1019.476	1311.38
1019.767	1314.54
1020.058	1315.22
1020.35	1259.4
1020.641	1256.24
1020.932	1273.41
1021.223	1262.79
1021.514	1254.66
1021.804	1262.34
1022.095	1267.99
1022.386	1213.08
1022.677	1223.24
1022.967	1216.01
1023.258	1222.79
1023.548	1196.58
1023.839	1183.7
1024.129	1189.35
1024.419	1186.64
1024.709	1175.34
1025	1161.1
1025.29	1176.47
1025.58	1132.17
1025.87	1135.56
1026.16	1133.08
1026.449	1133.98
1026.739	1107.99
1027.029	1119.74
1027.319	1114.09
1027.608	1079.29
1027.898	1098.28
1028.187	1078.84
1028.477	1071.61
1028.766	1058.28
1029.055	1049.92
1029.344	1067.77
1029.634	1057.15
1029.923	1040.2
1030.212	1031.39
1030.501	1012.18
1030.79	1025.74
1031.078	1010.14
1031.367	1017.83
1031.656	1012.85
1031.945	989.8
1032.233	1006.98
1032.522	1000.43
1032.81	1007.21
1033.099	983.7
1033.387	978.96
1033.675	962.46
1033.963	943.25
1034.251	948.68
1034.54	928.56
1034.828	958.39
1035.116	938.73
1035.403	928.11
1035.691	927.43
1035.979	917.94
1036.267	921.56
1036.554	890.82
1036.842	895.34
1037.129	916.36
1037.417	878.39
1037.704	887.21
1037.992	900.32
1038.279	894.21
1038.566	877.04
1038.853	877.04
1039.14	877.04
