Data from hue_90_FLMS001491_45.txt Node
Date: Mon Feb 06 15:25:11 GMT 2017
User: dcchb
Spectrometer: FLMS00149
Trigger mode: 0
Integration Time (sec): 2.000000E-2
Scans to average: 10
Electric dark correction enabled: true
Nonlinearity correction enabled: false
Boxcar width: 0
XAxis mode: Wavelengths
Number of Pixels in Spectrum: 2048
>>>>>Begin Spectral Data<<<<<
341.393	-2.6
341.776	-2.6
342.16	-2.6
342.543	-73.11
342.927	-47.8
343.31	-64.74
343.693	-65.2
344.077	-64.52
344.46	-68.36
344.843	-43.5
345.226	-41.47
345.61	-24.07
345.993	-23.39
346.376	-8.47
346.759	-17.51
347.142	18.87
347.525	57.51
347.908	48.47
348.291	74.24
348.674	97.74
349.057	124.4
349.44	123.27
349.823	142.48
350.206	155.14
350.588	183.61
350.971	204.63
351.354	218.86
351.737	222.03
352.119	246.43
352.502	258.86
352.884	270.61
353.267	293.66
353.65	288.24
354.032	301.35
354.414	306.09
354.797	304.06
355.179	332.76
355.562	335.02
355.944	330.27
356.326	326.21
356.709	342.7
357.091	330.27
357.473	354.68
357.855	333.66
358.238	342.02
358.62	340.22
359.002	324.17
359.384	351.29
359.766	328.92
360.148	342.02
360.53	339.54
360.912	324.62
361.294	349.93
361.676	332.31
362.057	321.23
362.439	329.37
362.821	308.35
363.203	328.47
363.584	338.18
363.966	325.75
364.348	317.17
364.729	345.87
365.111	309.03
365.493	299.09
365.874	327.11
366.256	314
366.637	298.18
367.019	293.66
367.4	318.97
367.781	325.53
368.163	312.65
368.544	324.62
368.925	312.2
369.306	321.46
369.688	302.48
370.069	314.46
370.45	306.09
370.831	321.46
371.212	334.79
371.593	300.9
371.974	317.39
372.355	325.53
372.736	302.7
373.117	323.95
373.498	319.88
373.879	336.15
374.26	319.2
374.641	316.26
375.021	317.17
375.402	308.58
375.783	325.75
376.163	340.89
376.544	318.07
376.925	331.86
377.305	309.71
377.686	348.13
378.066	326.66
378.447	334.79
378.827	332.53
379.208	318.07
379.588	330.73
379.968	354.45
380.349	335.25
380.729	341.8
381.109	338.86
381.489	339.09
381.87	337.28
382.25	340.22
382.63	348.58
383.01	334.79
383.39	328.01
383.77	331.4
384.15	362.82
384.53	359.43
384.91	340.22
385.29	349.48
385.67	337.96
386.049	346.77
386.429	355.81
386.809	335.47
387.189	339.54
387.568	351.97
387.948	344.74
388.328	369.37
388.707	354.68
389.087	356.26
389.466	368.46
389.846	372.08
390.225	356.49
390.605	343.38
390.984	349.71
391.363	373.89
391.743	356.49
392.122	378.18
392.501	386.32
392.881	377.96
393.26	376.15
393.639	380.22
394.018	365.75
394.397	385.64
394.776	387.22
395.155	387.9
395.534	402.59
395.913	386.54
396.292	382.93
396.671	394
397.05	389.03
397.429	372.53
397.808	398.07
398.186	384.28
398.565	429.03
398.944	412.76
399.323	404.62
399.701	404.17
400.08	396.71
400.458	398.97
400.837	385.19
401.215	424.06
401.594	415.02
401.972	413.21
402.351	408.46
402.729	396.26
403.107	403.72
403.486	410.27
403.864	414.11
404.242	421.34
404.62	422.93
404.999	450.5
405.377	420.44
405.755	427.45
406.133	420.21
406.511	441.23
406.889	418.86
407.267	432.19
407.645	440.1
408.023	447.33
408.401	457.5
408.779	465.64
409.156	465.86
409.534	464.73
409.912	440.33
410.29	457.73
410.667	461.57
411.045	466.54
411.422	475.35
411.8	462.7
412.178	464.28
412.555	450.04
412.933	482.13
413.31	487.78
413.687	483.49
414.065	487.56
414.442	493.43
414.819	495.24
415.197	483.94
415.574	506.77
415.951	515.35
416.328	528.69
416.705	509.7
417.082	500.89
417.46	503.38
417.837	504.28
418.214	515.13
418.591	513.32
418.967	530.04
419.344	536.82
419.721	521
420.098	518.07
420.475	532.75
420.852	569.82
421.228	541.79
421.605	539.08
421.982	558.97
422.358	567.1
422.735	559.19
423.111	543.15
423.488	560.78
423.864	551.06
424.241	560.55
424.617	577.5
424.994	577.72
425.37	599.19
425.746	593.32
426.123	596.03
426.499	590.83
426.875	572.98
427.251	594.67
427.627	612.3
428.003	577.5
428.379	612.98
428.756	625.86
429.132	614.11
429.507	629.25
429.883	642.13
430.259	643.94
430.635	636.25
431.011	649.14
431.387	645.29
431.763	666.08
432.138	668.8
432.514	668.57
432.89	671.06
433.265	681.45
433.641	697.5
434.016	676.03
434.392	725.07
434.767	716.48
435.143	710.38
435.518	708.57
435.894	718.29
436.269	709.47
436.644	727.78
437.02	755.57
437.395	728
437.77	736.14
438.145	763.26
438.52	754.22
438.895	775.23
439.271	780.66
439.646	746.53
440.021	771.84
440.395	782.47
440.77	767.55
441.145	804.84
441.52	831.96
441.895	803.93
442.27	777.72
442.645	816.81
443.019	816.14
443.394	820.66
443.769	825.85
444.143	822.01
444.518	822.46
444.892	825.85
445.267	835.35
445.641	855.01
446.016	815.91
446.39	847.77
446.764	843.71
447.139	872.41
447.513	857.49
447.887	862.24
448.262	870.6
448.636	869.02
449.01	888.23
449.384	925.06
449.758	890.03
450.132	904.04
450.506	897.94
450.88	919.41
451.254	916.47
451.628	950.37
452.002	937.26
452.376	935.46
452.75	964.83
453.123	945.4
453.497	990.37
453.871	977.94
454.244	1005.06
454.618	1010.71
454.992	1007.32
455.365	1014.55
455.739	1043.7
456.112	1070.59
456.486	1057.03
456.859	1068.11
457.232	1081.21
457.606	1067.2
457.979	1091.61
458.352	1101.78
458.725	1113.98
459.099	1109.01
459.472	1159.86
459.845	1160.08
460.218	1171.16
460.591	1176.81
460.964	1206.18
461.337	1202.57
461.71	1237.59
462.083	1236.92
462.456	1262.68
462.829	1266.29
463.201	1304.26
463.574	1286.18
463.947	1319.17
464.32	1316.46
464.692	1360.3
465.065	1356.69
465.438	1393.52
465.81	1425.16
466.183	1440.75
466.555	1466.29
466.928	1450.47
467.3	1487.53
467.672	1510.58
468.045	1519.85
468.417	1535.44
468.789	1558.94
469.161	1599.84
469.534	1602.78
469.906	1655.66
470.278	1692.95
470.65	1702.89
471.022	1750.12
471.394	1775.66
471.766	1800.97
472.138	1838.48
472.51	1894.07
472.882	1927.52
473.253	1942.43
473.625	1993.28
473.997	2019.49
474.369	2071.7
474.74	2105.59
475.112	2158.47
475.484	2211.58
475.855	2273.73
476.227	2295.65
476.598	2386.26
476.97	2402.54
477.341	2469.43
477.713	2537.67
478.084	2586.03
478.455	2692.7
478.827	2724.56
479.198	2844.11
479.569	2867.16
479.94	2976.98
480.311	3010.66
480.682	3103.53
481.053	3187.6
481.424	3290.65
481.795	3405.22
482.166	3471.21
482.537	3577.65
482.908	3681.37
483.279	3758.21
483.65	3863.51
484.021	3995.26
484.391	4040.23
484.762	4145.99
485.133	4228.93
485.503	4328.59
485.874	4487
486.244	4564.74
486.615	4719.31
486.985	4853.77
487.356	4988.68
487.726	5117.04
488.097	5245.17
488.467	5282.69
488.837	5501.21
489.207	5592.96
489.578	5792.05
489.948	5870.24
490.318	6040.63
490.688	6141.65
491.058	6232.49
491.428	6398.36
491.798	6550.9
492.168	6758.35
492.538	6788.86
492.908	6944.79
493.278	7083.54
493.648	7171.68
494.017	7290.32
494.387	7427.94
494.757	7614.83
495.126	7766.69
495.496	7842.39
495.866	7945.89
496.235	8082.84
496.605	8228.15
496.974	8270.4
497.344	8436.95
497.713	8598.08
498.082	8649.83
498.452	8807.57
498.821	8897.96
499.19	9000.55
499.559	9184.96
499.928	9180.44
500.298	9342.24
500.667	9480.32
501.036	9482.8
501.405	9614.78
501.774	9676.92
502.143	9799.63
502.512	9951.26
502.88	10022.45
503.249	10106.74
503.618	10212.95
503.987	10321.65
504.356	10369.11
504.724	10450.01
505.093	10534.3
505.462	10588.76
505.83	10686.84
506.199	10767.74
506.567	10940.16
506.936	10890.22
507.304	10982.2
507.672	11034.17
508.041	11166.15
508.409	11213.15
508.777	11326.82
509.145	11416.99
509.514	11400.72
509.882	11563.42
510.25	11600.94
510.618	11631.9
510.986	11651.33
511.354	11755.28
511.722	11818.79
512.09	11895.17
512.458	11874.15
512.826	12044.99
513.193	12032.79
513.561	12048.84
513.929	12199.79
514.297	12270.98
514.664	12316.17
515.032	12281.6
515.4	12382.61
515.767	12396.85
516.135	12486.56
516.502	12402.72
516.869	12570.18
517.237	12541.48
517.604	12451.99
517.972	12662.38
518.339	12694.24
518.706	12739.67
519.073	12691.76
519.44	12795.26
519.808	12887.91
520.175	12835.93
520.542	12957.74
520.909	12979.66
521.276	12889.72
521.643	12997.29
522.009	12993.22
522.376	13101.46
522.743	13126.1
523.11	13148.02
523.477	13308.46
523.843	13272.98
524.21	13399.08
524.577	13426.65
524.943	13342.59
525.31	13453.32
525.676	13578.74
526.043	13548.46
526.409	13492.87
526.776	13623.71
527.142	13638.85
527.508	13674.33
527.874	13731.96
528.241	13714.33
528.607	13707.78
528.973	13760.88
529.339	13627.1
529.705	13707.78
530.071	13796.59
530.437	13853.76
530.803	13814.67
531.169	13771.05
531.535	13764.04
531.901	13670.49
532.267	13733.09
532.632	13835.23
532.998	13792.52
533.364	13748.68
533.73	13798.62
534.095	13761.56
534.461	13806.3
534.826	13801.78
535.192	13728.34
535.557	13766.53
535.923	13628.23
536.288	13711.16
536.653	13738.73
537.019	13660.54
537.384	13675.01
537.749	13669.13
538.114	13636.14
538.479	13581.22
538.845	13580.77
539.21	13503.49
539.575	13526.99
539.94	13548.46
540.305	13513.66
540.67	13462.36
541.034	13437.73
541.399	13486.31
541.764	13335.13
542.129	13444.73
542.494	13345.3
542.858	13339.2
543.223	13368.35
543.587	13289.93
543.952	13220.78
544.316	13200.44
544.681	13072.31
545.045	13183.95
545.41	13156.15
545.774	13161.12
546.138	13087.9
546.503	13073.67
546.867	13010.39
547.231	12976.49
547.595	12991.18
547.959	12908.7
548.324	12869.83
548.688	12880.45
549.052	12877.74
549.416	12772.66
549.779	12795.26
550.143	12815.6
550.507	12849.72
550.871	12793.22
551.235	12740.79
551.599	12667.35
551.962	12722.26
552.326	12708.48
552.689	12734.24
553.053	12571.53
553.417	12528.82
553.78	12690.85
554.143	12573.79
554.507	12595.04
554.87	12504.19
555.234	12575.15
555.597	12433.23
555.96	12481.82
556.323	12391.43
556.686	12428.03
557.05	12473.91
557.413	12446.11
557.776	12396.17
558.139	12476.62
558.502	12481.59
558.865	12408.37
559.228	12485.21
559.59	12481.59
559.953	12452.89
560.316	12423.29
560.679	12465.1
561.041	12534.02
561.404	12517.75
561.767	12494.93
562.129	12381.03
562.492	12571.99
562.854	12520.69
563.217	12484.08
563.579	12505.77
563.941	12435.94
564.304	12447.7
564.666	12547.13
565.028	12508.71
565.39	12567.69
565.753	12608.14
566.115	12639.1
566.477	12584.19
566.839	12626.45
567.201	12657.63
567.563	12615.15
567.925	12647.01
568.287	12680.23
568.648	12576.05
569.01	12644.75
569.372	12724.98
569.734	12695.6
570.095	12706.22
570.457	12716.84
570.819	12729.04
571.18	12777.86
571.542	12805.2
571.903	12753.68
572.265	12756.84
572.626	12841.36
572.987	12851.53
573.349	12865.76
573.71	12831.64
574.071	12863.05
574.432	12864.86
574.794	12889.27
575.155	12884.52
575.516	12891.53
575.877	12986.89
576.238	12875.03
576.599	12896.05
576.96	12895.37
577.32	12897.18
577.681	12907.34
578.042	12913.45
578.403	12956.38
578.763	12827.57
579.124	12911.86
579.485	12912.32
579.845	12910.96
580.206	13021.24
580.566	12912.99
580.927	12855.37
581.287	12915.71
581.648	12894.69
582.008	12947.57
582.368	12847.46
582.728	12968.36
583.089	12834.58
583.449	12901.69
583.809	12856.05
584.169	12868.25
584.529	12886.78
584.889	12872.54
585.249	12773.34
585.609	12789.61
585.969	12827.12
586.329	12892.66
586.688	12880.23
587.048	12793
587.408	12802.94
587.768	12765.88
588.127	12752.09
588.487	12785.77
588.846	12805.43
589.206	12765.43
589.565	12744.64
589.925	12837.52
590.284	12674.81
590.643	12743.05
591.003	12724.98
591.362	12847.46
591.721	12705.32
592.08	12756.39
592.44	12736.73
592.799	12709.84
593.158	12673
593.517	12618.31
593.876	12735.6
594.235	12704.19
594.593	12656.96
594.952	12665.54
595.311	12693.11
595.67	12682.04
596.029	12694.92
596.387	12726.33
596.746	12736.5
597.104	12544.87
597.463	12644.53
597.822	12612.44
598.18	12598.65
598.538	12582.83
598.897	12649.05
599.255	12516.17
599.613	12677.75
599.972	12595.94
600.33	12663.96
600.688	12554.59
601.046	12694.02
601.404	12662.15
601.762	12600.69
602.12	12684.3
602.478	12672.77
602.836	12634.58
603.194	12539.44
603.552	12591.42
603.91	12520.24
604.268	12581.48
604.625	12562.95
604.983	12637.29
605.341	12588.03
605.698	12628.93
606.056	12687.01
606.413	12563.85
606.771	12653.11
607.128	12618.09
607.485	12619.67
607.843	12615.83
608.2	12661.7
608.557	12783.96
608.914	12620.57
609.272	12666.67
609.629	12734.02
609.986	12787.57
610.343	12758.2
610.7	12728.14
611.057	12692.21
611.414	12714.58
611.771	12677.97
612.127	12776.95
612.484	12815.37
612.841	12723.62
613.198	12781.25
613.554	12738.54
613.911	12875.93
614.267	12851.3
614.624	12745.54
614.98	12813.79
615.337	12932.2
615.693	12850.85
616.05	12862.6
616.406	12920
616.762	12825.54
617.118	12861.47
617.475	12882.94
617.831	12905.54
618.187	12872.99
618.543	12927
618.899	12986.66
619.255	12925.87
619.611	12910.73
619.967	13039.77
620.323	13017.4
620.678	12926.55
621.034	12920
621.39	12983.5
621.746	12993.44
622.101	13105.53
622.457	12995.48
622.812	12956.16
623.168	12983.05
623.523	12955.03
623.879	13038.64
624.234	12916.16
624.589	12983.5
624.945	12985.08
625.3	12969.49
625.655	13040
626.01	13036.61
626.365	13013.56
626.72	13045.19
627.075	12939.66
627.43	13004.74
627.785	12867.12
628.14	12960.22
628.495	12959.09
628.85	12960
629.205	12907.57
629.559	12973.11
629.914	12959.32
630.269	12877.51
630.623	12905.08
630.978	12887.23
631.332	12805.2
631.687	12892.43
632.041	12875.03
632.396	12822.6
632.75	12749.61
633.104	12853.33
633.459	12798.65
633.813	12775.14
634.167	12835.48
634.521	12779.89
634.875	12739.21
635.229	12746.44
635.583	12675.26
635.937	12689.95
636.291	12709.61
636.645	12642.94
636.999	12628.03
637.352	12662.6
637.706	12676.39
638.06	12650.63
638.413	12616.28
638.767	12531.31
639.121	12661.25
639.474	12513.91
639.828	12530.63
640.181	12590.97
640.534	12506.68
640.888	12441.59
641.241	12407.7
641.594	12450.41
641.947	12501.48
642.301	12424.19
642.654	12420.58
643.007	12408.15
643.36	12439.56
643.713	12342.16
644.066	12379
644.419	12336.96
644.771	12207.93
645.124	12196.63
645.477	12116.63
645.83	12096.74
646.182	11981.27
646.535	12026.24
646.888	12060.81
647.24	11909.4
647.593	12054.03
647.945	12065.33
648.298	11998.22
648.65	12037.99
649.002	11942.85
649.355	12061.72
649.707	11979.91
650.059	11985.79
650.411	12082.73
650.763	12151.21
651.115	12280.24
651.467	12220.36
651.819	12283.63
652.171	12221.49
652.523	12176.29
652.875	12218.1
653.227	12156.18
653.578	12277.98
653.93	12272.33
654.282	12183.52
654.633	12194.59
654.985	12198.44
655.337	12210.41
655.688	12212
656.039	12318.43
656.391	12202.73
656.742	12208.83
657.094	12217.64
657.445	12300.35
657.796	12181.26
658.147	12267.81
658.498	12273.46
658.849	12266.91
659.2	12222.16
659.551	12197.98
659.902	12366.57
660.253	12231.2
660.604	12303.29
660.955	12196.85
661.306	12293.8
661.656	12266.68
662.007	12333.8
662.358	12263.29
662.708	12308.04
663.059	12269.62
663.409	12220.36
663.76	12344.65
664.11	12266.68
664.461	12286.12
664.811	12244.08
665.161	12289.73
665.511	12179.91
665.862	12284.76
666.212	12290.86
666.562	12372.22
666.912	12257.64
667.262	12352.56
667.612	12238.44
667.962	12336.29
668.312	12357.98
668.662	12343.29
669.011	12352.33
669.361	12379.67
669.711	12259
670.06	12264.65
670.41	12289.96
670.76	12286.12
671.109	12282.5
671.459	12350.75
671.808	12290.86
672.157	12255.61
672.507	12249.28
672.856	12281.15
673.205	12310.52
673.554	12218.32
673.904	12247.47
674.253	12324.76
674.602	12247.7
674.951	12059.46
675.3	11969.29
675.649	12184.43
675.998	12074.6
676.346	12268.04
676.695	12159.79
677.044	12056.97
677.393	12109.17
677.741	12169.06
678.09	12100.13
678.438	12031.66
678.787	12087.93
679.135	12171.54
679.484	11981.72
679.832	12066.24
680.181	11969.97
680.529	11949.63
680.877	11976.75
681.225	11869.18
681.573	11964.09
681.922	11866.92
682.27	11827.82
682.618	11833.7
682.966	11833.02
683.314	11783.53
683.661	11787.37
684.009	11769.07
684.357	11755.74
684.705	11719.35
685.053	11692.01
685.4	11641.84
685.748	11630.54
686.095	11615.17
686.443	11586.7
686.79	11593.25
687.138	11580.83
687.485	11538.57
687.832	11516.42
688.18	11566.59
688.527	11453.6
688.874	11474.84
689.221	11308.97
689.568	11326.14
689.915	11356.2
690.262	11277.56
690.609	11178.35
690.956	11183.32
691.303	11201.17
691.65	11104.45
691.997	11131.12
692.344	11037.11
692.69	11015.42
693.037	11074.85
693.383	10913.72
693.73	10951.92
694.077	10884.12
694.423	10927.28
694.769	10816.78
695.116	10835.99
695.462	10793.28
695.808	10722.09
696.155	10730
696.501	10738.59
696.847	10664.01
697.193	10585.37
697.539	10642.09
697.885	10546.73
698.231	10414.08
698.577	10457.69
698.923	10343.57
699.269	10372.27
699.614	10298.15
699.96	10284.81
700.306	10297.92
700.651	10233.97
700.997	10273.06
701.342	10186.51
701.688	10103.12
702.033	10085.95
702.379	10080.53
702.724	10024.26
703.069	10037.82
703.415	9990.81
703.76	9913.07
704.105	9894.32
704.45	9907.2
704.795	9838.72
705.14	9868.78
705.485	9800.53
705.83	9717.6
706.175	9683.25
706.52	9718.73
706.865	9643.7
707.209	9655.23
707.554	9595.57
707.899	9548.79
708.243	9529.13
708.588	9523.25
708.932	9474.67
709.277	9382.01
709.621	9446.42
709.966	9382.01
710.31	9451.16
710.654	9386.53
710.998	9302.92
711.342	9317.61
711.687	9255.01
712.031	9261.11
712.375	9225.63
712.719	9175.46
713.063	9217.72
713.407	9234.45
713.75	9119.42
714.094	9191.96
714.438	9136.6
714.782	9187.44
715.125	9088.69
715.469	9107.9
715.812	9019.31
716.156	9007.56
716.499	9054.11
716.843	9062.47
717.186	8951.97
717.53	9070.38
717.873	8987.67
718.216	8963.95
718.559	8908.13
718.902	8833.33
719.246	8953.32
719.589	8875.81
719.932	8919.2
720.275	8837.17
720.617	8809.6
720.96	8856.83
721.303	8829.03
721.646	8841.24
721.989	8785.87
722.331	8831.07
722.674	8825.64
723.016	8738.41
723.359	8777.51
723.701	8746.1
724.044	8721.47
724.386	8694.12
724.729	8667.68
725.071	8718.75
725.413	8709.49
725.755	8641.69
726.097	8656.83
726.439	8664.29
726.782	8667.91
727.124	8664.74
727.465	8672.2
727.807	8731.86
728.149	8605.99
728.491	8609.83
728.833	8647.8
729.175	8563.73
729.516	8619.32
729.858	8596.5
730.199	8641.24
730.541	8572.77
730.882	8587.01
731.224	8617.97
731.565	8584.75
731.906	8586.1
732.248	8600.11
732.589	8570.06
732.93	8564.18
733.271	8541.36
733.612	8664.97
733.953	8638.76
734.294	8551.07
734.635	8562.6
734.976	8566.22
735.317	8520.11
735.658	8576.38
735.999	8532.09
736.339	8547.46
736.68	8652.99
737.021	8516.27
737.361	8492.09
737.702	8501.58
738.042	8571.41
738.383	8575.93
738.723	8610.06
739.063	8640.79
739.404	8625.65
739.744	8596.05
740.084	8572.09
740.424	8615.93
740.764	8652.77
741.104	8664.97
741.444	8598.08
741.784	8690.51
742.124	8681.01
742.464	8738.87
742.804	8658.42
743.143	8733.89
743.483	8766.44
743.823	8780
744.162	8773.22
744.502	8843.04
744.841	8831.97
745.181	8903.61
745.52	8954.23
745.86	8953.1
746.199	8974.57
746.538	8995.13
746.877	9070.83
747.216	9119.2
747.556	9086.65
747.895	9174.11
748.234	9169.59
748.573	9288
748.911	9314.67
749.25	9379.3
749.589	9431.73
749.928	9509.47
750.267	9563.93
750.605	9654.32
750.944	9694.1
751.283	9812.96
751.621	9876.24
751.96	9936.57
752.298	9954.88
752.636	10139.51
752.975	10219.28
753.313	10243.69
753.651	10358.48
753.989	10457.24
754.327	10582.43
754.666	10562.32
755.004	10826.95
755.342	10895.65
755.679	11033.04
756.017	11099.03
756.355	11307.61
756.693	11414.28
757.031	11546.25
757.368	11625.34
757.706	11786.02
758.044	11881.38
758.381	12068.95
758.719	12124.77
759.056	12403.18
759.394	12524.08
759.731	12547.35
760.068	12721.59
760.405	12894.24
760.743	13020.11
761.08	13242.25
761.417	13328.12
761.754	13488.57
762.091	13642.01
762.428	13712.97
762.765	13856.7
763.102	14156.12
763.438	14282
763.775	14318.38
764.112	14581.42
764.449	14717.47
764.785	14851.47
765.122	14906.84
765.458	14996.33
765.795	15227.74
766.131	15374.62
766.467	15488.07
766.804	15511.8
767.14	15618.91
767.476	15862.75
767.812	16037.43
768.148	16139.58
768.485	16216.86
768.821	16261.15
769.157	16477.42
769.492	16525.78
769.828	16657.75
770.164	16683.97
770.5	16829.5
770.836	16882.61
771.171	16990.85
771.507	17070.17
771.842	17029.72
772.178	17141.81
772.513	17268.59
772.849	17353.1
773.184	17389.49
773.519	17608.46
773.855	17525.3
774.19	17539.99
774.525	17647.11
774.86	17634.68
775.195	17718.29
775.53	17866.99
775.865	17778.18
776.2	17751.74
776.535	17724.84
776.87	17799.42
777.205	17878.51
777.539	17831.73
777.874	18003.93
778.209	17870.38
778.543	17914.9
778.878	17887.55
779.212	18032.18
779.547	17910.38
779.881	18083.93
780.215	17982.47
780.55	17966.42
780.884	17974.1
781.218	17981.34
781.552	18115.12
781.886	18031.28
782.22	18041.45
782.554	18048.45
782.888	17856.37
783.222	17989.24
783.556	17868.8
783.889	17888.46
784.223	17784.73
784.557	17822.47
784.89	17921.9
785.224	17813.43
785.557	17738.63
785.891	17854.33
786.224	17738.86
786.558	17801.9
786.891	17744.51
787.224	17681
787.557	17657.73
787.891	17718.29
788.224	17623.38
788.557	17596.49
788.89	17584.51
789.223	17626.32
789.556	17554.68
789.888	17558.52
790.221	17465.64
790.554	17449.6
790.887	17375.48
791.219	17303.39
791.552	17357.4
791.884	17258.87
792.217	17310.62
792.549	17209.6
792.882	17157.18
793.214	17172.09
793.546	17153.33
793.879	17017.74
794.211	16983.85
794.543	17072.43
794.875	17056.61
795.207	17138.42
795.539	16962.38
795.871	16893.68
796.203	16888.93
796.535	16800.58
796.867	16683.52
797.198	16700.24
797.53	16679
797.862	16576.4
798.193	16690.07
798.525	16530.07
798.856	16613.24
799.188	16389.06
799.519	16392.68
799.85	16318.55
800.182	16366.91
800.513	16387.48
800.844	16172.8
801.175	16269.52
801.506	16303.87
801.837	16137.32
802.168	16117.88
802.499	16101.16
802.83	16035.4
803.161	15999.69
803.491	16004.44
803.822	16034.72
804.153	15858.91
804.483	15808.96
804.814	15787.49
805.145	15707.95
805.475	15704.56
805.805	15725.8
806.136	15676.08
806.466	15709.76
806.796	15685.8
807.126	15507.73
807.457	15530.78
807.787	15549.53
808.117	15503.89
808.447	15369.2
808.777	15426.37
809.107	15476.77
809.436	15265.7
809.766	15346.15
810.096	15159.04
810.426	15218.7
810.755	15232.48
811.085	15197
811.414	15159.94
811.744	15115.65
812.073	15081.52
812.403	15026.38
812.732	14926.5
813.061	15034.29
813.39	14872.49
813.719	14890.57
814.049	14927.63
814.378	14753.62
814.707	14826.62
815.036	14832.27
815.365	14684.47
815.693	14613.51
816.022	14631.59
816.351	14551.37
816.68	14508.88
817.008	14543.46
817.337	14505.27
817.665	14460.07
817.994	14552.5
818.322	14592.5
818.651	14499.39
818.979	14273.18
819.307	14430.92
819.636	14390.7
819.964	14260.08
820.292	14285.84
820.62	14249.68
820.948	14292.62
821.276	14321.32
821.604	14244.94
821.932	14264.14
822.259	14305.05
822.587	14287.87
822.915	14168.78
823.243	14271.6
823.57	14263.24
823.898	14243.35
824.225	14212.39
824.553	14203.36
824.88	14218.72
825.207	14285.61
825.535	14137.82
825.862	14215.11
826.189	14133.75
826.516	14235.67
826.843	14312.51
827.17	14370.13
827.497	14294.2
827.824	14286.07
828.151	14261.21
828.478	14299.85
828.805	14308.89
829.131	14220.08
829.458	14264.82
829.785	14202.9
830.111	14093.98
830.438	14304.14
830.764	14149.35
831.09	14259.4
831.417	14197.48
831.743	14201.32
832.069	14185.95
832.395	14112.96
832.722	14191.15
833.048	14151.83
833.374	14166.29
833.7	14218.95
834.026	14053.08
834.351	14187.54
834.677	14105.05
835.003	14167.42
835.329	14098.95
835.654	14101.89
835.98	14075.68
836.306	14097.6
836.631	14018.28
836.956	14036.35
837.282	14124.71
837.607	14051.95
837.932	13913.42
838.258	14018.5
838.583	14002.68
838.908	13967.43
839.233	13953.19
839.558	13840.88
839.883	13821.67
840.208	13757.49
840.533	13798.39
840.858	13762.46
841.182	13759.3
841.507	13701.22
841.832	13702.13
842.156	13664.61
842.481	13640.21
842.805	13568.34
843.13	13585.07
843.454	13492.41
843.778	13518.18
844.103	13459.42
844.427	13454.45
844.751	13427.56
845.075	13397.05
845.399	13383.04
845.723	13231.18
846.047	13202.48
846.371	13165.42
846.695	13196.83
847.019	13161.8
847.343	13066.66
847.666	13013.78
847.99	12949.15
848.313	13010.62
848.637	12854.24
848.96	12881.58
849.284	12751.42
849.607	12658.99
849.931	12601.59
850.254	12580.35
850.577	12523.4
850.9	12433.46
851.223	12484.98
851.546	12376.51
851.869	12256.51
852.192	12342.16
852.515	12218.32
852.838	12205.89
853.161	12150.3
853.483	12111.88
853.806	12096.74
854.129	12098.55
854.451	12000.7
854.774	11982.4
855.096	11797.32
855.419	11926.35
855.741	11889.29
856.063	11837.99
856.385	11715.96
856.708	11771.78
857.03	11669.41
857.352	11715.06
857.674	11568.4
857.996	11606.81
858.318	11515.97
858.64	11525.46
858.961	11514.39
859.283	11435.07
859.605	11393.94
859.926	11508.74
860.248	11429.87
860.57	11295.64
860.891	11389.64
861.212	11309.19
861.534	11278.23
861.855	11192.36
862.176	11215.19
862.498	11175.41
862.819	11185.13
863.14	11165.24
863.461	11085.47
863.782	11108.3
864.103	11061.74
864.424	11043.21
864.745	11106.94
865.065	10951.69
865.386	10967.51
865.707	10997.11
866.027	11009.99
866.348	10908.98
866.668	10925.25
866.989	10891.13
867.309	10782.65
867.63	10872.14
867.95	10810.68
868.27	10831.24
868.59	10818.81
868.91	10779.94
869.23	10762.99
869.55	10730.68
869.87	10736.78
870.19	10712.15
870.51	10702.88
870.83	10743.11
871.15	10626.95
871.469	10623.56
871.789	10648.19
872.109	10548.54
872.428	10563.45
872.748	10590.79
873.067	10520.74
873.386	10562.1
873.706	10551.93
874.025	10512.6
874.344	10498.37
874.663	10481.65
874.982	10472.83
875.301	10447.3
875.62	10372.5
875.939	10387.41
876.258	10368.88
876.577	10356.68
876.896	10380.41
877.214	10329.78
877.533	10304.02
877.852	10275.32
878.17	10325.72
878.489	10205.95
878.807	10325.04
879.125	10245.72
879.444	10229.67
879.762	10231.93
880.08	10247.08
880.398	10035.78
880.716	10155.55
881.034	10157.36
881.352	10124.37
881.67	10044.14
881.988	10158.26
882.306	10085.95
882.624	9932.51
882.941	9911.49
883.259	9990.81
883.577	9958.04
883.894	9928.89
884.212	9898.16
884.529	9901.77
884.846	9837.14
885.164	9864.49
885.481	9754.21
885.798	9748.78
886.115	9768.22
886.432	9785.62
886.75	9650.71
887.067	9732.06
887.383	9680.99
887.7	9676.92
888.017	9646.41
888.334	9549.01
888.651	9521.22
888.967	9552.63
889.284	9512.41
889.6	9516.47
889.917	9422.46
890.233	9467.89
890.55	9364.84
890.866	9368.91
891.182	9315.35
891.498	9303.82
891.815	9353.31
892.131	9241
892.447	9275.8
892.763	9205.29
893.079	9186.09
893.395	9111.29
893.71	9158.97
894.026	9122.81
894.342	9029.93
894.657	9063.15
894.973	9058.86
895.289	8989.48
895.604	9009.14
895.92	8935.47
896.235	8905.87
896.55	8872.2
896.865	8871.97
897.181	8779.09
897.496	8793.55
897.811	8781.35
898.126	8759.66
898.441	8652.77
898.756	8724.86
899.071	8566.22
899.386	8683.05
899.7	8553.56
900.015	8519.66
900.33	8445.77
900.644	8436.5
900.959	8474.24
901.273	8433.11
901.588	8354.47
901.902	8334.36
902.216	8292.32
902.531	8234.92
902.845	8264.08
903.159	8241.48
903.473	8190.41
903.787	8179.33
904.101	8135.94
904.415	8121.26
904.729	8056.85
905.042	8041.26
905.356	8020.69
905.67	7959.9
905.984	7950.86
906.297	7879.91
906.611	7855.05
906.924	7842.39
907.237	7839.68
907.551	7826.12
907.864	7753.13
908.177	7788.16
908.491	7764.43
908.804	7669.97
909.117	7641.04
909.43	7507.71
909.743	7612.57
910.056	7580.48
910.368	7478.79
910.681	7503.64
910.994	7420.03
911.307	7382.74
911.619	7396.3
911.932	7352.69
912.244	7250.09
912.557	7353.59
912.869	7284.67
913.181	7175.97
913.494	7268.85
913.806	7144.56
914.118	7177.55
914.43	7049.19
914.742	7121.73
915.054	7056.42
915.366	7032.7
915.678	7006.71
915.99	6920.16
916.302	6942.98
916.613	6878.35
916.925	6909.99
917.236	6896.43
917.548	6849.42
917.859	6840.84
918.171	6791.35
918.482	6760.16
918.794	6723.78
919.105	6761.97
919.416	6677
919.727	6633.61
920.038	6564.69
920.349	6564.46
920.66	6485.14
920.971	6531.92
921.282	6491.92
921.593	6490.34
921.903	6437.68
922.214	6447.85
922.525	6419.83
922.835	6339.38
923.146	6359.72
923.456	6349.1
923.767	6293.73
924.077	6341.42
924.387	6230.68
924.697	6195.43
925.008	6222.77
925.318	6171.7
925.628	6138.48
925.938	6120.4
926.248	6098.71
926.558	6084.02
926.867	6032.95
927.177	6029.56
927.487	6022.1
927.796	5970.13
928.106	5996.34
928.416	5926.28
928.725	5917.25
929.034	5875.21
929.344	5898.04
929.653	5878.83
929.962	5818.49
930.271	5756.35
930.581	5818.49
930.89	5723.8
931.199	5729.45
931.508	5684.94
931.817	5683.58
932.125	5623.92
932.434	5653.07
932.743	5618.04
933.051	5547.09
933.36	5575.11
933.669	5529.01
933.977	5496.24
934.286	5475
934.594	5489.01
934.902	5396.58
935.21	5413.08
935.519	5380.99
935.827	5371.5
936.135	5382.12
936.443	5269.35
936.751	5273.19
937.059	5283.59
937.367	5197.72
937.674	5279.52
937.982	5242.91
938.29	5179.19
938.597	5157.72
938.905	5138.06
939.213	5134.89
939.52	5109.81
939.827	5069.58
940.135	5002.47
940.442	5040.21
940.749	5022.81
941.056	5007.89
941.363	4959.08
941.67	4949.14
941.977	4956.14
942.284	4837.27
942.591	4873.66
942.898	4846.54
943.205	4892.87
943.511	4847.44
943.818	4813.32
944.125	4741.23
944.431	4793.43
944.738	4772.19
945.044	4719.76
945.35	4700.55
945.657	4658.3
945.963	4626.21
946.269	4622.59
946.575	4617.84
946.881	4562.93
947.187	4569.26
947.493	4585.76
947.799	4571.97
948.105	4546.43
948.41	4477.96
948.716	4496.72
949.022	4442.03
949.327	4468.02
949.633	4466.89
949.938	4375.82
950.244	4402.48
950.549	4375.14
950.854	4348.93
951.16	4357.96
951.465	4338.76
951.77	4283.84
952.075	4266.67
952.38	4273.22
952.685	4228.48
952.99	4197.06
953.294	4223.73
953.599	4203.62
953.904	4192.32
954.209	4153.45
954.513	4132.66
954.818	4100.34
955.122	4081.36
955.426	4074.58
955.731	4079.78
956.035	4052.21
956.339	4049.5
956.643	4032.55
956.948	3972.66
957.252	3983.06
957.556	3940.8
957.86	3900.58
958.163	3921.37
958.467	3908.48
958.771	3902.61
959.075	3886.34
959.378	3855.83
959.682	3855.6
959.985	3826
960.289	3798.21
960.592	3755.04
960.896	3778.54
961.199	3735.38
961.502	3801.59
961.805	3693.58
962.108	3715.72
962.411	3746
962.714	3671.88
963.017	3667.36
963.32	3663.75
963.623	3668.04
963.926	3635.5
964.228	3622.84
964.531	3577.87
964.833	3570.64
965.136	3550.75
965.438	3565.22
965.741	3516.86
966.043	3536.74
966.345	3492.22
966.648	3482.51
966.95	3466.24
967.252	3473.47
967.554	3404.54
967.856	3411.77
968.158	3407.26
968.46	3382.4
968.761	3404.77
969.063	3345.79
969.365	3358.89
969.666	3348.05
969.968	3296.98
970.269	3293.13
970.571	3273.7
970.872	3239.35
971.174	3247.94
971.475	3249.29
971.776	3261.95
972.077	3221.05
972.378	3213.81
972.679	3188.5
972.98	3204.55
973.281	3188.96
973.582	3150.09
973.883	3158
974.183	3160.71
974.484	3147.15
974.785	3085.68
975.085	3089.07
975.386	3064.44
975.686	3031.22
975.986	3049.75
976.287	3033.25
976.587	2981.5
976.887	2988.06
977.187	3002.52
977.487	2981.28
977.787	2940.37
978.087	2939.02
978.387	2945.35
978.687	2933.82
978.987	2910.77
979.286	2888.17
979.586	2898.12
979.885	2832.35
980.185	2887.04
980.484	2848.63
980.784	2863.31
981.083	2806.82
981.382	2788.51
981.682	2788.29
981.981	2840.04
982.28	2748.52
982.579	2774.05
982.878	2761.4
983.177	2715.75
983.475	2741.74
983.774	2736.99
984.073	2647.28
984.372	2696.09
984.67	2658.57
984.969	2673.94
985.267	2672.59
985.566	2630.55
985.864	2646.37
986.162	2629.87
986.461	2622.87
986.759	2611.57
987.057	2577.67
987.355	2560.5
987.653	2560.5
987.951	2551.23
988.249	2547.16
988.547	2551.01
988.844	2517.11
989.142	2497.67
989.44	2471.69
989.737	2482.31
990.035	2456.55
990.332	2441.4
990.63	2424
990.927	2434.63
991.224	2424
991.521	2391.24
991.819	2412.93
992.116	2403.44
992.413	2396.21
992.71	2378.81
993.006	2371.35
993.303	2337
993.6	2301.52
993.897	2341.07
994.193	2340.62
994.49	2282.99
994.787	2286.15
995.083	2271.01
995.379	2252.71
995.676	2277.57
995.972	2251.35
996.268	2218.59
996.565	2234.86
996.861	2242.99
997.157	2202.77
997.453	2160.96
997.749	2151.02
998.044	2161.41
998.34	2138.14
998.636	2143.33
998.932	2126.38
999.227	2094.52
999.523	2151.69
999.818	2092.49
1000.114	2094.75
1000.409	2080.28
1000.704	2058.59
1001	2060.85
1001.295	2049.32
1001.59	2059.04
1001.885	2026.5
1002.18	1988.08
1002.475	1984.24
1002.77	2017.24
1003.065	1959.84
1003.359	1971.59
1003.654	1971.81
1003.949	1931.81
1004.243	1956.67
1004.538	1905.15
1004.832	1928.2
1005.127	1918.03
1005.421	1897.92
1005.715	1886.17
1006.009	1859.05
1006.304	1892.27
1006.598	1843.23
1006.892	1868.31
1007.186	1811.82
1007.48	1847.97
1007.773	1808.43
1008.067	1797.81
1008.361	1766.62
1008.655	1765.94
1008.948	1784.47
1009.242	1765.94
1009.535	1738.82
1009.829	1748.54
1010.122	1755.55
1010.415	1711.03
1010.708	1723.68
1011.001	1705.83
1011.295	1687.98
1011.588	1710.35
1011.881	1706.51
1012.173	1643.69
1012.466	1670.13
1012.759	1643.46
1013.052	1642.78
1013.344	1645.27
1013.637	1614.76
1013.93	1610.92
1014.222	1624.03
1014.514	1610.24
1014.807	1596.23
1015.099	1596.23
1015.391	1577.47
1015.683	1547.64
1015.976	1544.71
1016.268	1476.68
1016.56	1494.09
1016.851	1520.52
1017.143	1499.51
1017.435	1475.1
1017.727	1504.03
1018.018	1481.66
1018.31	1464.48
1018.602	1450.7
1018.893	1439.85
1019.185	1445.95
1019.476	1440.3
1019.767	1425.39
1020.058	1412.05
1020.35	1416.12
1020.641	1383.35
1020.932	1392.84
1021.223	1374.54
1021.514	1369.57
1021.804	1362.34
1022.095	1328.89
1022.386	1324.15
1022.677	1315.11
1022.967	1327.08
1023.258	1293.64
1023.548	1285.95
1023.839	1303.36
1024.129	1297.71
1024.419	1278.72
1024.709	1284.15
1025	1260.87
1025.29	1262.45
1025.58	1264.49
1025.87	1245.5
1026.16	1239.18
1026.449	1228.33
1026.739	1233.07
1027.029	1190.82
1027.319	1192.4
1027.608	1214.32
1027.898	1182.45
1028.187	1204.6
1028.477	1188.56
1028.766	1163.02
1029.055	1168.44
1029.344	1183.58
1029.634	1141.33
1029.923	1117.37
1030.212	1106.98
1030.501	1103.59
1030.79	1095.45
1031.078	1097.49
1031.367	1122.8
1031.656	1076.92
1031.945	1089.8
1032.233	1096.36
1032.522	1073.53
1032.81	1088.22
1033.099	1049.58
1033.387	1081.89
1033.675	1059.07
1033.963	1031.95
1034.251	1026.07
1034.54	1027.66
1034.828	1007.32
1035.116	1014.1
1035.403	1005.51
1035.691	993.31
1035.979	1005.06
1036.267	982.91
1036.554	985.4
1036.842	975
1037.129	980.88
1037.417	966.19
1037.704	956.92
1037.992	958.05
1038.279	955.79
1038.566	948.79
1038.853	948.79
1039.14	948.79
