Data from hue_110_FLMS001491_00034.txt Node
Date: Tue Feb 07 17:01:14 GMT 2017
User: dcchb
Spectrometer: FLMS00149
Trigger mode: 0
Integration Time (sec): 2.000000E-2
Scans to average: 10
Electric dark correction enabled: true
Nonlinearity correction enabled: false
Boxcar width: 0
XAxis mode: Wavelengths
Number of Pixels in Spectrum: 2048
>>>>>Begin Spectral Data<<<<<
341.393	-6.55
341.776	-6.55
342.16	-6.55
342.543	-85.65
342.927	-58.08
343.31	-61.24
343.693	-87.91
344.077	-51.75
344.46	-74.35
344.843	-41.81
345.226	-47.46
345.61	-47
345.993	-33.45
346.376	-11.98
346.759	32.09
347.142	25.08
347.525	33.22
347.908	72.31
348.291	82.26
348.674	97.85
349.057	114.12
349.44	132.88
349.823	124.29
350.206	163.61
350.588	179.2
350.971	215.14
351.354	232.31
351.737	230.73
352.119	234.12
352.502	257.62
352.884	280.22
353.267	279.77
353.65	307.11
354.032	296.26
354.414	315.25
354.797	317.96
355.179	339.43
355.562	318.86
355.944	339.43
356.326	334
356.709	332.87
357.091	329.93
357.473	357.28
357.855	330.39
358.238	344.17
358.62	317.96
359.002	328.35
359.384	350.73
359.766	336.26
360.148	357.05
360.53	355.7
360.912	359.31
361.294	340.56
361.676	346.66
362.057	332.87
362.439	357.28
362.821	317.51
363.203	332.19
363.584	316.15
363.966	316.38
364.348	327
364.729	322.7
365.111	324.06
365.493	321.8
365.874	334.23
366.256	317.05
366.637	328.8
367.019	320.44
367.4	322.48
367.781	314.34
368.163	327.9
368.544	329.26
368.925	327.22
369.306	314.12
369.688	337.84
370.069	298.3
370.45	316.15
370.831	327.68
371.212	312.53
371.593	315.25
371.974	296.04
372.355	312.99
372.736	315.7
373.117	317.05
373.498	333.55
373.879	322.93
374.26	333.78
374.641	342.82
375.021	327.9
375.402	344.17
375.783	329.93
376.163	340.78
376.544	347.79
376.925	324.96
377.305	335.13
377.686	326.09
378.066	340.78
378.447	327.67
378.827	341.46
379.208	337.84
379.588	338.3
379.968	329.48
380.349	339.88
380.729	326.32
381.109	331.74
381.489	313.89
381.87	345.98
382.25	362.02
382.63	343.49
383.01	340.56
383.39	346.66
383.77	357.05
384.15	364.51
384.53	342.82
384.91	331.29
385.29	339.43
385.67	348.24
386.049	340.33
386.429	361.12
386.809	362.25
387.189	363.38
387.568	360.89
387.948	336.94
388.328	355.47
388.707	358.63
389.087	367.22
389.466	371.06
389.846	383.04
390.225	362.7
390.605	371.52
390.984	386.2
391.363	382.81
391.743	363.83
392.122	373.78
392.501	401.8
392.881	381.23
393.26	388.24
393.639	378.07
394.018	384.62
394.397	384.62
394.776	381.91
395.155	365.64
395.534	382.36
395.913	374.45
396.292	382.36
396.671	393.89
397.05	400.89
397.429	403.61
397.808	399.76
398.186	411.29
398.565	402.25
398.944	395.92
399.323	398.63
399.701	421.46
400.08	381.91
400.458	418.29
400.837	406.32
401.215	405.64
401.594	390.05
401.972	410.61
402.351	429.14
402.729	436.6
403.107	412.42
403.486	422.14
403.864	445.64
404.242	423.72
404.62	430.72
404.999	425.53
405.377	435.02
405.755	440.67
406.133	449.71
406.511	446.99
406.889	440.67
407.267	444.51
407.645	461.91
408.023	449.93
408.401	439.31
408.779	455.81
409.156	467.56
409.534	445.86
409.912	456.26
410.29	465.3
410.667	472.3
411.045	460.1
411.422	478.63
411.8	501
412.178	484.51
412.555	507.11
412.933	499.42
413.31	496.94
413.687	515.69
414.065	491.74
414.442	485.18
414.819	489.7
415.197	505.3
415.574	518.18
415.951	528.35
416.328	532.64
416.705	519.99
417.082	518.63
417.46	540.1
417.837	529.93
418.214	564.05
418.591	544.17
418.967	563.38
419.344	544.39
419.721	546.65
420.098	532.64
420.475	553.66
420.852	556.82
421.228	548.46
421.605	583.26
421.982	581.23
422.358	572.64
422.735	562.25
423.111	591.85
423.488	583.04
423.864	573.09
424.241	603.6
424.617	566.99
424.994	602.92
425.37	589.14
425.746	596.82
426.123	608.8
426.499	603.15
426.875	609.7
427.251	625.97
427.627	627.55
428.003	655.58
428.379	627.78
428.756	658.29
429.132	649.7
429.507	627.33
429.883	672.3
430.259	647.67
430.635	702.13
431.011	685.41
431.387	671.85
431.763	691.96
432.138	700.09
432.514	695.12
432.89	675.91
433.265	702.81
433.641	721.79
434.016	716.82
434.392	722.69
434.767	733.54
435.143	734.22
435.518	772.41
435.894	766.08
436.269	758.62
436.644	781
437.02	779.64
437.395	789.58
437.77	784.61
438.145	817.15
438.52	797.04
438.895	829.13
439.271	803.14
439.646	839.53
440.021	838.17
440.395	836.81
440.77	820.54
441.145	852.18
441.52	837.94
441.895	846.08
442.27	859.86
442.645	858.28
443.019	878.62
443.394	887.43
443.769	880.88
444.143	873.65
444.518	890.37
444.892	874.1
445.267	900.77
445.641	927.21
446.016	926.08
446.39	927.89
446.764	919.52
447.139	937.15
447.513	943.7
447.887	932.86
448.262	961.78
448.636	952.97
449.01	946.42
449.384	955.91
449.758	954.33
450.132	973.76
450.506	990.26
450.88	989.35
451.254	1009.24
451.628	1016.92
452.002	1033.65
452.376	1049.92
452.75	1022.12
453.123	1043.59
453.497	1058.05
453.871	1071.84
454.244	1119.07
454.618	1084.27
454.992	1082.46
455.365	1108.9
455.739	1126.3
456.112	1131.95
456.486	1148.22
456.859	1147.31
457.232	1165.17
457.606	1171.04
457.979	1175.11
458.352	1222.79
458.725	1192.74
459.099	1232.74
459.472	1253.98
459.845	1277.25
460.218	1302.56
460.591	1266.41
460.964	1291.94
461.337	1333.3
461.71	1335.11
462.083	1378.95
462.456	1356.8
462.829	1386.18
463.201	1387.76
463.574	1426.63
463.947	1446.29
464.32	1486.74
464.692	1461.66
465.065	1495.78
465.438	1563.12
465.81	1550.47
466.183	1571.71
466.555	1603.8
466.928	1599.96
467.3	1643.57
467.672	1663.69
468.045	1683.12
468.417	1709.11
468.789	1705.94
469.161	1771.03
469.534	1784.36
469.906	1826.39
470.278	1864.58
470.65	1872.95
471.022	1947.07
471.394	1980.74
471.766	2023.68
472.138	2028.42
472.51	2055.54
472.882	2108.65
473.253	2158.81
473.625	2208.76
473.997	2271.35
474.369	2291.92
474.74	2349.77
475.112	2380.73
475.484	2439.26
475.855	2467.05
476.227	2535.07
476.598	2666.6
476.97	2649.2
477.341	2749.53
477.713	2853.03
478.084	2885.57
478.455	3005.12
478.827	3061.61
479.198	3158.79
479.569	3207.6
479.94	3294.15
480.311	3407.82
480.682	3508.38
481.053	3561.49
481.424	3692.33
481.795	3774.82
482.166	3870.18
482.537	3952.21
482.908	4066.33
483.279	4175.71
483.65	4294.12
484.021	4441.69
484.391	4550.16
484.762	4616.83
485.133	4695.47
485.503	4876.03
485.874	4993.99
486.244	5117.61
486.615	5219.07
486.985	5340.65
487.356	5546.29
487.726	5664.94
488.097	5818.38
488.467	5935.21
488.837	6113.06
489.207	6241.87
489.578	6412.71
489.948	6502.2
490.318	6681.86
490.688	6781.74
491.058	6958.91
491.428	7126.14
491.798	7260.6
492.168	7449.07
492.538	7622.62
492.908	7696.07
493.278	7893.8
493.648	7930.19
494.017	8150.97
494.387	8346.45
494.757	8432.32
495.126	8570.62
495.496	8682.03
495.866	8803.16
496.235	9012.64
496.605	9143.49
496.974	9292.64
497.344	9405.85
497.713	9540.77
498.082	9555.45
498.452	9801.1
498.821	9917.71
499.19	9938.5
499.559	10079.28
499.928	10213.74
500.298	10357.02
500.667	10436.56
501.036	10430.69
501.405	10668.65
501.774	10613.28
502.143	10837.91
502.512	10971.69
502.88	11093.95
503.249	11163.32
503.618	11251
503.987	11331.45
504.356	11472.69
504.724	11549.98
505.093	11638.11
505.462	11648.06
505.83	11784.55
506.199	11844.89
506.567	12049.63
506.936	12053.02
507.304	12285.55
507.672	12242.16
508.041	12347.25
508.409	12448.49
508.777	12470.41
509.145	12577.75
509.514	12592.44
509.882	12695.71
510.25	12722.38
510.618	12863.16
510.986	12861.81
511.354	12986.33
511.722	13035.14
512.09	13194.91
512.458	13245.98
512.826	13325.53
513.193	13326.88
513.561	13384.51
513.929	13493.43
514.297	13546.99
514.664	13614.33
515.032	13547.21
515.4	13716.7
515.767	13758.28
516.135	13790.37
516.502	13777.49
516.869	14010.03
517.237	13941.78
517.604	13913.08
517.972	14088.44
518.339	14091.38
518.706	14080.53
519.073	14165.28
519.44	14227.87
519.808	14350.13
520.175	14317.36
520.542	14414.76
520.909	14462.67
521.276	14449.79
521.643	14575.21
522.009	14556.68
522.376	14626.51
522.743	14646.62
523.11	14717.81
523.477	14853.17
523.843	14848.65
524.21	14965.03
524.577	14986.05
524.943	14924.81
525.31	15082.09
525.676	15123.67
526.043	15140.17
526.409	15091.58
526.776	15353.49
527.142	15288.19
527.508	15360.5
527.874	15349.43
528.241	15308.3
528.607	15386.94
528.973	15476.66
529.339	15420.61
529.705	15457.67
530.071	15571.57
530.437	15526.37
530.803	15527.28
531.169	15562.75
531.535	15489.54
531.901	15458.12
532.267	15437.33
532.632	15528.63
532.998	15512.13
533.364	15535.41
533.73	15512.13
534.095	15588.97
534.461	15551.68
534.826	15492.25
535.192	15618.8
535.557	15603.21
535.923	15623.09
536.288	15530.67
536.653	15543.77
537.019	15463.32
537.384	15442.98
537.749	15494.96
538.114	15369.99
538.479	15402.53
538.845	15398.01
539.21	15318.24
539.575	15291.58
539.94	15247.51
540.305	15342.65
540.67	15292.48
541.034	15307.85
541.399	15270.56
541.764	15299.26
542.129	15237.57
542.494	15257.9
542.858	15182.43
543.223	15104.24
543.587	15205.48
543.952	15075.54
544.316	15081.64
544.681	15043.9
545.045	15019.04
545.41	14926.16
545.774	14987.18
546.138	14934.97
546.503	14932.71
546.867	14844.58
547.231	14953.51
547.595	14809.33
547.959	14883.22
548.324	14755.32
548.688	14730.01
549.052	14748.31
549.416	14643.91
549.779	14692.5
550.143	14621.31
550.507	14640.07
550.871	14602.78
551.235	14583.57
551.599	14640.52
551.962	14625.83
552.326	14513.06
552.689	14544.93
553.053	14521.65
553.417	14469.22
553.78	14531.82
554.143	14407.3
554.507	14436.46
554.87	14480.3
555.234	14410.92
555.597	14382.45
555.96	14293.18
556.323	14443.24
556.686	14343.35
557.05	14415.67
557.413	14402.11
557.776	14349.91
558.139	14335.89
558.502	14284.6
558.865	14369.57
559.228	14372.73
559.59	14395.1
559.953	14375.67
560.316	14431.71
560.679	14406.17
561.041	14413.86
561.404	14430.81
561.767	14474.65
562.129	14321.43
562.492	14496.57
562.854	14386.06
563.217	14418.15
563.579	14457.7
563.941	14493.18
564.304	14484.36
564.666	14568.88
565.028	14564.59
565.39	14473.29
565.753	14532.27
566.115	14619.05
566.477	14569.56
566.839	14622.21
567.201	14622.21
567.563	14607.75
567.925	14638.03
568.287	14682.78
568.648	14739.73
569.01	14714.87
569.372	14798.25
569.734	14806.16
570.095	14835.54
570.457	14802.55
570.819	14743.12
571.18	14767.07
571.542	14904.01
571.903	14914.86
572.265	14902.43
572.626	14904.47
572.987	14905.82
573.349	14865.37
573.71	14881.87
574.071	14972.04
574.432	15028.76
574.794	15123.67
575.155	14919.83
575.516	14913.73
575.877	15046.38
576.238	14973.17
576.599	15032.83
576.96	14933.84
577.32	14970.68
577.681	14998.02
578.042	15059.49
578.403	15024.46
578.763	15081.41
579.124	15001.41
579.485	15052.03
579.845	15118.25
580.206	15089.09
580.566	15085.25
580.927	14997.57
581.287	15191.01
581.648	15098.36
582.008	15080.96
582.368	14969.78
582.728	15000.28
583.089	14981.53
583.449	15033.05
583.809	15073.5
584.169	14993.5
584.529	15017.68
584.889	15123.22
585.249	15041.64
585.609	14859.72
585.969	14951.92
586.329	14903.11
586.688	14930.91
587.048	14969.78
587.408	14892.72
587.768	14952.6
588.127	14880.96
588.487	14894.3
588.846	14970.91
589.206	14889.33
589.565	14866.05
589.925	14908.31
590.284	14912.38
590.643	14934.75
591.003	14880.06
591.362	15013.39
591.721	14864.24
592.08	14859.04
592.44	14908.08
592.799	14867.86
593.158	14828.31
593.517	14949.44
593.876	14782.89
594.235	14823.34
594.593	14872.15
594.952	14738.37
595.311	14744.02
595.67	14802.77
596.029	14857.24
596.387	14839.61
596.746	14797.13
597.104	14759.61
597.463	14807.52
597.822	14875.77
598.18	14710.12
598.538	14648.2
598.897	14831.93
599.255	14672.38
599.613	14819.5
599.972	14764.58
600.33	14833.51
600.688	14678.03
601.046	14793.28
601.404	14856.33
601.762	14701.53
602.12	14855.2
602.478	14814.07
602.836	14778.14
603.194	14651.59
603.552	14786.73
603.91	14678.03
604.268	14723
604.625	14768.65
604.983	14798.25
605.341	14721.87
605.698	14765.71
606.056	14830.12
606.413	14797.58
606.771	14856.11
607.128	14792.61
607.485	14797.35
607.843	14808.65
608.2	14858.14
608.557	14955.99
608.914	14803.9
609.272	14932.26
609.629	14881.42
609.986	14958.25
610.343	14876.67
610.7	14942.21
611.057	14943.56
611.414	14985.14
611.771	14955.76
612.127	15001.19
612.484	14945.6
612.841	14961.41
613.198	14951.7
613.554	14922.77
613.911	14994.18
614.267	15003.67
614.624	14993.96
614.98	15082.99
615.337	15109.43
615.693	15093.84
616.05	14994.86
616.406	15144.46
616.762	15109.89
617.118	15168.87
617.475	15102.43
617.831	15138.36
618.187	15210
618.543	15199.83
618.899	15270.78
619.255	15207.74
619.611	15187.85
619.967	15304.68
620.323	15262.2
620.678	15224.68
621.034	15253.16
621.39	15102.2
621.746	15179.49
622.101	15317.56
622.457	15217
622.812	15241.41
623.168	15272.37
623.523	15266.49
623.879	15274.17
624.234	15233.72
624.589	15242.76
624.945	15253.84
625.3	15353.27
625.655	15220.84
626.01	15275.53
626.365	15278.02
626.72	15211.35
627.075	15259.26
627.43	15226.94
627.785	15317.56
628.14	15258.13
628.495	15297.45
628.85	15315.3
629.205	15162.99
629.559	15246.15
629.914	15108.53
630.269	15148.98
630.623	15145.36
630.978	15073.05
631.332	15170
631.687	15236.44
632.041	15071.47
632.396	15106.72
632.75	15051.81
633.104	15063.78
633.459	15027.63
633.813	14989.44
634.167	15024.01
634.521	14983.11
634.875	15075.31
635.229	15002.09
635.583	14901.3
635.937	14935.43
636.291	14922.09
636.645	14947.4
636.999	14850.01
637.352	14849.1
637.706	14833.28
638.06	14908.99
638.413	14774.3
638.767	14698.14
639.121	14774.53
639.474	14691.37
639.828	14741.99
640.181	14718.26
640.534	14676.9
640.888	14688.43
641.241	14700.63
641.594	14600.75
641.947	14665.38
642.301	14643.46
642.654	14675.32
643.007	14694.08
643.36	14680.29
643.713	14596
644.066	14665.83
644.419	14572.72
644.771	14521.65
645.124	14356.91
645.477	14327.53
645.83	14274.65
646.182	14198.72
646.535	14147.88
646.888	14186.52
647.24	14152.17
647.593	14160.98
647.945	14136.35
648.298	14021.33
648.65	14055.45
649.002	14030.82
649.355	14039.18
649.707	14067.88
650.059	14147.2
650.411	14320.53
650.763	14405.72
651.115	14454.99
651.467	14420.19
651.819	14419.73
652.171	14447.08
652.523	14455.44
652.875	14474.87
653.227	14361.88
653.578	14516.91
653.93	14464.25
654.282	14328.44
654.633	14376.57
654.985	14370.7
655.337	14486.4
655.688	14454.76
656.039	14577.47
656.391	14368.21
656.742	14376.35
657.094	14407.98
657.445	14453.18
657.796	14460.41
658.147	14428.32
658.498	14513.74
658.849	14400.07
659.2	14458.6
659.551	14390.13
659.902	14426.97
660.253	14459.73
660.604	14531.14
660.955	14342
661.306	14438.04
661.656	14416.57
662.007	14445.72
662.358	14434.65
662.708	14413.18
663.059	14441.88
663.409	14435.33
663.76	14422.9
664.11	14436.91
664.461	14491.14
664.811	14472.84
665.161	14480.52
665.511	14397.81
665.862	14438.94
666.212	14580.41
666.562	14498.83
666.912	14428.55
667.262	14387.64
667.612	14454.08
667.962	14477.59
668.312	14417.7
668.662	14439.85
669.011	14521.65
669.361	14519.62
669.711	14434.65
670.06	14414.31
670.41	14359.17
670.76	14362.33
671.109	14435.1
671.459	14425.16
671.808	14405.04
672.157	14404.37
672.507	14285.95
672.856	14433.29
673.205	14324.37
673.554	14396.01
673.904	14349.45
674.253	14402.11
674.602	14338.61
674.951	14154.88
675.3	14052.96
675.649	14286.86
675.998	14241.21
676.346	14316.23
676.695	14313.97
677.044	14221.77
677.393	14276.01
677.741	14196.91
678.09	14208.44
678.438	14170.47
678.787	14198.95
679.135	14093.19
679.484	14135.9
679.832	14121.21
680.181	14055.22
680.529	14110.14
680.877	13969.35
681.225	13987.65
681.573	14046.86
681.922	13932.29
682.27	13892.97
682.618	13925.74
682.966	13859.75
683.314	13972.74
683.661	13829.24
684.009	13730.03
684.357	13748.79
684.705	13766.87
685.053	13752.41
685.4	13783.14
685.748	13660.43
686.095	13664.5
686.443	13563.71
686.79	13530.94
687.138	13597.16
687.485	13588.8
687.832	13497.5
688.18	13484.39
688.527	13488.91
688.874	13404.17
689.221	13389.48
689.568	13412.53
689.915	13316.49
690.262	13314
690.609	13268.58
690.956	13214.79
691.303	13210.27
691.65	13102.93
691.997	13117.62
692.344	13067.68
692.69	12991.52
693.037	12936.61
693.383	12827.91
693.73	12914.69
694.077	12831.53
694.423	12719.89
694.769	12682.6
695.116	12703.62
695.462	12742.26
695.808	12589.27
696.155	12714.69
696.501	12615.94
696.847	12561.93
697.193	12461.59
697.539	12571.42
697.885	12290.75
698.231	12305.89
698.577	12331.43
698.923	12341.6
699.269	12236.74
699.614	12152.9
699.96	12126.91
700.306	12120.59
700.651	12013.02
700.997	11931.66
701.342	11921.49
701.688	11943.41
702.033	11840.14
702.379	11913.13
702.724	11803.53
703.069	11819.58
703.415	11723.31
703.76	11705.23
704.105	11594.5
704.45	11615.29
704.795	11582.97
705.14	11570.09
705.485	11515.63
705.83	11458
706.175	11463.2
706.52	11396.99
706.865	11320.38
707.209	11361.51
707.554	11325.8
707.899	11288.29
708.243	11171.46
708.588	11259.36
708.932	11238.35
709.277	11195.64
709.621	11092.82
709.966	11011.91
710.31	11066.6
710.654	10967.17
710.998	11013.5
711.342	11018.24
711.687	10972.37
712.031	10905.93
712.375	10814.86
712.719	10918.58
713.063	10822.99
713.407	10919.71
713.75	10839.71
714.094	10858.25
714.438	10804.01
714.782	10735.99
715.125	10692.83
715.469	10787.96
715.812	10597.01
716.156	10604.92
716.499	10599.27
716.843	10596.11
717.186	10486.28
717.53	10571.47
717.873	10554.52
718.216	10554.75
718.559	10546.84
718.902	10426.84
719.246	10462.78
719.589	10438.6
719.932	10424.58
720.275	10381.2
720.617	10413.51
720.96	10413.29
721.303	10352.5
721.646	10353.17
721.989	10265.49
722.331	10339.39
722.674	10317.47
723.016	10351.59
723.359	10300.52
723.701	10303.68
724.044	10257.13
724.386	10163.8
724.729	10234.53
725.071	10278.83
725.413	10214.87
725.755	10229.56
726.097	10201.99
726.439	10159.96
726.782	10159.51
727.124	10223.23
727.465	10149.34
727.807	10100.3
728.149	10138.26
728.491	10114.54
728.833	10127.87
729.175	10098.94
729.516	10034.54
729.858	10022.34
730.199	10112.28
730.541	10121.99
730.882	10168.77
731.224	10069.57
731.565	10050.81
731.906	10067.76
732.248	10079.28
732.589	9997.48
732.93	9999.29
733.271	10052.17
733.612	10071.6
733.953	10035.22
734.294	10087.87
734.635	10042.67
734.976	10084.03
735.317	10039.51
735.658	10078.38
735.999	10077.02
736.339	10029.11
736.68	10109.11
737.021	10081.54
737.361	10098.94
737.702	10148.66
738.042	10124.25
738.383	10086.51
738.723	10135.55
739.063	10187.98
739.404	10102.11
739.744	10143.69
740.084	10153.86
740.424	10142.33
740.764	10133.07
741.104	10218.94
741.444	10178.94
741.784	10082.9
742.124	10214.42
742.464	10281.31
742.804	10204.48
743.143	10229.34
743.483	10279.73
743.823	10290.35
744.162	10278.6
744.502	10368.99
744.841	10378.71
745.181	10479.5
745.52	10470.01
745.86	10545.03
746.199	10494.19
746.538	10606.27
746.877	10610.12
747.216	10712.94
747.556	10688.76
747.895	10784.35
748.234	10774.63
748.573	10863.44
748.911	10901.41
749.25	10935.31
749.589	10964.68
749.928	11056.66
750.267	11192.47
750.605	11201.97
750.944	11249.65
751.283	11381.85
751.621	11477.21
751.96	11564.22
752.298	11665.91
752.636	11853.02
752.975	11832.68
753.313	11900.25
753.651	12054.6
753.989	12095.73
754.327	12235.61
754.666	12345.44
755.004	12444.19
755.342	12700.01
755.679	12794.92
756.017	12859.1
756.355	13034.23
756.693	13160.56
757.031	13342.93
757.368	13412.3
757.706	13566.2
758.044	13749.69
758.381	13878.96
758.719	13984.27
759.056	14193.07
759.394	14324.14
759.731	14431.94
760.068	14543.57
760.405	14773.85
760.743	14899.27
761.08	15095.65
761.417	15151.69
761.754	15349.2
762.091	15547.84
762.428	15661.51
762.765	15781.05
763.102	16212.23
763.438	16181.27
763.775	16303.98
764.112	16567.25
764.449	16661.93
764.785	16820.12
765.122	16939.44
765.458	16979.89
765.795	17201.58
766.131	17404.74
766.467	17528.58
766.804	17528.13
767.14	17690.16
767.476	17796.82
767.812	17883.37
768.148	18119.75
768.485	18152.07
768.821	18168.56
769.157	18373.53
769.492	18535.78
769.828	18561.32
770.164	18609.45
770.5	18780.07
770.836	18877.24
771.171	18848.77
771.507	19022.55
771.842	18951.59
772.178	19187.29
772.513	19258.93
772.849	19286.5
773.184	19258.7
773.519	19533.27
773.855	19508.64
774.19	19470.45
774.525	19536.89
774.86	19614.63
775.195	19707.05
775.53	19714.96
775.865	19703.89
776.2	19693.04
776.535	19680.16
776.87	19820.04
777.205	19773.04
777.539	19806.48
777.874	19833.38
778.209	19724.23
778.543	19786.82
778.878	19763.32
779.212	19805.35
779.547	19807.39
779.881	19854.39
780.215	19774.4
780.55	19924.9
780.884	19760.84
781.218	19916.09
781.552	19906.6
781.886	19792.47
782.22	19706.37
782.554	19806.71
782.888	19669.99
783.222	19666.15
783.556	19666.38
783.889	19660.5
784.223	19599.48
784.557	19590.9
784.89	19670.67
785.224	19582.08
785.557	19452.14
785.891	19507.51
786.224	19484.23
786.558	19503.44
786.891	19348.42
787.224	19435.65
787.557	19339.38
787.891	19401.98
788.224	19349.1
788.557	19401.75
788.89	19311.36
789.223	19326.5
789.556	19251.47
789.888	19239.72
790.221	19073.85
790.554	19042.21
790.887	19026.17
791.219	18933.29
791.552	18998.14
791.884	18848.32
792.217	18892.38
792.549	18933.97
792.882	18757.02
793.214	18724.48
793.546	18726.97
793.879	18592.28
794.211	18522.9
794.543	18553.86
794.875	18583.47
795.207	18631.6
795.539	18462.57
795.871	18583.01
796.203	18463.92
796.535	18314.55
796.867	18306.19
797.198	18265.96
797.53	18311.83
797.862	18112.97
798.193	18246.98
798.525	18033.88
798.856	18075.68
799.188	17962.69
799.519	17871.85
799.85	17833.66
800.182	17865.74
800.513	17910.72
800.844	17619.88
801.175	17708.69
801.506	17729.7
801.837	17602.25
802.168	17625.98
802.499	17594.34
802.83	17468.02
803.161	17542.14
803.491	17482.03
803.822	17451.07
804.153	17363.39
804.483	17228.47
804.814	17190.96
805.145	17209.72
805.475	17166.1
805.805	17047.24
806.136	17060.57
806.466	17181.02
806.796	17060.12
807.126	16916.39
807.457	16912.32
807.787	16908.93
808.117	16885.88
808.447	16865.32
808.777	16806.56
809.107	16781.48
809.436	16675.72
809.766	16656.51
810.096	16680.69
810.426	16555.72
810.755	16584.2
811.085	16517.76
811.414	16479.34
811.744	16350.76
812.073	16396.18
812.403	16318.67
812.732	16268.95
813.061	16290.65
813.39	16085
813.719	16210.2
814.049	16235.28
814.378	16165.45
814.707	16117.77
815.036	16097.43
815.365	16120.93
815.693	15882.97
816.022	15941.95
816.351	15859.47
816.68	15817.21
817.008	15948.06
817.337	15772.24
817.665	15782.41
817.994	15715.74
818.322	15686.59
818.651	15624.9
818.979	15636.88
819.307	15666.03
819.636	15572.25
819.964	15539.48
820.292	15597.56
820.62	15598.23
820.948	15534.51
821.276	15685.69
821.604	15511.91
821.932	15599.82
822.259	15474.4
822.587	15464.23
822.915	15439.37
823.243	15572.47
823.57	15523.43
823.898	15477.33
824.225	15412.25
824.553	15410.22
824.88	15471.68
825.207	15547.61
825.535	15466.49
825.862	15602.98
826.189	15405.47
826.516	15535.18
826.843	15601.17
827.17	15619.25
827.497	15596.2
827.824	15638.68
828.151	15517.33
828.478	15493.38
828.805	15619.93
829.131	15535.64
829.458	15508.97
829.785	15415.87
830.111	15467.62
830.438	15596.88
830.764	15522.76
831.09	15487.5
831.417	15435.75
831.743	15427.62
832.069	15485.02
832.395	15373.83
832.722	15471.91
833.048	15329.99
833.374	15436.2
833.7	15358.69
834.026	15349.2
834.351	15257.9
834.677	15346.04
835.003	15401.18
835.329	15324.12
835.654	15342.2
835.98	15250.45
836.306	15300.16
836.631	15245.93
836.956	15310.11
837.282	15253.61
837.607	15192.59
837.932	15244.12
838.258	15113.73
838.583	15156.89
838.908	15092.71
839.233	15103.11
839.558	15119.6
839.883	15011.13
840.208	14942.43
840.533	14952.83
840.858	14996.44
841.182	14977.91
841.507	14919.16
841.832	14794.64
842.156	14895.88
842.481	14872.15
842.805	14757.35
843.13	14795.32
843.454	14623.34
843.778	14665.38
844.103	14691.59
844.427	14650.46
844.751	14668.54
845.075	14549.22
845.399	14528.66
845.723	14383.35
846.047	14373.86
846.371	14330.24
846.695	14279.62
847.019	14194.66
847.343	14160.31
847.666	14051.61
847.99	14003.02
848.313	14026.52
848.637	13983.59
848.96	13915.34
849.284	13882.8
849.607	13745.63
849.931	13773.88
850.254	13698.4
850.577	13622.92
850.9	13610.26
851.223	13407.33
851.546	13430.16
851.869	13342.47
852.192	13510.15
852.515	13335.02
852.838	13239.43
853.161	13268.35
853.483	13191.52
853.806	13086.44
854.129	13062.48
854.451	13049.15
854.774	12997.85
855.096	12980.9
855.419	12913.11
855.741	13011.86
856.063	12786.1
856.385	12777.07
856.708	12746.11
857.03	12628.82
857.352	12676.73
857.674	12634.92
857.996	12644.64
858.318	12545.66
858.64	12549.95
858.961	12517.86
859.283	12418.43
859.605	12310.86
859.926	12425.89
860.248	12401.03
860.57	12361.03
860.891	12413.91
861.212	12257.98
861.534	12173.24
861.855	12182.28
862.176	12238.1
862.498	12265.89
862.819	12189.51
863.14	12168.72
863.461	12061.6
863.782	12021.83
864.103	12091.43
864.424	11991.1
864.745	12048.5
865.065	11921.04
865.386	11899.8
865.707	11948.61
866.027	11876.52
866.348	11831.78
866.668	11827.94
866.989	11818.22
867.309	11772.12
867.63	11779.13
867.95	11789.75
868.27	11702.07
868.59	11807.83
868.91	11669.52
869.23	11720.82
869.55	11629.07
869.87	11716.3
870.19	11682.18
870.51	11646.7
870.83	11745.23
871.15	11634.04
871.469	11597.89
871.789	11535.52
872.109	11539.58
872.428	11521.96
872.748	11513.37
873.067	11548.4
873.386	11476.99
873.706	11491.68
874.025	11333.49
874.344	11383.66
874.663	11432.92
874.982	11285.13
875.301	11399.47
875.62	11324.22
875.939	11362.41
876.258	11320.15
876.577	11241.51
876.896	11269.53
877.214	11196.77
877.533	11274.28
877.852	11195.19
878.17	11084.68
878.489	11195.64
878.807	11168.97
879.125	11176.66
879.444	11121.52
879.762	11154.51
880.08	11089.2
880.398	10979.82
880.716	11032.48
881.034	10901.18
881.352	10988.86
881.67	10941.18
881.988	10935.76
882.306	10925.36
882.624	10793.61
882.941	10824.57
883.259	10820.28
883.577	10823.22
883.894	10754.29
884.212	10798.36
884.529	10737.57
884.846	10706.39
885.164	10662.77
885.481	10702.54
885.798	10655.54
886.115	10557.24
886.432	10577.35
886.75	10505.03
887.067	10587.97
887.383	10528.76
887.7	10581.87
888.017	10516.33
888.334	10469.78
888.651	10366.73
888.967	10329.45
889.284	10277.92
889.6	10326.73
889.917	10243.35
890.233	10275.21
890.55	10165.38
890.866	10217.36
891.182	10181.65
891.498	10163.12
891.815	10109.11
892.131	10100.98
892.447	10037.02
892.763	9990.47
893.079	9954.31
893.395	9960.87
893.71	9912.06
894.026	9874.54
894.342	9938.04
894.657	9807.65
894.973	9844.49
895.289	9780.31
895.604	9746.18
895.92	9686.3
896.235	9620.31
896.55	9650.14
896.865	9575.12
897.181	9597.49
897.496	9577.6
897.811	9551.61
898.126	9536.47
898.441	9439.3
898.756	9397.49
899.071	9370.38
899.386	9356.14
899.7	9282.69
900.015	9264.16
900.33	9205.41
900.644	9217.16
900.959	9182.81
901.273	9139.42
901.588	9046.54
901.902	9038.63
902.216	8976.94
902.531	8987.79
902.845	8984.62
903.159	8928.58
903.473	8896.72
903.787	8804.74
904.101	8781.46
904.415	8776.94
904.729	8779.43
905.042	8726.1
905.356	8691.3
905.67	8623.5
905.984	8698.3
906.297	8580.11
906.611	8546.22
906.924	8534.01
907.237	8509.38
907.551	8513.67
907.864	8436.84
908.177	8405.2
908.491	8393.68
908.804	8291.76
909.117	8264.42
909.43	8270.52
909.743	8198.43
910.056	8167.92
910.368	8232.78
910.681	8137.64
910.994	8059.22
911.307	8115.94
911.619	7988.49
911.932	8038.43
912.244	7948.04
912.557	7930.64
912.869	7880.24
913.181	7831.66
913.494	7844.31
913.806	7838.21
914.118	7835.05
914.43	7707.82
914.742	7710.98
915.054	7663.3
915.366	7697.65
915.678	7571.33
915.99	7590.08
916.302	7486.13
916.613	7534.04
916.925	7491.55
917.236	7404.33
917.548	7418.79
917.859	7396.64
918.171	7407.94
918.482	7360.26
918.794	7302.41
919.105	7266.93
919.416	7211.11
919.727	7266.7
920.038	7157.55
920.349	7131.11
920.66	7121.62
920.971	7070.77
921.282	7093.15
921.593	7036.88
921.903	6964.34
922.214	6963.21
922.525	6942.64
922.835	6886.15
923.146	6899.71
923.456	6851.57
923.767	6801.18
924.077	6788.97
924.387	6775.87
924.697	6664.23
925.008	6639.37
925.318	6740.84
925.628	6655.42
925.938	6634.85
926.248	6644.8
926.558	6577.91
926.867	6577
927.177	6553.05
927.487	6444.12
927.796	6388.98
928.106	6460.4
928.416	6410
928.725	6344.92
929.034	6357.12
929.344	6336.33
929.653	6353.28
929.962	6225.6
930.271	6214.75
930.581	6225.82
930.89	6197.35
931.199	6179.5
931.508	6142.21
931.817	6135.88
932.125	6164.58
932.434	6111.25
932.743	6049.56
933.051	6056.11
933.36	6023.57
933.669	5970.92
933.977	5959.17
934.286	5915.78
934.594	5910.81
934.902	5862.44
935.21	5844.59
935.519	5887.53
935.827	5824.25
936.135	5782.9
936.443	5738.83
936.751	5722.79
937.059	5756.68
937.367	5698.83
937.674	5653.41
937.982	5659.06
938.29	5598.5
938.597	5604.82
938.905	5559.18
939.213	5519.63
939.52	5519.4
939.827	5462.46
940.135	5428.11
940.442	5456.58
940.749	5391.27
941.056	5418.39
941.363	5382.01
941.67	5418.61
941.977	5318.96
942.284	5253.42
942.591	5278.28
942.898	5230.82
943.205	5290.71
943.511	5246.19
943.818	5211.16
944.125	5191.5
944.431	5153.08
944.738	5118.06
945.044	5097.72
945.35	5097.49
945.657	5060.21
945.963	5091.62
946.269	5037.61
946.575	5013.65
946.881	5002.13
947.187	4966.65
947.493	4928.46
947.799	4909.02
948.105	4881.23
948.41	4811.4
948.716	4857.27
949.022	4850.27
949.327	4855.24
949.633	4752.87
949.938	4791.96
950.244	4737.95
950.549	4686.2
950.854	4709.71
951.16	4690.95
951.465	4665.19
951.77	4631.52
952.075	4629.93
952.38	4598.75
952.685	4582.25
952.99	4517.62
953.294	4550.84
953.599	4548.13
953.904	4505.19
954.209	4439.88
954.513	4469.49
954.818	4434.23
955.122	4410.28
955.426	4418.19
955.731	4404.18
956.035	4379.55
956.339	4357.4
956.643	4340.68
956.948	4326.44
957.252	4305.2
957.556	4297.29
957.86	4271.98
958.163	4237.4
958.467	4193.79
958.771	4201.02
959.075	4215.03
959.378	4175.71
959.682	4158.76
959.985	4122.38
960.289	4116.28
960.592	4118.08
960.896	4103.62
961.199	4070.85
961.502	4014.36
961.805	4005.54
962.108	3991.99
962.411	3968.94
962.714	3949.73
963.017	3944.53
963.32	3994.7
963.623	3892.55
963.926	3906.56
964.228	3857.07
964.531	3851.42
964.833	3853.91
965.136	3781.14
965.438	3836.28
965.741	3803.52
966.043	3757.64
966.345	3776.85
966.648	3750.41
966.95	3762.84
967.252	3719.22
967.554	3716.74
967.856	3655.27
968.158	3637.19
968.46	3622.05
968.761	3684.65
969.063	3595.61
969.365	3629.51
969.666	3618.89
969.968	3593.13
970.269	3555.39
970.571	3512.22
970.872	3491.66
971.174	3478.33
971.475	3479
971.776	3487.82
972.077	3485.78
972.378	3416.63
972.679	3435.84
972.98	3414.37
973.281	3430.64
973.582	3379.12
973.883	3375.96
974.183	3346.58
974.484	3319.69
974.785	3358.78
975.085	3335.73
975.386	3336.41
975.686	3331.89
975.986	3297.31
976.287	3303.64
976.587	3225.45
976.887	3253.25
977.187	3217.99
977.487	3234.04
977.787	3210.54
978.087	3156.75
978.387	3177.09
978.687	3209.63
978.987	3138.9
979.286	3148.84
979.586	3119.92
979.885	3071.11
980.185	3066.81
980.484	3042.63
980.784	3048.51
981.083	3069.07
981.382	3035.85
981.682	3033.14
981.981	2994.27
982.28	2979.13
982.579	2967.15
982.878	2978.68
983.177	2950.2
983.475	2941.17
983.774	2902.75
984.073	2897.55
984.372	2898.68
984.67	2888.74
984.969	2879.02
985.267	2847.38
985.566	2860.72
985.864	2856.2
986.162	2836.76
986.461	2805.8
986.759	2788.85
987.057	2778.23
987.355	2761.51
987.653	2704.56
987.951	2739.36
988.249	2703.21
988.547	2694.39
988.844	2694.84
989.142	2710.89
989.44	2653.72
989.737	2662.53
990.035	2643.77
990.332	2646.26
990.63	2634.73
990.927	2608.74
991.224	2614.62
991.521	2587.5
991.819	2591.8
992.116	2577.56
992.413	2524.91
992.71	2540.27
993.006	2524
993.303	2508.41
993.6	2495.53
993.897	2481.74
994.193	2495.98
994.49	2502.99
994.787	2463.21
995.083	2432.7
995.379	2414.17
995.676	2400.39
995.972	2426.15
996.268	2414.17
996.565	2383.44
996.861	2395.19
997.157	2379.82
997.453	2334.18
997.749	2382.31
998.044	2327.85
998.34	2312.48
998.636	2318.58
998.932	2278.13
999.227	2263.9
999.523	2295.31
999.818	2237.91
1000.114	2259.83
1000.409	2208.08
1000.704	2243.33
1001	2175.08
1001.295	2201.07
1001.59	2184.8
1001.885	2191.35
1002.18	2173.5
1002.475	2166.04
1002.77	2133.73
1003.065	2107.29
1003.359	2110.45
1003.654	2068.65
1003.949	2111.58
1004.243	2104.13
1004.538	2056.44
1004.832	2082.21
1005.127	2048.31
1005.421	2047.4
1005.715	2024.58
1006.009	2030.46
1006.304	2019.38
1006.598	1975.54
1006.892	1979.16
1007.186	1947.07
1007.48	1980.29
1007.773	1992.94
1008.067	1927.86
1008.361	1886.96
1008.655	1892.83
1008.948	1906.16
1009.242	1897.58
1009.535	1838.37
1009.829	1863
1010.122	1886.96
1010.415	1842.89
1010.708	1848.99
1011.001	1804.25
1011.295	1792.04
1011.588	1796.34
1011.881	1768.99
1012.173	1801.31
1012.466	1751.59
1012.759	1764.93
1013.052	1752.95
1013.344	1767.41
1013.637	1730.58
1013.93	1718.15
1014.222	1706.4
1014.514	1696
1014.807	1688.77
1015.099	1697.81
1015.391	1670.01
1015.683	1642.67
1015.976	1654.87
1016.268	1622.78
1016.56	1661.2
1016.851	1623.01
1017.143	1604.48
1017.435	1599.96
1017.727	1596.57
1018.018	1593.86
1018.31	1561.54
1018.602	1536.46
1018.893	1558.38
1019.185	1561.99
1019.476	1489.23
1019.767	1517.7
1020.058	1505.05
1020.35	1500.53
1020.641	1467.98
1020.932	1489
1021.223	1479.28
1021.514	1474.76
1021.804	1448.78
1022.095	1447.65
1022.386	1411.49
1022.677	1447.42
1022.967	1417.82
1023.258	1400.87
1023.548	1360.64
1023.839	1400.87
1024.129	1390.92
1024.419	1363.35
1024.709	1363.13
1025	1341.89
1025.29	1341.21
1025.58	1334.65
1025.87	1308.21
1026.16	1303.02
1026.449	1305.28
1026.739	1321.55
1027.029	1270.02
1027.319	1285.62
1027.608	1302.56
1027.898	1271.83
1028.187	1260.98
1028.477	1256.01
1028.766	1223.02
1029.055	1247.42
1029.344	1251.04
1029.634	1219.63
1029.923	1234.77
1030.212	1201.55
1030.501	1196.35
1030.79	1189.57
1031.078	1177.6
1031.367	1145.05
1031.656	1164.26
1031.945	1142.57
1032.233	1144.15
1032.522	1155.45
1032.81	1116.35
1033.099	1113.87
1033.387	1134.89
1033.675	1128.78
1033.963	1103.7
1034.251	1090.14
1034.54	1107.54
1034.828	1075.68
1035.116	1072.51
1035.403	1072.06
1035.691	1054.44
1035.979	1047.88
1036.267	1069.35
1036.554	1032.97
1036.842	1051.95
1037.129	1038.16
1037.417	1025.51
1037.704	989.13
1037.992	1006.98
1038.279	974.21
1038.566	993.42
1038.853	993.42
1039.14	993.42
