Data from hue_310_FLMS001491_46.txt Node
Date: Mon Feb 06 15:49:45 GMT 2017
User: dcchb
Spectrometer: FLMS00149
Trigger mode: 0
Integration Time (sec): 2.000000E-2
Scans to average: 10
Electric dark correction enabled: true
Nonlinearity correction enabled: false
Boxcar width: 0
XAxis mode: Wavelengths
Number of Pixels in Spectrum: 2048
>>>>>Begin Spectral Data<<<<<
341.393	-20.18
341.776	-20.18
342.16	-20.18
342.543	-55.89
342.927	-54.76
343.31	-69.9
343.693	-56.11
344.077	-65.38
344.46	-65.38
344.843	-54.31
345.226	-33.97
345.61	-36.23
345.993	-36.68
346.376	-11.82
346.759	2.87
347.142	31.34
347.525	38.8
347.908	65.69
348.291	74.28
348.674	103.66
349.057	113.15
349.44	126.71
349.823	129.87
350.206	156.99
350.588	196.76
350.971	221.62
351.354	227.04
351.737	219.58
352.119	242.63
352.502	250.32
352.884	279.02
353.267	269.07
353.65	268.85
354.032	304.55
354.414	291.22
354.797	316.53
355.179	320.82
355.562	313.59
355.944	324.21
356.326	335.51
356.709	339.58
357.091	357.43
357.473	350.88
357.855	352.69
358.238	331.45
358.62	351.33
359.002	315.63
359.384	356.3
359.766	335.97
360.148	361.05
360.53	332.12
360.912	319.02
361.294	330.32
361.676	342.07
362.057	337.77
362.439	319.02
362.821	343.2
363.203	318.11
363.584	334.16
363.966	323.99
364.348	323.76
364.729	320.82
365.111	319.47
365.493	319.02
365.874	319.69
366.256	323.31
366.637	335.29
367.019	305.68
367.4	312.92
367.781	301.62
368.163	326.47
368.544	318.57
368.925	317.66
369.306	321.73
369.688	321.05
370.069	313.82
370.45	320.37
370.831	308.4
371.212	308.62
371.593	307.27
371.974	306.36
372.355	332.12
372.736	309.53
373.117	306.81
373.498	299.81
373.879	323.08
374.26	318.11
374.641	327.15
375.021	302.52
375.402	316.08
375.783	322.41
376.163	332.12
376.544	331.9
376.925	356.53
377.305	328.06
377.686	342.97
378.066	326.7
378.447	340.71
378.827	349.98
379.208	330.99
379.588	330.32
379.968	312.92
380.349	328.06
380.729	330.54
381.109	332.8
381.489	345.91
381.87	341.62
382.25	318.34
382.63	357.66
383.01	341.62
383.39	334.84
383.77	362.86
384.15	337.1
384.53	354.27
384.91	353.14
385.29	331.67
385.67	330.09
386.049	345.23
386.429	351.78
386.809	347.72
387.189	362.86
387.568	343.42
387.948	333.25
388.328	357.66
388.707	357.89
389.087	358.34
389.466	365.34
389.846	370.09
390.225	370.54
390.605	352.69
390.984	367.6
391.363	383.42
391.743	354.72
392.122	377.77
392.501	384.33
392.881	377.09
393.26	375.06
393.639	371.67
394.018	358.34
394.397	373.25
394.776	381.39
395.155	395.63
395.534	380.26
395.913	397.21
396.292	392.91
396.671	382.29
397.05	368.51
397.429	398.11
397.808	409.18
398.186	391.11
398.565	378
398.944	401.05
399.323	373.7
399.701	399.92
400.08	403.99
400.458	408.96
400.837	392.46
401.215	403.53
401.594	380.26
401.972	403.31
402.351	438.79
402.729	425.91
403.107	409.41
403.486	424.33
403.864	432.91
404.242	402.86
404.62	428.17
404.999	417.55
405.377	424.78
405.755	428.39
406.133	439.24
406.511	472.01
406.889	461.39
407.267	463.42
407.645	460.48
408.023	450.54
408.401	478.11
408.779	466.13
409.156	490.76
409.534	496.87
409.912	465
410.29	493.25
410.667	493.25
411.045	481.95
411.422	526.47
411.8	511.78
412.178	525.57
412.555	512.91
412.933	537.77
413.31	543.87
413.687	556.75
414.065	545.45
414.442	570.08
414.819	559.46
415.197	561.95
415.574	570.31
415.951	578.9
416.328	593.59
416.705	608.73
417.082	616.86
417.46	617.54
417.837	605.11
418.214	612.79
418.591	649.86
418.967	607.15
419.344	643.98
419.721	659.35
420.098	662.74
420.475	656.64
420.852	668.61
421.228	690.53
421.605	674.71
421.982	708.39
422.358	712.45
422.735	706.58
423.111	716.97
423.488	726.69
423.864	749.29
424.241	764.43
424.617	751.32
424.994	752.68
425.37	757.65
425.746	754.49
426.123	787.03
426.499	796.52
426.875	807.14
427.251	829.74
427.627	808.72
428.003	826.35
428.379	825.44
428.756	853.01
429.132	868.16
429.507	848.72
429.883	857.99
430.259	909.96
430.635	899.34
431.011	902.05
431.387	925.33
431.763	923.29
432.138	944.99
432.514	935.72
432.89	931.88
433.265	987.93
433.641	993.12
434.016	963.29
434.392	990.86
434.767	999
435.143	1029.51
435.518	1010.98
435.894	1050.98
436.269	1029.51
436.644	1069.73
437.02	1069.51
437.395	1039
437.77	1081.48
438.145	1093.46
438.52	1112.22
438.895	1133.23
439.271	1102.27
439.646	1154.93
440.021	1140.92
440.395	1146.34
440.77	1137.3
441.145	1140.46
441.52	1183.85
441.895	1187.92
442.27	1164.64
442.645	1185.89
443.019	1197.41
443.394	1198.09
443.769	1211.2
444.143	1207.36
444.518	1208.71
444.892	1215.49
445.267	1224.53
445.641	1186.11
446.016	1227.69
446.39	1222.27
446.764	1212.33
447.139	1250.52
447.513	1260.91
447.887	1232.89
448.262	1262.04
448.636	1256.85
449.01	1289.61
449.384	1306.34
449.758	1294.13
450.132	1279.67
450.506	1313.34
450.88	1285.77
451.254	1286.9
451.628	1325.32
452.002	1323.96
452.376	1318.99
452.75	1316.96
453.123	1354.92
453.497	1366
453.871	1335.71
454.244	1375.49
454.618	1358.31
454.992	1403.96
455.365	1363.06
455.739	1439.44
456.112	1404.19
456.486	1430.85
456.859	1431.53
457.232	1461.59
457.606	1420.68
457.979	1463.85
458.352	1474.01
458.725	1494.13
459.099	1506.33
459.472	1509.72
459.845	1527.12
460.218	1519.89
460.591	1548.59
460.964	1542.04
461.337	1564.63
461.71	1574.35
462.083	1601.24
462.456	1625.2
462.829	1602.37
463.201	1604.63
463.574	1592.2
463.947	1624.29
464.32	1627.91
464.692	1682.82
465.065	1665.42
465.438	1688.7
465.81	1713.33
466.183	1713.33
466.555	1750.84
466.928	1764.85
467.3	1703.61
467.672	1768.7
468.045	1817.06
468.417	1802.14
468.789	1811.63
469.161	1817.96
469.534	1825.64
469.906	1879.43
470.278	1874.91
470.65	1853.67
471.022	1910.16
471.394	1961.01
471.766	1949.03
472.138	1978.18
472.51	1974.11
472.882	1996.71
473.253	2003.72
473.625	2042.81
473.997	2074.9
474.369	2049.37
474.74	2097.05
475.112	2096.82
475.484	2139.53
475.855	2168.46
476.227	2196.93
476.598	2208.01
476.97	2205.75
477.341	2248.68
477.713	2300.21
478.084	2310.15
478.455	2339.08
478.827	2351.73
479.198	2374.78
479.569	2352.86
479.94	2448.9
480.311	2467.66
480.682	2449.36
481.053	2490.26
481.424	2524.61
481.795	2602.12
482.166	2599.41
482.537	2576.36
482.908	2643.7
483.279	2662.01
483.65	2699.07
484.021	2756.69
484.391	2786.75
484.762	2770.03
485.133	2773.19
485.503	2849.12
485.874	2813.19
486.244	2894.99
486.615	2932.51
486.985	2934.32
487.356	2941.55
487.726	2989.68
488.097	3033.3
488.467	3047.08
488.837	3079.62
489.207	3096.8
489.578	3139.96
489.948	3167.98
490.318	3152.84
490.688	3174.08
491.058	3229.9
491.428	3238.71
491.798	3286.62
492.168	3310.35
492.538	3332.05
492.908	3336.11
493.278	3384.7
493.648	3407.98
494.017	3424.47
494.387	3438.03
494.757	3486.39
495.126	3459.95
495.496	3487.97
495.866	3509.89
496.235	3538.59
496.605	3548.76
496.974	3566.62
497.344	3588.54
497.713	3665.37
498.082	3598.93
498.452	3640.74
498.821	3675.76
499.19	3662.88
499.559	3698.14
499.928	3692.71
500.298	3740.62
500.667	3745.82
501.036	3736.33
501.405	3733.16
501.774	3782.2
502.143	3802.77
502.512	3790.79
502.88	3821.3
503.249	3829.89
503.618	3852.94
503.987	3850.45
504.356	3865.36
504.724	3909.88
505.093	3906.72
505.462	3946.04
505.83	3962.99
506.199	3955.08
506.567	3983.1
506.936	3985.59
507.304	4017
507.672	4023.55
508.041	4040.95
508.409	4049.31
508.777	4028.3
509.145	4143.55
509.514	4046.38
509.882	4056.32
510.25	4052.48
510.618	4112.82
510.986	4092.03
511.354	4169.99
511.722	4146.26
512.09	4175.19
512.458	4201.85
512.826	4193.94
513.193	4219.48
513.561	4203.21
513.929	4214.51
514.297	4210.67
514.664	4273.94
515.032	4265.35
515.4	4263.09
515.767	4329.76
516.135	4299.93
516.502	4285.01
516.869	4373.6
517.237	4346.26
517.604	4332.47
517.972	4320.04
518.339	4347.39
518.706	4385.12
519.073	4394.16
519.44	4385.12
519.808	4412.24
520.175	4365.24
520.542	4443.2
520.909	4448.17
521.276	4457.44
521.643	4480.04
522.009	4483.43
522.376	4538.12
522.743	4494.73
523.11	4558
523.477	4563.2
523.843	4598.68
524.21	4623.08
524.577	4649.75
524.943	4664.89
525.31	4715.29
525.676	4707.83
526.043	4750.54
526.409	4714.38
526.776	4739.69
527.142	4798.67
527.508	4837.77
527.874	4866.92
528.241	4845.23
528.607	4821.5
528.973	4929.07
529.339	4887.26
529.705	4944.88
530.071	4995.28
530.437	4999.12
530.803	5008.61
531.169	5077.08
531.535	5032.57
531.901	5020.14
532.267	5082.96
532.632	5049.74
532.998	5097.65
533.364	5123.64
533.73	5162.28
534.095	5196.18
534.461	5198.66
534.826	5262.16
535.192	5252.67
535.557	5261.03
535.923	5316.4
536.288	5294.03
536.653	5338.77
537.019	5300.58
537.384	5324.31
537.749	5362.73
538.114	5381.03
538.479	5452.44
538.845	5437.3
539.21	5455.38
539.575	5487.47
539.94	5525.66
540.305	5519.11
540.67	5509.62
541.034	5583.96
541.399	5548.48
541.764	5601.82
542.129	5641.59
542.494	5647.01
542.858	5666.45
543.223	5714.81
543.587	5772.21
543.952	5729.27
544.316	5734.02
544.681	5743.73
545.045	5804.75
545.41	5840.91
545.774	5829.15
546.138	5802.49
546.503	5867.8
546.867	5887.01
547.231	5933.78
547.595	5961.35
547.959	5998.42
548.324	6025.31
548.688	6033.44
549.052	6074.12
549.416	6042.03
549.779	6081.35
550.143	6079.77
550.507	6130.62
550.871	6174.91
551.235	6160.45
551.599	6230.95
551.962	6260.33
552.326	6219.43
552.689	6216.04
553.053	6207.9
553.417	6220.33
553.78	6328.58
554.143	6338.07
554.507	6356.37
554.87	6337.16
555.234	6361.8
555.597	6342.59
555.96	6410.61
556.323	6428.69
556.686	6442.25
557.05	6453.55
557.413	6465.52
557.776	6448.8
558.139	6509.14
558.502	6498.06
558.865	6546.88
559.228	6618.96
559.59	6616.48
559.953	6608.8
560.316	6660.09
560.679	6671.17
561.041	6725.4
561.404	6714.56
561.767	6727.66
562.129	6706.42
562.492	6752.97
562.854	6756.14
563.217	6752.29
563.579	6810.6
563.941	6861.22
564.304	6883.59
564.666	6901.44
565.028	6912.97
565.39	6882.91
565.753	7005.39
566.115	6989.35
566.477	6955.9
566.839	7041.78
567.201	7105.05
567.563	7088.33
567.925	7072.51
568.287	7102.79
568.648	7080.65
569.01	7131.27
569.372	7218.72
569.734	7211.27
570.095	7279.51
570.457	7287.2
570.819	7341.88
571.18	7397.25
571.542	7379.17
571.903	7431.6
572.265	7475.89
572.626	7488.77
572.987	7542.78
573.349	7583.46
573.71	7651.03
574.071	7657.36
574.432	7677.02
574.794	7775.09
575.155	7760.4
575.516	7905.94
575.877	7933.05
576.238	8006.72
576.599	8063.22
576.96	8098.47
577.32	8161.07
577.681	8304.57
578.042	8392.7
578.403	8397.45
578.763	8478.12
579.124	8639.7
579.485	8732.81
579.845	8854.84
580.206	8976.19
580.566	9046.02
580.927	9086.02
581.287	9339.12
581.648	9405.56
582.008	9552.67
582.368	9647.36
582.728	9782.72
583.089	9884.19
583.449	10114.47
583.809	10299.32
584.169	10445.08
584.529	10568.01
584.889	10855.01
585.249	10967.32
585.609	11136.13
585.969	11422.23
586.329	11633.75
586.688	11813.63
587.048	12036.22
587.408	12176.56
587.768	12581.75
588.127	12704.23
588.487	12987.38
588.846	13244.33
589.206	13372.01
589.565	13637.99
589.925	13976.06
590.284	14141.25
590.643	14492.66
591.003	14806.77
591.362	15091.06
591.721	15304.61
592.08	15609.69
592.44	15954.31
592.799	16195.66
593.158	16483.56
593.517	16681.75
593.876	16961.97
594.235	17281.73
594.593	17542.74
594.952	17931.21
595.311	18106.8
595.67	18440.57
596.029	18788.81
596.387	19097.96
596.746	19471.28
597.104	19646.87
597.463	19846.64
597.822	20278.94
598.18	20453.4
598.538	20753.96
598.897	21160.73
599.255	21211.58
599.613	21849.75
599.972	22031.44
600.33	22269.85
600.688	22490.64
601.046	22860.8
601.404	23187.12
601.762	23499.88
602.12	23733.77
602.478	23927.66
602.836	24380.76
603.194	24521.32
603.552	24748.66
603.91	24866.62
604.268	25243.79
604.625	25459.6
604.983	25702.3
605.341	25949.98
605.698	26187.49
606.056	26536.63
606.413	26753.12
606.771	27037.64
607.128	27213.68
607.485	27288.25
607.843	27558.98
608.2	27999.65
608.557	28267.89
608.914	28324.83
609.272	28722.34
609.629	28864.48
609.986	29238.93
610.343	29179.28
610.7	29626.95
611.057	29688.64
611.414	29875.75
611.771	30105.13
612.127	30337.66
612.484	30488.85
612.841	30817.88
613.198	30818.55
613.554	31016.51
613.911	31250.41
614.267	31370.63
614.624	31531.08
614.98	31766.1
615.337	32078.86
615.693	32043.38
616.05	32178.29
616.406	32408.57
616.762	32393.2
617.118	32576.93
617.475	32770.82
617.831	33000.64
618.187	33166.74
618.543	33394.53
618.899	33550.91
619.255	33643.56
619.611	33708.2
619.967	33860.06
620.323	34098.47
620.678	34114.51
621.034	34131.69
621.39	34215.53
621.746	34430.89
622.101	34836.98
622.457	34599.7
622.812	34849.41
623.168	34905
623.523	34948.61
623.879	35231.32
624.234	34924.21
624.589	35223.18
624.945	35422.5
625.3	35539.33
625.655	35408.49
626.01	35658.88
626.365	35694.13
626.72	35649.16
627.075	35786.79
627.43	35718.54
627.785	35820.23
628.14	36069.94
628.495	35991.98
628.85	35964.86
629.205	36086.89
629.559	36218.41
629.914	36144.52
630.269	36130.28
630.623	36073.33
630.978	36158.98
631.332	36435.36
631.687	36350.84
632.041	36307.22
632.396	36405.75
632.75	36340.89
633.104	36571.85
633.459	36323.72
633.813	36351.74
634.167	36476.71
634.521	36394.45
634.875	36523.94
635.229	36561.91
635.583	36250.73
635.937	36319.43
636.291	36399.65
636.645	36531.62
636.999	36406.66
637.352	36661.34
637.706	36261.57
638.06	36500.89
638.413	36598.06
638.767	36487.78
639.121	36397.39
639.474	36344.06
639.828	36431.74
640.181	36470.38
640.534	36358.52
640.888	36312.65
641.241	36286.88
641.594	36473.32
641.947	36503.38
642.301	36312.19
642.654	36386.54
643.007	36332.99
643.36	36305.19
643.713	36332.08
644.066	36592.64
644.419	36323.49
644.771	35947.68
645.124	35714.47
645.477	35708.37
645.83	35454.82
646.182	35480.35
646.535	35293.46
646.888	35364.65
647.24	35294.59
647.593	35416.63
647.945	35307.93
648.298	35246.23
648.65	35236.52
649.002	35113.81
649.355	35283.3
649.707	35343.41
650.059	35345.67
650.411	35691.42
650.763	35867.23
651.115	36239.43
651.467	36042.37
651.819	36013.45
652.171	35959.21
652.523	35804.64
652.875	35961.24
653.227	35730.74
653.578	36076.72
653.93	36031.75
654.282	35867.23
654.633	35859.78
654.985	35828.82
655.337	35875.6
655.688	35829.04
656.039	35949.04
656.391	35701.14
656.742	35684.41
657.094	35842.38
657.445	35832.21
657.796	35834.69
658.147	35682.83
658.498	35718.09
658.849	35834.02
659.2	35706.56
659.551	35651.42
659.902	35934.58
660.253	35609.16
660.604	35753.57
660.955	35429.51
661.306	35668.37
661.656	35547.24
662.007	35699.56
662.358	35736.16
662.708	35601.48
663.059	35595.83
663.409	35389.06
663.76	35710.85
664.11	35589.73
664.461	35746.11
664.811	35699.1
665.161	35625.43
665.511	35534.81
665.862	35659.33
666.212	35776.16
666.562	35716.96
666.912	35570.07
667.262	35530.75
667.612	35511.76
667.962	35560.12
668.312	35517.87
668.662	35609.39
669.011	35584.76
669.361	35478.77
669.711	35522.61
670.06	35506.11
670.41	35400.35
670.76	35399.22
671.109	35459.11
671.459	35486.68
671.808	35389.28
672.157	35483.52
672.507	35190.19
672.856	35423.86
673.205	35315.16
673.554	35477.19
673.904	35209.4
674.253	35547.7
674.602	35189.06
674.951	34764.89
675.3	34713.82
675.649	35286.46
675.998	35164.2
676.346	35319.9
676.695	35283.97
677.044	35053.02
677.393	35192.45
677.741	35286.01
678.09	35267.25
678.438	35065
678.787	35175.28
679.135	35235.84
679.484	34926.69
679.832	35132.79
680.181	34810.99
680.529	34932.34
680.877	34883.98
681.225	34852.12
681.573	34955.85
681.922	34818.9
682.27	34592.92
682.618	34677.89
682.966	34608.06
683.314	34666.14
683.661	34614.16
684.009	34442.64
684.357	34474.5
684.705	34277.22
685.053	34253.72
685.4	34372.36
685.748	34166.04
686.095	34091.01
686.443	34052.59
686.79	34060.5
687.138	34056.21
687.485	33970.79
687.832	33859.15
688.18	33964.69
688.527	33780.74
688.874	33849.66
689.221	33706.39
689.568	33645.82
689.915	33448.99
690.262	33493.51
690.609	33466.17
690.956	33215.55
691.303	33319.05
691.65	33135.56
691.997	33123.8
692.344	32892.62
692.69	32938.05
693.037	33018.04
693.383	32708
693.73	32830.93
694.077	32594.78
694.423	32746.19
694.769	32685.4
695.116	32426.42
695.462	32523.82
695.808	32318.18
696.155	32476.82
696.501	32228.91
696.847	32211.96
697.193	31905.08
697.539	32038.41
697.885	31806.78
698.231	31643.39
698.577	31750.06
698.923	31779.66
699.269	31547.57
699.614	31494.92
699.96	31260.12
700.306	31332.66
700.651	31280.69
700.997	31093.8
701.342	31126.12
701.688	31018.77
702.033	30925.67
702.379	30792.11
702.724	30902.17
703.069	30929.06
703.415	30539.69
703.76	30551.44
704.105	30476.87
704.45	30410.2
704.795	30198.23
705.14	30274.39
705.485	30154.16
705.83	30168.4
706.175	30179.7
706.52	29997.56
706.865	29902.65
707.209	29884.79
707.554	29672.37
707.899	29742.88
708.243	29683.44
708.588	29615.2
708.932	29434.86
709.277	29390.8
709.621	29422.66
709.966	29136.11
710.31	29263.11
710.654	29120.52
710.998	29153.97
711.342	28998.26
711.687	29119.62
712.031	28980.86
712.375	28849.79
712.719	28925.5
713.063	28820.87
713.407	28817.48
713.75	28762.56
714.094	28635.56
714.438	28534.09
714.782	28641.89
715.125	28489.12
715.469	28524.38
715.812	28372.52
716.156	28323.7
716.499	28248.23
716.843	28292.07
717.186	28178.4
717.53	28288.68
717.873	28198.96
718.216	28141.56
718.559	28005.07
718.902	27785.19
719.246	27924.39
719.589	27872.42
719.932	27739.31
720.275	27715.81
720.617	27697.96
720.96	27691.4
721.303	27604.18
721.646	27717.39
721.989	27516.27
722.331	27546.55
722.674	27467
723.016	27383.16
723.359	27473.78
723.701	27283.51
724.044	27239.21
724.386	27081.93
724.729	27280.57
725.071	27116.96
725.413	27241.02
725.755	27116.96
726.097	26978.66
726.439	26788.83
726.782	26862.95
727.124	26826.79
727.465	26820.47
727.807	26809.17
728.149	26644.88
728.491	26752.9
728.833	26817.98
729.175	26697.76
729.516	26548.38
729.858	26424.09
730.199	26622.28
730.541	26381.61
730.882	26433.81
731.224	26417.54
731.565	26246.02
731.906	26413.02
732.248	26307.49
732.589	26164.21
732.93	26077.66
733.271	26098.45
733.612	26220.03
733.953	26164.67
734.294	26041.05
734.635	25922.64
734.976	26067.72
735.317	25848.52
735.658	25946.37
735.999	25946.82
736.339	25825.69
736.68	25850.78
737.021	25764.22
737.361	25603.78
737.702	25771.68
738.042	25642.42
738.383	25694.62
738.723	25572.82
739.063	25470.22
739.404	25499.15
739.744	25586.15
740.084	25413.72
740.424	25417.79
740.764	25383.22
741.104	25427.51
741.444	25305.03
741.784	25216.22
742.124	25227.51
742.464	25197.01
742.804	25076.11
743.143	24947.52
743.483	25088.99
743.823	25024.36
744.162	25022.55
744.502	24980.74
744.841	24911.14
745.181	24973.96
745.52	24897.81
745.86	24884.47
746.199	24816.68
746.538	24752.95
746.877	24790.24
747.216	24788.88
747.556	24671.6
747.895	24619.17
748.234	24577.59
748.573	24622.56
748.911	24425.95
749.25	24474.31
749.589	24314.32
749.928	24333.98
750.267	24493.52
750.605	24326.97
750.944	24241.78
751.283	24196.36
751.621	24235.9
751.96	24056.25
752.298	24009.24
752.636	24094.21
752.975	23862.35
753.313	23748.68
753.651	23964.27
753.989	23790.94
754.327	23907.1
754.666	23721.34
755.004	23808.34
755.342	23697.39
755.679	23562.25
756.017	23483.15
756.355	23578.07
756.693	23350.73
757.031	23466.21
757.368	23211.97
757.706	23320.45
758.044	23142.6
758.381	23179.21
758.719	23152.77
759.056	23166.78
759.394	23020.79
759.731	22880.46
760.068	22828.71
760.405	22798.65
760.743	22717.52
761.08	22741.93
761.417	22668.94
761.754	22567.92
762.091	22617.64
762.428	22444.09
762.765	22321.38
763.102	22440.7
763.438	22213.58
763.775	22148.27
764.112	22141.49
764.449	22188.72
764.785	21973.81
765.122	21860.37
765.458	21810.2
765.795	21692.92
766.131	21652.92
766.467	21729.08
766.804	21637.78
767.14	21480.04
767.476	21425.13
767.812	21503.09
768.148	21477.78
768.485	21170.67
768.821	21252.03
769.157	21138.58
769.492	21019.72
769.828	21075.08
770.164	20787.63
770.5	20864.92
770.836	20730.46
771.171	20635.09
771.507	20688.88
771.842	20470.58
772.178	20497.24
772.513	20329.56
772.849	20309
773.184	20234.43
773.519	20347.19
773.855	20179.29
774.19	20142.45
774.525	20112.85
774.86	19906.75
775.195	19932.74
775.53	19824.27
775.865	19747.43
776.2	19619.3
776.535	19499.53
776.87	19512.41
777.205	19424.96
777.539	19338.63
777.874	19414.11
778.209	19147.45
778.543	19224.73
778.878	19115.81
779.212	19055.47
779.547	18937.51
779.881	18966.89
780.215	18828.36
780.55	18830.62
780.884	18688.48
781.218	18621.59
781.552	18747.91
781.886	18526.9
782.22	18418.65
782.554	18321.48
782.888	18304.53
783.222	18155.38
783.556	18080.81
783.889	18069.96
784.223	17973.47
784.557	18001.94
784.89	17928.72
785.224	17875.17
785.557	17749.29
785.891	17770.54
786.224	17654.38
786.558	17658.22
786.891	17391.56
787.224	17403.31
787.557	17312.02
787.891	17344.11
788.224	17260.27
788.557	17269.53
788.89	17143.21
789.223	17217.1
789.556	16994.51
789.888	17010.56
790.221	16876.1
790.554	16818.92
790.887	16853.72
791.219	16720.17
791.552	16795.87
791.884	16614.63
792.217	16602.43
792.549	16524.24
792.882	16319.73
793.214	16336.45
793.546	16337.58
793.879	16224.59
794.211	16181.2
794.543	16216.9
794.875	16123.12
795.207	16127.19
795.539	15992.28
795.871	15972.16
796.203	15916.8
796.535	15736.01
796.867	15736.46
797.198	15727.43
797.53	15693.98
797.862	15614.43
798.193	15598.39
798.525	15483.14
798.856	15564.94
799.188	15343.03
799.519	15326.53
799.85	15288.79
800.182	15282.24
800.513	15351.39
800.844	15130.6
801.175	15171.96
801.506	15137.16
801.837	15124.28
802.168	15076.14
802.499	15030.95
802.83	14962.02
803.161	14837.28
803.491	14816.71
803.822	14840.44
804.153	14714.12
804.483	14688.58
804.814	14548.93
805.145	14679.54
805.475	14589.83
805.805	14543.73
806.136	14496.72
806.466	14402.04
806.796	14376.5
807.126	14273.23
807.457	14336.28
807.787	14279.1
808.117	14290.85
808.447	14181.03
808.777	14213.11
809.107	14130.41
809.436	14103.74
809.766	14118.2
810.096	14078.88
810.426	13972.9
810.755	14057.64
811.085	14008.83
811.414	13901.94
811.744	13755.95
812.073	13786.91
812.403	13787.14
812.732	13695.84
813.061	13692.22
813.39	13583.3
813.719	13633.02
814.049	13643.19
814.378	13532.23
814.707	13468.95
815.036	13480.25
815.365	13450.65
815.693	13379.01
816.022	13332.69
816.351	13307.38
816.68	13251.78
817.008	13303.31
817.337	13162.3
817.665	13111.45
817.994	13213.37
818.322	13101.73
818.651	13083.2
818.979	13020.6
819.307	13132.92
819.636	12999.14
819.964	12894.73
820.292	12992.58
820.62	13032.58
820.948	12952.58
821.276	12908.97
821.604	12899.25
821.932	12935.41
822.259	12885.01
822.587	12847.05
822.915	12909.19
823.243	12857.44
823.57	12867.61
823.898	12872.36
824.225	12780.38
824.553	12807.95
824.88	12853.38
825.207	12888.4
825.535	12754.17
825.862	12812.25
826.189	12846.6
826.516	12814.28
826.843	12855.86
827.17	12818.12
827.497	12812.7
827.824	12824.22
828.151	12874.85
828.478	12763.21
828.805	12875.75
829.131	12714.85
829.458	12751.46
829.785	12722.31
830.111	12684.57
830.438	12759.59
830.764	12833.49
831.09	12847.05
831.417	12756.66
831.743	12793.49
832.069	12735.64
832.395	12679.14
832.722	12748.75
833.048	12656.55
833.374	12741.74
833.7	12627.62
834.026	12666.26
834.351	12705.81
834.677	12690.22
835.003	12671.01
835.329	12624.23
835.654	12584.01
835.98	12562.54
836.306	12540.39
836.631	12569.77
836.956	12594.4
837.282	12558.47
837.607	12530
837.932	12514.18
838.258	12473.73
838.583	12447.96
838.908	12449.32
839.233	12409.09
839.558	12317.35
839.883	12346.5
840.208	12301.3
840.533	12305.59
840.858	12305.82
841.182	12314.63
841.507	12168.65
841.832	12188.99
842.156	12196.67
842.481	12165.94
842.805	12121.42
843.13	12046.39
843.454	12057.01
843.778	11996.45
844.103	12012.27
844.427	11952.84
844.751	11983.12
845.075	11945.83
845.399	11931.37
845.723	11807.98
846.047	11877.58
846.371	11746.29
846.695	11785.16
847.019	11638.95
847.343	11638.49
847.666	11556.91
847.99	11492.73
848.313	11496.12
848.637	11463.36
848.96	11449.12
849.284	11391.49
849.607	11296.13
849.931	11271.5
850.254	11178.39
850.577	11131.16
850.9	11069.02
851.223	11036.48
851.546	10970.94
851.869	10888.68
852.192	11029.47
852.515	10897.72
852.838	10852.98
853.161	10817.5
853.483	10744.51
853.806	10736.37
854.129	10657.5
854.451	10670.38
854.774	10590.61
855.096	10573.21
855.419	10491.63
855.741	10548.58
856.063	10444.4
856.385	10511.74
856.708	10442.82
857.03	10362.82
857.352	10401.92
857.674	10375.48
857.996	10337.51
858.318	10288.25
858.64	10273.11
858.961	10250.28
859.283	10156.05
859.605	10151.75
859.926	10204.18
860.248	10116.5
860.57	10030.63
860.891	10124.18
861.212	10011.64
861.534	10008.03
861.855	10022.26
862.176	9981.59
862.498	9989.72
862.819	10014.36
863.14	9968.71
863.461	9947.24
863.782	9835.83
864.103	9857.75
864.424	9802.38
864.745	9842.16
865.065	9839.44
865.386	9766.45
865.707	9810.74
866.027	9744.53
866.348	9720.35
866.668	9696.85
866.989	9717.87
867.309	9663.86
867.63	9669.51
867.95	9701.6
868.27	9587.25
868.59	9608.04
868.91	9619.11
869.23	9608.26
869.55	9530.07
869.87	9562.62
870.19	9503.41
870.51	9552.9
870.83	9565.55
871.15	9463.64
871.469	9494.37
871.789	9445.78
872.109	9416.18
872.428	9368.27
872.748	9413.02
873.067	9388.84
873.386	9403.75
873.706	9382.06
874.025	9292.57
874.344	9277.65
874.663	9351.55
874.982	9321.49
875.301	9279.69
875.62	9295.28
875.939	9199.24
876.258	9255.73
876.577	9211.44
876.896	9207.14
877.214	9131.67
877.533	9192.46
877.852	9154.94
878.17	9158.33
878.489	9206.92
878.807	9053.02
879.125	9145.68
879.444	9115.4
879.762	9046.02
880.08	9116.07
880.398	9016.19
880.716	9092.12
881.034	9039.01
881.352	9012.35
881.67	9027.94
881.988	8963.08
882.306	8926.25
882.624	8905.01
882.941	8917.21
883.259	8874.05
883.577	8848.96
883.894	8820.49
884.212	8771.68
884.529	8798.12
884.846	8748.17
885.164	8729.87
885.481	8715.86
885.798	8693.49
886.115	8600.16
886.432	8634.73
886.75	8677.22
887.067	8651.91
887.383	8611.68
887.7	8611
888.017	8576.88
888.334	8603.54
888.651	8524.68
888.967	8531.46
889.284	8469.76
889.6	8399.48
889.917	8413.27
890.233	8368.97
890.55	8413.49
890.866	8337.11
891.182	8325.13
891.498	8332.82
891.815	8272.93
892.131	8251.92
892.447	8248.53
892.763	8206.49
893.079	8213.72
893.395	8197.68
893.71	8172.14
894.026	8034.07
894.342	8099.38
894.657	8031.36
894.973	7978.25
895.289	8056.89
895.604	7942.55
895.92	7937.35
896.235	7957.91
896.55	7933.51
896.865	7928.31
897.181	7827.29
897.496	7822.77
897.811	7813.51
898.126	7775.77
898.441	7720.4
898.756	7790.68
899.071	7703.46
899.386	7695.55
899.7	7656.9
900.015	7634.53
900.33	7509.34
900.644	7551.6
900.959	7540.07
901.273	7507.53
901.588	7530.13
901.902	7440.19
902.216	7428.66
902.531	7408.1
902.845	7413.07
903.159	7375.33
903.473	7364.93
903.787	7296.23
904.101	7224.37
904.415	7222.11
904.729	7220.76
905.042	7213.53
905.356	7136.01
905.67	7117.93
905.984	7120.42
906.297	7114.09
906.611	7001.55
906.924	7031.16
907.237	7044.49
907.551	6989.8
907.864	6973.53
908.177	6970.37
908.491	6914.55
908.804	6907.54
909.117	6783.93
909.43	6784.61
909.743	6825.74
910.056	6761.56
910.368	6726.08
910.681	6675.46
910.994	6642.69
911.307	6647.21
911.619	6573.54
911.932	6585.29
912.244	6533.99
912.557	6566.99
912.869	6516.14
913.181	6512.75
913.494	6496.93
913.806	6462.13
914.118	6394.56
914.43	6383.72
914.742	6341.01
915.054	6284.28
915.366	6340.55
915.678	6290.61
915.99	6256.04
916.302	6223.95
916.613	6153.67
916.925	6147.11
917.236	6152.54
917.548	6098.3
917.859	6116.15
918.171	6083.84
918.482	6072.09
918.794	6080.45
919.105	6039.54
919.416	5931.98
919.727	5934.01
920.038	5932.65
920.349	5864.86
920.66	5891.75
920.971	5850.62
921.282	5842.49
921.593	5817.86
921.903	5791.64
922.214	5760.23
922.525	5743.51
922.835	5744.86
923.146	5655.15
923.456	5679.55
923.767	5616.28
924.077	5639.33
924.387	5566.34
924.697	5543.29
925.008	5571.53
925.318	5527.69
925.628	5501.93
925.938	5480.24
926.248	5463.97
926.558	5461.71
926.867	5390.97
927.177	5415.38
927.487	5353.91
927.796	5334.48
928.106	5310.52
928.416	5281.15
928.725	5210.19
929.034	5258.77
929.344	5269.4
929.653	5223.75
929.962	5163.64
930.271	5144.65
930.581	5122.96
930.89	5143.07
931.199	5076.41
931.508	5083.64
931.817	5054.03
932.125	5042.06
932.434	5002.74
932.743	4936.97
933.051	4976.3
933.36	4932.46
933.669	4881.61
933.977	4913.25
934.286	4894.72
934.594	4885.45
934.902	4820.82
935.21	4830.76
935.519	4856.52
935.827	4774.04
936.135	4758.45
936.443	4725.91
936.751	4780.37
937.059	4706.02
937.367	4696.53
937.674	4633.03
937.982	4670.32
938.29	4635.51
938.597	4582.63
938.905	4560.49
939.213	4585.35
939.52	4556.87
939.827	4555.74
940.135	4514.61
940.442	4449.08
940.749	4496.99
941.056	4442.3
941.363	4416.54
941.67	4423.32
941.977	4385.35
942.284	4376.09
942.591	4345.58
942.898	4296.09
943.205	4369.31
943.511	4243.21
943.818	4268.97
944.125	4239.59
944.431	4273.49
944.738	4182.64
945.044	4241.4
945.35	4157.11
945.657	4142.42
945.963	4127.05
946.269	4113.49
946.575	4101.97
946.881	4114.62
947.187	4113.27
947.493	4095.41
947.799	4074.62
948.105	4040.28
948.41	4019.94
948.716	3993.27
949.022	3944.68
949.327	3981.07
949.633	3941.07
949.938	3949.43
950.244	3958.24
950.549	3887.06
950.854	3871.69
951.16	3887.51
951.465	3837.34
951.77	3834.63
952.075	3774.75
952.38	3831.02
952.685	3806.16
952.99	3756.21
953.294	3796.44
953.599	3748.08
953.904	3737.68
954.209	3687.52
954.513	3706.5
954.818	3689.32
955.122	3649.78
955.426	3654.3
955.731	3624.69
956.035	3654.3
956.339	3586.28
956.643	3613.39
956.948	3543.79
957.252	3583.56
957.556	3511.93
957.86	3519.84
958.163	3506.96
958.467	3501.98
958.771	3457.47
959.075	3453.62
959.378	3456.79
959.682	3437.35
959.985	3394.19
960.289	3400.97
960.592	3354.19
960.896	3370.91
961.199	3344.7
961.502	3346.96
961.805	3329.56
962.108	3337.69
962.411	3299.96
962.714	3290.01
963.017	3268.54
963.32	3260.63
963.623	3229.22
963.926	3234.87
964.228	3231.48
964.531	3198.72
964.833	3195.78
965.136	3158.94
965.438	3153.97
965.741	3130.92
966.043	3173.41
966.345	3137.93
966.648	3113.07
966.95	3099.96
967.252	3049.57
967.554	3069.68
967.856	3064.71
968.158	3050.47
968.46	2991.04
968.761	3022.22
969.063	3004.82
969.365	2989.68
969.666	2978.16
969.968	2964.6
970.269	2951.72
970.571	2961.21
970.872	2940.87
971.174	2908.33
971.475	2900.19
971.776	2890.25
972.077	2878.72
972.378	2884.37
972.679	2876.46
972.98	2832.85
973.281	2845.96
973.582	2822
973.883	2808.44
974.183	2792.85
974.484	2776.58
974.785	2763.47
975.085	2730.48
975.386	2731.83
975.686	2713.76
975.986	2691.16
976.287	2729.8
976.587	2659.07
976.887	2692.97
977.187	2681.44
977.487	2690.93
977.787	2659.52
978.087	2634.66
978.387	2631.95
978.687	2642.12
978.987	2623.82
979.286	2591.95
979.586	2576.58
979.885	2596.7
980.185	2594.21
980.484	2542.01
980.784	2521.45
981.083	2544.5
981.382	2509.69
981.682	2483.25
981.981	2487.77
982.28	2487.77
982.579	2480.09
982.878	2487.1
983.177	2451.62
983.475	2427.21
983.774	2474.21
984.073	2428.34
984.372	2390.6
984.67	2374.1
984.969	2391.73
985.267	2349.25
985.566	2401.45
985.864	2352.41
986.162	2351.28
986.461	2357.16
986.759	2337.72
987.057	2286.42
987.355	2283.26
987.653	2306.99
987.951	2252.98
988.249	2297.72
988.547	2284.62
988.844	2275.58
989.142	2268.57
989.44	2239.42
989.737	2235.58
990.035	2221.11
990.332	2240.77
990.63	2177.05
990.927	2194
991.224	2205.07
991.521	2164.17
991.819	2159.42
992.116	2183.83
992.413	2142.02
992.71	2107.44
993.006	2126.65
993.303	2097.5
993.6	2104.73
993.897	2090.72
994.193	2090.04
994.49	2062.02
994.787	2050.72
995.083	2050.04
995.379	2024.51
995.676	2022.02
995.972	2010.95
996.268	2005.3
996.565	1993.32
996.861	1987
997.157	1995.36
997.453	1979.31
997.749	1971.63
998.044	1963.72
998.34	1934.79
998.636	1923.72
998.932	1909.26
999.227	1931.4
999.523	1913.1
999.818	1904.96
1000.114	1878.52
1000.409	1866.55
1000.704	1853.44
1001	1830.84
1001.295	1836.72
1001.59	1840.78
1001.885	1842.37
1002.18	1841.24
1002.475	1803.27
1002.77	1781.13
1003.065	1804.18
1003.359	1756.49
1003.654	1751.52
1003.949	1789.03
1004.243	1761.01
1004.538	1731.64
1004.832	1745.42
1005.127	1728.02
1005.421	1692.99
1005.715	1731.41
1006.009	1692.54
1006.304	1725.99
1006.598	1702.71
1006.892	1683.73
1007.186	1666.1
1007.48	1645.54
1007.773	1665.65
1008.067	1652.54
1008.361	1622.49
1008.655	1610.96
1008.948	1601.47
1009.242	1587.68
1009.535	1596.95
1009.829	1582.26
1010.122	1559.21
1010.415	1565.99
1010.708	1551.75
1011.001	1581.58
1011.295	1540.23
1011.588	1539.1
1011.881	1518.08
1012.173	1519.66
1012.466	1505.43
1012.759	1509.72
1013.052	1501.36
1013.344	1515.82
1013.637	1481.92
1013.93	1472.89
1014.222	1464.98
1014.514	1482.15
1014.807	1440.12
1015.099	1443.28
1015.391	1435.15
1015.683	1427.01
1015.976	1390.85
1016.268	1409.16
1016.56	1374.58
1016.851	1383.4
1017.143	1393.34
1017.435	1352.21
1017.727	1353.79
1018.018	1342.04
1018.31	1344.07
1018.602	1359.89
1018.893	1354.92
1019.185	1307.47
1019.476	1327.8
1019.767	1334.36
1020.058	1310.18
1020.35	1257.98
1020.641	1264.98
1020.932	1281.7
1021.223	1269.95
1021.514	1250.29
1021.804	1249.39
1022.095	1237.64
1022.386	1242.16
1022.677	1242.83
1022.967	1218.65
1023.258	1219.33
1023.548	1206.9
1023.839	1193.57
1024.129	1192.21
1024.419	1187.69
1024.709	1201.03
1025	1155.61
1025.29	1166.45
1025.58	1189.28
1025.87	1129.62
1026.16	1144.31
1026.449	1139.56
1026.739	1126.68
1027.029	1122.61
1027.319	1129.17
1027.608	1107.24
1027.898	1084.19
1028.187	1095.49
1028.477	1061.14
1028.766	1096.17
1029.055	1050.75
1029.344	1079
1029.634	1058.43
1029.923	1050.3
1030.212	1062.5
1030.501	1038.77
1030.79	1045.33
1031.078	1009.17
1031.367	1008.04
1031.656	1001.71
1031.945	984.99
1032.233	1010.52
1032.522	984.99
1032.81	980.47
1033.099	963.52
1033.387	986.8
1033.675	966.01
1033.963	966.01
1034.251	980.02
1034.54	940.02
1034.828	948.38
1035.116	965.33
1035.403	964.65
1035.691	923.29
1035.979	928.72
1036.267	919
1036.554	924.2
1036.842	874.48
1037.129	894.14
1037.417	900.47
1037.704	902.73
1037.992	887.14
1038.279	874.03
1038.566	861.83
1038.853	861.83
1039.14	861.83
