Data from hue_50_FLMS001491_24.txt Node
Date: Mon Feb 06 15:09:48 GMT 2017
User: dcchb
Spectrometer: FLMS00149
Trigger mode: 0
Integration Time (sec): 2.000000E-2
Scans to average: 10
Electric dark correction enabled: true
Nonlinearity correction enabled: false
Boxcar width: 0
XAxis mode: Wavelengths
Number of Pixels in Spectrum: 2048
>>>>>Begin Spectral Data<<<<<
341.393	-17.33
341.776	-17.33
342.16	-17.33
342.543	-48.29
342.927	-51.91
343.31	-68.63
343.693	-64.33
344.077	-45.58
344.46	-45.58
344.843	-40.83
345.226	-56.88
345.61	-21.17
345.993	-41.51
346.376	-14.17
346.759	-5.58
347.142	19.51
347.525	28.32
347.908	61.54
348.291	78.03
348.674	93.4
349.057	123.46
349.44	139.05
349.823	141.99
350.206	163.46
350.588	197.58
350.971	205.26
351.354	227.64
351.737	240.29
352.119	237.35
352.502	273.74
352.884	286.84
353.267	303.11
353.65	281.42
354.032	294.07
354.414	312.38
354.797	308.76
355.179	325.94
355.562	318.03
355.944	332.94
356.326	344.47
356.709	316.9
357.091	351.47
357.473	339.27
357.855	346.5
358.238	345.82
358.62	355.77
359.002	328.2
359.384	355.99
359.766	346.05
360.148	320.06
360.53	333.4
360.912	334.3
361.294	334.75
361.676	355.77
362.057	337.91
362.439	331.14
362.821	320.97
363.203	315.99
363.584	330.46
363.966	312.83
364.348	334.98
364.729	331.14
365.111	324.13
365.493	336.56
365.874	320.06
366.256	316.9
366.637	320.06
367.019	320.97
367.4	329.1
367.781	317.35
368.163	328.2
368.544	322.1
368.925	314.41
369.306	318.48
369.688	308.31
370.069	303.79
370.45	314.41
370.831	313.51
371.212	314.86
371.593	293.4
371.974	304.24
372.355	322.55
372.736	316.67
373.117	316.45
373.498	299.95
373.879	320.97
374.26	297.46
374.641	320.29
375.021	311.93
375.402	307.18
375.783	327.07
376.163	305.37
376.544	320.29
376.925	339.04
377.305	324.13
377.686	333.62
378.066	333.17
378.447	345.37
378.827	314.86
379.208	319.61
379.588	332.72
379.968	320.51
380.349	331.36
380.729	326.16
381.109	325.94
381.489	339.27
381.87	339.72
382.25	325.94
382.63	355.54
383.01	334.75
383.39	345.15
383.77	335.88
384.15	314.41
384.53	349.44
384.91	354.64
385.29	363
385.67	361.19
386.049	340.85
386.429	340.17
386.809	332.04
387.189	341.76
387.568	341.08
387.948	339.72
388.328	339.95
388.707	349.67
389.087	357.58
389.466	362.32
389.846	375.2
390.225	369.55
390.605	366.39
390.984	354.64
391.363	361.87
391.743	341.3
392.122	358.93
392.501	363.68
392.881	386.95
393.26	381.98
393.639	364.35
394.018	370
394.397	374.3
394.776	356.67
395.155	371.59
395.534	385.37
395.913	363.22
396.292	382.66
396.671	385.37
397.05	361.42
397.429	369.33
397.808	381.53
398.186	378.82
398.565	388.31
398.944	400.29
399.323	373.39
399.701	367.29
400.08	369.33
400.458	363.9
400.837	393.05
401.215	387.63
401.594	388.53
401.972	397.8
402.351	401.42
402.729	377.24
403.107	388.08
403.486	367.52
403.864	390.57
404.242	408.2
404.62	397.35
404.999	394.41
405.377	400.74
405.755	403.22
406.133	399.16
406.511	406.39
406.889	426.05
407.267	398.7
407.645	421.98
408.023	407.74
408.401	409.1
408.779	415.65
409.156	416.1
409.534	437.12
409.912	418.14
410.29	429.89
410.667	444.8
411.045	432.38
411.422	419.04
411.8	447.29
412.178	445.71
412.555	441.64
412.933	460.85
413.31	469.21
413.687	441.19
414.065	435.99
414.442	456.56
414.819	469.66
415.197	470.11
415.574	453.17
415.951	467.4
416.328	455.2
416.705	454.07
417.082	477.57
417.46	486.84
417.837	483.45
418.214	480.96
418.591	484.13
418.967	495.65
419.344	523.45
419.721	490.23
420.098	483.67
420.475	489.55
420.852	492.49
421.228	496.1
421.605	524.12
421.982	508.76
422.358	496.1
422.735	535.42
423.111	513.73
423.488	511.24
423.864	528.87
424.241	534.52
424.617	509.21
424.994	521.86
425.37	522.09
425.746	519.15
426.123	532.71
426.499	530.68
426.875	531.36
427.251	571.58
427.627	579.26
428.003	550.56
428.379	573.16
428.756	568.87
429.132	572.94
429.507	557.8
429.883	581.3
430.259	601.86
430.635	575.65
431.011	559.83
431.387	587.85
431.763	610.22
432.138	608.87
432.514	607.74
432.89	587.63
433.265	614.74
433.641	617.91
434.016	624.01
434.392	623.56
434.767	633.5
435.143	633.5
435.518	647.96
435.894	648.64
436.269	659.49
436.644	643.67
437.02	662.43
437.395	654.52
437.77	684.12
438.145	672.14
438.52	678.7
438.895	681.63
439.271	697
439.646	668.3
440.021	683.44
440.395	692.93
440.77	670.11
441.145	690.45
441.52	711.24
441.895	697.91
442.27	713.72
442.645	723.67
443.019	698.36
443.394	725.25
443.769	733.84
444.143	692.48
444.518	707.85
444.892	721.41
445.267	739.03
445.641	729.77
446.016	749.43
446.39	763.44
446.764	747.17
447.139	743.1
447.513	776.77
447.887	764.57
448.262	763.21
448.636	774.97
449.01	788.52
449.384	775.64
449.758	808.64
450.132	774.74
450.506	798.24
450.88	800.5
451.254	802.08
451.628	810.44
452.002	814.96
452.376	813.38
452.75	826.26
453.123	815.42
453.497	817.9
453.871	861.52
454.244	856.32
454.618	864.91
454.992	880.95
455.365	894.74
455.739	883.21
456.112	886.37
456.486	893.15
456.859	906.04
457.232	924.11
457.606	926.15
457.979	927.05
458.352	951.91
458.725	942.64
459.099	967.95
459.472	978.12
459.845	981.06
460.218	975.64
460.591	966.15
460.964	1017.67
461.337	1015.41
461.71	1018.57
462.083	1080.04
462.456	1045.47
462.829	1059.7
463.201	1074.62
463.574	1083.66
463.947	1100.15
464.32	1117.1
464.692	1143.09
465.065	1108.74
465.438	1168.4
465.81	1170.44
466.183	1200.49
466.555	1224.45
466.928	1250.21
467.3	1230.77
467.672	1252.24
468.045	1281.17
468.417	1273.48
468.789	1294.5
469.161	1273.03
469.534	1354.84
469.906	1357.55
470.278	1386.47
470.65	1397.55
471.022	1424.89
471.394	1501.73
471.766	1504.21
472.138	1516.87
472.51	1534.27
472.882	1580.14
473.253	1632.8
473.625	1646.13
473.997	1677.31
474.369	1693.81
474.74	1715.96
475.112	1767.71
475.484	1812.68
475.855	1834.15
476.227	1906.01
476.598	1964.31
476.97	1949.4
477.341	2050.86
477.713	2095.16
478.084	2149.17
478.455	2194.14
478.827	2213.8
479.198	2303.96
479.569	2370.4
479.94	2485.65
480.311	2484.53
480.682	2577.4
481.053	2650.17
481.424	2747.12
481.795	2808.13
482.166	2883.38
482.537	2962.93
482.908	3032.76
483.279	3094
483.65	3208.35
484.021	3312.53
484.391	3397.27
484.762	3478.4
485.133	3574.44
485.503	3662.35
485.874	3784.83
486.244	3829.8
486.615	3983.02
486.985	4065.05
487.356	4187.98
487.726	4309.79
488.097	4427.98
488.467	4508.88
488.837	4636.11
489.207	4711.59
489.578	4848.53
489.948	4979.83
490.318	5151.8
490.688	5206.71
491.058	5286.49
491.428	5507.04
491.798	5571.22
492.168	5750.2
492.538	5853.7
492.908	5979.12
493.278	6084.88
493.648	6212.79
494.017	6368.04
494.387	6478.77
494.757	6587.47
495.126	6758.54
495.496	6848.7
495.866	6919.44
496.235	7103.84
496.605	7224.51
496.974	7335.24
497.344	7463.38
497.713	7598.51
498.082	7665.41
498.452	7816.14
498.821	7953.76
499.19	8044.6
499.559	8208.89
499.928	8262.45
500.298	8381.55
500.667	8560.52
501.036	8586.96
501.405	8766.39
501.774	8854.53
502.143	8967.97
502.512	9043
502.88	9187.85
503.249	9260.62
503.618	9386.94
503.987	9416.77
504.356	9585.58
504.724	9703.32
505.093	9759.14
505.462	9823.99
505.83	10007.49
506.199	10061.73
506.567	10312.57
506.936	10321.38
507.304	10507.59
507.672	10568.61
508.041	10670.3
508.409	10771.31
508.777	10887.24
509.145	10993.45
509.514	11014.92
509.882	11161.36
510.25	11194.58
510.618	11256.5
510.986	11443.39
511.354	11512.99
511.722	11597.28
512.09	11860.1
512.458	11818.29
512.826	11995.91
513.193	12004.73
513.561	12126.76
513.929	12218.73
514.297	12344.15
514.664	12460.08
515.032	12565.62
515.4	12639.74
515.767	12703.92
516.135	12844.7
516.502	12727.87
516.869	12990.69
517.237	13117.24
517.604	13052.61
517.972	13175.77
518.339	13368.98
518.706	13404.92
519.073	13485.14
519.44	13645.81
519.808	13722.87
520.175	13796.54
520.542	13974.39
520.909	14087.16
521.276	14073.15
521.643	14208.06
522.009	14348.85
522.376	14418
522.743	14483.76
523.11	14644.66
523.477	14820.7
523.843	14838.55
524.21	15062.27
524.577	15081.48
524.943	15146.34
525.31	15245.55
525.676	15460
526.043	15539.1
526.409	15606.21
526.776	15795.36
527.142	15797.17
527.508	15930.05
527.874	16007.79
528.241	16147.67
528.607	16252.52
528.973	16270.15
529.339	16328.91
529.705	16611.39
530.071	16699.07
530.437	16830.59
530.803	16756.92
531.169	16928.89
531.535	16985.16
531.901	17038.04
532.267	17065.16
532.632	17304.25
532.998	17337.24
533.364	17397.58
533.73	17499.27
534.095	17684.8
534.461	17728.64
534.826	17752.6
535.192	17794.63
535.557	17955.3
535.923	17868.75
536.288	17940.84
536.653	18038.01
537.019	18081.4
537.384	18260.61
537.749	18337.89
538.114	18317.1
538.479	18370.44
538.845	18544.89
539.21	18516.19
539.575	18661.05
539.94	18648.85
540.305	18841.16
540.67	18707.6
541.034	18963.41
541.399	18993.47
541.764	19003.41
542.129	19138.32
542.494	19169.74
542.858	19291.77
543.223	19338.55
543.587	19443.63
543.952	19289.73
544.316	19412.44
544.681	19361.14
545.045	19595.49
545.41	19658.76
545.774	19705.32
546.138	19816.95
546.503	19790.96
546.867	19894.01
547.231	20005.42
547.595	20002.93
547.959	20102.82
548.324	20150.28
548.688	20255.13
549.052	20330.61
549.416	20344.62
549.779	20471.4
550.143	20523.6
550.507	20620.32
550.871	20679.07
551.235	20633.43
551.599	20803.37
551.962	20771.5
552.326	20843.36
552.689	21074.77
553.053	21022.34
553.417	20969.69
553.78	21285.84
554.143	21202
554.507	21396.57
554.87	21434.99
555.234	21586.62
555.597	21464.59
555.96	21581.65
556.323	21619.39
556.686	21801.31
557.05	21910.68
557.413	21950.45
557.776	22094.4
558.139	22260.05
558.502	22184.57
558.865	22337.56
559.228	22430.89
559.59	22617.56
559.953	22444.23
560.316	22787.27
560.679	22705.91
561.041	22982.74
561.404	22956.3
561.767	23116.98
562.129	23090.54
562.492	23415.95
562.854	23337.08
563.217	23407.14
563.579	23441.71
563.941	23665.89
564.304	23678.09
564.666	23881.25
565.028	23888.03
565.39	23872.89
565.753	24078.99
566.115	24104.97
566.477	24178.64
566.839	24245.08
567.201	24347.23
567.563	24506.32
567.925	24630.61
568.287	24594.23
568.648	24704.51
569.01	24855.01
569.372	25015.68
569.734	24902.92
570.095	25269.46
570.457	25195.57
570.819	25309.01
571.18	25395.56
571.542	25574.77
571.903	25550.13
572.265	25663.58
572.626	25767.53
572.987	25904.47
573.349	26009.1
573.71	26069.89
574.071	26074.19
574.432	26234.41
574.794	26405.25
575.155	26513.05
575.516	26330.45
575.877	26601.18
576.238	26604.57
576.599	26719.82
576.96	26852.25
577.32	26888.4
577.681	27084.33
578.042	27149.41
578.403	27106.93
578.763	27206.59
579.124	27260.14
579.485	27487.48
579.845	27597.99
580.206	27658.78
580.566	27562.28
580.927	27755.5
581.287	28074.81
581.648	27978.32
582.008	28269.61
582.368	28106.45
582.728	28236.84
583.089	28187.58
583.449	28507.8
583.809	28477.97
584.169	28721.58
584.529	28688.58
584.889	28974.68
585.249	28942.36
585.609	28826.88
585.969	29236.36
586.329	29035.24
586.688	29247.21
587.048	29350.03
587.408	29378.06
587.768	29519.97
588.127	29623.92
588.487	29593.42
588.846	30023.69
589.206	29850.59
589.565	29938.27
589.925	30223.46
590.284	30185.27
590.643	30530.12
591.003	30428.65
591.362	30588.87
591.721	30651.47
592.08	30717.91
592.44	30861.86
592.799	30941.4
593.158	30991.8
593.517	30993.38
593.876	31193.15
594.235	31319.93
594.593	31256.88
594.952	31543.2
595.311	31479.92
595.67	31522.86
596.029	31929.4
596.387	31929.17
596.746	32063.86
597.104	31913.36
597.463	31990.42
597.822	32279.22
598.18	32302.95
598.538	32210.3
598.897	32449.61
599.255	32326.23
599.613	32923.5
599.972	32817.51
600.33	32730.74
600.688	32818.64
601.046	32903.84
601.404	33122.59
601.762	33189.48
602.12	33349.02
602.478	33271.29
602.836	33432.86
603.194	33375.24
603.552	33530.49
603.91	33480.32
604.268	33609.36
604.625	33551.5
604.983	34005.5
605.341	33685.06
605.698	33991.04
606.056	34108.78
606.413	34083.24
606.771	34093.86
607.128	34337.7
607.485	34208.66
607.843	34311.26
608.2	34469.45
608.557	34659.27
608.914	34599.61
609.272	34861.3
609.629	34739.95
609.986	35064.69
610.343	34901.98
610.7	35115.53
611.057	35189.43
611.414	35172.93
611.771	35245.47
612.127	35391.46
612.484	35421.51
612.841	35605.24
613.198	35533.6
613.554	35609.08
613.911	35770.88
614.267	35763.42
614.624	35746.48
614.98	35887.04
615.337	36120.25
615.693	35988.95
616.05	36075.51
616.406	36236.18
616.762	36154.37
617.118	36140.82
617.475	36174.94
617.831	36419.23
618.187	36368.15
618.543	36557.53
618.899	36684.08
619.255	36737.18
619.611	36680.69
619.967	36806.56
620.323	36897.86
620.678	36861.7
621.034	36705.09
621.39	36737.41
621.746	36830.29
622.101	37258.3
622.457	36900.57
622.812	37137.85
623.168	37145.76
623.523	37219.88
623.879	37382.36
624.234	36999.32
624.589	37314.57
624.945	37236.61
625.3	37398.86
625.655	37356.15
626.01	37311.41
626.365	37278.19
626.72	37343.5
627.075	37397.96
627.43	37520.44
627.785	37260.79
628.14	37449.03
628.495	37575.13
628.85	37463.94
629.205	37397.28
629.559	37614
629.914	37263.95
630.269	37424.85
630.623	37387.56
630.978	37381.46
631.332	37512.3
631.687	37455.13
632.041	37468.69
632.396	37478.41
632.75	37299.43
633.104	37502.14
633.459	37196.61
633.813	37196.38
634.167	37373.78
634.521	37346.21
634.875	37432.31
635.229	37225.98
635.583	37185.31
635.937	37117.51
636.291	37235.93
636.645	37211.75
636.999	37167.91
637.352	37118.42
637.706	36968.59
638.06	37144.63
638.413	37103.05
638.767	36994.58
639.121	37036.38
639.474	36769.73
639.828	36851.76
640.181	36851.76
640.534	36886.78
640.888	36848.14
641.241	36595.72
641.594	36851.31
641.947	36812.44
642.301	36714.81
642.654	36733.79
643.007	36720.69
643.36	36749.16
643.713	36737.64
644.066	36855.37
644.419	36574.02
644.771	36313.24
645.124	36148.5
645.477	36021.95
645.83	35802.07
646.182	35706.02
646.535	35556.65
646.888	35659.7
647.24	35417.9
647.593	35649.98
647.945	35597.33
648.298	35501.74
648.65	35332.7
649.002	35116.44
649.355	35454.51
649.707	35232.36
650.059	35468.97
650.411	35924.32
650.763	35957.32
651.115	36244.77
651.467	36269.4
651.819	36115.05
652.171	36090.87
652.523	36026.02
652.875	36075.28
653.227	35909.63
653.578	36329.28
653.93	35984.89
654.282	35899.24
654.633	35798.68
654.985	35861.73
655.337	35884.78
655.688	35847.94
656.039	36037.54
656.391	35729.07
656.742	35789.64
657.094	35685.01
657.445	35946.02
657.796	35878.68
658.147	35759.58
658.498	35754.38
658.849	35825.12
659.2	35767.27
659.551	35596.2
659.902	35746.02
660.253	35624.9
660.604	35859.24
660.955	35507.16
661.306	35736.76
661.656	35595.29
662.007	35628.29
662.358	35553.26
662.708	35627.61
663.059	35586.25
663.409	35333.6
663.76	35667.61
664.11	35726.59
664.461	35682.97
664.811	35680.26
665.161	35492.24
665.511	35533.83
665.862	35607.95
666.212	35583.09
666.562	35664.22
666.912	35565.46
667.262	35494.96
667.612	35624.22
667.962	35592.13
668.312	35444.34
668.662	35718
669.011	35527.27
669.361	35431.23
669.711	35504.9
670.06	35483.21
670.41	35297.67
670.76	35394.62
671.109	35508.97
671.459	35278.24
671.808	35227.62
672.157	35480.49
672.507	35272.14
672.856	35191.46
673.205	35292.48
673.554	35508.97
673.904	35041.64
674.253	35531.34
674.602	35228.75
674.951	34843.67
675.3	34647.3
675.649	35170.9
675.998	35163.67
676.346	35243.89
676.695	35341.51
677.044	34972.03
677.393	35122.76
677.741	35217.22
678.09	35094.74
678.438	34996.44
678.787	35070.56
679.135	34933.62
679.484	34863.33
679.832	34940.39
680.181	34784.24
680.529	34811.13
680.877	34666.05
681.225	34699.5
681.573	34834.86
681.922	34676.22
682.27	34604.13
682.618	34415.66
682.966	34456.34
683.314	34496.11
683.661	34410.69
684.009	34272.39
684.357	34196.23
684.705	34032.4
685.053	34083.47
685.4	34111.49
685.748	33926.86
686.095	33891.61
686.443	33753.31
686.79	33829.69
687.138	33948.1
687.485	33931.61
687.832	33603.71
688.18	33866.75
688.527	33558.74
688.874	33696.36
689.221	33582.92
689.568	33515.12
689.915	33391.96
690.262	33356.03
690.609	33354.67
690.956	33219.76
691.303	33172.31
691.65	32953.55
691.997	33041.46
692.344	32853.67
692.69	32841.47
693.037	32693.45
693.383	32542.94
693.73	32660
694.077	32451.19
694.423	32358.77
694.769	32342.95
695.116	32348.15
695.462	32159.9
695.808	32027.48
696.155	32358.77
696.501	31955.16
696.847	31937.99
697.193	31565.79
697.539	31878.55
697.885	31660.03
698.231	31468.85
698.577	31655.06
698.923	31368.29
699.269	31281.06
699.614	31176.2
699.96	31241.51
700.306	31155.18
700.651	31006.49
700.997	30916.32
701.342	30821.86
701.688	30851.46
702.033	30831.8
702.379	30780.28
702.724	30612.83
703.069	30761.52
703.415	30350.69
703.76	30288.54
704.105	30314.53
704.45	30162.67
704.795	30063.01
705.14	30033.18
705.485	29929
705.83	29879.96
706.175	29985.72
706.52	29850.13
706.865	29568.56
707.209	29769.23
707.554	29579.86
707.899	29649.46
708.243	29494.89
708.588	29311.39
708.932	29202.01
709.277	29156.59
709.621	29201.34
709.966	29013.32
710.31	29080.66
710.654	28764.06
710.998	28890.16
711.342	28859.42
711.687	28653.55
712.031	28717.28
712.375	28517.96
712.719	28679.54
713.063	28557.29
713.407	28682.03
713.75	28573.1
714.094	28480.23
714.438	28363.39
714.782	28423.05
715.125	28254.02
715.469	28296.5
715.812	28117.52
716.156	28108.48
716.499	28096.28
716.843	28042.72
717.186	27916.17
717.53	28005.21
717.873	28000.01
718.216	27812.22
718.559	27731.32
718.902	27591.66
719.246	27750.3
719.589	27499.46
719.932	27415.39
720.275	27439.8
720.617	27396.64
720.96	27341.05
721.303	27304.66
721.646	27319.13
721.989	27215.4
722.331	27314.38
722.674	27067.83
723.016	27216.3
723.359	27132.24
723.701	27233.48
724.044	26797.78
724.386	26811.57
724.729	26953.94
725.071	26814.73
725.413	26945.35
725.755	26805.02
726.097	26616.55
726.439	26481.18
726.782	26577.22
727.124	26621.07
727.465	26495.87
727.807	26527.51
728.149	26341.98
728.491	26412.48
728.833	26341.75
729.175	26313.95
729.516	26284.8
729.858	26201.87
730.199	26345.82
730.541	26183.11
730.882	26219.27
731.224	26277.8
731.565	26085.03
731.906	26162.09
732.248	26091.14
732.589	25896.34
732.93	25842.33
733.271	25967.75
733.612	25831.26
733.953	25877.58
734.294	25745.61
734.635	25640.75
734.976	25714.65
735.317	25558.04
735.658	25625.61
735.999	25572.28
736.339	25595.1
736.68	25550.81
737.021	25383.81
737.361	25405.5
737.702	25489.12
738.042	25516.46
738.383	25335.9
738.723	25399.63
739.063	25272.85
739.404	25281.21
739.744	25282.8
740.084	25099.52
740.424	25159.18
740.764	25120.99
741.104	25111.05
741.444	25120.99
741.784	24969.36
742.124	24969.81
742.464	24982.92
742.804	24825.41
743.143	25053.88
743.483	24878.29
743.823	24779.76
744.162	24721.23
744.502	24827.21
744.841	24742.02
745.181	24689.14
745.52	24558.52
745.86	24641.91
746.199	24532.53
746.538	24525.75
746.877	24540.22
747.216	24546.32
747.556	24407.56
747.895	24467.9
748.234	24302.93
748.573	24323.95
748.911	24269.26
749.25	24246.66
749.589	24178.42
749.928	24152.66
750.267	24049.61
750.605	24090.96
750.944	24019.33
751.283	23961.7
751.621	24049.38
751.96	23802.16
752.298	23782.04
752.636	23805.32
752.975	23720.58
753.313	23636.51
753.651	23735.94
753.989	23542.05
754.327	23579.34
754.666	23435.39
755.004	23519
755.342	23471.77
755.679	23387.93
756.017	23281.94
756.355	23289.4
756.693	23288.95
757.031	23193.36
757.368	23162.63
757.706	23056.41
758.044	22996.98
758.381	23133.25
758.719	22898
759.056	22944.78
759.394	22761.96
759.731	22712.69
760.068	22749.08
760.405	22646.71
760.743	22497.78
761.08	22616.88
761.417	22405.13
761.754	22397.67
762.091	22276.32
762.428	22227.96
762.765	22067.51
763.102	22103.67
763.438	22078.13
763.775	21885.6
764.112	21951.81
764.449	21942.32
764.785	21857.57
765.122	21699.39
765.458	21688.09
765.795	21648.54
766.131	21611.25
766.467	21555.21
766.804	21365.38
767.14	21331.26
767.476	21374.2
767.812	21207.42
768.148	21247.87
768.485	20992.96
768.821	20845.17
769.157	20919.75
769.492	20858.73
769.828	20748.23
770.164	20565.41
770.5	20623.48
770.836	20645.4
771.171	20521.56
771.507	20377.16
771.842	20340.78
772.178	20343.72
772.513	20171.29
772.849	20142.37
773.184	20079.99
773.519	20045.87
773.855	19911.64
774.19	19873.45
774.525	19810.17
774.86	19725.65
775.195	19694.92
775.53	19580.12
775.865	19506
776.2	19383.97
776.535	19357.53
776.87	19248.6
777.205	19188.72
777.539	19233.69
777.874	19208.61
778.209	19015.62
778.543	19027.59
778.878	18782.18
779.212	18869.4
779.547	18691.56
779.881	18715.96
780.215	18566.59
780.55	18630.54
780.884	18491.79
781.218	18432.58
781.552	18367.72
781.886	18285.69
782.22	18181.29
782.554	18208.63
782.888	18039.14
783.222	17989.43
783.556	17977.68
783.889	17873.95
784.223	17847.74
784.557	17745.82
784.89	17768.42
785.224	17649.32
785.557	17542.43
785.891	17453.4
786.224	17478.48
786.558	17511.02
786.891	17218.6
787.224	17166.17
787.557	17192.61
787.891	17203.46
788.224	17114.87
788.557	17253.85
788.89	16979.06
789.223	16946.74
789.556	16827.88
789.888	16733.42
790.221	16808.22
790.554	16630.59
790.887	16577.94
791.219	16578.17
791.552	16533.87
791.884	16433.31
792.217	16431.28
792.549	16248.91
792.882	16267.89
793.214	16143.6
793.546	16165.75
793.879	16092.75
794.211	16079.65
794.543	15992.64
794.875	15965.75
795.207	16017.28
795.539	15825.64
795.871	15883.04
796.203	15767.34
796.535	15582.26
796.867	15611.86
797.198	15580.68
797.53	15528.7
797.862	15420.23
798.193	15459.78
798.525	15433.11
798.856	15410.06
799.188	15205.32
799.519	15187.69
799.85	15094.36
800.182	15168.26
800.513	15079
800.844	14941.37
801.175	15063.18
801.506	15084.42
801.837	14984.31
802.168	14929.17
802.499	14783.18
802.83	14769.85
803.161	14662.06
803.491	14710.42
803.822	14742.28
804.153	14568.95
804.483	14512.46
804.814	14446.24
805.145	14425.23
805.475	14435.4
805.805	14428.62
806.136	14324.21
806.466	14349.3
806.796	14229.08
807.126	14207.61
807.457	14160.38
807.787	14178.68
808.117	14023.66
808.447	14053.94
808.777	14051.9
809.107	13998.57
809.436	13985.24
809.766	14003.77
810.096	13913.83
810.426	13863.89
810.755	13802.87
811.085	13778.01
811.414	13738.69
811.744	13692.59
812.073	13602.65
812.403	13621.18
812.732	13446.04
813.061	13591.35
813.39	13493.05
813.719	13406.72
814.049	13507.96
814.378	13465.25
814.707	13335.09
815.036	13418.47
815.365	13282.21
815.693	13152.72
816.022	13258.48
816.351	13144.58
816.68	13078.37
817.008	13148.2
817.337	13025.26
817.665	13032.5
817.994	12998.6
818.322	12958.83
818.651	12928.32
818.979	12818.94
819.307	12852.84
819.636	12843.8
819.964	12786.18
820.292	12886.74
820.62	12767.19
820.948	12710.47
821.276	12734.65
821.604	12745.95
821.932	12817.36
822.259	12745.72
822.587	12784.14
822.915	12669.57
823.243	12716.8
823.57	12686.29
823.898	12677.7
824.225	12626.41
824.553	12712.73
824.88	12705.73
825.207	12743.46
825.535	12667.08
825.862	12793.41
826.189	12659.17
826.516	12734.65
826.843	12779.62
827.17	12667.31
827.497	12742.56
827.824	12696.69
828.151	12727.42
828.478	12719.28
828.805	12735.33
829.131	12619.85
829.458	12698.95
829.785	12590.93
830.111	12647.2
830.438	12746.18
830.764	12685.39
831.09	12649
831.417	12580.3
831.743	12685.84
832.069	12623.24
832.395	12624.6
832.722	12604.26
833.048	12582.56
833.374	12523.13
833.7	12467.54
834.026	12600.42
834.351	12537.37
834.677	12505.5
835.003	12547.09
835.329	12524.26
835.654	12472.96
835.98	12477.03
836.306	12492.62
836.631	12376.47
836.956	12423.25
837.282	12426.41
837.607	12349.58
837.932	12303.25
838.258	12300.54
838.583	12246.75
838.908	12242.23
839.233	12223.7
839.558	12255.79
839.883	12109.58
840.208	12186.64
840.533	12120.88
840.858	12148.45
841.182	12178.73
841.507	12119.07
841.832	12042.01
842.156	12036.14
842.481	12065.06
842.805	12057.83
843.13	11938.97
843.454	11901
843.778	11837.5
844.103	11810.16
844.427	11786.88
844.751	11836.14
845.075	11859.19
845.399	11682.93
845.723	11665.75
846.047	11710.72
846.371	11631.63
846.695	11516.38
847.019	11520.67
847.343	11471.18
847.666	11472.76
847.99	11361.81
848.313	11399.09
848.637	11249.72
848.96	11242.26
849.284	11264.86
849.607	11197.97
849.931	11156.16
850.254	11044.07
850.577	11011.98
850.9	10903.74
851.223	10921.59
851.546	10907.35
851.869	10805.89
852.192	10898.32
852.515	10717.75
852.838	10691.54
853.161	10725.21
853.483	10668.26
853.806	10625.78
854.129	10612.67
854.451	10546.01
854.774	10497.42
855.096	10451.32
855.419	10391.21
855.741	10458.1
856.063	10354.6
856.385	10360.25
856.708	10319.35
857.03	10251.55
857.352	10209.52
857.674	10241.61
857.996	10177.88
858.318	10118.9
858.64	10170.2
858.961	10116.87
859.283	10068.05
859.605	10007.04
859.926	10088.62
860.248	10043.87
860.57	9946.02
860.891	10008.85
861.212	9884.78
861.534	9899.02
861.855	9861.73
862.176	9882.52
862.498	9889.08
862.819	9771.79
863.14	9766.82
863.461	9768.4
863.782	9700.83
864.103	9729.76
864.424	9737.22
864.745	9757.78
865.065	9679.14
865.386	9697.44
865.707	9627.61
866.027	9628.52
866.348	9593.94
866.668	9609.54
866.989	9569.08
867.309	9534.28
867.63	9524.11
867.95	9488.18
868.27	9538.58
868.59	9613.15
868.91	9508.52
869.23	9463.1
869.55	9421.97
869.87	9487.5
870.19	9480.73
870.51	9403.89
870.83	9368.19
871.15	9340.62
871.469	9302.2
871.789	9294.97
872.109	9396.21
872.428	9280.05
872.748	9368.64
873.067	9264.23
873.386	9257
873.706	9253.84
874.025	9218.36
874.344	9172.94
874.663	9227.62
874.982	9137.68
875.301	9127.97
875.62	9127.29
875.939	9086.61
876.258	9120.06
876.577	9103.79
876.896	9109.44
877.214	9103.33
877.533	9002.09
877.852	9017.91
878.17	9014.3
878.489	9031.47
878.807	8971.36
879.125	8985.37
879.444	8942.43
879.762	8897.24
880.08	8923.9
880.398	8879.16
880.716	8909.89
881.034	8822.89
881.352	8849.78
881.67	8783.79
881.988	8798.03
882.306	8776.34
882.624	8803.23
882.941	8732.27
883.259	8769.56
883.577	8682.55
883.894	8666.06
884.212	8604.82
884.529	8676.68
884.846	8660.63
885.164	8637.36
885.481	8611.14
885.798	8580.41
886.115	8558.26
886.432	8606.62
886.75	8480.98
887.067	8509.45
887.383	8474.65
887.7	8469.23
888.017	8452.28
888.334	8440.3
888.651	8448.44
888.967	8397.82
889.284	8395.78
889.6	8345.84
889.917	8277.82
890.233	8244.15
890.55	8238.27
890.866	8229.46
891.182	8264.71
891.498	8181.32
891.815	8151.04
892.131	8137.03
892.447	8118.95
892.763	8068.11
893.079	8070.14
893.395	8030.37
893.71	7973.42
894.026	8039.86
894.342	7968
894.657	7970.26
894.973	7916.25
895.289	7906.53
895.604	7878.06
895.92	7827.21
896.235	7782.92
896.55	7810.26
896.865	7750.38
897.181	7736.82
897.496	7754.22
897.811	7695.91
898.126	7693.88
898.441	7630.38
898.756	7659.98
899.071	7591.28
899.386	7573.88
899.7	7520.32
900.015	7485.75
900.33	7419.31
900.644	7490.04
900.959	7453.21
901.273	7378.63
901.588	7398.52
901.902	7297.96
902.216	7293.66
902.531	7278.3
902.845	7223.16
903.159	7248.24
903.473	7215.93
903.787	7190.62
904.101	7149.94
904.415	7161.69
904.729	7112.2
905.042	7036.04
905.356	7050.96
905.67	7057.96
905.984	7011.64
906.297	6959.21
906.611	6970.96
906.924	6986.1
907.237	6908.14
907.551	6869.72
907.864	6858.87
908.177	6849.38
908.491	6876.27
908.804	6785.43
909.117	6777.97
909.43	6734.58
909.743	6694.58
910.056	6654.81
910.368	6635.6
910.681	6611.2
910.994	6594.7
911.307	6543.4
911.619	6508.37
911.932	6534.81
912.244	6469.73
912.557	6514.48
912.869	6422.27
913.181	6387.02
913.494	6347.47
913.806	6337.08
914.118	6323.75
914.43	6324.65
914.742	6373.24
915.054	6277.19
915.366	6239.45
915.678	6268.83
915.99	6171.89
916.302	6165.33
916.613	6072
916.925	6095.28
917.236	6061.61
917.548	6013.02
917.859	6066.58
918.171	6032.68
918.482	5983.19
918.794	5935.73
919.105	5932.34
919.416	5892.8
919.727	5863.65
920.038	5857.32
920.349	5846.7
920.66	5787.49
920.971	5780.94
921.282	5690.77
921.593	5734.38
921.903	5671.56
922.214	5693.48
922.525	5651.22
922.835	5633.59
923.146	5642.18
923.456	5612.13
923.767	5550.66
924.077	5590.43
924.387	5520.38
924.697	5483.77
925.008	5507.95
925.318	5415.75
925.628	5460.72
925.938	5434.28
926.248	5361.06
926.558	5314.28
926.867	5358.35
927.177	5347.5
927.487	5345.01
927.796	5263.44
928.106	5267.05
928.416	5229.76
928.725	5234.51
929.034	5194.74
929.344	5178.01
929.653	5157.22
929.962	5099.6
930.271	5138.47
930.581	5077
930.89	5071.58
931.199	5050.11
931.508	5025.7
931.817	4999.26
932.125	4976.66
932.434	4961.07
932.743	4897.79
933.051	4901.86
933.36	4840.85
933.669	4879.72
933.977	4856.67
934.286	4870.23
934.594	4817.35
934.902	4758.59
935.21	4737.8
935.519	4733.28
935.827	4715.65
936.135	4687.4
936.443	4650.12
936.751	4671.59
937.059	4634.98
937.367	4630.01
937.674	4584.58
937.982	4559.05
938.29	4558.14
938.597	4531.7
938.905	4531.02
939.213	4526.28
939.52	4428.88
939.827	4508.43
940.135	4400.63
940.442	4473.4
940.749	4414.64
941.056	4422.33
941.363	4346.85
941.67	4378.94
941.977	4329.67
942.284	4316.12
942.591	4321.99
942.898	4321.76
943.205	4299.84
943.511	4253.97
943.818	4215.78
944.125	4220.07
944.431	4196.57
944.738	4164.71
945.044	4124.48
945.35	4111.83
945.657	4124.48
945.963	4113.86
946.269	4080.42
946.575	4076.57
946.881	4041.77
947.187	4034.31
947.493	4055.56
947.799	4003.81
948.105	3987.99
948.41	3949.12
948.716	3944.6
949.022	3940.98
949.327	3968.1
949.633	3886.97
949.938	3912.51
950.244	3896.47
950.549	3867.54
950.854	3886.07
951.16	3837.48
951.465	3820.76
951.77	3781.67
952.075	3758.62
952.38	3728.11
952.685	3741.89
952.99	3704.83
953.294	3716.36
953.599	3739.18
953.904	3681.56
954.209	3655.12
954.513	3662.12
954.818	3608.56
955.122	3599.98
955.426	3584.38
955.731	3561.33
956.035	3564.5
956.339	3579.64
956.643	3555.91
956.948	3521.79
957.252	3485.85
957.556	3517.27
957.86	3462.13
958.163	3467.1
958.467	3434.78
958.771	3456.25
959.075	3423.03
959.378	3429.36
959.682	3381
959.985	3372.86
960.289	3352.07
960.592	3349.14
960.896	3349.59
961.199	3322.47
961.502	3293.54
961.805	3316.37
962.108	3299.64
962.411	3256.93
962.714	3249.25
963.017	3246.09
963.32	3210.16
963.623	3243.38
963.926	3178.29
964.228	3180.1
964.531	3166.32
964.833	3157.05
965.136	3137.62
965.438	3111.63
965.741	3104.62
966.043	3113.89
966.345	3081.57
966.648	3062.36
966.95	3089.48
967.252	3046.32
967.554	3001.57
967.856	3023.27
968.158	2999.54
968.46	2991.18
968.761	2991.63
969.063	2945.3
969.365	2961.35
969.666	2918.41
969.968	2938.3
970.269	2905.53
970.571	2882.93
970.872	2891.29
971.174	2863.72
971.475	2882.48
971.776	2846.78
972.077	2833.67
972.378	2808.36
972.679	2792.77
972.98	2846.1
973.281	2784.18
973.582	2802.48
973.883	2751.86
974.183	2731.3
974.484	2750.73
974.785	2776.95
975.085	2726.1
975.386	2722.48
975.686	2722.94
975.986	2710.28
976.287	2723.84
976.587	2674.8
976.887	2629.15
977.187	2635.03
977.487	2615.37
977.787	2573.56
978.087	2590.06
978.387	2619.66
978.687	2580.79
978.987	2580.12
979.286	2541.02
979.586	2580.34
979.885	2570.4
980.185	2534.69
980.484	2539.21
980.784	2533.11
981.083	2504.41
981.382	2503.51
981.682	2477.75
981.981	2456.96
982.28	2475.94
982.579	2402.95
982.878	2427.8
983.177	2450.63
983.475	2417.18
983.774	2413.11
984.073	2349.84
984.372	2388.03
984.67	2377.41
984.969	2362.04
985.267	2378.54
985.566	2347.35
985.864	2325.66
986.162	2317.98
986.461	2316.39
986.759	2283.63
987.057	2274.14
987.355	2263.51
987.653	2277.75
987.951	2261.48
988.249	2243.63
988.547	2242.05
988.844	2203.18
989.142	2190.3
989.44	2169.05
989.737	2208.15
990.035	2189.84
990.332	2178.54
990.63	2190.07
990.927	2162.27
991.224	2131.31
991.521	2140.81
991.819	2148.49
992.116	2140.58
992.413	2131.54
992.71	2095.61
993.006	2074.14
993.303	2088.83
993.6	2082.5
993.897	2091.99
994.193	2071.65
994.49	2037.31
994.787	2026.46
995.083	1999.79
995.379	2038.21
995.676	2007.48
995.972	1989.62
996.268	1974.03
996.565	1950.98
996.861	1951.88
997.157	1947.82
997.453	1941.94
997.749	1948.49
998.044	1920.25
998.34	1913.24
998.636	1910.98
998.932	1905.11
999.227	1894.48
999.523	1865.56
999.818	1885.67
1000.114	1875.05
1000.409	1853.58
1000.704	1866.01
1001	1842.06
1001.295	1827.59
1001.59	1835.73
1001.885	1795.5
1002.18	1792.79
1002.475	1786.24
1002.77	1781.49
1003.065	1777.43
1003.359	1774.94
1003.654	1739.01
1003.949	1737.2
1004.243	1729.29
1004.538	1712.34
1004.832	1721.61
1005.127	1728.16
1005.421	1682.29
1005.715	1678.22
1006.009	1687.71
1006.304	1667.15
1006.598	1663.53
1006.892	1664.66
1007.186	1634.83
1007.48	1648.16
1007.773	1612.68
1008.067	1626.02
1008.361	1616.53
1008.655	1595.73
1008.948	1584.66
1009.242	1569.52
1009.535	1550.09
1009.829	1565.91
1010.122	1538.34
1010.415	1561.39
1010.708	1555.06
1011.001	1537.43
1011.295	1511.9
1011.588	1518.22
1011.881	1493.36
1012.173	1496.3
1012.466	1518.67
1012.759	1500.6
1013.052	1508.73
1013.344	1482.29
1013.637	1485.68
1013.93	1443.42
1014.222	1442.97
1014.514	1450.88
1014.807	1449.3
1015.099	1461.73
1015.391	1416.53
1015.683	1428.96
1015.976	1407.27
1016.268	1405.23
1016.56	1395.51
1016.851	1386.47
1017.143	1369.75
1017.435	1373.37
1017.727	1317.55
1018.018	1346.48
1018.31	1333.82
1018.602	1327.49
1018.893	1288.85
1019.185	1303.31
1019.476	1329.75
1019.767	1299.92
1020.058	1287.04
1020.35	1271.9
1020.641	1280.71
1020.932	1260.83
1021.223	1261.73
1021.514	1221.28
1021.804	1242.75
1022.095	1233.71
1022.386	1206.37
1022.677	1197.1
1022.967	1209.76
1023.258	1189.42
1023.548	1174.28
1023.839	1189.42
1024.129	1193.71
1024.419	1173.37
1024.709	1173.83
1025	1173.15
1025.29	1123.2
1025.58	1131.79
1025.87	1144.67
1026.16	1099.7
1026.449	1098.12
1026.739	1110.32
1027.029	1108.29
1027.319	1065.58
1027.608	1071.68
1027.898	1109.19
1028.187	1056.54
1028.477	1069.65
1028.766	1075.97
1029.055	1043.43
1029.344	1032.59
1029.634	1015.64
1029.923	1036.43
1030.212	1048.86
1030.501	1017.9
1030.79	1016.77
1031.078	1017.44
1031.367	1012.02
1031.656	1014.51
1031.945	1009.08
1032.233	983.77
1032.522	995.07
1032.81	952.36
1033.099	967.95
1033.387	958.01
1033.675	980.61
1033.963	966.37
1034.251	964.34
1034.54	939.93
1034.828	922.08
1035.116	943.77
1035.403	909.65
1035.691	938.13
1035.979	892.25
1036.267	907.17
1036.554	896.54
1036.842	878.01
1037.129	889.54
1037.417	900.84
1037.704	859.03
1037.992	873.49
1038.279	860.16
1038.566	877.79
1038.853	877.79
1039.14	877.79
