Data from hue_28_FLMS001491_00094.txt Node
Date: Tue Feb 07 17:18:04 GMT 2017
User: dcchb
Spectrometer: FLMS00149
Trigger mode: 0
Integration Time (sec): 2.000000E-2
Scans to average: 10
Electric dark correction enabled: true
Nonlinearity correction enabled: false
Boxcar width: 0
XAxis mode: Wavelengths
Number of Pixels in Spectrum: 2048
>>>>>Begin Spectral Data<<<<<
341.393	-6.16
341.776	-6.16
342.16	-6.16
342.543	-44.8
342.927	-62.2
343.31	-72.82
343.693	-85.25
344.077	-61.75
344.46	-57.68
344.843	-49.09
345.226	-57.23
345.61	-17.68
345.993	-12.94
346.376	-7.06
346.759	-6.38
347.142	-0.51
347.525	64.12
347.908	66.61
348.291	81.98
348.674	98.47
349.057	117.23
349.44	135.99
349.823	145.93
350.206	172.59
350.588	194.51
350.971	214.63
351.354	225.7
351.737	229.32
352.119	258.92
352.502	274.06
352.884	274.29
353.267	284.91
353.65	307.96
354.032	288.3
354.414	309.77
354.797	319.26
355.179	305.7
355.562	328.97
355.944	334.4
356.326	339.37
356.709	340.73
357.091	333.27
357.473	375.75
357.855	321.74
358.238	354.06
358.62	351.57
359.002	333.95
359.384	352.7
359.766	328.97
360.148	357.22
360.53	344.12
360.912	328.3
361.294	323.1
361.676	343.44
362.057	337.79
362.439	335.53
362.821	327.84
363.203	325.13
363.584	330.33
363.966	301.86
364.348	294.63
364.729	311.8
365.111	327.84
365.493	313.16
365.874	342.53
366.256	305.7
366.637	321.07
367.019	337.56
367.4	337.34
367.781	305.25
368.163	330.56
368.544	302.76
368.925	331.46
369.306	348.41
369.688	313.16
370.069	318.58
370.45	326.04
370.831	305.02
371.212	319.48
371.593	319.26
371.974	310.9
372.355	322.19
372.736	309.99
373.117	329.2
373.498	313.16
373.879	328.75
374.26	303.89
374.641	317.45
375.021	315.87
375.402	301.18
375.783	339.14
376.163	338.24
376.544	329.88
376.925	320.84
377.305	335.98
377.686	327.17
378.066	343.21
378.447	332.14
378.827	316.77
379.208	315.64
379.588	322.42
379.968	350.44
380.349	332.82
380.729	335.53
381.109	345.25
381.489	335.75
381.87	349.99
382.25	322.65
382.63	349.54
383.01	352.93
383.39	352.93
383.77	321.52
384.15	347.28
384.53	338.92
384.91	357
385.29	328.97
385.67	337.79
386.049	338.69
386.429	361.97
386.809	360.61
387.189	349.09
387.568	369.88
387.948	356.09
388.328	348.86
388.707	346.38
389.087	335.53
389.466	359.26
389.846	380.5
390.225	384.79
390.605	368.07
390.984	366.49
391.363	365.13
391.743	355.87
392.122	346.83
392.501	351.57
392.881	382.53
393.26	396.32
393.639	382.76
394.018	379.59
394.397	375.07
394.776	374.4
395.155	398.13
395.534	380.72
395.913	395.41
396.292	384.34
396.671	363.78
397.05	378.92
397.429	392.25
397.808	375.3
398.186	394.06
398.565	385.24
398.944	388.18
399.323	387.05
399.701	395.87
400.08	411.01
400.458	423.89
400.837	413.27
401.215	406.49
401.594	408.52
401.972	415.53
402.351	397.67
402.729	403.77
403.107	397.67
403.486	404.23
403.864	414.4
404.242	417.11
404.62	422.08
404.999	419.82
405.377	399.48
405.755	429.76
406.133	421.63
406.511	449.65
406.889	422.53
407.267	465.02
407.645	441.97
408.023	438.35
408.401	430.67
408.779	436.54
409.156	435.64
409.534	445.36
409.912	451.68
410.29	442.64
410.667	468.63
411.045	454.62
411.422	457.33
411.8	472.25
412.178	465.92
412.555	462.08
412.933	477.22
413.31	479.7
413.687	473.83
414.065	464.34
414.442	475.19
414.819	495.52
415.197	499.14
415.574	500.5
415.951	494.62
416.328	506.37
416.705	504.11
417.082	509.99
417.46	499.14
417.837	516.54
418.214	521.06
418.591	519.7
418.967	525.13
419.344	524.68
419.721	530.1
420.098	531.23
420.475	536.65
420.852	517.44
421.228	533.49
421.605	506.14
421.982	558.8
422.358	548.18
422.735	527.16
423.111	557.89
423.488	548.86
423.864	532.13
424.241	563.32
424.617	560.15
424.994	554.73
425.37	568.74
425.746	584.56
426.123	554.51
426.499	583.43
426.875	571.23
427.251	609.42
427.627	594.05
428.003	603.54
428.379	611.9
428.756	587.05
429.132	611.68
429.507	618.91
429.883	624.11
430.259	635.86
430.635	637.21
431.011	612.36
431.387	627.05
431.763	649.42
432.138	636.99
432.514	636.08
432.89	652.36
433.265	649.19
433.641	694.39
434.016	673.15
434.392	659.36
434.767	683.32
435.143	668.4
435.518	677.44
435.894	702.75
436.269	710.43
436.644	709.98
437.02	725.35
437.395	702.98
437.77	723.99
438.145	745.46
438.52	747.04
438.895	738
439.271	738.23
439.646	755.63
440.021	747.27
440.395	753.82
440.77	744.56
441.145	743.43
441.52	776.65
441.895	772.13
442.27	759.47
442.645	787.72
443.019	802.18
443.394	803.54
443.769	789.3
444.143	797.44
444.518	788.85
444.892	802.86
445.267	813.26
445.641	824.33
446.016	802.86
446.39	783.2
446.764	818.45
447.139	834.5
447.513	835.85
447.887	813.26
448.262	819.36
448.636	840.6
449.01	867.27
449.384	835.18
449.758	847.83
450.132	882.41
450.506	876.76
450.88	876.76
451.254	867.27
451.628	897.1
452.002	898.9
452.376	886.7
452.75	939.13
453.123	917.21
453.497	939.35
453.871	944.1
454.244	959.24
454.618	979.35
454.992	969.18
455.365	985
455.739	976.64
456.112	991.1
456.486	970.31
456.859	1005.57
457.232	1011.44
457.606	1023.87
457.979	1050.54
458.352	1066.13
458.725	1065.45
459.099	1071.78
459.472	1076.07
459.845	1113.81
460.218	1085.79
460.591	1097.09
460.964	1116.98
461.337	1133.47
461.71	1137.54
462.083	1197.43
462.456	1145.9
462.829	1170.99
463.201	1198.1
463.574	1200.59
463.947	1193.36
464.32	1216.18
464.692	1239.68
465.065	1239.46
465.438	1252.57
465.81	1273.58
466.183	1291.21
466.555	1310.42
466.928	1319.46
467.3	1338.44
467.672	1337.54
468.045	1378.66
468.417	1404.43
468.789	1404.2
469.161	1424.31
469.534	1445.33
469.906	1461.15
470.278	1493.01
470.65	1493.69
471.022	1522.39
471.394	1545.21
471.766	1555.83
472.138	1576.85
472.51	1590.18
472.882	1647.81
473.253	1675.15
473.625	1695.72
473.997	1730.29
474.369	1712.44
474.74	1772.33
475.112	1796.05
475.484	1848.48
475.855	1850.97
476.227	1881.7
476.598	1949.04
476.97	1951.08
477.341	1998.31
477.713	2027.46
478.084	2040.34
478.455	2113.56
478.827	2100
479.198	2201.47
479.569	2193.78
479.94	2289.6
480.311	2300
480.682	2325.31
481.053	2414.8
481.424	2459.99
481.795	2476.71
482.166	2554.9
482.537	2591.06
482.908	2671.96
483.279	2677.39
483.65	2757.61
484.021	2791.96
484.391	2836.48
484.762	2878.51
485.133	2952.18
485.503	3017.49
485.874	3066.53
486.244	3122.12
486.615	3202.8
486.985	3220.2
487.356	3335.9
487.726	3355.34
488.097	3421.77
488.467	3423.36
488.837	3515.56
489.207	3573.86
489.578	3639.4
489.948	3677.81
490.318	3753.74
490.688	3788.09
491.058	3828.77
491.428	3937.24
491.798	4015.21
492.168	4074.41
492.538	4110.8
492.908	4153.51
493.278	4219.04
493.648	4208.19
494.017	4259.49
494.387	4359.83
494.757	4427.17
495.126	4427.17
495.496	4449.77
495.866	4507.4
496.235	4606.6
496.605	4648.86
496.974	4680.05
497.344	4708.07
497.713	4781.06
498.082	4782.42
498.452	4891.34
498.821	4899.48
499.19	4932.02
499.559	5009.3
499.928	5066.48
500.298	5075.06
500.667	5106.48
501.036	5120.49
501.405	5164.33
501.774	5165.01
502.143	5304.21
502.512	5345.34
502.88	5367.94
503.249	5377.2
503.618	5379.92
503.987	5457.88
504.356	5406.13
504.724	5488.61
505.093	5532.23
505.462	5557.31
505.83	5579.01
506.199	5604.77
506.567	5694.71
506.936	5654.26
507.304	5688.61
507.672	5741.49
508.041	5773.35
508.409	5841.15
508.777	5885.66
509.145	5917.53
509.514	5922.95
509.882	5995.27
510.25	5974.02
510.618	6012.44
510.986	5995.49
511.354	6091.53
511.722	6147.13
512.09	6177.63
512.458	6158.65
512.826	6255.6
513.193	6197.29
513.561	6203.62
513.929	6296.05
514.297	6336.5
514.664	6373.79
515.032	6400.23
515.4	6359.55
515.767	6415.59
516.135	6493.33
516.502	6451.3
516.869	6565.42
517.237	6550.51
517.604	6531.07
517.972	6585.08
518.339	6646.32
518.706	6642.71
519.073	6669.6
519.44	6731.29
519.808	6739.88
520.175	6724.96
520.542	6868.46
520.909	6887.67
521.276	6812.42
521.643	6960.66
522.009	6966.09
522.376	6976.71
522.743	7006.31
523.11	7096.71
523.477	7128.12
523.843	7177.61
524.21	7193.65
524.577	7272.29
524.943	7288.34
525.31	7284.27
525.676	7346.19
526.043	7361.11
526.409	7378.51
526.776	7497.37
527.142	7546.64
527.508	7566.07
527.874	7653.75
528.241	7644.49
528.607	7620.53
528.973	7729.23
529.339	7719.97
529.705	7819.17
530.071	7897.59
530.437	7929.68
530.803	7994.99
531.169	7986.4
531.535	7984.59
531.901	8018.49
532.267	8033.18
532.632	8089.9
532.998	8124.25
533.364	8157.47
533.73	8143.91
534.095	8280.18
534.461	8270.91
534.826	8325.6
535.192	8336
535.557	8465.94
535.923	8439.27
536.288	8410.12
536.653	8521.3
537.019	8491.25
537.384	8538.25
537.749	8530.34
538.114	8588.19
538.479	8590.68
538.845	8648.53
539.21	8672.26
539.575	8709.77
539.94	8742.99
540.305	8773.5
540.67	8798.58
541.034	8849.2
541.399	8921.06
541.764	8933.49
542.129	8941.4
542.494	9052.13
542.858	9039.93
543.223	9052.81
543.587	9103.43
543.952	9126.48
544.316	9117.22
544.681	9172.13
545.045	9224.79
545.41	9292.81
545.774	9258.68
546.138	9338.46
546.503	9371.67
546.867	9328.96
547.231	9418.68
547.595	9446.02
547.959	9552.91
548.324	9468.4
548.688	9561.27
549.052	9622.06
549.416	9651.67
549.779	9706.35
550.143	9680.82
550.507	9752.68
550.871	9775.05
551.235	9766.01
551.599	9841.04
551.962	9867.71
552.326	9871.32
552.689	9932.11
553.053	9930.53
553.417	9983.86
553.78	10053.46
554.143	9998.78
554.507	10049.4
554.87	10069.74
555.234	10223.86
555.597	10160.13
555.96	10235.61
556.323	10205.55
556.686	10219.56
557.05	10285.1
557.413	10384.3
557.776	10340.24
558.139	10414.36
558.502	10460.69
558.865	10446.45
559.228	10587.69
559.59	10532.55
559.953	10519.21
560.316	10712.2
560.679	10664.97
561.041	10721.24
561.404	10818.87
561.767	10798.3
562.129	10766.44
562.492	10895.25
562.854	10861.8
563.217	10835.59
563.579	10996.49
563.941	11052.53
564.304	10949.71
564.666	11066.77
565.028	11043.72
565.39	11073.1
565.753	11177.28
566.115	11216.15
566.477	11253.21
566.839	11304.73
567.201	11364.62
567.563	11393.32
567.925	11411.85
568.287	11466.76
568.648	11465.18
569.01	11610.26
569.372	11611.16
569.734	11634.21
570.095	11735.45
570.457	11746.3
570.819	11721.22
571.18	11763.93
571.542	11887.31
571.903	11852.51
572.265	11997.82
572.626	12068.78
572.987	12080.53
573.349	12100.64
573.71	12159.17
574.071	12288.89
574.432	12341.77
574.794	12433.74
575.155	12503.12
575.516	12553.51
575.877	12639.39
576.238	12694.98
576.599	12784.47
576.96	12819.27
577.32	12920.28
577.681	13071.92
578.042	13145.59
578.403	13267.17
578.763	13287.28
579.124	13439.82
579.485	13578.12
579.845	13704.89
580.206	13792.58
580.566	13899.24
580.927	14063.3
581.287	14262.17
581.648	14302.17
582.008	14559.33
582.368	14601.14
582.728	14860.12
583.089	14913.68
583.449	15176.04
583.809	15373.78
584.169	15510.5
584.529	15726.76
584.889	15991.16
585.249	16069.13
585.609	16254.66
585.969	16559.73
586.329	16623.69
586.688	16955.43
587.048	17159.49
587.408	17359.71
587.768	17604.23
588.127	17860.26
588.487	18054.16
588.846	18448.5
589.206	18605.78
589.565	18942.27
589.925	19270.85
590.284	19381.35
590.643	19768.46
591.003	20107.66
591.362	20364.38
591.721	20651.15
592.08	20829.23
592.44	21160.97
592.799	21541.3
593.158	21655.19
593.517	22024.45
593.876	22344.89
594.235	22519.35
594.593	22838.21
594.952	23237.07
595.311	23428.03
595.67	23745.31
596.029	24144.39
596.387	24311.17
596.746	24731.27
597.104	24989.57
597.463	25138.94
597.822	25552.72
598.18	25769.44
598.538	26071.8
598.897	26488.29
599.255	26506.59
599.613	27114.94
599.972	27350.18
600.33	27716.28
600.688	27737.97
601.046	28175.93
601.404	28594.9
601.762	28764.16
602.12	29236.01
602.478	29432.84
602.836	29589.45
603.194	29884.81
603.552	30166.16
603.91	30346.26
604.268	30613.6
604.625	30737.67
604.983	31255.84
605.341	31204.09
605.698	31562.05
606.056	31979.22
606.413	32110.51
606.771	32503.27
607.128	32779.87
607.485	32821.91
607.843	32989.58
608.2	33373.08
608.557	33643.8
608.914	33788.66
609.272	34053.96
609.629	34314.52
609.986	34502.54
610.343	34543.44
610.7	34881.51
611.057	35078.8
611.414	35110.88
611.771	35578.22
612.127	35809.17
612.484	35895.95
612.841	36238.09
613.198	36276.05
613.554	36440.34
613.911	36741.12
614.267	36928.24
614.624	36972.98
614.98	37195.35
615.337	37516.92
615.693	37561.22
616.05	37749.01
616.406	37890.02
616.762	37991.49
617.118	38069
617.475	38143.8
617.831	38424.24
618.187	38568.19
618.543	38760.05
618.899	39007.96
619.255	39085.47
619.611	39194.85
619.967	39287.72
620.323	39397.1
620.678	39400.26
621.034	39600.48
621.39	39594.38
621.746	39568.39
622.101	40199.79
622.457	39928.39
622.812	40087.25
623.168	40284.53
623.523	40276.85
623.879	40495.83
624.234	40263.29
624.589	40514.36
624.945	40574.92
625.3	40889.72
625.655	40881.58
626.01	40938.53
626.365	40958.87
626.72	40960.22
627.075	41024.4
627.43	41049.94
627.785	41097.39
628.14	41184.4
628.495	41311.4
628.85	41258.29
629.205	41202.02
629.559	41437.72
629.914	41338.29
630.269	41489.25
630.623	41459.42
630.978	41305.07
631.332	41571.96
631.687	41762.69
632.041	41638.4
632.396	41672.52
632.75	41546.65
633.104	41726.98
633.459	41541.9
633.813	41669.81
634.167	41599.53
634.521	41565.63
634.875	41645.18
635.229	41554.11
635.583	41562.69
635.937	41660.99
636.291	41593.43
636.645	41711.16
636.999	41681.79
637.352	41680.66
637.706	41484.73
638.06	41686.98
638.413	41574.67
638.767	41508.46
639.121	41738.73
639.474	41529.02
639.828	41501.23
640.181	41654.44
640.534	41644.72
640.888	41623.48
641.241	41542.58
641.594	41473.66
641.947	41505.52
642.301	41505.74
642.654	41475.46
643.007	41466.88
643.36	41496.25
643.713	41447.67
644.066	41565.63
644.419	41298.29
644.771	41055.81
645.124	40791.87
645.477	40808.14
645.83	40419.67
646.182	40259.68
646.535	40228.49
646.888	40396.62
647.24	40096.74
647.593	40376.96
647.945	40218.55
648.298	40134.71
648.65	40076.18
649.002	39862.85
649.355	40221.71
649.707	40068.72
650.059	40336.96
650.411	40768.82
650.763	40712.09
651.115	41289.48
651.467	41072.76
651.819	41137.39
652.171	41024.18
652.523	41054.91
652.875	41063.95
653.227	40599.1
653.578	40970.62
653.93	41004.06
654.282	40709.38
654.633	40705.09
654.985	40888.81
655.337	40921.81
655.688	40767.01
656.039	41078.41
656.391	40581.02
656.742	40665.31
657.094	40785.76
657.445	40947.12
657.796	40906.66
658.147	40793.9
658.498	40645.2
658.849	40849.49
659.2	40638.87
659.551	40624.64
659.902	40739.89
660.253	40789.83
660.604	40832.77
660.955	40583.28
661.306	40670.06
661.656	40712.55
662.007	40640.46
662.358	40710.74
662.708	40660.34
663.059	40649.5
663.409	40514.81
663.76	40896.04
664.11	40732.21
664.461	40715.48
664.811	40802.94
665.161	40670.29
665.511	40576.73
665.862	40629.61
666.212	40800.45
666.562	40769.04
666.912	40569.5
667.262	40587.8
667.612	40620.8
667.962	40624.19
668.312	40550.29
668.662	40899.66
669.011	40691.98
669.361	40533.79
669.711	40643.85
670.06	40609.72
670.41	40604.53
670.76	40482.72
671.109	40512.78
671.459	40468.94
671.808	40394.59
672.157	40468.26
672.507	40333.57
672.856	40419.45
673.205	40466.45
673.554	40448.6
673.904	40374.7
674.253	40410.63
674.602	40362.95
674.951	39765.68
675.3	39657.88
675.649	40256.74
675.998	40111.21
676.346	40259
676.695	40317.75
677.044	39987.59
677.393	40245.89
677.741	40410.41
678.09	40168.83
678.438	40057.2
678.787	40282.27
679.135	40129.28
679.484	39850.87
679.832	39990.3
680.181	39814.94
680.529	39839.12
680.877	39807.48
681.225	39803.64
681.573	39995.95
681.922	39862.85
682.27	39665.79
682.618	39597.09
682.966	39600.26
683.314	39645.68
683.661	39470.09
684.009	39425.12
684.357	39122.76
684.705	39222.87
685.053	39165.24
685.4	39180.61
685.748	39066.71
686.095	39008.64
686.443	38818.81
686.79	38882.08
687.138	39033.95
687.485	38781.52
687.832	38759.6
688.18	38719.6
688.527	38512.83
688.874	38519.83
689.221	38470.12
689.568	38389.89
689.915	38282.1
690.262	38415.66
690.609	38196.68
690.956	38072.61
691.303	38073.74
691.65	37835.78
691.997	37848.67
692.344	37599.18
692.69	37605.51
693.037	37663.81
693.383	37275.8
693.73	37494.1
694.077	37317.83
694.423	37375.23
694.769	37222.24
695.116	37143.83
695.462	37139.08
695.808	36876.71
696.155	36992.87
696.501	36698.19
696.847	36712.88
697.193	36462.49
697.539	36463.84
697.885	36344.75
698.231	36256.62
698.577	36295.03
698.923	36178.88
699.269	36097.53
699.614	35815.95
699.96	35825.22
700.306	35746.8
700.651	35651.21
700.997	35570.53
701.342	35603.08
701.688	35479.24
702.033	35309.52
702.379	35494.15
702.724	35180.26
703.069	35320.14
703.415	34965.8
703.76	34984.11
704.105	34922.42
704.45	34963.54
704.795	34778.69
705.14	34651.69
705.485	34710.9
705.83	34450.56
706.175	34500.28
706.52	34333.28
706.865	34325.14
707.209	34316.1
707.554	34168.54
707.899	34181.87
708.243	34066.84
708.588	33923.57
708.932	33747.98
709.277	33769
709.621	33749.56
709.966	33477.26
710.31	33498.27
710.654	33275.9
710.998	33435.22
711.342	33299.18
711.687	33222.8
712.031	33132.41
712.375	33015.57
712.719	33109.36
713.063	32910.94
713.407	33176.7
713.75	32907.78
714.094	32962.24
714.438	32810.38
714.782	32802.7
715.125	32691.51
715.469	32699.42
715.812	32436.6
716.156	32451.29
716.499	32331.07
716.843	32308.92
717.186	32143.05
717.53	32327.46
717.873	32251.52
718.216	32245.2
718.559	32028.25
718.902	31871.65
719.246	31833.68
719.589	31833.46
719.932	31663.74
720.275	31682.05
720.617	31607.47
720.96	31647.47
721.303	31625.55
721.646	31595.5
721.989	31324.77
722.331	31459
722.674	31430.76
723.016	31425.56
723.359	31357.54
723.701	31340.59
724.044	31120.71
724.386	31088.84
724.729	31305.56
725.071	31198.45
725.413	31116.19
725.755	31074.15
726.097	30950.32
726.439	30779.25
726.782	30764.78
727.124	30973.37
727.465	30712.13
727.807	30703.77
728.149	30541.29
728.491	30473.49
728.833	30607.27
729.175	30496.32
729.516	30344.68
729.858	30435.3
730.199	30360.73
730.541	30346.94
730.882	30263.55
731.224	30381.97
731.565	30115.31
731.906	30149.21
732.248	30048.87
732.589	29927.07
732.93	30002.77
733.271	29940.17
733.612	29920.29
733.953	30050.23
734.294	29911.02
734.635	29861.53
734.976	29859.95
735.317	29728.65
735.658	29704.7
735.999	29735.88
736.339	29605.49
736.68	29732.95
737.021	29534.76
737.361	29383.13
737.702	29587.19
738.042	29354.88
738.383	29460.19
738.723	29478.72
739.063	29412.5
739.404	29355.33
739.744	29300.19
740.084	29092.51
740.424	29136.58
740.764	29086.18
741.104	29165.5
741.444	29046.19
741.784	29039.63
742.124	29053.87
742.464	28873.53
742.804	28791.95
743.143	28852.74
743.483	28922.12
743.823	28604.39
744.162	28691.17
744.502	28714.44
744.841	28641.22
745.181	28689.81
745.52	28608.68
745.86	28497.73
746.199	28591.51
746.538	28473.32
746.877	28411.63
747.216	28439.65
747.556	28453.66
747.895	28321.68
748.234	28288.92
748.573	28304.74
748.911	28284.17
749.25	28164.4
749.589	28090.73
749.928	28090.73
750.267	28219.99
750.605	28071.75
750.944	28012.77
751.283	27972.77
751.621	27978.87
751.96	27695.49
752.298	27802.15
752.636	27761.25
752.975	27596.28
753.313	27544.53
753.651	27721.7
753.989	27471.31
754.327	27370.98
754.666	27365.33
755.004	27478.99
755.342	27374.36
755.679	27400.35
756.017	27115.16
756.355	27184.54
756.693	27083.53
757.031	27137.31
757.368	27031.78
757.706	26967.14
758.044	26877.2
758.381	26896.41
758.719	26708.62
759.056	26769.41
759.394	26704.1
759.731	26558.34
760.068	26580.49
760.405	26469.76
760.743	26398.57
761.08	26392.02
761.417	26192.25
761.754	26219.14
762.091	26226.15
762.428	26030.67
762.765	25806.27
763.102	25977.57
763.438	25869.77
763.775	25658.7
764.112	25828.64
764.449	25677.69
764.785	25622.09
765.122	25406.73
765.458	25353.4
765.795	25452.38
766.131	25310.24
766.467	25165.38
766.804	25039.29
767.14	24950.25
767.476	25017.82
767.812	24877.48
768.148	24861.66
768.485	24587.55
768.821	24522.01
769.157	24520.65
769.492	24486.31
769.828	24459.87
770.164	24259.64
770.5	24208.8
770.836	24103.94
771.171	24050.84
771.507	23994.34
771.842	23783.5
772.178	23820.11
772.513	23736.72
772.849	23665.76
773.184	23547.35
773.519	23600.68
773.855	23447.69
774.19	23339.67
774.525	23291.08
774.86	23279.78
775.195	23255.15
775.53	23147.13
775.865	22979.45
776.2	22803.41
776.535	22717.09
776.87	22692.45
777.205	22523.65
777.539	22522.74
777.874	22531.1
778.209	22354.61
778.543	22319.13
778.878	22043.21
779.212	22134.73
779.547	21949.2
779.881	22033.94
780.215	21905.36
780.55	21951
780.884	21784.91
781.218	21705.14
781.552	21757.11
781.886	21489.32
782.22	21431.7
782.554	21334.3
782.888	21090.01
783.222	21136.11
783.556	21075.55
783.889	21025.83
784.223	20803.24
784.557	20767.08
784.89	20851.15
785.224	20676.69
785.557	20593.53
785.891	20537.71
786.224	20502.46
786.558	20447.77
786.891	20265.17
787.224	20199.19
787.557	20181.11
787.891	20114.89
788.224	20056.59
788.557	20124.39
788.89	19947.22
789.223	19916.93
789.556	19798.52
789.888	19784.28
790.221	19749.03
790.554	19480.79
790.887	19503.16
791.219	19483.05
791.552	19449.83
791.884	19389.26
792.217	19341.36
792.549	19249.38
792.882	19071.76
793.214	19091.42
793.546	19102.27
793.879	18937.3
794.211	18845.78
794.543	19004.87
794.875	18809.62
795.207	18887.58
795.539	18820.24
795.871	18732.56
796.203	18475.62
796.535	18535.73
796.867	18488.27
797.198	18375.51
797.53	18447.37
797.862	18153.82
798.193	18296.64
798.525	18199.69
798.856	18145
799.188	17911.11
799.519	17931.68
799.85	17794.28
800.182	17871.11
800.513	17844.67
800.844	17486.04
801.175	17724.68
801.506	17690.33
801.837	17611.23
802.168	17531.23
802.499	17402.42
802.83	17387.96
803.161	17374.4
803.491	17316.1
803.822	17299.83
804.153	17143
804.483	17050.79
804.814	17004.24
805.145	16923.57
805.475	17095.54
805.805	16809.67
806.136	16841.08
806.466	16856.68
806.796	16840.86
807.126	16791.59
807.457	16678.83
807.787	16591.6
808.117	16580.07
808.447	16506.4
808.777	16507.08
809.107	16486.97
809.436	16418.72
809.766	16456.23
810.096	16400.19
810.426	16297.14
810.755	16295.79
811.085	16255.56
811.414	16208.1
811.744	16102.34
812.073	16157.48
812.403	16115.23
812.732	16050.37
813.061	16023.48
813.39	15890.15
813.719	15924.04
814.049	15919.75
814.378	15777.61
814.707	15731.06
815.036	15708.91
815.365	15624.17
815.693	15534.45
816.022	15519.31
816.351	15409.48
816.68	15375.13
817.008	15374.91
817.337	15260.79
817.665	15305.08
817.994	15225.08
818.322	15354.34
818.651	15183.5
818.979	15107.12
819.307	15225.53
819.636	15161.13
819.964	15098.08
820.292	15114.12
820.62	15101.24
820.948	14997.06
821.276	15073.45
821.604	15046.1
821.932	15113.9
822.259	14966.33
822.587	14959.55
822.915	14916.39
823.243	15023.73
823.57	14913.68
823.898	14950.96
824.225	14939.66
824.553	14946.22
824.88	14858.54
825.207	14989.83
825.535	14841.36
825.862	14914.58
826.189	14934.47
826.516	14922.71
826.843	14975.37
827.17	14911.42
827.497	14986.22
827.824	14898.53
828.151	14961.81
828.478	14857.63
828.805	14935.82
829.131	14881.36
829.458	14923.17
829.785	14892.21
830.111	14883.85
830.438	14904.64
830.764	15000.23
831.09	14853.34
831.417	14868.03
831.743	14882.94
832.069	14761.14
832.395	14786.22
832.722	14866.67
833.048	14830.06
833.374	14836.62
833.7	14708.94
834.026	14694.25
834.351	14748.26
834.677	14777.41
835.003	14701.7
835.329	14733.57
835.654	14625.1
835.98	14584.42
836.306	14737.41
836.631	14524.53
836.956	14614.7
837.282	14658.09
837.607	14555.27
837.932	14526.34
838.258	14516.62
838.583	14491.54
838.908	14398.66
839.233	14504.19
839.558	14394.37
839.883	14378.1
840.208	14397.76
840.533	14300.58
840.858	14335.16
841.182	14295.16
841.507	14230.98
841.832	14179.01
842.156	14156.41
842.481	14152.79
842.805	14177.42
843.13	14051.1
843.454	14076.41
843.778	14075.51
844.103	13975.4
844.427	13894.72
844.751	13988.95
845.075	13839.58
845.399	13819.02
845.723	13840.71
846.047	13769.52
846.371	13628.96
846.695	13693.82
847.019	13545.35
847.343	13564.33
847.666	13534.5
847.99	13384.22
848.313	13389.65
848.637	13306.03
848.96	13334.73
849.284	13281.18
849.607	13132.93
849.931	13086.61
850.254	13106.27
850.577	12947.17
850.9	12899.49
851.223	12833.05
851.546	12773.17
851.869	12718.71
852.192	12803.22
852.515	12660.4
852.838	12679.16
853.161	12662.89
853.483	12637.8
853.806	12496.11
854.129	12549.44
854.451	12424.25
854.774	12418.6
855.096	12304.7
855.419	12351.71
855.741	12289.34
856.063	12170.92
856.385	12164.82
856.708	12167.53
857.03	12074.43
857.352	12031.49
857.674	12018.38
857.996	12008.44
858.318	11911.49
858.64	11910.36
858.961	11823.59
859.283	11890.03
859.605	11790.82
859.926	11798.05
860.248	11798.96
860.57	11772.52
860.891	11725.06
861.212	11634.67
861.534	11620.43
861.855	11619.52
862.176	11655.23
862.498	11615.91
862.819	11615.23
863.14	11561.45
863.461	11558.06
863.782	11485.29
864.103	11457.27
864.424	11448.91
864.745	11563.26
865.065	11356.71
865.386	11292.75
865.707	11375.24
866.027	11354
866.348	11264.73
866.668	11385.86
866.989	11316.71
867.309	11178.86
867.63	11276.94
867.95	11218.18
868.27	11139.54
868.59	11127.79
868.91	11144.51
869.23	11068.58
869.55	11112.19
869.87	11099.76
870.19	11074.91
870.51	11071.06
870.83	11064.96
871.15	11068.58
871.469	11004.85
871.789	11000.33
872.109	11033.78
872.428	10937.06
872.748	10986.1
873.067	10913.33
873.386	10921.46
873.706	10926.66
874.025	10823.16
874.344	10849.15
874.663	10890.28
874.982	10835.14
875.301	10796.72
875.62	10730.73
875.939	10760.11
876.258	10718.08
876.577	10646.44
876.896	10738.87
877.214	10653.9
877.533	10721.7
877.852	10709.49
878.17	10704.52
878.489	10610.29
878.807	10650.74
879.125	10606.9
879.444	10662.49
879.762	10565.99
880.08	10549.72
880.398	10495.03
880.716	10487.8
881.034	10448.93
881.352	10463.17
881.67	10451.65
881.988	10400.12
882.306	10392.21
882.624	10353.8
882.941	10302.72
883.259	10249.39
883.577	10215.27
883.894	10240.8
884.212	10168.49
884.529	10228.38
884.846	10192.44
885.164	10161.71
885.481	10153.35
885.798	10087.14
886.115	10064.09
886.432	10081.94
886.75	10042.17
887.067	10084.65
887.383	9934.6
887.7	9993.58
888.017	9901.83
888.334	9948.16
888.651	9895.05
888.967	9848.5
889.284	9868.38
889.6	9868.16
889.917	9821.61
890.233	9808.73
890.55	9714.94
890.866	9731.44
891.182	9691.21
891.498	9665.45
891.815	9631.55
892.131	9604.44
892.447	9536.19
892.763	9476.53
893.079	9479.24
893.395	9452.12
893.71	9447.83
894.026	9404.89
894.342	9425.46
894.657	9321.73
894.973	9337.55
895.289	9313.37
895.604	9334.16
895.92	9354.5
896.235	9247.16
896.55	9176.2
896.865	9126.03
897.181	9156.54
897.496	9119.03
897.811	9072.25
898.126	8990.22
898.441	8990.89
898.756	8975.3
899.071	8913.38
899.386	8975.3
899.7	8806.27
900.015	8777.34
900.33	8773.72
900.644	8789.77
900.959	8779.83
901.273	8753.39
901.588	8688.75
901.902	8673.84
902.216	8552.71
902.531	8581.86
902.845	8551.13
903.159	8433.62
903.473	8507.29
903.787	8422.77
904.101	8442.21
904.415	8445.82
904.729	8447.86
905.042	8343.9
905.356	8306.62
905.67	8287.64
905.984	8269.78
906.297	8236.11
906.611	8236.34
906.924	8168.54
907.237	8125.15
907.551	8129
907.864	8110.92
908.177	8037.47
908.491	7977.59
908.804	7998.83
909.117	7936.23
909.43	7927.87
909.743	7819.85
910.056	7855.56
910.368	7833.64
910.681	7829.12
910.994	7731.49
911.307	7703.92
911.619	7669.8
911.932	7680.19
912.244	7624.38
912.557	7584.38
912.869	7580.08
913.181	7563.81
913.494	7481.33
913.806	7479.29
914.118	7457.37
914.43	7354.78
914.742	7410.37
915.054	7348.22
915.366	7333.31
915.678	7269.13
915.99	7285.4
916.302	7255.12
916.613	7185.97
916.925	7152.75
917.236	7166.31
917.548	7126.54
917.859	7151.39
918.171	6996.6
918.482	7057.39
918.794	6996.82
919.105	6984.39
919.416	6918.86
919.727	6912.76
920.038	6863.72
920.349	6824.4
920.66	6831.18
920.971	6835.47
921.282	6793.21
921.593	6722.48
921.903	6675.93
922.214	6672.76
922.525	6623.95
922.835	6602.48
923.146	6563.61
923.456	6536.95
923.767	6487.46
924.077	6527.68
924.387	6476.61
924.697	6483.16
925.008	6431.86
925.318	6377.4
925.628	6364.3
925.938	6350.74
926.248	6294.02
926.558	6270.29
926.867	6241.81
927.177	6193.45
927.487	6195.94
927.796	6134.47
928.106	6131.99
928.416	6137.64
928.725	6134.25
929.034	6051.76
929.344	6103.06
929.653	5986.23
929.962	5971.31
930.271	5984.87
930.581	5922.95
930.89	5896.74
931.199	5883.18
931.508	5884.53
931.817	5876.63
932.125	5824.42
932.434	5807.93
932.743	5751.66
933.051	5727.25
933.36	5769.96
933.669	5676.86
933.977	5694.26
934.286	5647.7
934.594	5648.16
934.902	5577.88
935.21	5593.24
935.519	5560.48
935.827	5525.67
936.135	5489.97
936.443	5457.88
936.751	5475.28
937.059	5452.91
937.367	5384.43
937.674	5361.38
937.982	5382.17
938.29	5387.6
938.597	5354.83
938.905	5323.42
939.213	5252.23
939.52	5229.18
939.827	5270.99
940.135	5214.95
940.442	5177.66
940.749	5166.59
941.056	5155.51
941.363	5105.35
941.67	5114.84
941.977	5088.17
942.284	5036.87
942.591	5012.24
942.898	4987.83
943.205	4990.32
943.511	4994.16
943.818	4955.07
944.125	4915.07
944.431	4866.93
944.738	4869.42
945.044	4881.4
945.35	4830.1
945.657	4776.99
945.963	4792.13
946.269	4750.78
946.575	4798.24
946.881	4761.4
947.187	4714.62
947.493	4692.48
947.799	4645.25
948.105	4640.5
948.41	4633.04
948.716	4631.46
949.022	4603.66
949.327	4617.9
949.633	4520.73
949.938	4491.35
950.244	4482.31
950.549	4490.22
950.854	4474.4
951.16	4374.97
951.465	4426.04
951.77	4451.8
952.075	4436.44
952.38	4367.29
952.685	4382.65
952.99	4329.32
953.294	4336.78
953.599	4320.06
953.904	4253.62
954.209	4218.36
954.513	4205.71
954.818	4213.39
955.122	4236.67
955.426	4215.43
955.731	4160.74
956.035	4133.62
956.339	4126.16
956.643	4129.1
956.948	4080.51
957.252	4058.59
957.556	4072.6
957.86	4033.74
958.163	3988.31
958.467	4006.84
958.771	4009.56
959.075	3978.37
959.378	3959.39
959.682	3952.16
959.985	3943.34
960.289	3900.86
960.592	3921.2
960.896	3819.28
961.199	3866.73
961.502	3878.03
961.805	3827.64
962.108	3762.1
962.411	3827.19
962.714	3807.53
963.017	3781.99
963.32	3718.94
963.623	3698.83
963.926	3739.96
964.228	3691.37
964.531	3728.21
964.833	3664.03
965.136	3647.76
965.438	3654.99
965.741	3632.62
966.043	3596.46
966.345	3594.2
966.648	3588.1
966.95	3543.35
967.252	3525.73
967.554	3502.22
967.856	3528.89
968.158	3463.36
968.46	3485.95
968.761	3469.68
969.063	3464.26
969.365	3410.48
969.666	3406.18
969.968	3428.55
970.269	3361.21
970.571	3324.83
970.872	3342.45
971.174	3315.34
971.475	3311.27
971.776	3320.53
972.077	3282.8
972.378	3278.95
972.679	3271.72
972.98	3282.12
973.281	3241.89
973.582	3246.86
973.883	3220.65
974.183	3173.87
974.484	3202.35
974.785	3136.36
975.085	3158.5
975.386	3192.85
975.686	3117.83
975.986	3097.94
976.287	3109.01
976.587	3076.7
976.887	3074.44
977.187	3109.24
977.487	3045.74
977.787	3025.85
978.087	3003.93
978.387	3015.01
978.687	3027.89
978.987	2998.73
979.286	2931.17
979.586	2980.2
979.885	2913.99
980.185	2926.65
980.484	2917.15
980.784	2897.95
981.083	2865.4
981.382	2890.26
981.682	2882.35
981.981	2845.74
982.28	2841.22
982.579	2813.65
982.878	2848.23
983.177	2796.03
983.475	2794.22
983.774	2775.46
984.073	2754.22
984.372	2742.02
984.67	2776.14
984.969	2731.85
985.267	2707.67
985.566	2756.93
985.864	2704.51
986.162	2683.71
986.461	2642.59
986.759	2697.05
987.057	2607.78
987.355	2630.83
987.653	2622.7
987.951	2611.85
988.249	2598.75
988.547	2597.84
988.844	2574.79
989.142	2588.58
989.44	2554.9
989.737	2528.01
990.035	2532.08
990.332	2538.41
990.63	2527.33
990.927	2484.4
991.224	2474.45
991.521	2464.96
991.819	2504.51
992.116	2454.12
992.413	2459.99
992.71	2459.77
993.006	2411.41
993.303	2400.33
993.6	2414.12
993.897	2382.48
994.193	2384.97
994.49	2363.95
994.787	2333.22
995.083	2314.23
995.379	2293.44
995.676	2317.17
995.972	2302.93
996.268	2327.11
996.565	2250.05
996.861	2294.57
997.157	2254.8
997.453	2263.84
997.749	2223.61
998.044	2240.56
998.34	2209.6
998.636	2226.1
998.932	2194.01
999.227	2164.18
999.523	2160.79
999.818	2162.82
1000.114	2158.76
1000.409	2182.71
1000.704	2127.57
1001	2105.42
1001.295	2102.71
1001.59	2069.04
1001.885	2076.5
1002.18	2069.49
1002.475	2067.46
1002.77	2040.12
1003.065	2031.08
1003.359	2036.5
1003.654	2043.05
1003.949	2005.77
1004.243	2002.83
1004.538	1977.29
1004.832	1979.33
1005.127	1965.99
1005.421	1971.19
1005.715	1921.25
1006.009	1939.78
1006.304	1930.06
1006.598	1890.29
1006.892	1894.13
1007.186	1881.7
1007.48	1872.21
1007.773	1863.17
1008.067	1856.62
1008.361	1824.75
1008.655	1842.15
1008.948	1826.79
1009.242	1832.21
1009.535	1804.42
1009.829	1810.97
1010.122	1793.34
1010.415	1753.34
1010.708	1763.51
1011.001	1739.56
1011.295	1737.75
1011.588	1748.15
1011.881	1702.95
1012.173	1732.78
1012.466	1686.45
1012.759	1677.41
1013.052	1671.76
1013.344	1696.85
1013.637	1661.14
1013.93	1643.06
1014.222	1636.51
1014.514	1648.71
1014.807	1598.32
1015.099	1631.99
1015.391	1599.22
1015.683	1617.08
1015.976	1565.55
1016.268	1583.86
1016.56	1552.67
1016.851	1573.01
1017.143	1559.45
1017.435	1540.02
1017.727	1514.03
1018.018	1507.47
1018.31	1500.7
1018.602	1517.42
1018.893	1496.4
1019.185	1487.36
1019.476	1474.48
1019.767	1469.51
1020.058	1430.64
1020.35	1455.72
1020.641	1426.8
1020.932	1434.03
1021.223	1405.78
1021.514	1432
1021.804	1365.78
1022.095	1394.26
1022.386	1388.16
1022.677	1367.82
1022.967	1373.47
1023.258	1356.29
1023.548	1320.36
1023.839	1362.39
1024.129	1344.99
1024.419	1309.97
1024.709	1309.06
1025	1308.38
1025.29	1257.76
1025.58	1269.06
1025.87	1271.1
1026.16	1268.16
1026.449	1257.31
1026.739	1256.41
1027.029	1241.04
1027.319	1270.87
1027.608	1251.89
1027.898	1230.19
1028.187	1214.15
1028.477	1209.86
1028.766	1195.62
1029.055	1194.04
1029.344	1168.05
1029.634	1184.55
1029.923	1147.26
1030.212	1177.77
1030.501	1173.47
1030.79	1162.62
1031.078	1123.76
1031.367	1127.82
1031.656	1122.63
1031.945	1114.94
1032.233	1109.97
1032.522	1091.21
1032.81	1112
1033.099	1100.03
1033.387	1066.36
1033.675	1091.21
1033.963	1076.3
1034.251	1061.84
1034.54	1043.08
1034.828	1037.43
1035.116	1053.93
1035.403	1034.04
1035.691	1020.48
1035.979	1032.23
1036.267	1040.37
1036.554	995.62
1036.842	1008.73
1037.129	997.21
1037.417	979.8
1037.704	990.88
1037.992	987.49
1038.279	967.15
1038.566	962.63
1038.853	962.63
1039.14	962.63
