Data from hue_330_FLMS001491_14.txt Node
Date: Mon Feb 06 15:44:59 GMT 2017
User: dcchb
Spectrometer: FLMS00149
Trigger mode: 0
Integration Time (sec): 2.000000E-2
Scans to average: 10
Electric dark correction enabled: true
Nonlinearity correction enabled: false
Boxcar width: 0
XAxis mode: Wavelengths
Number of Pixels in Spectrum: 2048
>>>>>Begin Spectral Data<<<<<
341.393	-16.6
341.776	-16.6
342.16	-16.6
342.543	-53.43
342.927	-64.5
343.31	-71.74
343.693	-68.8
344.077	-69.25
344.46	-42.58
344.843	-43.49
345.226	-37.61
345.61	-21.12
345.993	-6.65
346.376	-5.07
346.759	1.48
347.142	26.34
347.525	38.09
347.908	39.9
348.291	71.76
348.674	81.71
349.057	107.02
349.44	137.52
349.823	145.89
350.206	170.07
350.588	185.21
350.971	222.04
351.354	215.04
351.737	228.14
352.119	254.81
352.502	247.35
352.884	268.14
353.267	270.63
353.65	286.45
354.032	300.23
354.414	288.93
354.797	302.27
355.179	300.01
355.562	304.98
355.944	328.25
356.326	327.58
356.709	326.9
357.091	337.75
357.473	329.61
357.855	344.98
358.238	322.15
358.62	324.64
359.002	353.56
359.384	328.71
359.766	312.89
360.148	339.78
360.53	353.56
360.912	331.87
361.294	324.64
361.676	323.06
362.057	325.99
362.439	313.57
362.821	315.6
363.203	344.75
363.584	324.64
363.966	326.45
364.348	309.72
364.729	296.84
365.111	306.56
365.493	317.63
365.874	316.05
366.256	309.5
366.637	321.02
367.019	288.26
367.4	318.99
367.781	316.5
368.163	309.05
368.544	313.34
368.925	321.25
369.306	313.57
369.688	312.44
370.069	307.01
370.45	314.02
370.831	297.07
371.212	310.18
371.593	300.68
371.974	301.59
372.355	312.21
372.736	301.14
373.117	298.42
373.498	284.19
373.879	333.68
374.26	307.01
374.641	300.23
375.021	313.34
375.402	304.3
375.783	306.79
376.163	321.7
376.544	317.63
376.925	311.98
377.305	302.04
377.686	337.07
378.066	341.14
378.447	306.56
378.827	297.75
379.208	340.23
379.588	319.44
379.968	325.54
380.349	296.84
380.729	340.91
381.109	326.67
381.489	356.95
381.87	348.82
382.25	335.71
382.63	339.33
383.01	334.58
383.39	319.89
383.77	330.74
384.15	348.59
384.53	338.65
384.91	316.95
385.29	334.13
385.67	342.27
386.049	355.6
386.429	359.44
386.809	342.49
387.189	323.96
387.568	334.81
387.948	333.68
388.328	352.21
388.707	365.99
389.087	341.36
389.466	376.16
389.846	339.78
390.225	365.77
390.605	364.64
390.984	353.34
391.363	350.4
391.743	359.21
392.122	378.2
392.501	342.94
392.881	360.34
393.26	367.58
393.639	364.19
394.018	381.81
394.397	364.86
394.776	365.99
395.155	362.6
395.534	381.36
395.913	373.45
396.292	381.13
396.671	381.13
397.05	373.68
397.429	361.47
397.808	371.42
398.186	379.1
398.565	376.39
398.944	389.27
399.323	406.22
399.701	395.37
400.08	379.55
400.458	390.85
400.837	386.56
401.215	402.38
401.594	382.94
401.972	381.81
402.351	396.5
402.729	428.36
403.107	405.77
403.486	407.8
403.864	391.53
404.242	416.39
404.62	398.08
404.999	409.61
405.377	408.25
405.755	432.66
406.133	425.43
406.511	413.9
406.889	420.68
407.267	408.25
407.645	433.79
408.023	430.62
408.401	433.11
408.779	440.57
409.156	447.12
409.534	456.61
409.912	480.57
410.29	447.12
410.667	459.1
411.045	478.76
411.422	465.88
411.8	488.48
412.178	471.98
412.555	508.14
412.933	493.67
413.31	501.13
413.687	499.77
414.065	517.18
414.442	512.43
414.819	504.07
415.197	531.19
415.574	530.06
415.951	521.02
416.328	535.03
416.705	535.93
417.082	562.6
417.46	554.69
417.837	578.87
418.214	595.82
418.591	558.08
418.967	571.41
419.344	577.06
419.721	583.16
420.098	605.08
420.475	625.87
420.852	632.88
421.228	623.39
421.605	628.36
421.982	635.14
422.358	655.7
422.735	625.87
423.111	634.69
423.488	645.76
423.864	657.51
424.241	671.3
424.617	689.37
424.994	693.22
425.37	672.43
425.746	716.04
426.123	690.96
426.499	696.61
426.875	720.11
427.251	696.15
427.627	751.29
428.003	747.23
428.379	701.58
428.756	726.21
429.132	742.03
429.507	783.84
429.883	757.17
430.259	790.84
430.635	778.41
431.011	789.26
431.387	808.47
431.763	819.31
432.138	819.31
432.514	812.08
432.89	822.7
433.265	831.97
433.641	876.04
434.016	866.77
434.392	864.51
434.767	885.98
435.143	888.92
435.518	870.16
435.894	890.73
436.269	891.63
436.644	900.22
437.02	933.89
437.395	912.65
437.77	927.33
438.145	924.4
438.52	970.72
438.895	971.18
439.271	941.35
439.646	955.36
440.021	989.93
440.395	1022.47
440.77	996.49
441.145	1014.79
441.52	1007.78
441.895	993.55
442.27	1031.06
442.645	1026.77
443.019	1038.97
443.394	1011.85
443.769	1039.2
444.143	1022.02
444.518	1039.87
444.892	1036.48
445.267	1054.56
445.641	1067.67
446.016	1064.28
446.39	1076.03
446.764	1063.15
447.139	1075.58
447.513	1069.93
447.887	1097.73
448.262	1062.7
448.636	1094.34
449.01	1089.14
449.384	1071.96
449.758	1114.22
450.132	1121.91
450.506	1099.53
450.88	1118.06
451.254	1137.27
451.628	1150.83
452.002	1119.19
452.376	1130.04
452.75	1153.77
453.123	1164.62
453.497	1172.3
453.871	1186.99
454.244	1188.34
454.618	1170.27
454.992	1171.85
455.365	1182.24
455.739	1214.56
456.112	1221.79
456.486	1238.06
456.859	1252.75
457.232	1269.92
457.606	1248
457.979	1273.99
458.352	1270.15
458.725	1279.87
459.099	1300.43
459.472	1344.5
459.845	1330.71
460.218	1329.36
460.591	1335.01
460.964	1329.81
461.337	1362.8
461.71	1380.43
462.083	1384.5
462.456	1394.44
462.829	1410.71
463.201	1411.16
463.574	1422.91
463.947	1445.74
464.32	1453.65
464.692	1448.68
465.065	1478.96
465.438	1496.58
465.81	1477.38
466.183	1485.51
466.555	1525.96
466.928	1552.18
467.3	1520.09
467.672	1549.46
468.045	1553.53
468.417	1572.29
468.789	1586.3
469.161	1601.67
469.534	1644.15
469.906	1655.68
470.278	1666.75
470.65	1653.64
471.022	1669.91
471.394	1760.31
471.766	1701.1
472.138	1745.62
472.51	1750.82
472.882	1769.35
473.253	1783.13
473.625	1831.27
473.997	1859.06
474.369	1823.36
474.74	1881.89
475.112	1889.34
475.484	1920.53
475.855	1941.54
476.227	1980.41
476.598	1987.42
476.97	2010.92
477.341	2056.12
477.713	2057.25
478.084	2076.46
478.455	2129.11
478.827	2127.75
479.198	2181.31
479.569	2178.83
479.94	2207.3
480.311	2216.11
480.682	2281.42
481.053	2325.26
481.424	2346.51
481.795	2336.56
482.166	2383.34
482.537	2439.61
482.908	2464.92
483.279	2487.97
483.65	2510.12
484.021	2580.62
484.391	2564.58
484.762	2624.46
485.133	2628.31
485.503	2622.88
485.874	2662.66
486.244	2722.99
486.615	2752.6
486.985	2739.26
487.356	2854.52
487.726	2833.72
488.097	2901.97
488.467	2848.19
488.837	2961.18
489.207	2964.34
489.578	2985.81
489.948	3050.67
490.318	3044.11
490.688	3075.53
491.058	3089.09
491.428	3145.81
491.798	3169.08
492.168	3198.91
492.538	3270.55
492.908	3239.59
493.278	3288.18
493.648	3276.2
494.017	3320.27
494.387	3363.65
494.757	3349.87
495.126	3392.58
495.496	3417.21
495.866	3409.3
496.235	3458.79
496.605	3487.27
496.974	3517.1
497.344	3517.55
497.713	3563.42
498.082	3552.8
498.452	3610.43
498.821	3595.51
499.19	3628.73
499.559	3640.03
499.928	3609.3
500.298	3673.93
500.667	3685.23
501.036	3687.49
501.405	3739.24
501.774	3701.27
502.143	3763.64
502.512	3759.8
502.88	3812.23
503.249	3774.27
503.618	3853.59
503.987	3814.72
504.356	3859.91
504.724	3859.69
505.093	3830.08
505.462	3911.21
505.83	3901.95
506.199	3973.58
506.567	3962.51
506.936	3959.12
507.304	3957.76
507.672	4011.32
508.041	3988.27
508.409	4025.56
508.777	4074.82
509.145	4061.26
509.514	4077.76
509.882	4094.03
510.25	4059.23
510.618	4122.5
510.986	4138.78
511.354	4186.23
511.722	4137.42
512.09	4163.63
512.458	4175.84
512.826	4236.4
513.193	4193.69
513.561	4157.76
513.929	4236.4
514.297	4275.72
514.664	4254.03
515.032	4304.65
515.4	4300.8
515.767	4309.84
516.135	4314.59
516.502	4282.73
516.869	4355.27
517.237	4335.83
517.604	4345.78
517.972	4372.44
518.339	4353.91
518.706	4363.63
519.073	4417.86
519.44	4390.29
519.808	4455.38
520.175	4453.12
520.542	4473.46
520.909	4457.19
521.276	4460.57
521.643	4551.65
522.009	4550.74
522.376	4544.19
522.743	4566.11
523.11	4609.05
523.477	4605.2
523.843	4635.49
524.21	4674.13
524.577	4701.7
524.943	4685.65
525.31	4741.92
525.676	4722.71
526.043	4763.62
526.409	4797.52
526.776	4815.82
527.142	4794.13
527.508	4870.06
527.874	4844.07
528.241	4883.39
528.607	4930.39
528.973	4910.96
529.339	4955.93
529.705	5030.28
530.071	5039.32
530.437	4993.22
530.803	5065.98
531.169	5104.4
531.535	5100.78
531.901	5088.81
532.267	5136.94
532.632	5130.84
532.998	5192.98
533.364	5217.39
533.73	5242.93
534.095	5218.97
534.461	5269.82
534.826	5274.34
535.192	5288.58
535.557	5353.66
535.923	5319.31
536.288	5325.18
536.653	5386.2
537.019	5382.81
537.384	5427.33
537.749	5430.27
538.114	5459.19
538.479	5499.64
538.845	5513.88
539.21	5497.61
539.575	5520.21
539.94	5528.12
540.305	5602.92
540.67	5548.46
541.034	5607.66
541.399	5675.68
541.764	5620.54
542.129	5701.22
542.494	5671.16
542.858	5731.05
543.223	5758.85
543.587	5818.28
543.952	5814.21
544.316	5837.04
544.681	5795.91
545.045	5896.02
545.41	5961.78
545.774	5942.57
546.138	5936.02
546.503	5982.12
546.867	5964.49
547.231	6010.14
547.595	6042.91
547.959	6061.44
548.324	6077.03
548.688	6081.32
549.052	6096.01
549.416	6163.35
549.779	6175.33
550.143	6193.18
550.507	6188.66
550.871	6217.36
551.235	6246.74
551.599	6266.63
551.962	6260.08
552.326	6351.37
552.689	6352.95
553.053	6300.3
553.417	6286.74
553.78	6392.73
554.143	6343.01
554.507	6420.52
554.87	6431.14
555.234	6484.25
555.597	6463.23
555.96	6442.9
556.323	6509.56
556.686	6522.22
557.05	6528.32
557.413	6537.58
557.776	6534.42
558.139	6612.16
558.502	6600.86
558.865	6608.09
559.228	6646.73
559.59	6666.17
559.953	6705.49
560.316	6756.11
560.679	6715.66
561.041	6786.62
561.404	6752.72
561.767	6837.69
562.129	6864.13
562.492	6922.2
562.854	6883.34
563.217	6850.57
563.579	6890.34
563.941	6917.69
564.304	6961.53
564.666	7034.52
565.028	6993.16
565.39	7041.52
565.753	7095.31
566.115	7086.49
566.477	7109.32
566.839	7155.42
567.201	7170.11
567.563	7151.58
567.925	7272.7
568.287	7231.8
568.648	7248.75
569.01	7274.06
569.372	7371.68
569.734	7332.59
570.095	7427.73
570.457	7427.5
570.819	7385.47
571.18	7502.98
571.542	7547.95
571.903	7558.12
572.265	7616.2
572.626	7572.58
572.987	7671.11
573.349	7642.64
573.71	7744.1
574.071	7800.6
574.432	7843.31
574.794	7926.47
575.155	7963.53
575.516	8022.97
575.877	8041.95
576.238	8097.54
576.599	8208.95
576.96	8211.21
577.32	8296.86
577.681	8434.71
578.042	8523.52
578.403	8593.8
578.763	8661.37
579.124	8719.45
579.485	8854.13
579.845	8912.66
580.206	9007.8
580.566	9109.94
580.927	9298.64
581.287	9364.4
581.648	9448.01
582.008	9585.86
582.368	9758.74
582.728	9923.93
583.089	10056.81
583.449	10160.31
583.809	10381.32
584.169	10544.03
584.529	10681.43
584.889	10916.45
585.249	11021.53
585.609	11251.36
585.969	11492.03
586.329	11599.14
586.688	11839.36
587.048	12056.31
587.408	12249.52
587.768	12474.6
588.127	12705.1
588.487	12876.85
588.846	13224.86
589.206	13499.21
589.565	13571.97
589.925	13989.36
590.284	14169.7
590.643	14512.06
591.003	14743.02
591.362	15088.09
591.721	15346.39
592.08	15590
592.44	15871.57
592.799	16144.56
593.158	16475.17
593.517	16809.85
593.876	17000.81
594.235	17323.29
594.593	17621.13
594.952	17977.51
595.311	18186.09
595.67	18528.45
596.029	18912.17
596.387	19211.6
596.746	19470.12
597.104	19809.55
597.463	20020.17
597.822	20422.64
598.18	20636.42
598.538	20854.49
598.897	21307.59
599.255	21357.53
599.613	22020.11
599.972	22147.12
600.33	22401.8
600.688	22608.57
601.046	23031.84
601.404	23383.69
601.762	23637.92
602.12	24004.02
602.478	24211.69
602.836	24546.6
603.194	24603.55
603.552	24851
603.91	25231.33
604.268	25591.54
604.625	25618.89
604.983	26064.98
605.341	26167.8
605.698	26581.12
606.056	26896.14
606.413	27084.84
606.771	27383.59
607.128	27614.32
607.485	27764.14
607.843	27918.04
608.2	28363.68
608.557	28646.83
608.914	28713.95
609.272	28972.47
609.629	29310.99
609.986	29654.26
610.343	29630.31
610.7	30129.05
611.057	30192.78
611.414	30398.88
611.771	30616.05
612.127	31077.5
612.484	31081.12
612.841	31303.26
613.198	31292.64
613.554	31568.79
613.911	31915.9
614.267	32132.84
614.624	32158.38
614.98	32319.5
615.337	32665.26
615.693	32761.75
616.05	32831.58
616.406	33125.81
616.762	33224.34
617.118	33339.59
617.475	33505.23
617.831	33761.5
618.187	33756.08
618.543	34101.6
618.899	34280.36
619.255	34305.67
619.611	34317.87
619.967	34699.78
620.323	34702.94
620.678	34810.06
621.034	34851.87
621.39	34903.84
621.746	35016.61
622.101	35462.92
622.457	35312.19
622.812	35473.32
623.168	35657.27
623.523	35714.67
623.879	35934.78
624.234	35755.35
624.589	35875.79
624.945	36086.64
625.3	36158.72
625.655	36256.8
626.01	36385.16
626.365	36333.18
626.72	36367.31
627.075	36466.74
627.43	36546.96
627.785	36553.97
628.14	36652.95
628.495	36819.27
628.85	36796.9
629.205	36699.28
629.559	36937.69
629.914	36903.79
630.269	36983.56
630.623	36908.99
630.978	36953.05
631.332	37194.63
631.687	37165.48
632.041	37133.84
632.396	37191.01
632.75	37112.6
633.104	37253.38
633.459	37091.81
633.813	37175.19
634.167	37198.92
634.521	37219.94
634.875	37223.56
635.229	37188.53
635.583	37174.06
635.937	37205.7
636.291	37237.11
636.645	37241.63
636.999	37252.48
637.352	37303.78
637.706	37147.62
638.06	37388.3
638.413	37207.74
638.767	37139.26
639.121	37373.83
639.474	37115.99
639.828	37186.27
640.181	37285.25
640.534	37245.93
640.888	37135.87
641.241	37093.84
641.594	37049.1
641.947	37268.75
642.301	37025.59
642.654	37190.34
643.007	37205.7
643.36	37260.62
643.713	37148.98
644.066	37194.18
644.419	37127.29
644.771	36746.28
645.124	36611.14
645.477	36497.02
645.83	36295.67
646.182	36159.63
646.535	36134.77
646.888	36279.63
647.24	35912.18
647.593	36311.26
647.945	36156.69
648.298	36014.1
648.65	36065.17
649.002	35798.51
649.355	36061.55
649.707	35951.05
650.059	36192.4
650.411	36585.83
650.763	36496.34
651.115	36925.48
651.467	36838.03
651.819	36859.72
652.171	36769.1
652.523	36720.74
652.875	36650.24
653.227	36599.84
653.578	36845.94
653.93	36700.41
654.282	36511.71
654.633	36556.45
654.985	36735.43
655.337	36614.31
655.688	36598.71
656.039	36813.17
656.391	36593.52
656.742	36439.39
657.094	36558.94
657.445	36710.12
657.796	36522.56
658.147	36536.79
658.498	36540.64
658.849	36557.13
659.2	36504.7
659.551	36395.33
659.902	36526.85
660.253	36476.46
660.604	36529.34
660.955	36337.7
661.306	36608.66
661.656	36469.9
662.007	36401.2
662.358	36516.68
662.708	36428.1
663.059	36376.8
663.409	36182.23
663.76	36597.81
664.11	36501.99
664.461	36536.12
664.811	36483.69
665.161	36331.15
665.511	36294.09
665.862	36334.76
666.212	36556.68
666.562	36569.11
666.912	36426.51
667.262	36415.44
667.612	36440.98
667.962	36408.66
668.312	36367.53
668.662	36486.85
669.011	36300.19
669.361	36310.58
669.711	36353.07
670.06	36343.13
670.41	36120.76
670.76	36215.9
671.109	36360.08
671.459	36218.38
671.808	36219.97
672.157	36326.63
672.507	36042.12
672.856	36131.83
673.205	36221.55
673.554	36159.18
673.904	36069.46
674.253	36297.93
674.602	36156.69
674.951	35558.06
675.3	35468.57
675.649	36165.5
675.998	36092.96
676.346	36025.39
676.695	36003.47
677.044	35863.36
677.393	36015.68
677.741	36073.08
678.09	35909.47
678.438	35889.35
678.787	35935
679.135	35817.26
679.484	35641.9
679.832	35866.98
680.181	35659.53
680.529	35717.38
680.877	35543.15
681.225	35589.02
681.573	35928
681.922	35508.57
682.27	35465.86
682.618	35429.7
682.966	35418.63
683.314	35510.61
683.661	35340.21
684.009	35143.84
684.357	35158.98
684.705	35013.22
685.053	35102.48
685.4	35062.93
685.748	34817.06
686.095	34865.65
686.443	34682.15
686.79	34762.83
687.138	34794.69
687.485	34798.76
687.832	34583.85
688.18	34667.92
688.527	34534.81
688.874	34537.3
689.221	34484.42
689.568	34389.28
689.915	34215.27
690.262	34236.97
690.609	34144.99
690.956	34191.54
691.303	34076.75
691.65	33934.38
691.997	33989.06
692.344	33625.01
692.69	33654.84
693.037	33651.22
693.383	33423.2
693.73	33585.01
694.077	33371.45
694.423	33408.74
694.769	33167.84
695.116	33260.04
695.462	33034.51
695.808	33003.55
696.155	33099.6
696.501	32848.75
696.847	32897.12
697.193	32704.58
697.539	32793.84
697.885	32517.24
698.231	32435.88
698.577	32387.07
698.923	32379.84
699.269	32291.03
699.614	32205.61
699.96	32003.35
700.306	32130.36
700.651	31903.92
700.997	31901.21
701.342	31826.63
701.688	31729.69
702.033	31538.96
702.379	31633.42
702.724	31476.81
703.069	31570.6
703.415	31301.45
703.76	31215.8
704.105	31211.28
704.45	31226.42
704.795	31094.68
705.14	30867.56
705.485	30950.27
705.83	30878.86
706.175	30688.36
706.52	30706.89
706.865	30664.18
707.209	30493.34
707.554	30305.09
707.899	30492.88
708.243	30329.73
708.588	30279.78
708.932	30130.63
709.277	30174.25
709.621	30143.06
709.966	29867.36
710.31	30087.92
710.654	29736.52
710.998	29738.1
711.342	29754.37
711.687	29670.99
712.031	29621.72
712.375	29589.63
712.719	29553.25
713.063	29517.32
713.407	29540.59
713.75	29424.89
714.094	29293.37
714.438	29236.19
714.782	29164.11
715.125	29170.66
715.469	29151.68
715.812	28976.77
716.156	28876.88
716.499	28805.7
716.843	28973.6
717.186	28855.41
717.53	28919.14
717.873	28778.81
718.216	28683.67
718.559	28547.4
718.902	28449.32
719.246	28501.3
719.589	28449.1
719.932	28252.94
720.275	28374.52
720.617	28349.89
720.96	28207.3
721.303	28306.95
721.646	28158.93
721.989	28080.74
722.331	28118.48
722.674	28026.51
723.016	27958.94
723.359	28044.14
723.701	28001.42
724.044	27795.55
724.386	27682.79
724.729	27802.79
725.071	27688.21
725.413	27623.13
725.755	27635.78
726.097	27604.37
726.439	27438.73
726.782	27518.5
727.124	27533.41
727.465	27306.53
727.807	27335.91
728.149	27313.76
728.491	27280.09
728.833	27255
729.175	27237.38
729.516	27143.59
729.858	27028.79
730.199	27171.62
730.541	27095.46
730.882	26965.29
731.224	27094.1
731.565	26881.68
731.906	26725.3
732.248	26866.31
732.589	26789.03
732.93	26572.76
733.271	26547.68
733.612	26773.21
733.953	26843.94
734.294	26541.8
734.635	26495.02
734.976	26461.8
735.317	26432.65
735.658	26420
735.999	26478.07
736.339	26313.79
736.68	26431.75
737.021	26290.74
737.361	26202.38
737.702	26269.27
738.042	26142.72
738.383	26177.07
738.723	26123.28
739.063	26082.83
739.404	26113.56
739.744	25996.96
740.084	25919.22
740.424	26103.4
740.764	25885.32
741.104	26084.19
741.444	25865.89
741.784	25742.5
742.124	25747.25
742.464	25735.95
742.804	25641.03
743.143	25586.12
743.483	25635.39
743.823	25571.66
744.162	25453.7
744.502	25617.53
744.841	25495.05
745.181	25456.63
745.52	25333.7
745.86	25452.34
746.199	25273.36
746.538	25199.01
746.877	25390.19
747.216	25309.29
747.556	25126.92
747.895	25156.98
748.234	25070.43
748.573	25095.74
748.911	24971.22
749.25	25030.2
749.589	24832.02
749.928	24987.49
750.267	24902.98
750.605	24858.68
750.944	24698.23
751.283	24715.41
751.621	24765.8
751.96	24664.79
752.298	24606.49
752.636	24553.15
752.975	24403.33
753.313	24457.79
753.651	24375.08
753.989	24340.05
754.327	24334.85
754.666	24215.54
755.004	24190.23
755.342	24307.96
755.679	24134.18
756.017	24020.96
756.355	23988.42
756.693	23923.79
757.031	23942.55
757.368	23844.7
757.706	23812.38
758.044	23744.36
758.381	23841.08
758.719	23575.33
759.056	23566.97
759.394	23525.16
759.731	23357.93
760.068	23411.49
760.405	23167.88
760.743	23261.21
761.08	23196.58
761.417	23103.47
761.754	23076.36
762.091	23015.79
762.428	22785.97
762.765	22803.14
763.102	22898.73
763.438	22762.92
763.775	22630.27
764.112	22676.59
764.449	22597.5
764.785	22549.36
765.122	22304.17
765.458	22272.54
765.795	22255.59
766.131	22239.09
766.467	22104.86
766.804	22058.53
767.14	21998.42
767.476	22061.24
767.812	21798.88
768.148	21808.59
768.485	21680.01
768.821	21636.62
769.157	21571.31
769.492	21559.11
769.828	21553.46
770.164	21381.71
770.5	21148.72
770.836	21293.35
771.171	21032.79
771.507	21077.99
771.842	20911.89
772.178	20974.26
772.513	20923.64
772.849	20821.95
773.184	20718
773.519	20797.55
773.855	20643.43
774.19	20548.97
774.525	20420.83
774.86	20452.92
775.195	20369.76
775.53	20254.74
775.865	20079.6
776.2	20019.26
776.535	19987.17
776.87	19870.34
777.205	19871.92
777.539	19838.25
777.874	19790.12
778.209	19570.69
778.543	19589.44
778.878	19583.34
779.212	19472.38
779.547	19346.06
779.881	19361.88
780.215	19229.23
780.55	19217.93
780.884	19077.82
781.218	19103.13
781.552	19093.64
781.886	18988.55
782.22	18898.16
782.554	18730.48
782.888	18612.07
783.222	18589.69
783.556	18476.48
783.889	18448.23
784.223	18264.73
784.557	18276.03
784.89	18264.05
785.224	18235.13
785.557	18161.46
785.891	18067
786.224	18001.46
786.558	18011.86
786.891	17794.91
787.224	17815.48
787.557	17766.21
787.891	17783.61
788.224	17689.15
788.557	17619.32
788.89	17612.09
789.223	17611.87
789.556	17406.68
789.888	17373.23
790.221	17332.33
790.554	17185.21
790.887	17127.59
791.219	17077.64
791.552	17029.51
791.884	16942.96
792.217	16859.34
792.549	16896.41
792.882	16764.88
793.214	16703.19
793.546	16670.2
793.879	16530.54
794.211	16428.4
794.543	16608.96
794.875	16487.38
795.207	16488.96
795.539	16409.64
795.871	16464.1
796.203	16295.29
796.535	16160.38
796.867	16143.43
797.198	16028.18
797.53	16040.38
797.862	15978.69
798.193	16049.87
798.525	15904.34
798.856	15862.76
799.188	15806.72
799.519	15657.34
799.85	15580.28
800.182	15664.12
800.513	15604.69
800.844	15533.28
801.175	15452.38
801.506	15459.83
801.837	15383.23
802.168	15430.68
802.499	15330.12
802.83	15297.58
803.161	15167.19
803.491	15193.4
803.822	15184.81
804.153	15143.23
804.483	14995.67
804.814	14912.73
805.145	14976.91
805.475	14876.35
805.805	14820.3
806.136	14886.97
806.466	14772.39
806.796	14726.52
807.126	14627.31
807.457	14649.23
807.787	14636.58
808.117	14582.12
808.447	14568.78
808.777	14538.05
809.107	14418.05
809.436	14409.47
809.766	14326.76
810.096	14270.94
810.426	14361.56
810.755	14270.03
811.085	14237.04
811.414	14217.83
811.744	14167.44
812.073	13960.21
812.403	14105.29
812.732	13963.38
813.061	14015.58
813.39	13984.17
813.719	13769.93
814.049	13971.74
814.378	13802.25
814.707	13823.49
815.036	13745.98
815.365	13679.99
815.693	13554.35
816.022	13581.92
816.351	13538.53
816.68	13553.67
817.008	13527.46
817.337	13458.3
817.665	13400.23
817.994	13476.38
818.322	13438.64
818.651	13395.71
818.979	13321.13
819.307	13347.12
819.636	13262.38
819.964	13230.51
820.292	13307.35
820.62	13246.56
820.948	13190.97
821.276	13222.15
821.604	13204.3
821.932	13237.75
822.259	13254.92
822.587	13174.02
822.915	13081.82
823.243	13229.38
823.57	13188.71
823.898	13125.66
824.225	13061.48
824.553	13059.22
824.88	13133.34
825.207	13154.36
825.535	13073.23
825.862	13215.82
826.189	13099.44
826.516	13178.99
826.843	13092.89
827.17	13180.35
827.497	13166.56
827.824	13139.44
828.151	13142.38
828.478	13066.45
828.805	13136.5
829.131	13067.35
829.458	13122.95
829.785	12995.27
830.111	13041.37
830.438	13174.47
830.764	13072.78
831.09	13101.48
831.417	13093.12
831.743	13056.06
832.069	13096.51
832.395	13000.01
832.722	13036.39
833.048	12950.3
833.374	12999.56
833.7	12920.69
834.026	12949.62
834.351	13034.59
834.677	12963.85
835.003	12909.39
835.329	12908.94
835.654	12924.53
835.98	12813.8
836.306	12872.78
836.631	12817.64
836.956	12913.23
837.282	12819.23
837.607	12743.97
837.932	12760.47
838.258	12751.66
838.583	12718.21
838.908	12645.44
839.233	12734.48
839.558	12641.38
839.883	12657.42
840.208	12529.52
840.533	12612.45
840.858	12519.35
841.182	12560.7
841.507	12546.69
841.832	12520.93
842.156	12468.73
842.481	12465.56
842.805	12447.48
843.13	12355.06
843.454	12333.59
843.778	12346.92
844.103	12386.92
844.427	12248.84
844.751	12259.47
845.075	12198.9
845.399	12184.21
845.723	12076.87
846.047	12062.63
846.371	12050.66
846.695	11997.78
847.019	11961.85
847.343	11845.24
847.666	11765.02
847.99	11813.6
848.313	11784.9
848.637	11682.08
848.96	11654.06
849.284	11659.48
849.607	11574.06
849.931	11516.21
850.254	11440.73
850.577	11330.68
850.9	11316.44
851.223	11292.49
851.546	11176.78
851.869	11184.01
852.192	11225.37
852.515	11189.66
852.838	11035.09
853.161	11062.44
853.483	11026.28
853.806	10937.92
854.129	10892.72
854.451	10892.04
854.774	10843.91
855.096	10851.59
855.419	10794.87
855.741	10709
856.063	10714.65
856.385	10646.17
856.708	10633.29
857.03	10601.2
857.352	10617.02
857.674	10591.04
857.996	10513.52
858.318	10509.91
858.64	10488.89
858.961	10441.66
859.283	10364.6
859.605	10398.5
859.926	10330.25
860.248	10419.29
860.57	10285.05
860.891	10290.25
861.212	10247.99
861.534	10259.07
861.855	10178.16
862.176	10226.98
862.498	10176.36
862.819	10170.26
863.14	10084.61
863.461	10152.85
863.782	10055.91
864.103	10128
864.424	10026.53
864.745	10131.84
865.065	10054.78
865.386	10003.71
865.707	10054.78
866.027	10015.46
866.348	9966.42
866.668	9962.13
866.989	9909.92
867.309	9858.62
867.63	9851.85
867.95	9844.39
868.27	9853.65
868.59	9817.27
868.91	9804.39
869.23	9854.33
869.55	9745.63
869.87	9802.81
870.19	9753.77
870.51	9756.03
870.83	9718.06
871.15	9734.79
871.469	9654.11
871.789	9724.39
872.109	9651.17
872.428	9646.88
872.748	9604.85
873.067	9597.84
873.386	9577.73
873.706	9486.66
874.025	9533.89
874.344	9450.27
874.663	9635.81
874.982	9502.93
875.301	9520.55
875.62	9427.68
875.939	9385.19
876.258	9509.03
876.577	9303.84
876.896	9424.96
877.214	9363.04
877.533	9405.76
877.852	9392.42
878.17	9332.54
878.489	9320.11
878.807	9329.83
879.125	9367.79
879.444	9271.07
879.762	9274.01
880.08	9243.05
880.398	9224.97
880.716	9267.68
881.034	9216.16
881.352	9217.74
881.67	9191.07
881.988	9219.77
882.306	9067.91
882.624	9114.92
882.941	9024.97
883.259	9024.97
883.577	8954.24
883.894	9051.41
884.212	8990.85
884.529	8991.53
884.846	8943.39
885.164	8980.23
885.481	8925.09
885.798	8965.32
886.115	8896.84
886.432	8874.92
886.75	8824.75
887.067	8845.32
887.383	8817.3
887.7	8820.91
888.017	8714.47
888.334	8709.73
888.651	8712.21
888.967	8663.63
889.284	8613.69
889.6	8585.21
889.917	8586.79
890.233	8607.58
890.55	8521.94
890.866	8522.39
891.182	8568.49
891.498	8477.64
891.815	8447.14
892.131	8421.6
892.447	8361.72
892.763	8375.95
893.079	8309.06
893.395	8363.52
893.71	8348.61
894.026	8321.49
894.342	8279.23
894.657	8241.27
894.973	8234.03
895.289	8232
895.604	8155.84
895.92	8175.73
896.235	8057.32
896.55	8126.24
896.865	8046.7
897.181	8028.39
897.496	8032.68
897.811	7988.17
898.126	7979.58
898.441	7960.82
898.756	7886.02
899.071	7900.71
899.386	7911.78
899.7	7795.63
900.015	7780.94
900.33	7692.35
900.644	7709.75
900.959	7714.73
901.273	7703.88
901.588	7648.74
901.902	7615.29
902.216	7597.67
902.531	7575.75
902.845	7576.2
903.159	7518.57
903.473	7410.55
903.787	7424.11
904.101	7427.95
904.415	7426.15
904.729	7345.47
905.042	7277.9
905.356	7327.17
905.67	7283.33
905.984	7309.77
906.297	7273.16
906.611	7184.34
906.924	7204.68
907.237	7173.27
907.551	7143.67
907.864	7083.33
908.177	7124.46
908.491	7079.04
908.804	6987.74
909.117	6966.5
909.43	6997.46
909.743	6908.42
910.056	6923.11
910.368	6865.48
910.681	6800.85
910.994	6766.5
911.307	6810.34
911.619	6726.05
911.932	6778.48
912.244	6662.32
912.557	6719.05
912.869	6672.95
913.181	6637.69
913.494	6605.38
913.806	6581.2
914.118	6542.55
914.43	6529.45
914.742	6494.42
915.054	6455.78
915.366	6416
915.678	6402.67
915.99	6382.33
916.302	6350.24
916.613	6295.55
916.925	6336.91
917.236	6303.46
917.548	6223.01
917.859	6238.61
918.171	6242
918.482	6184.82
918.794	6132.4
919.105	6130.59
919.416	6141.89
919.727	6099.85
920.038	6078.16
920.349	6028.9
920.66	5988.44
920.971	5984.15
921.282	5961.33
921.593	5934.66
921.903	5858.73
922.214	5931.95
922.525	5885.85
922.835	5786.64
923.146	5783.03
923.456	5800.43
923.767	5723.37
924.077	5760.88
924.387	5697.15
924.697	5688.11
925.008	5676.14
925.318	5699.41
925.628	5630.04
925.938	5592.75
926.248	5497.16
926.558	5536.48
926.867	5485.41
927.177	5484.95
927.487	5473.88
927.796	5415.35
928.106	5403.83
928.416	5389.14
928.725	5377.16
929.034	5331.29
929.344	5388.23
929.653	5323.83
929.962	5294.9
930.271	5254.45
930.581	5269.82
930.89	5244.06
931.199	5175.13
931.508	5189.82
931.817	5184.17
932.125	5134.68
932.434	5176.94
932.743	5093.78
933.051	5075.25
933.36	5067.34
933.669	5018.75
933.977	5033.44
934.286	5002.48
934.594	4968.36
934.902	4968.58
935.21	4942.82
935.519	4907.12
935.827	4905.31
936.135	4856.72
936.443	4821.02
936.751	4800.9
937.059	4809.72
937.367	4773.33
937.674	4791.87
937.982	4710.51
938.29	4656.05
938.597	4660.8
938.905	4705.99
939.213	4630.51
939.52	4630.29
939.827	4615.15
940.135	4588.03
940.442	4571.53
940.749	4593
941.056	4591.19
941.363	4526.11
941.67	4503.51
941.977	4484.3
942.284	4498.09
942.591	4441.37
942.898	4399.56
943.205	4411.76
943.511	4350.97
943.818	4351.43
944.125	4340.8
944.431	4335.61
944.738	4310.07
945.044	4311.88
945.35	4263.29
945.657	4266.46
945.963	4212.45
946.269	4187.14
946.575	4201.37
946.881	4219.9
947.187	4196.4
947.493	4175.16
947.799	4148.04
948.105	4130.19
948.41	4116.86
948.716	4072.79
949.022	4066.69
949.327	4028.5
949.633	3988.72
949.938	3999.34
950.244	4006.58
950.549	3964.77
950.854	3951.89
951.16	3947.37
951.465	3910.08
951.77	3894.04
952.075	3885.9
952.38	3877.99
952.685	3839.35
952.99	3868.5
953.294	3844.32
953.599	3809.74
953.904	3847.26
954.209	3759.35
954.513	3773.36
954.818	3762.29
955.122	3765.68
955.426	3726.13
955.731	3713.02
956.035	3672.35
956.339	3677.54
956.643	3662.63
956.948	3634.38
957.252	3617.89
957.556	3647.26
957.86	3574.04
958.163	3543.76
958.467	3554.61
958.771	3551.45
959.075	3534.27
959.378	3526.59
959.682	3491.11
959.985	3495.18
960.289	3469.87
960.592	3439.81
960.896	3436.65
961.199	3459.92
961.502	3400.94
961.805	3387.38
962.108	3395.74
962.411	3361.62
962.714	3354.16
963.017	3384.9
963.32	3379.02
963.623	3324.56
963.926	3315.97
964.228	3264
964.531	3281.85
964.833	3293.37
965.136	3266.26
965.438	3218.8
965.741	3208.86
966.043	3196.65
966.345	3191.91
966.648	3159.82
966.95	3149.87
967.252	3134.51
967.554	3140.38
967.856	3131.12
968.158	3111.68
968.46	3070.1
968.761	3057.45
969.063	3053.83
969.365	3055.87
969.666	3055.19
969.968	3007.05
970.269	2969.54
970.571	3002.53
970.872	2952.82
971.174	2984.91
971.475	2978.81
971.776	2919.15
972.077	2921.63
972.378	2895.19
972.679	2864.46
972.98	2893.61
973.281	2870.56
973.582	2912.59
973.883	2821.97
974.183	2854.06
974.484	2840.28
974.785	2819.49
975.085	2792.37
975.386	2786.27
975.686	2778.13
975.986	2780.62
976.287	2737.91
976.587	2717.8
976.887	2732.03
977.187	2757.12
977.487	2699.04
977.787	2705.37
978.087	2646.39
978.387	2711.92
978.687	2662.88
978.987	2685.93
979.286	2638.48
979.586	2652.03
979.885	2617.01
980.185	2588.53
980.484	2582.66
980.784	2567.74
981.083	2542.21
981.382	2534.3
981.682	2535.2
981.981	2550.57
982.28	2518.93
982.579	2525.48
982.878	2516.9
983.177	2512.15
983.475	2538.37
983.774	2479.16
984.073	2473.73
984.372	2448.65
984.67	2456.79
984.969	2445.71
985.267	2426.5
985.566	2420.85
985.864	2366.62
986.162	2401.65
986.461	2397.35
986.759	2374.75
987.057	2325.49
987.355	2363.68
987.653	2345.83
987.951	2352.83
988.249	2320.74
988.547	2306.51
988.844	2267.86
989.142	2292.95
989.44	2287.98
989.737	2271.48
990.035	2280.75
990.332	2250.01
990.63	2232.16
990.927	2225.15
991.224	2195.78
991.521	2197.81
991.819	2180.18
992.116	2192.16
992.413	2163.46
992.71	2158.49
993.006	2150.35
993.303	2158.04
993.6	2147.42
993.897	2141.09
994.193	2134.99
994.49	2119.39
994.787	2099.28
995.083	2083.46
995.379	2087.08
995.676	2083.24
995.972	2062.67
996.268	2047.76
996.565	2004.37
996.861	2019.74
997.157	2017.93
997.453	2000.3
997.749	1989
998.044	1975.89
998.34	1970.7
998.636	1987.19
998.932	1943.8
999.227	1924.37
999.523	1974.31
999.818	1916.23
1000.114	1883.92
1000.409	1924.14
1000.704	1912.62
1001	1878.27
1001.295	1893.41
1001.59	1853.86
1001.885	1863.58
1002.18	1842.34
1002.475	1848.89
1002.77	1838.5
1003.065	1818.38
1003.359	1815.45
1003.654	1807.31
1003.949	1801.89
1004.243	1787.88
1004.538	1777.93
1004.832	1769.57
1005.127	1769.8
1005.421	1767.99
1005.715	1776.8
1006.009	1709.01
1006.304	1740.42
1006.598	1711.27
1006.892	1709.69
1007.186	1695.22
1007.48	1653.42
1007.773	1659.52
1008.067	1655.45
1008.361	1654.77
1008.655	1635.11
1008.948	1640.54
1009.242	1632.63
1009.535	1594.44
1009.829	1603.47
1010.122	1599.86
1010.415	1576.13
1010.708	1572.29
1011.001	1589.92
1011.295	1578.39
1011.588	1536.13
1011.881	1531.16
1012.173	1542.46
1012.466	1539.52
1012.759	1530.71
1013.052	1530.26
1013.344	1512.4
1013.637	1503.59
1013.93	1500.88
1014.222	1491.84
1014.514	1477.83
1014.807	1455.68
1015.099	1424.04
1015.391	1468.34
1015.683	1447.09
1015.976	1420.88
1016.268	1415.46
1016.56	1413.42
1016.851	1373.2
1017.143	1406.87
1017.435	1385.63
1017.727	1355.35
1018.018	1398.73
1018.31	1390.15
1018.602	1370.49
1018.893	1350.15
1019.185	1325.97
1019.476	1306.53
1019.767	1337.72
1020.058	1346.31
1020.35	1306.99
1020.641	1311.28
1020.932	1255.46
1021.223	1252.75
1021.514	1269.47
1021.804	1255.46
1022.095	1257.27
1022.386	1252.3
1022.677	1253.2
1022.967	1210.49
1023.258	1208.68
1023.548	1225.63
1023.839	1184.28
1024.129	1196.48
1024.419	1176.82
1024.709	1198.97
1025	1202.81
1025.29	1166.2
1025.58	1198.97
1025.87	1169.81
1026.16	1144.05
1026.449	1148.8
1026.739	1141.11
1027.029	1128.23
1027.319	1121.23
1027.608	1142.02
1027.898	1097.95
1028.187	1073.32
1028.477	1084.62
1028.766	1076.03
1029.055	1072.42
1029.344	1089.36
1029.634	1051.85
1029.923	1059.76
1030.212	1061.57
1030.501	1057.95
1030.79	1071.96
1031.078	1018.41
1031.367	1017.73
1031.656	1006.65
1031.945	1026.77
1032.233	1017.28
1032.522	996.94
1032.81	990.16
1033.099	994
1033.387	990.61
1033.675	976.6
1033.963	964.4
1034.251	976.15
1034.54	977.5
1034.828	970.72
1035.116	948.8
1035.403	954
1035.691	925.75
1035.979	941.12
1036.267	909.71
1036.554	900.89
1036.842	909.93
1037.129	895.24
1037.417	906.32
1037.704	896.6
1037.992	888.24
1038.279	879.65
1038.566	904.28
1038.853	904.28
1039.14	904.28
