Data from hue_160_FLMS001491_00055.txt Node
Date: Tue Feb 07 16:51:22 GMT 2017
User: dcchb
Spectrometer: FLMS00149
Trigger mode: 0
Integration Time (sec): 2.000000E-2
Scans to average: 10
Electric dark correction enabled: true
Nonlinearity correction enabled: false
Boxcar width: 0
XAxis mode: Wavelengths
Number of Pixels in Spectrum: 2048
>>>>>Begin Spectral Data<<<<<
341.393	-17.87
341.776	-17.87
342.16	-17.87
342.543	-51.54
342.927	-62.61
343.31	-73.68
343.693	-69.39
344.077	-56.06
344.46	-59
344.843	-42.27
345.226	-42.5
345.61	-36.62
345.993	-18.09
346.376	-12.44
346.759	9.25
347.142	26.43
347.525	21
347.908	42.47
348.291	91.28
348.674	91.73
349.057	127.89
349.44	132.41
349.823	129.02
350.206	172.86
350.588	172.41
350.971	215.35
351.354	220.09
351.737	227.1
352.119	258.74
352.502	253.76
352.884	275.01
353.267	284.72
353.65	276.59
354.032	303.48
354.414	328.34
354.797	294.89
355.179	312.52
355.562	325.63
355.944	320.43
356.326	333.31
356.709	358.17
357.091	331.95
357.473	341.22
357.855	342.58
358.238	339.19
358.62	327.43
359.002	322.92
359.384	327.21
359.766	346.87
360.148	349.36
360.53	330.82
360.912	328.34
361.294	347.1
361.676	328.34
362.057	330.15
362.439	340.77
362.821	319.75
363.203	328.79
363.584	332.63
363.966	324.5
364.348	317.49
364.729	332.63
365.111	329.47
365.493	313.88
365.874	323.82
366.256	313.42
366.637	312.29
367.019	309.81
367.4	294.89
367.781	313.88
368.163	296.93
368.544	337.38
368.925	312.29
369.306	315.46
369.688	314.1
370.069	315.68
370.45	306.42
370.831	322.24
371.212	312.29
371.593	312.29
371.974	320.88
372.355	289.92
372.736	288.79
373.117	326.3
373.498	319.07
373.879	306.87
374.26	312.97
374.641	315.68
375.021	312.07
375.402	309.58
375.783	307.32
376.163	322.92
376.544	309.36
376.925	314.1
377.305	317.49
377.686	326.3
378.066	317.04
378.447	328.34
378.827	337.15
379.208	344.38
379.588	339.64
379.968	318.17
380.349	326.76
380.729	335.12
381.109	342.12
381.489	338.51
381.87	320.66
382.25	323.14
382.63	337.83
383.01	332.41
383.39	342.8
383.77	346.42
384.15	340.09
384.53	352.52
384.91	357.72
385.29	354.78
385.67	362.46
386.049	366.3
386.429	359.98
386.809	349.36
387.189	338.96
387.568	348.68
387.948	361.11
388.328	357.94
388.707	360.2
389.087	347.1
389.466	346.19
389.846	343.93
390.225	357.04
390.605	370.15
390.984	370.37
391.363	367.43
391.743	348.68
392.122	353.42
392.501	362.46
392.881	383.03
393.26	353.42
393.639	351.84
394.018	377.38
394.397	368.34
394.776	359.07
395.155	373.31
395.534	381.67
395.913	381.44
396.292	371.5
396.671	392.74
397.05	378.06
397.429	377.83
397.808	376.02
398.186	389.58
398.565	402.24
398.944	392.74
399.323	407.88
399.701	386.42
400.08	398.85
400.458	391.61
400.837	386.42
401.215	394.55
401.594	399.07
401.972	407.43
402.351	393.87
402.729	407.21
403.107	409.47
403.486	407.21
403.864	410.6
404.242	416.92
404.62	427.55
404.999	420.99
405.377	404.27
405.755	427.09
406.133	431.61
406.511	422.35
406.889	402.69
407.267	432.06
407.645	419.18
408.023	422.12
408.401	444.49
408.779	456.02
409.156	437.94
409.534	439.97
409.912	441.78
410.29	444.95
410.667	452.63
411.045	454.66
411.422	437.71
411.8	448.11
412.178	444.49
412.555	490.59
412.933	491.72
413.31	470.03
413.687	484.04
414.065	469.58
414.442	473.87
414.819	498.5
415.197	477.71
415.574	479.97
415.951	472.29
416.328	491.27
416.705	491.05
417.082	503.7
417.46	504.83
417.837	512.97
418.214	510.93
418.591	506.87
418.967	533.76
419.344	508.22
419.721	520.65
420.098	517.94
420.475	531.72
420.852	516.13
421.228	538.95
421.605	536.24
421.982	527.66
422.358	565.39
422.735	539.41
423.111	542.8
423.488	543.7
423.864	561.1
424.241	577.6
424.617	583.93
424.994	578.73
425.37	564.26
425.746	544.6
426.123	564.72
426.499	592.96
426.875	575.11
427.251	602.46
427.627	606.52
428.003	600.42
428.379	620.08
428.756	619.63
429.132	603.36
429.507	644.26
429.883	625.96
430.259	632.06
430.635	671.38
431.011	659.4
431.387	676.8
431.763	645.39
432.138	679.74
432.514	664.83
432.89	659.86
433.265	686.52
433.641	681.32
434.016	693.3
434.392	720.42
434.767	720.19
435.143	723.36
435.518	735.11
435.894	724.94
436.269	739.85
436.644	732.62
437.02	744.83
437.395	760.42
437.77	739.18
438.145	765.62
438.52	765.84
438.895	768.78
439.271	771.49
439.646	772.85
440.021	812.85
440.395	810.81
440.77	806.52
441.145	809.91
441.52	796.35
441.895	815.11
442.27	827.53
442.645	820.3
443.019	858.27
443.394	854.88
443.769	850.36
444.143	869.79
444.518	849.91
444.892	856.23
445.267	877.25
445.641	892.84
446.016	894.65
446.39	906.63
446.764	905.72
447.139	886.52
447.513	893.97
447.887	921.32
448.262	914.99
448.636	925.16
449.01	924.03
449.384	937.59
449.758	948.66
450.132	949.11
450.506	969.45
450.88	986.17
451.254	976.91
451.628	982.78
452.002	1002.67
452.376	976.91
452.75	973.07
453.123	995.21
453.497	1010.35
453.871	1041.31
454.244	1078.38
454.618	1059.39
454.992	1074.99
455.365	1071.6
455.739	1127.64
456.112	1084.03
456.486	1088.32
456.859	1122.67
457.232	1143.91
457.606	1141.2
457.979	1148.88
458.352	1189.33
458.725	1179.39
459.099	1200.41
459.472	1234.98
459.845	1246.28
460.218	1245.83
460.591	1255.09
460.964	1268.43
461.337	1275.21
461.71	1307.52
462.083	1345.94
462.456	1313.85
462.829	1338.48
463.201	1345.26
463.574	1395.66
463.947	1414.19
464.32	1433.17
464.692	1436.33
465.065	1450.34
465.438	1489.89
465.81	1511.81
466.183	1544.8
466.555	1550.91
466.928	1597.91
467.3	1580.96
467.672	1623.9
468.045	1686.27
468.417	1672.94
468.789	1720.84
469.161	1701.18
469.534	1721.97
469.906	1785.25
470.278	1801.75
470.65	1828.86
471.022	1893.04
471.394	1909.31
471.766	1929.43
472.138	1948.18
472.51	2014.17
472.882	2065.92
473.253	2104.34
473.625	2145.69
473.997	2204.67
474.369	2211.45
474.74	2270.21
475.112	2337.33
475.484	2370.55
475.855	2444.89
476.227	2514.95
476.598	2573.7
476.97	2604.44
477.341	2671.55
477.713	2767.6
478.084	2784.77
478.455	2866.13
478.827	2919.46
479.198	3027.48
479.569	3063.41
479.94	3218.21
480.311	3257.3
480.682	3344.53
481.053	3460.69
481.424	3524.19
481.795	3591.76
482.166	3702.04
482.537	3801.02
482.908	3903.39
483.279	3950.84
483.65	4109.26
484.021	4196.71
484.391	4318.06
484.762	4422.24
485.133	4523.71
485.503	4568.68
485.874	4699.07
486.244	4873.53
486.615	4974.54
486.985	5121.21
487.356	5209.34
487.726	5296.8
488.097	5463.35
488.467	5539.95
488.837	5740.85
489.207	5850.45
489.578	5955.76
489.948	6032.82
490.318	6235.75
490.688	6288.86
491.058	6433.94
491.428	6577.21
491.798	6701.73
492.168	6875.29
492.538	7002.97
492.908	7143.07
493.278	7266.91
493.648	7311.21
494.017	7533.57
494.387	7593.91
494.757	7750.74
495.126	7884.07
495.496	7874.58
495.866	8099.66
496.235	8191.41
496.605	8305.08
496.974	8386.43
497.344	8495.81
497.713	8668.23
498.082	8685.41
498.452	8841.56
498.821	8876.14
499.19	8993.87
499.559	9097.37
499.928	9180.54
500.298	9241.55
500.667	9389.12
501.036	9457.14
501.405	9605.83
501.774	9562.22
502.143	9647.64
502.512	9815.55
502.88	9934.41
503.249	9949.78
503.618	10073.85
503.987	10083.34
504.356	10132.6
504.724	10212.37
505.093	10328.98
505.462	10422.54
505.83	10512.03
506.199	10504.34
506.567	10594.06
506.936	10648.29
507.304	10779.14
507.672	10740.95
508.041	10841.06
508.409	11003.99
508.777	11086.93
509.145	11189.75
509.514	11067.27
509.882	11163.08
510.25	11257.32
510.618	11213.25
510.986	11281.27
511.354	11444.43
511.722	11473.81
512.09	11494.15
512.458	11455.28
512.826	11545.22
513.193	11644.2
513.561	11605.33
513.929	11708.6
514.297	11876.28
514.664	11876.51
515.032	11940.69
515.4	11919.22
515.767	11914.7
516.135	11961.93
516.502	11966.45
516.869	12088.48
517.237	12090.74
517.604	12020.46
517.972	12150.85
518.339	12245.77
518.706	12167.8
519.073	12122.83
519.44	12156.05
519.808	12326.22
520.175	12247.8
520.542	12374.35
520.909	12455.7
521.276	12348.59
521.643	12404.18
522.009	12545.87
522.376	12514.23
522.743	12595.36
523.11	12700.89
523.477	12643.27
523.843	12714
524.21	12767.56
524.577	12790.84
524.943	12807.11
525.31	12771.63
525.676	12878.97
526.043	12934.34
526.409	12845.3
526.776	12951.96
527.142	12938.4
527.508	12908.8
527.874	12912.41
528.241	12952.64
528.607	13016.14
528.973	12984.28
529.339	12986.76
529.705	13096.59
530.071	13088.68
530.437	13020.89
530.803	13019.3
531.169	13159.87
531.535	12990.6
531.901	12993.32
532.267	13023.6
532.632	13035.35
532.998	12976.82
533.364	12982.7
533.73	13054.56
534.095	13056.59
534.461	13022.92
534.826	13005.52
535.192	13036.03
535.557	12996.03
535.923	12975.69
536.288	12948.57
536.653	12861.34
537.019	12794.23
537.384	12788.58
537.749	12840.33
538.114	12719.2
538.479	12815.69
538.845	12749.03
539.21	12658.86
539.575	12747.22
539.94	12663.38
540.305	12675.58
540.67	12621.57
541.034	12619.54
541.399	12578.86
541.764	12559.88
542.129	12642.59
542.494	12447.57
542.858	12429.72
543.223	12419.77
543.587	12456.83
543.952	12351.75
544.316	12327.12
544.681	12296.16
545.045	12197.86
545.41	12311.98
545.774	12262.94
546.138	12189.5
546.503	12196.73
546.867	12095.04
547.231	12243.05
547.595	12148.59
547.959	12055.94
548.324	12016.39
548.688	12049.39
549.052	11986.11
549.416	11915.6
549.779	11894.59
550.143	11931.42
550.507	11904.53
550.871	11851.88
551.235	11789.96
551.599	11830.41
551.962	11764.87
552.326	11822.95
552.689	11795.16
553.053	11672.67
553.417	11640.13
553.78	11728.27
554.143	11582.73
554.507	11666.12
554.87	11570.98
555.234	11618.89
555.597	11535.73
555.96	11533.92
556.323	11462.51
556.686	11483.3
557.05	11471.1
557.413	11496.63
557.776	11471.55
558.139	11506.12
558.502	11487.37
558.865	11421.83
559.228	11403.08
559.59	11426.58
559.953	11364.43
560.316	11544.99
560.679	11437.43
561.041	11443.75
561.404	11475.16
561.767	11550.42
562.129	11367.37
562.492	11551.55
562.854	11506.58
563.217	11423.41
563.579	11492.34
563.941	11452.79
564.304	11552.68
564.666	11495.73
565.028	11454.6
565.39	11534.37
565.753	11528.72
566.115	11517.65
566.477	11565.56
566.839	11647.14
567.201	11601.04
567.563	11594.48
567.925	11626.35
568.287	11654.82
568.648	11605.56
569.01	11610.75
569.372	11673.58
569.734	11595.16
570.095	11700.92
570.457	11729.39
570.819	11728.94
571.18	11685.1
571.542	11803.07
571.903	11730.75
572.265	11711.77
572.626	11712.45
572.987	11767.36
573.349	11812.33
573.71	11780.47
574.071	11812.78
574.432	11816.17
574.794	11819.34
575.155	11895.49
575.516	11761.94
575.877	11824.76
576.238	11800.35
576.599	11834.48
576.96	11784.31
577.32	11837.19
577.681	11831.54
578.042	11901.37
578.403	11824.08
578.763	11806.68
579.124	11797.19
579.485	11890.29
579.845	11870.86
580.206	11800.35
580.566	11775.27
580.927	11793.12
581.287	11984.08
581.648	11849.39
582.008	11898.66
582.368	11925.77
582.728	11832.44
583.089	11838.77
583.449	11762.39
583.809	11794.03
584.169	11858.43
584.529	11772.11
584.889	11846.23
585.249	11727.81
585.609	11775.72
585.969	11779.56
586.329	11752.9
586.688	11728.04
587.048	11756.74
587.408	11727.81
587.768	11709.96
588.127	11726.23
588.487	11708.83
588.846	11657.53
589.206	11593.58
589.565	11659.34
589.925	11724.2
590.284	11677.87
590.643	11716.97
591.003	11682.16
591.362	11759.45
591.721	11677.87
592.08	11655.05
592.44	11634.26
592.799	11593.13
593.158	11597.87
593.517	11614.14
593.876	11612.56
594.235	11527.59
594.593	11580.02
594.952	11578.66
595.311	11521.26
595.67	11636.74
596.029	11633.35
596.387	11629.96
596.746	11610.98
597.104	11561.04
597.463	11531.66
597.822	11630.64
598.18	11486.46
598.538	11509.97
598.897	11588.83
599.255	11461.15
599.613	11726.46
599.972	11475.39
600.33	11630.41
600.688	11513.13
601.046	11582.28
601.404	11591.77
601.762	11592.9
602.12	11588.61
602.478	11608.04
602.836	11612.79
603.194	11522.39
603.552	11526.69
603.91	11510.64
604.268	11579.57
604.625	11552.22
604.983	11586.57
605.341	11588.61
605.698	11560.59
606.056	11516.07
606.413	11517.42
606.771	11556.07
607.128	11636.74
607.485	11551.77
607.843	11578.44
608.2	11601.71
608.557	11598.32
608.914	11581.83
609.272	11683.97
609.629	11664.99
609.986	11759.68
610.343	11640.36
610.7	11685.55
611.057	11744.08
611.414	11700.92
611.771	11680.13
612.127	11697.53
612.484	11700.24
612.841	11715.38
613.198	11611.43
613.554	11690.3
613.911	11723.07
614.267	11741.82
614.624	11692.33
614.98	11723.97
615.337	11809.39
615.693	11773.46
616.05	11774.37
616.406	11811.65
616.762	11808.71
617.118	11789.05
617.475	11803.29
617.831	11768.94
618.187	11888.71
618.543	11769.85
618.899	11818.21
619.255	11873.12
619.611	11813.91
619.967	11871.76
620.323	11920.8
620.678	11961.25
621.034	11861.14
621.39	11823.86
621.746	11855.49
622.101	12002.61
622.457	11867.92
622.812	11864.53
623.168	11871.09
623.523	11968.26
623.879	11980.46
624.234	11924.19
624.589	11940.01
624.945	11978.2
625.3	11955.15
625.655	11874.93
626.01	11915.38
626.365	11901.59
626.72	11762.39
627.075	11900.46
627.43	11947.92
627.785	11894.14
628.14	11836.28
628.495	11882.61
628.85	11829.96
629.205	11820.01
629.559	11841.93
629.914	11821.14
630.269	11835.38
630.623	11796.29
630.978	11802.16
631.332	11803.97
631.687	11740.02
632.041	11764.42
632.396	11802.84
632.75	11768.26
633.104	11788.38
633.459	11735.72
633.813	11722.16
634.167	11673.13
634.521	11702.28
634.875	11743.86
635.229	11639.23
635.583	11559.23
635.937	11668.83
636.291	11628.38
636.645	11650.75
636.999	11573.92
637.352	11556.29
637.706	11513.13
638.06	11555.39
638.413	11620.47
638.767	11490.31
639.121	11505.9
639.474	11383.87
639.828	11489.63
640.181	11457.09
640.534	11469.74
640.888	11446.92
641.241	11397.43
641.594	11436.07
641.947	11427.93
642.301	11423.41
642.654	11409.86
643.007	11428.39
643.36	11459.35
643.713	11352
644.066	11399.91
644.419	11405.56
644.771	11273.81
645.124	11246.02
645.477	11180.03
645.83	11116.98
646.182	11046.93
646.535	11073.82
646.888	11016.87
647.24	11004.67
647.593	11055.74
647.945	10983.65
648.298	11000.83
648.65	10907.95
649.002	10946.14
649.355	10887.16
649.707	11065.91
650.059	11058.9
650.411	11201.05
650.763	11161.27
651.115	11265.45
651.467	11240.37
651.819	11289.63
652.171	11227.71
652.523	11262.06
652.875	11255.96
653.227	11215.06
653.578	11317.2
653.93	11185
654.282	11256.64
654.633	11147.49
654.985	11138.45
655.337	11272.01
655.688	11259.58
656.039	11342.29
656.391	11190.65
656.742	11146.81
657.094	11263.19
657.445	11318.33
657.796	11273.14
658.147	11227.94
658.498	11217.77
658.849	11198.34
659.2	11241.27
659.551	11280.59
659.902	11275.85
660.253	11216.41
660.604	11288.05
660.955	11197.88
661.306	11280.59
661.656	11280.59
662.007	11232.23
662.358	11239.69
662.708	11295.06
663.059	11353.81
663.409	11210.09
663.76	11349.74
664.11	11290.54
664.461	11280.82
664.811	11282.4
665.161	11299.35
665.511	11204.89
665.862	11291.89
666.212	11286.24
666.562	11282.18
666.912	11218
667.262	11234.49
667.612	11315.17
667.962	11247.15
668.312	11298.45
668.662	11360.82
669.011	11274.27
669.361	11265
669.711	11239.46
670.06	11282.18
670.41	11316.75
670.76	11256.64
671.109	11300.25
671.459	11306.81
671.808	11259.8
672.157	11245.57
672.507	11182.97
672.856	11194.04
673.205	11225.91
673.554	11287.82
673.904	11221.39
674.253	11251.22
674.602	11249.18
674.951	11048.96
675.3	10977.32
675.649	11114.04
675.998	11109.07
676.346	11185.68
676.695	11131.44
677.044	11045.57
677.393	11117.66
677.741	11149.3
678.09	11088.28
678.438	11083.08
678.787	11120.6
679.135	11001.73
679.484	11009.87
679.832	11024.78
680.181	10984.56
680.529	10949.53
680.877	10987.95
681.225	10966.48
681.573	10953.14
681.922	10907.72
682.27	10867.72
682.618	10869.98
682.966	10881.51
683.314	10875.18
683.661	10810.1
684.009	10742.75
684.357	10711.79
684.705	10763.32
685.053	10724.45
685.4	10713.6
685.748	10649.42
686.095	10654.39
686.443	10587.5
686.79	10573.04
687.138	10566.49
687.485	10600.39
687.832	10503.21
688.18	10536.43
688.527	10453.72
688.874	10495.98
689.221	10462.99
689.568	10469.09
689.915	10380.05
690.262	10373.95
690.609	10284.46
690.956	10311.81
691.303	10299.15
691.65	10229.77
691.997	10232.26
692.344	10143.22
692.69	10130.11
693.037	10103.68
693.383	10009.67
693.73	10066.16
694.077	9967.63
694.423	9976.67
694.769	9928.54
695.116	9900.06
695.462	9898.71
695.808	9829.11
696.155	9805.15
696.501	9778.71
696.847	9814.64
697.193	9684.25
697.539	9779.39
697.885	9712.27
698.231	9674.53
698.577	9584.37
698.923	9630.69
699.269	9569.9
699.614	9480.87
699.96	9437.03
700.306	9439.96
700.651	9373.98
700.997	9367.65
701.342	9334.66
701.688	9346.63
702.033	9252.62
702.379	9211.72
702.724	9261.89
703.069	9258.73
703.415	9164.04
703.76	9105.74
704.105	9077.94
704.45	9079.52
704.795	8986.19
705.14	9004.72
705.485	8917.94
705.83	8904.38
706.175	8928.79
706.52	8936.93
706.865	8841.56
707.209	8872.52
707.554	8886.76
707.899	8789.59
708.243	8779.64
708.588	8707.33
708.932	8678.63
709.277	8687.44
709.621	8708.68
709.966	8677.27
710.31	8651.28
710.654	8586.65
710.998	8615.58
711.342	8532.87
711.687	8540.33
712.031	8424.62
712.375	8409.03
712.719	8428.24
713.063	8483.15
713.407	8479.31
713.75	8414.23
714.094	8345.53
714.438	8352.31
714.782	8403.15
715.125	8332.42
715.469	8372.65
715.812	8286.55
716.156	8324.29
716.499	8193.89
716.843	8317.06
717.186	8192.31
717.53	8301.24
717.873	8234.35
718.216	8238.87
718.559	8226.44
718.902	8183.73
719.246	8203.84
719.589	8184.86
719.932	8115.93
720.275	8175.59
720.617	8098.08
720.96	8136.95
721.303	8152.99
721.646	8089.04
721.989	8069.38
722.331	8105.76
722.674	8064.86
723.016	8103.73
723.359	8053.11
723.701	8172.43
724.044	8052.43
724.386	7995.03
724.729	8058.53
725.071	8060.11
725.413	8007.46
725.755	8029.15
726.097	7979.21
726.439	7968.14
726.782	7925.43
727.124	8007.01
727.465	7970.85
727.807	7965.65
728.149	7915.26
728.491	7909.16
728.833	7946.9
729.175	7993.45
729.516	7888.82
729.858	7897.86
730.199	7934.92
730.541	7969.95
730.882	7889.27
731.224	7928.82
731.565	7905.99
731.906	7907.8
732.248	7907.57
732.589	7929.72
732.93	7953.45
733.271	7851.98
733.612	7902.6
733.953	7911.64
734.294	7919.55
734.635	7875.71
734.976	7934.69
735.317	7870.06
735.658	7908.03
735.999	7891.98
736.339	7919.55
736.68	7946.9
737.021	7915.71
737.361	7915.03
737.702	7925.88
738.042	7971.53
738.383	7898.54
738.723	7933.11
739.063	7908.25
739.404	7986.67
739.744	7984.86
740.084	7907.8
740.424	7962.71
740.764	7955.93
741.104	8030.06
741.444	7988.7
741.784	7967.91
742.124	8031.19
742.464	8037.29
742.804	8044.75
743.143	8081.81
743.483	8080.45
743.823	8063.73
744.162	8052.2
744.502	8174.01
744.841	8129.04
745.181	8207
745.52	8230.5
745.86	8228.24
746.199	8274.12
746.538	8369.48
746.877	8399.77
747.216	8447.45
747.556	8425.53
747.895	8537.16
748.234	8590.49
748.573	8614.67
748.911	8599.76
749.25	8733.09
749.589	8778.74
749.928	8750.72
750.267	8907.32
750.605	8977.38
750.944	8982.12
751.283	9089.01
751.621	9195.45
751.96	9199.29
752.298	9336.92
752.636	9410.13
752.975	9465.5
753.313	9572.39
753.651	9691.26
753.989	9764.47
754.327	9863
754.666	9915.43
755.004	10087.4
755.342	10304.35
755.679	10305.48
756.017	10461.41
756.355	10561.29
756.693	10679.71
757.031	10845.8
757.368	10896.42
757.706	11055.74
758.044	11232.01
758.381	11370.99
758.719	11471.77
759.056	11675.39
759.394	11843.52
759.731	11896.85
760.068	12055.26
760.405	12212.09
760.743	12300.23
761.08	12530.28
761.417	12707.67
761.754	12816.37
762.091	12995.35
762.428	13136.59
762.765	13231.5
763.102	13423.81
763.438	13587.65
763.775	13720.53
764.112	13920.07
764.449	14110.12
764.785	14200.06
765.122	14263.57
765.458	14421.53
765.795	14618.81
766.131	14761.41
766.467	14847.96
766.804	14927.28
767.14	15054.73
767.476	15269.87
767.812	15329.07
768.148	15564.1
768.485	15519.58
768.821	15654.94
769.157	15839.57
769.492	15981.94
769.828	16100.81
770.164	16055.83
770.5	16244.98
770.836	16415.37
771.171	16340.8
771.507	16503.96
771.842	16495.37
772.178	16739.43
772.513	16736.27
772.849	16954.12
773.184	16854.91
773.519	17048.35
773.855	17016.71
774.19	17141.46
774.525	17111.4
774.86	17298.29
775.195	17350.49
775.53	17285.86
775.865	17362.92
776.2	17284.05
776.535	17308.68
776.87	17455.35
777.205	17444.27
777.539	17387.33
777.874	17618.96
778.209	17437.27
778.543	17580.31
778.878	17560.65
779.212	17616.7
779.547	17620.77
779.881	17798.84
780.215	17627.54
780.55	17708.67
780.884	17770.14
781.218	17765.17
781.552	17800.2
781.886	17875.9
782.22	17646.53
782.554	17705.06
782.888	17656.92
783.222	17596.81
783.556	17724.72
783.889	17616.47
784.223	17605.17
784.557	17616.47
784.89	17643.36
785.224	17518.62
785.557	17509.81
785.891	17613.99
786.224	17542.12
786.558	17634.32
786.891	17451.96
787.224	17439.53
787.557	17488.34
787.891	17493.09
788.224	17484.5
788.557	17533.31
788.89	17376.93
789.223	17371.28
789.556	17277.5
789.888	17329.93
790.221	17274.33
790.554	17221.23
790.887	17181.68
791.219	17128.8
791.552	17143.26
791.884	17028.01
792.217	17081.8
792.549	16998.18
792.882	16987.56
793.214	16972.65
793.546	17017.84
793.879	16827.79
794.211	16731.52
794.543	16942.82
794.875	16778.3
795.207	16818.07
795.539	16885.64
795.871	16783.5
796.203	16677.51
796.535	16476.61
796.867	16640.45
797.198	16549.16
797.53	16567.91
797.862	16422.38
798.193	16521.13
798.525	16413.57
798.856	16432.77
799.188	16296.51
799.519	16135.61
799.85	16164.98
800.182	16259.22
800.513	16236.17
800.844	16122.27
801.175	16223.51
801.506	16267.81
801.837	16146.45
802.168	16049.96
802.499	15954.14
802.83	15857.87
803.161	15830.76
803.491	15863.07
803.822	15881.6
804.153	15800.47
804.483	15707.6
804.814	15671.89
805.145	15674.83
805.475	15698.1
805.805	15627.37
806.136	15613.13
806.466	15662.85
806.796	15647.94
807.126	15467.38
807.457	15470.54
807.787	15406.81
808.117	15358.45
808.447	15308.96
808.777	15373.59
809.107	15233.71
809.436	15204.56
809.766	15194.61
810.096	15111.68
810.426	15077.56
810.755	15221.51
811.085	15107.16
811.414	15082.98
811.744	14944.68
812.073	14922.98
812.403	14936.99
812.732	14847.96
813.061	14919.59
813.39	14878.46
813.719	14722.31
814.049	14862.19
814.378	14818.35
814.707	14782.65
815.036	14768.64
815.365	14572.26
815.693	14623.1
816.022	14606.83
816.351	14552.37
816.68	14542.88
817.008	14540.17
817.337	14384.69
817.665	14414.07
817.994	14481.19
818.322	14374.75
818.651	14388.76
818.979	14252.49
819.307	14352.83
819.636	14325.94
819.964	14273.51
820.292	14325.26
820.62	14247.07
820.948	14250.46
821.276	14296.56
821.604	14238.71
821.932	14254.75
822.259	14212.04
822.587	14259.27
822.915	14305.15
823.243	14231.48
823.57	14222.89
823.898	14215.88
824.225	14232.61
824.553	14121.65
824.88	14186.28
825.207	14236.67
825.535	14233.74
825.862	14259.95
826.189	14060.18
826.516	14275.09
826.843	14257.69
827.17	14238.03
827.497	14279.38
827.824	14268.76
828.151	14229.22
828.478	14194.64
828.805	14283.23
829.131	14220.4
829.458	14139.28
829.785	14195.54
830.111	14192.83
830.438	14284.81
830.764	14244.36
831.09	14264.24
831.417	14185.15
831.743	14268.99
832.069	14242.55
832.395	14144.7
832.722	14225.15
833.048	14103.57
833.374	14209.56
833.7	14045.94
834.026	14135.21
834.351	14088.88
834.677	14114.64
835.003	14158.48
835.329	14073.06
835.654	14059.05
835.98	14022.67
836.306	14061.76
836.631	13941.54
836.956	14097.69
837.282	14075.1
837.607	13943.12
837.932	13972.5
838.258	13947.64
838.583	13930.69
838.908	13846.18
839.233	13897.93
839.558	13842.56
839.883	13750.13
840.208	13678.04
840.533	13724.14
840.858	13767.08
841.182	13755.56
841.507	13687.31
841.832	13668.78
842.156	13575.9
842.481	13637.59
842.805	13609.57
843.13	13587.65
843.454	13601.89
843.778	13378.62
844.103	13374.1
844.427	13446.64
844.751	13476.47
845.075	13403.02
845.399	13374.1
845.723	13267.21
846.047	13306.08
846.371	13147.21
846.695	13158.51
847.019	13097.27
847.343	13041.68
847.666	12979.08
847.99	12850.04
848.313	12888.46
848.637	12828.35
848.96	12750.16
849.284	12855.92
849.607	12644.17
849.931	12665.42
850.254	12578.19
850.577	12541.13
850.9	12483.27
851.223	12426.1
851.546	12340.68
851.869	12284.18
852.192	12332.77
852.515	12196.95
852.838	12118.99
853.161	12176.16
853.483	12082.38
853.806	12049.61
854.129	12000.57
854.451	11933.91
854.774	11953.12
855.096	11860.92
855.419	11829.28
855.741	11803.29
856.063	11745.67
856.385	11772.33
856.708	11720.58
857.03	11694.37
857.352	11699.34
857.674	11596.52
857.996	11573.92
858.318	11528.5
858.64	11480.59
858.961	11560.13
859.283	11456.63
859.605	11430.65
859.926	11520.36
860.248	11384.77
860.57	11406.92
860.891	11270.42
861.212	11313.81
861.534	11267.26
861.855	11165.57
862.176	11262.97
862.498	11169.18
862.819	11141.61
863.14	11127.38
863.461	11089.41
863.782	11036.53
864.103	11074.72
864.424	11023.65
864.745	11012.35
865.065	10988.85
865.386	10962.41
865.707	10970.77
866.027	10922.41
866.348	10923.09
866.668	10908.85
866.989	10843.09
867.309	10852.13
867.63	10843.77
867.95	10861.62
868.27	10763.54
868.59	10816.42
868.91	10789.31
869.23	10772.36
869.55	10740.95
869.87	10778.46
870.19	10668.63
870.51	10714.51
870.83	10775.97
871.15	10665.69
871.469	10684.22
871.789	10697.78
872.109	10596.32
872.428	10618.24
872.748	10651.01
873.067	10669.08
873.386	10572.36
873.706	10599.93
874.025	10506.15
874.344	10462.54
874.663	10546.6
874.982	10414.18
875.301	10457.56
875.62	10405.81
875.939	10431.8
876.258	10380.05
876.577	10378.02
876.896	10394.74
877.214	10314.52
877.533	10370.56
877.852	10366.04
878.17	10320.84
878.489	10292.14
878.807	10245.14
879.125	10251.69
879.444	10298.92
879.762	10219.15
880.08	10208.98
880.398	10217.34
880.716	10181.41
881.034	10139.15
881.352	10125.82
881.67	10136.22
881.988	10091.25
882.306	10026.84
882.624	9975.54
882.941	9929.22
883.259	9947.97
883.577	9924.02
883.894	10016.45
884.212	9883.12
884.529	9921.76
884.846	9919.05
885.164	9856.9
885.481	9763.12
885.798	9855.32
886.115	9743.91
886.432	9757.02
886.75	9740.52
887.067	9706.62
887.383	9701.2
887.7	9655.1
888.017	9556.57
888.334	9687.19
888.651	9598.38
888.967	9597.47
889.284	9555.89
889.6	9548.89
889.917	9366.75
890.233	9430.02
890.55	9408.1
890.866	9415.78
891.182	9406.52
891.498	9359.29
891.815	9356.8
892.131	9275.67
892.447	9272.51
892.763	9289.23
893.079	9227.77
893.395	9202.68
893.71	9160.87
894.026	9195.45
894.342	9123.14
894.657	9083.14
894.973	9060.09
895.289	9023.48
895.604	9039.97
895.92	9028.22
896.235	8947.77
896.55	8867.32
896.865	8858.74
897.181	8854.67
897.496	8812.18
897.811	8816.25
898.126	8713.43
898.441	8713.43
898.756	8743.03
899.071	8663.94
899.386	8587.33
899.7	8588.91
900.015	8573.32
900.33	8506.2
900.644	8489.25
900.959	8518.41
901.273	8470.72
901.588	8448.13
901.902	8370.16
902.216	8376.04
902.531	8387.79
902.845	8271.18
903.159	8246.77
903.473	8205.87
903.787	8217.17
904.101	8157.96
904.415	8110.96
904.729	8112.77
905.042	8051.98
905.356	7996.39
905.67	8035.48
905.984	8005.43
906.297	7980.34
906.611	7872.32
906.924	7867.58
907.237	7885.2
907.551	7851.76
907.864	7761.82
908.177	7831.42
908.491	7795.49
908.804	7652.67
909.117	7589.16
909.43	7554.36
909.743	7546
910.056	7599.33
910.368	7505.55
910.681	7487.02
910.994	7489.73
911.307	7434.37
911.619	7400.92
911.932	7407.47
912.244	7336.06
912.557	7316.86
912.869	7245.9
913.181	7251.09
913.494	7261.26
913.806	7180.81
914.118	7139.46
914.43	7118.22
914.742	7122.96
915.054	7082.29
915.366	7091.1
915.678	7007.49
915.99	6995.06
916.302	6975.4
916.613	6946.24
916.925	6906.24
917.236	6842.29
917.548	6856.53
917.859	6869.18
918.171	6825.8
918.482	6776.98
918.794	6740.15
919.105	6729.98
919.416	6672.35
919.727	6708.28
920.038	6660.15
920.349	6628.06
920.66	6595.97
920.971	6584.67
921.282	6545.58
921.593	6570.21
921.903	6432.59
922.214	6449.99
922.525	6423.55
922.835	6446.82
923.146	6338.35
923.456	6384.68
923.767	6327.28
924.077	6341.74
924.387	6249.99
924.697	6208.18
925.008	6230.1
925.318	6200.05
925.628	6183.1
925.938	6169.32
926.248	6064.69
926.558	6065.14
926.867	6083.67
927.177	5988.08
927.487	6018.13
927.796	5970.45
928.106	5979.26
928.416	5951.92
928.725	5889.77
929.034	5873.96
929.344	5936.78
929.653	5789.44
929.962	5792.83
930.271	5764.81
930.581	5762.32
930.89	5729.33
931.199	5710.57
931.508	5693.62
931.817	5723.68
932.125	5649.78
932.434	5648.88
932.743	5597.8
933.051	5609.56
933.36	5609.33
933.669	5514.19
933.977	5501.99
934.286	5519.84
934.594	5515.1
934.902	5449.11
935.21	5445.04
935.519	5402.1
935.827	5343.12
936.135	5341.99
936.443	5321.43
936.751	5261.54
937.059	5296.8
937.367	5289.79
937.674	5266.97
937.982	5240.53
938.29	5205.27
938.597	5247.08
938.905	5142.22
939.213	5123.47
939.52	5127.31
939.827	5110.81
940.135	5080.76
940.442	5039.4
940.749	5055.22
941.056	5031.27
941.363	5000.98
941.67	4977.48
941.977	4957.37
942.284	4898.84
942.591	4936.58
942.898	4878.05
943.205	4879.63
943.511	4814.1
943.818	4854.55
944.125	4818.84
944.431	4762.35
944.738	4778.39
945.044	4755.12
945.35	4728.9
945.657	4665.85
945.963	4656.59
946.269	4627.66
946.575	4657.72
946.881	4588.57
947.187	4593.54
947.493	4565.29
947.799	4546.98
948.105	4526.87
948.41	4504.73
948.716	4474.22
949.022	4473.54
949.327	4466.54
949.633	4417.27
949.938	4473.77
950.244	4440.1
950.549	4398.06
950.854	4388.35
951.16	4355.35
951.465	4311.96
951.77	4330.27
952.075	4294.56
952.38	4282.81
952.685	4306.77
952.99	4238.07
953.294	4220.89
953.599	4215.69
953.904	4198.52
954.209	4148.8
954.513	4180.67
954.818	4108.58
955.122	4110.61
955.426	4100.22
955.731	4099.31
956.035	4124.85
956.339	4057.28
956.643	4091.4
956.948	4015.02
957.252	3989.26
957.556	4041.01
957.86	3954.01
958.163	3980.22
958.467	3923.72
958.771	3921.92
959.075	3912.88
959.378	3867
959.682	3872.43
959.985	3853.44
960.289	3832.88
960.592	3849.6
960.896	3799.89
961.199	3823.84
961.502	3789.72
961.805	3732.09
962.108	3742.71
962.411	3683.73
962.714	3744.29
963.017	3699.78
963.32	3685.54
963.623	3653.22
963.926	3685.09
964.228	3589.72
964.531	3626.11
964.833	3645.09
965.136	3549.95
965.438	3584.52
965.741	3565.09
966.043	3545.88
966.345	3525.99
966.648	3499.33
966.95	3502.04
967.252	3473.57
967.554	3442.83
967.856	3446.22
968.158	3392.67
968.46	3404.64
968.761	3416.62
969.063	3378.2
969.365	3412.33
969.666	3355.38
969.968	3326.45
970.269	3329.84
970.571	3281.03
970.872	3253.69
971.174	3290.75
971.475	3309.05
971.776	3245.1
972.077	3250.97
972.378	3251.88
972.679	3206.68
972.98	3193.35
973.281	3201.03
973.582	3166.91
973.883	3127.59
974.183	3138.89
974.484	3133.69
974.785	3121.71
975.085	3093.01
975.386	3082.62
975.686	3074.26
975.986	3067.02
976.287	3041.94
976.587	2997.65
976.887	3027.48
977.187	3034.71
977.487	2975.73
977.787	2970.53
978.087	2990.19
978.387	2936.86
978.687	2937.76
978.987	2907.25
979.286	2858.22
979.586	2872
979.885	2895.95
980.185	2857.31
980.484	2867.03
980.784	2918.1
981.083	2851.66
981.382	2837.43
981.682	2812.34
981.981	2806.24
982.28	2802.62
982.579	2770.31
982.878	2785
983.177	2754.94
983.475	2750.42
983.774	2700.93
984.073	2708.39
984.372	2673.81
984.67	2689.86
984.969	2692.34
985.267	2673.14
985.566	2641.95
985.864	2636.3
986.162	2618.45
986.461	2587.94
986.759	2601.5
987.057	2568.51
987.355	2595.17
987.653	2593.59
987.951	2517.21
988.249	2523.31
988.547	2571.9
988.844	2517.89
989.142	2510.2
989.44	2492.12
989.737	2472.01
990.035	2489.86
990.332	2489.41
990.63	2456.42
990.927	2488.28
991.224	2458.45
991.521	2442.63
991.819	2417.32
992.116	2390.88
992.413	2368.74
992.71	2362.41
993.006	2381.17
993.303	2355.63
993.6	2331.9
993.897	2345.23
994.193	2324.67
994.49	2340.04
994.787	2327.16
995.083	2292.81
995.379	2253.26
995.676	2260.27
995.972	2227.05
996.268	2218.91
996.565	2227.27
996.861	2206.93
997.157	2209.42
997.453	2174.62
997.749	2170.1
998.044	2209.87
998.34	2181.62
998.636	2166.93
998.932	2188.63
999.227	2107.28
999.523	2135.3
999.818	2136.88
1000.114	2118.57
1000.409	2086.94
1000.704	2087.39
1001	2074.51
1001.295	2072.7
1001.59	2059.82
1001.885	2065.02
1002.18	2009.42
1002.475	1997.45
1002.77	2021.63
1003.065	2000.84
1003.359	1983.89
1003.654	1999.03
1003.949	1956.77
1004.243	1958.13
1004.538	1940.73
1004.832	1966.26
1005.127	1916.77
1005.421	1908.18
1005.715	1906.6
1006.009	1881.52
1006.304	1847.85
1006.598	1818.24
1006.892	1866.15
1007.186	1858.24
1007.48	1820.28
1007.773	1774.18
1008.067	1811.92
1008.361	1809.66
1008.655	1792.03
1008.948	1786.61
1009.242	1777.57
1009.535	1774.4
1009.829	1734.63
1010.122	1740.96
1010.415	1709.55
1010.708	1734.63
1011.001	1714.74
1011.295	1687.17
1011.588	1683.33
1011.881	1666.83
1012.173	1660.51
1012.466	1675.42
1012.759	1677
1013.052	1656.67
1013.344	1617.57
1013.637	1631.13
1013.93	1644.91
1014.222	1591.13
1014.514	1599.27
1014.807	1583.45
1015.099	1583.45
1015.391	1568.76
1015.683	1585.93
1015.976	1577.35
1016.268	1525.82
1016.56	1519.04
1016.851	1542.77
1017.143	1537.12
1017.435	1499.61
1017.727	1518.36
1018.018	1504.35
1018.31	1486.95
1018.602	1465.71
1018.893	1481.75
1019.185	1464.58
1019.476	1442.43
1019.767	1452.15
1020.058	1413.96
1020.35	1402.89
1020.641	1415.77
1020.932	1367.86
1021.223	1367.18
1021.514	1378.48
1021.804	1375.09
1022.095	1352.49
1022.386	1352.49
1022.677	1326.05
1022.967	1339.16
1023.258	1344.36
1023.548	1300.29
1023.839	1295.77
1024.129	1331.02
1024.419	1273.4
1024.709	1286.73
1025	1284.25
1025.29	1234.76
1025.58	1236.79
1025.87	1237.24
1026.16	1254.42
1026.449	1277.24
1026.739	1217.35
1027.029	1243.12
1027.319	1219.84
1027.608	1209.45
1027.898	1187.98
1028.187	1190.01
1028.477	1184.81
1028.766	1184.81
1029.055	1140.97
1029.344	1152.27
1029.634	1166.96
1029.923	1141.65
1030.212	1147.53
1030.501	1140.07
1030.79	1115.21
1031.078	1147.98
1031.367	1117.02
1031.656	1102.56
1031.945	1086.28
1032.233	1091.93
1032.522	1092.16
1032.81	1096.68
1033.099	1047.64
1033.387	1057.59
1033.675	1077.47
1033.963	1049.68
1034.251	1021.88
1034.54	1040.41
1034.828	1032.5
1035.116	1001.99
1035.403	1025.72
1035.691	1000.19
1035.979	985.95
1036.267	987.76
1036.554	980.98
1036.842	980.98
1037.129	1005.38
1037.417	950.47
1037.704	959.96
1037.992	944.14
1038.279	938.94
1038.566	934.42
1038.853	934.42
1039.14	934.42
