Data from hue_36_FLMS001491_00024.txt Node
Date: Tue Feb 07 17:29:35 GMT 2017
User: dcchb
Spectrometer: FLMS00149
Trigger mode: 0
Integration Time (sec): 2.000000E-2
Scans to average: 10
Electric dark correction enabled: true
Nonlinearity correction enabled: false
Boxcar width: 0
XAxis mode: Wavelengths
Number of Pixels in Spectrum: 2048
>>>>>Begin Spectral Data<<<<<
341.393	-0.55
341.776	-0.55
342.16	-0.55
342.543	-74
342.927	-71.51
343.31	-42.13
343.693	-60.89
344.077	-67.44
344.46	-43.94
344.843	-59.53
345.226	-51.17
345.61	-60.44
345.993	-28.8
346.376	-25.63
346.759	-8.23
347.142	42.16
347.525	66.11
347.908	61.59
348.291	71.31
348.674	102.05
349.057	104.98
349.44	116.96
349.823	146.56
350.206	167.35
350.588	163.96
350.971	215.04
351.354	205.77
351.737	222.49
352.119	254.13
352.502	263.17
352.884	297.07
353.267	284.87
353.65	284.41
354.032	301.36
354.414	316.95
354.797	311.31
355.179	310.4
355.562	311.98
355.944	343.17
356.326	350.63
356.709	332.55
357.091	332.1
357.473	344.98
357.855	339.55
358.238	344.75
358.62	350.85
359.002	347.69
359.384	327.12
359.766	341.36
360.148	318.08
360.53	361.02
360.912	331.42
361.294	336.39
361.676	336.84
362.057	330.51
362.439	314.92
362.821	330.06
363.203	329.38
363.584	316.95
363.966	304.75
364.348	324.86
364.729	331.42
365.111	315.83
365.493	330.74
365.874	331.19
366.256	326.22
366.637	305.66
367.019	312.89
367.4	311.98
367.781	302.49
368.163	312.44
368.544	308.59
368.925	291.64
369.306	329.16
369.688	315.83
370.069	298.2
370.45	306.56
370.831	337.52
371.212	308.82
371.593	298.2
371.974	303.62
372.355	336.39
372.736	322.83
373.117	340.01
373.498	328.03
373.879	293.45
374.26	319.44
374.641	308.37
375.021	316.73
375.402	319.44
375.783	330.74
376.163	327.8
376.544	353.56
376.925	342.04
377.305	335.94
377.686	330.06
378.066	312.44
378.447	337.07
378.827	325.54
379.208	329.16
379.588	354.24
379.968	311.76
380.349	335.03
380.729	332.32
381.109	311.31
381.489	325.32
381.87	336.62
382.25	347.24
382.63	330.74
383.01	330.29
383.39	327.58
383.77	341.81
384.15	349.27
384.53	333.45
384.91	318.99
385.29	344.07
385.67	354.92
386.049	348.14
386.429	342.94
386.809	351.53
387.189	342.27
387.568	346.33
387.948	343.62
388.328	327.12
388.707	341.36
389.087	365.09
389.466	368.03
389.846	336.62
390.225	359.21
390.605	365.99
390.984	363.96
391.363	354.02
391.743	370.51
392.122	389.95
392.501	357.63
392.881	349.04
393.26	369.16
393.639	354.24
394.018	375.94
394.397	395.37
394.776	380.46
395.155	365.99
395.534	357.18
395.913	381.36
396.292	373.22
396.671	353.79
397.05	379.33
397.429	390.85
397.808	386.33
398.186	381.81
398.565	380.68
398.944	396.73
399.323	372.77
399.701	384.52
400.08	396.5
400.458	381.81
400.837	402.83
401.215	391.3
401.594	401.92
401.972	404.86
402.351	382.72
402.729	394.24
403.107	387.91
403.486	401.92
403.864	389.95
404.242	403.28
404.62	393.79
404.999	397.18
405.377	413
405.755	392.43
406.133	431.75
406.511	407.12
406.889	418.87
407.267	416.39
407.645	434.01
408.023	413.9
408.401	420.23
408.779	404.64
409.156	436.05
409.534	432.43
409.912	442.38
410.29	422.94
410.667	440.79
411.045	454.35
411.422	449.15
411.8	449.61
412.178	460.45
412.555	432.66
412.933	450.28
413.31	437.63
413.687	460
414.065	449.38
414.442	458.65
414.819	448.93
415.197	471.3
415.574	466.1
415.951	474.92
416.328	480.57
416.705	474.46
417.082	479.21
417.46	471.98
417.837	468.36
418.214	486.22
418.591	478.31
418.967	482.15
419.344	537.74
419.721	497.74
420.098	504.75
420.475	495.71
420.852	509.72
421.228	511.98
421.605	533.67
421.982	509.72
422.358	534.35
422.735	502.94
423.111	507.46
423.488	513.33
423.864	498.42
424.241	554.46
424.617	558.08
424.994	549.04
425.37	533.67
425.746	545.2
426.123	551.3
426.499	557.17
426.875	551.98
427.251	532.32
427.627	565.08
428.003	553.33
428.379	572.32
428.756	548.81
429.132	587.91
429.507	583.16
429.883	570.96
430.259	596.27
430.635	568.02
431.011	613.9
431.387	594.46
431.763	594.69
432.138	625.2
432.514	642.82
432.89	603.5
433.265	617.96
433.641	612.99
434.016	624.52
434.392	656.83
434.767	650.96
435.143	650.96
435.518	645.08
435.894	650.73
436.269	654.12
436.644	664.29
437.02	679.43
437.395	691.86
437.77	697.06
438.145	682.14
438.52	691.86
438.895	700.45
439.271	711.97
439.646	702.93
440.021	700.67
440.395	696.61
440.77	695.25
441.145	722.14
441.52	728.24
441.895	728.7
442.27	721.24
442.645	754.46
443.019	763.95
443.394	732.99
443.769	745.87
444.143	735.25
444.518	733.67
444.892	750.16
445.267	744.29
445.641	758.3
446.016	788.13
446.39	781.58
446.764	791.97
447.139	777.73
447.513	790.16
447.887	794.46
448.262	794.91
448.636	802.37
449.01	807.34
449.384	832.42
449.758	812.76
450.132	817.28
450.506	819.99
450.88	832.2
451.254	832.2
451.628	846.66
452.002	842.59
452.376	859.54
452.75	862.25
453.123	829.71
453.497	841.69
453.871	887.11
454.244	902.25
454.618	889.82
454.992	917.84
455.365	890.5
455.739	937.05
456.112	926.43
456.486	942.02
456.859	940.22
457.232	945.86
457.606	967.79
457.979	987.22
458.352	997.16
458.725	996.49
459.099	990.38
459.472	1030.61
459.845	999.87
460.218	1017.5
460.591	1053.88
460.964	1055.24
461.337	1065.18
461.71	1092.75
462.083	1097.95
462.456	1071.06
462.829	1092.75
463.201	1092.08
463.574	1125.52
463.947	1150.61
464.32	1171.17
464.692	1177.05
465.065	1182.47
465.438	1185.63
465.81	1232.19
466.183	1244.39
466.555	1269.47
466.928	1232.41
467.3	1266.53
467.672	1295.01
468.045	1355.8
468.417	1334.33
468.789	1319.19
469.161	1358.06
469.534	1403.71
469.906	1379.07
470.278	1428.56
470.65	1444.61
471.022	1508.79
471.394	1532.29
471.766	1542.46
472.138	1544.49
472.51	1595.57
472.882	1611.38
473.253	1635.11
473.625	1668.78
473.997	1696.35
474.369	1724.38
474.74	1786.52
475.112	1829.46
475.484	1812.51
475.855	1885.5
476.227	1894.31
476.598	1960.75
476.97	2005.27
477.341	2049.79
477.713	2075.33
478.084	2152.16
478.455	2195.32
478.827	2243.46
479.198	2314.64
479.569	2295.89
479.94	2419.27
480.311	2427.18
480.682	2540.63
481.053	2582.88
481.424	2674.18
481.795	2728.64
482.166	2777.91
482.537	2845.93
482.908	2944.91
483.279	2980.61
483.65	3076.2
484.021	3187.84
484.391	3219.25
484.762	3271
485.133	3325.69
485.503	3431.45
485.874	3568.17
486.244	3668.28
486.615	3717.09
486.985	3795.73
487.356	3909.4
487.726	3961.83
488.097	4124.76
488.467	4114.82
488.837	4276.4
489.207	4354.36
489.578	4445.89
489.948	4561.82
490.318	4660.12
490.688	4710.51
491.058	4787.12
491.428	4905.08
491.798	5017.17
492.168	5170.39
492.538	5174.68
492.908	5313.89
493.278	5398.86
493.648	5473.66
494.017	5611.05
494.387	5717.04
494.757	5765.85
495.126	5898.5
495.496	5941.89
495.866	6049.46
496.235	6084.94
496.605	6287.65
496.974	6323.58
497.344	6398.15
497.713	6522.22
498.082	6559.73
498.452	6655.09
498.821	6747.29
499.19	6845.37
499.559	6855.54
499.928	7006.72
500.298	7064.8
500.667	7191.12
501.036	7194.29
501.405	7274.29
501.774	7338.92
502.143	7424.34
502.512	7491.91
502.88	7600.15
503.249	7622.53
503.618	7780.94
503.987	7796.76
504.356	7884.44
504.724	7958.34
505.093	7973.02
505.462	8069.07
505.83	8130.53
506.199	8220.25
506.567	8310.64
506.936	8314.03
507.304	8460.92
507.672	8544.76
508.041	8615.04
508.409	8630.63
508.777	8791.99
509.145	8803.96
509.514	8818.2
509.882	8944.07
510.25	8864.53
510.618	9016.61
510.986	9062.49
511.354	9141.36
511.722	9304.52
512.09	9341.35
512.458	9342.03
512.826	9446.43
513.193	9576.37
513.561	9493.44
513.929	9634.68
514.297	9717.39
514.664	9719.42
515.032	9817.72
515.4	9916.48
515.767	9917.15
516.135	10022.01
516.502	9953.09
516.869	10157.6
517.237	10207.32
517.604	10182.46
517.972	10265.85
518.339	10348.78
518.706	10369.57
519.073	10435.56
519.44	10461.55
519.808	10607.76
520.175	10591.04
520.542	10649.79
520.909	10739.28
521.276	10746.51
521.643	10896.56
522.009	10975.88
522.376	11044.81
522.743	11078.71
523.11	11176.78
523.477	11355.08
523.843	11251.58
524.21	11442.99
524.577	11416.32
524.943	11454.74
525.31	11604.79
525.676	11669.65
526.043	11648.86
526.409	11798.23
526.776	11986.7
527.142	12014.5
527.508	11994.61
527.874	12178.79
528.241	12242.07
528.607	12157.77
528.973	12393.93
529.339	12365
529.705	12445.9
530.071	12610.19
530.437	12614.48
530.803	12636.63
531.169	12774.71
531.535	12716.85
531.901	12816.29
532.267	12889.73
532.632	12998.88
532.998	13011.54
533.364	13094.92
533.73	13120.91
534.095	13228.93
534.461	13265.32
534.826	13297.63
535.192	13373.79
535.557	13492.88
535.923	13454.24
536.288	13568.36
536.653	13633.21
537.019	13605.65
537.384	13648.58
537.749	13737.39
538.114	13783.04
538.479	13766.09
538.845	13903.04
539.21	13810.39
539.575	13975.58
539.94	14023.49
540.305	14130.15
540.67	14087.89
541.034	14213.99
541.399	14270.49
541.764	14270.94
542.129	14276.36
542.494	14368.56
542.858	14473.42
543.223	14428.45
543.587	14667.99
543.952	14586.64
544.316	14668.44
544.681	14705.05
545.045	14707.99
545.41	14804.94
545.774	14818.49
546.138	14925.16
546.503	14886.06
546.867	14994.31
547.231	15148.88
547.595	15157.92
547.959	15165.6
548.324	15194.08
548.688	15273.62
549.052	15292.61
549.416	15408.31
549.779	15441.08
550.143	15427.97
550.507	15549.55
550.871	15520.17
551.235	15570.11
551.599	15741.86
551.962	15724.69
552.326	15737.11
552.689	15927.39
553.053	15835.42
553.417	15782.76
553.78	16088.29
554.143	15996.77
554.507	16089.42
554.87	16209.42
555.234	16290.77
555.597	16201.51
555.96	16322.41
556.323	16446.7
556.686	16367.61
557.05	16506.36
557.413	16559.24
557.776	16575.28
558.139	16704.09
558.502	16737.09
558.865	16834.03
559.228	16897.08
559.59	16857.76
559.953	17003.3
560.316	17233.8
560.679	17134.82
561.041	17219.56
561.404	17270.18
561.767	17414.36
562.129	17359.22
562.492	17587.69
562.854	17511.98
563.217	17540.68
563.579	17591.98
563.941	17697.29
564.304	17786.78
564.666	17885.98
565.028	17805.76
565.39	17936.38
565.753	18071.29
566.115	18064.96
566.477	18183.83
566.839	18229.48
567.201	18411.39
567.563	18353.54
567.925	18424.73
568.287	18488.23
568.648	18509.02
569.01	18680.99
569.372	18842.8
569.734	18758.28
570.095	18822.68
570.457	18968.89
570.819	19046.86
571.18	19044.82
571.542	19149.23
571.903	19286.85
572.265	19317.36
572.626	19345.83
572.987	19381.76
573.349	19532.72
573.71	19596.9
574.071	19771.13
574.432	19869.21
574.794	19971.13
575.155	20097.9
575.516	19963.67
575.877	20108.98
576.238	20316.43
576.599	20387.39
576.96	20428.06
577.32	20473.94
577.681	20596.42
578.042	20811.56
578.403	20992.12
578.763	21021.72
579.124	21188.95
579.485	21440.92
579.845	21557.98
580.206	21530.41
580.566	21633
580.927	21799.33
581.287	22002.03
581.648	22174.69
582.008	22409.71
582.368	22463.49
582.728	22676.14
583.089	22775.12
583.449	22983.03
583.809	23154.77
584.169	23294.66
584.529	23449.23
584.889	23801.54
585.249	23768.32
585.609	23963.11
585.969	24206.72
586.329	24415.53
586.688	24682.42
587.048	24896.2
587.408	25049.86
587.768	25252.12
588.127	25450.98
588.487	25514.94
588.846	25901.37
589.206	26020.01
589.565	26278.98
589.925	26631.07
590.284	26760.55
590.643	26930.72
591.003	27191.05
591.362	27504.71
591.721	27673.07
592.08	27889.34
592.44	28089.56
592.799	28389.44
593.158	28489.77
593.517	28658.81
593.876	29016.54
594.235	29094.5
594.593	29382.63
594.952	29493.81
595.311	29666.92
595.67	29995.5
596.029	30365.66
596.387	30467.57
596.746	30809.94
597.104	30782.14
597.463	30992.53
597.822	31245.63
598.18	31279.98
598.538	31552.74
598.897	31924.71
599.255	31782.12
599.613	32522.89
599.972	32462.1
600.33	32651.47
600.688	32766.72
601.046	33105.47
601.404	33331.45
601.762	33421.4
602.12	33657.55
602.478	33824.55
602.836	34086.46
603.194	34126.46
603.552	34278.1
603.91	34306.12
604.268	34743.39
604.625	34730.06
604.983	34892.54
605.341	34948.13
605.698	35216.83
606.056	35451.62
606.413	35491.85
606.771	35805.51
607.128	35843.25
607.485	35913.08
607.843	36097.26
608.2	36304.94
608.557	36596.45
608.914	36522.78
609.272	36836.9
609.629	37106.72
609.986	36920.96
610.343	37171.13
610.7	37403.66
611.057	37507.62
611.414	37597.1
611.771	37820.15
612.127	37943.54
612.484	37965.23
612.841	38151.67
613.198	38247.26
613.554	38177.2
613.911	38484.99
614.267	38614.25
614.624	38581.49
614.98	38760.01
615.337	38991.64
615.693	39047.46
616.05	39105.31
616.406	39396.61
616.762	39334.91
617.118	39520.44
617.475	39588.24
617.831	39634.79
618.187	39766.99
618.543	39746.43
618.899	40076.81
619.255	40029.58
619.611	40115.46
619.967	40187.77
620.323	40403.81
620.678	40321.1
621.034	40294.66
621.39	40383.25
621.746	40402
622.101	40896.23
622.457	40671.83
622.812	40671.83
623.168	40857.36
623.523	40958.15
623.879	41057.58
624.234	40945.49
624.589	41066.17
624.945	41173.51
625.3	41172.38
625.655	41167.18
626.01	41266.16
626.365	41197.69
626.72	41284.01
627.075	41503.22
627.43	41417.12
627.785	41253.51
628.14	41303.9
628.495	41434.52
628.85	41405.82
629.205	41366.95
629.559	41622.08
629.914	41360.85
630.269	41521.97
630.623	41195.88
630.978	41319.27
631.332	41535.08
631.687	41673.38
632.041	41484.23
632.396	41591.8
632.75	41366.05
633.104	41490.56
633.459	41374.63
633.813	41506.83
634.167	41473.39
634.521	41461.41
634.875	41625.47
635.229	41491.69
635.583	41295.54
635.937	41475.65
636.291	41375.54
636.645	41392.03
636.999	41455.08
637.352	41466.61
637.706	41364.69
638.06	41468.42
638.413	41461.64
638.767	41279.95
639.121	41303
639.474	41110.68
639.828	41221.64
640.181	41239.49
640.534	41184.58
640.888	40980.29
641.241	40912.27
641.594	41129.67
641.947	41048.99
642.301	40969.9
642.654	41038.82
643.007	41064.13
643.36	41001.53
643.713	40982.78
644.066	41020.52
644.419	40890.13
644.771	40745.95
645.124	40408.78
645.477	40407.88
645.83	40017.38
646.182	39724.28
646.535	39765.64
646.888	39887.44
647.24	39787.78
647.593	39880.21
647.945	39766.54
648.298	39719.08
648.65	39514.12
649.002	39610.84
649.355	39683.38
649.707	39610.84
650.059	39903.03
650.411	40367.88
650.763	40278.16
651.115	40722.67
651.467	40536.91
651.819	40576.01
652.171	40436.8
652.523	40406.3
652.875	40425.5
653.227	40255.34
653.578	40402.23
653.93	40344.15
654.282	40258.5
654.633	40196.36
654.985	40254.21
655.337	40287.2
655.688	40295.34
656.039	40338.05
656.391	40007.21
656.742	40086.08
657.094	40275.23
657.445	40354.32
657.796	40111.39
658.147	40224.83
658.498	40052.63
658.849	40330.14
659.2	40201.1
659.551	39908.68
659.902	40211.73
660.253	40131.05
660.604	40132.86
660.955	39964.95
661.306	40055.57
661.656	39999.98
662.007	40013.09
662.358	40209.47
662.708	40117.49
663.059	40079.75
663.409	39765.86
663.76	40036.81
664.11	40011.96
664.461	40064.16
664.811	40110.71
665.161	40064.61
665.511	39787.1
665.862	39944.61
666.212	40025.06
666.562	40010.83
666.912	39869.14
667.262	39759.31
667.612	39943.48
667.962	39859.42
668.312	39933.09
668.662	40008.57
669.011	39977.83
669.361	39826.42
669.711	39798.18
670.06	39782.81
670.41	39627.56
670.76	39635.92
671.109	39871.4
671.459	39757.5
671.808	39693.55
672.157	39818.74
672.507	39555.92
672.856	39662.14
673.205	39531.74
673.554	39751.17
673.904	39634.57
674.253	39780.32
674.602	39632.53
674.951	39167.46
675.3	38889.05
675.649	39503.04
675.998	39409.49
676.346	39422.37
676.695	39417.85
677.044	39377.17
677.393	39475.47
677.741	39529.71
678.09	39432.76
678.438	39332.43
678.787	39388.92
679.135	39499.43
679.484	39178.98
679.832	39314.57
680.181	39011.08
680.529	39132.43
680.877	39123.17
681.225	38940.12
681.573	39240.23
681.922	38974.92
682.27	38839.11
682.618	38940.35
682.966	38797.3
683.314	38842.27
683.661	38744.19
684.009	38532.9
684.357	38511.88
684.705	38414.71
685.053	38448.16
685.4	38492.45
685.748	38274.83
686.095	38325.67
686.443	38181.95
686.79	38039.58
687.138	38055.4
687.485	38113.7
687.832	38017.43
688.18	38085
688.527	37817.21
688.874	37877.1
689.221	37894.05
689.568	37712.58
689.915	37616.54
690.262	37544.68
690.609	37505.13
690.956	37267.4
691.303	37430.1
691.65	37201.41
691.997	37115.54
692.344	36908.54
692.69	36972.49
693.037	37108.3
693.383	36667.41
693.73	36773.85
694.077	36616.11
694.423	36530.47
694.769	36464.25
695.116	36422.67
695.462	36336.35
695.808	36229.91
696.155	36284.37
696.501	36038.73
696.847	35939.3
697.193	35748.11
697.539	35883.25
697.885	35739.3
698.231	35702.24
698.577	35701.56
698.923	35628.34
699.269	35479.87
699.614	35310.84
699.96	35161.69
700.306	35101.35
700.651	35042.82
700.997	34986.1
701.342	34760.57
701.688	34790.62
702.033	34649.16
702.379	34703.4
702.724	34564.64
703.069	34735.26
703.415	34234.48
703.76	34259.11
704.105	34248.94
704.45	34137.53
704.795	34066.35
705.14	33827.94
705.485	33912.68
705.83	33628.85
706.175	33791.78
706.52	33603.99
706.865	33582.97
707.209	33580.49
707.554	33388.85
707.899	33461.17
708.243	33291.46
708.588	33233.83
708.932	33004.01
709.277	32957.45
709.621	32923.78
709.966	32895.31
710.31	33033.38
710.654	32682.88
710.998	32714.52
711.342	32702.09
711.687	32633.39
712.031	32455.09
712.375	32366.06
712.719	32402.21
713.063	32426.17
713.407	32451.25
713.75	32171.94
714.094	32246.06
714.438	31938.5
714.782	32009
715.125	31854.2
715.469	31895.11
715.812	31724.72
716.156	31701.89
716.499	31685.85
716.843	31728.56
717.186	31481.33
717.53	31689.46
717.873	31698.73
718.216	31728.11
718.559	31413.54
718.902	31176.26
719.246	31265.52
719.589	31186.2
719.932	31096.94
720.275	31043.15
720.617	31009.93
720.96	31053.55
721.303	30986.21
721.646	30909.37
721.989	30767.45
722.331	30863.27
722.674	30787.11
723.016	30756.83
723.359	30703.95
723.701	30650.17
724.044	30584.18
724.386	30334.47
724.729	30538.53
725.071	30505.09
725.413	30421.47
725.755	30461.7
726.097	30167.7
726.439	30115.04
726.782	30003.63
727.124	30069.39
727.465	30048.38
727.807	29903.97
728.149	29917.98
728.491	29806.35
728.833	29891.77
729.175	29811.09
729.516	29746.69
729.858	29744.43
730.199	29750.53
730.541	29541.72
730.882	29554.83
731.224	29696.97
731.565	29418.11
731.906	29593.7
732.248	29420.37
732.589	29352.12
732.93	29288.62
733.271	29317.32
733.612	29292.69
733.953	29353.93
734.294	29087.05
734.635	29114.62
734.976	29197.78
735.317	28979.93
735.658	28987.84
735.999	28981.74
736.339	29002.3
736.68	28937.9
737.021	28977.44
737.361	28821.52
737.702	29021.28
738.042	28701.52
738.383	28701.97
738.723	28754.85
739.063	28622.88
739.404	28648.87
739.744	28614.52
740.084	28437.35
740.424	28451.81
740.764	28451.36
741.104	28490.9
741.444	28348.99
741.784	28295.65
742.124	28337.91
742.464	28240.51
742.804	28273.73
743.143	27987.41
743.483	28025.6
743.823	27953.52
744.162	27947.64
744.502	27976.11
744.841	27827.19
745.181	28035.32
745.52	27854.99
745.86	27854.08
746.199	27767.76
746.538	27814.54
746.877	27699.96
747.216	27687.31
747.556	27666.07
747.895	27707.87
748.234	27580.42
748.573	27513.75
748.911	27450.48
749.25	27585.62
749.589	27363.25
749.928	27355.79
750.267	27469.91
750.605	27229.47
750.944	27140.88
751.283	27001.68
751.621	27115.35
751.96	26979.98
752.298	26968.68
752.636	26989.7
752.975	26862.7
753.313	26744.96
753.651	26938.18
753.989	26708.35
754.327	26852.75
754.666	26601.91
755.004	26639.65
755.342	26647.79
755.679	26555.59
756.017	26422.03
756.355	26363.05
756.693	26277.18
757.031	26343.84
757.368	26202.6
757.706	26195.6
758.044	26046
758.381	26056.17
758.719	25996.73
759.056	25965.32
759.394	25823.18
759.731	25711.99
760.068	25636.06
760.405	25554.48
760.743	25561.94
761.08	25664.54
761.417	25312.68
761.754	25381.38
762.091	25316.52
762.428	25152.01
762.765	25090.77
763.102	25088.51
763.438	25065.91
763.775	24803.99
764.112	24890.77
764.449	24885.8
764.785	24671.57
765.122	24599.93
765.458	24518.8
765.795	24453.72
766.131	24557.22
766.467	24392.03
766.804	24217.57
767.14	24144.13
767.476	24197.68
767.812	23961.3
768.148	24052.83
768.485	23957.01
768.821	23694.42
769.157	23673.85
769.492	23649.67
769.828	23606.96
770.164	23462.56
770.5	23441.09
770.836	23437.02
771.171	23235.9
771.507	23202
771.842	22952.97
772.178	23095.57
772.513	22977.38
772.849	22957.72
773.184	22802.24
773.519	22853.99
773.855	22665.07
774.19	22602.7
774.525	22504.85
774.86	22465.98
775.195	22461.91
775.53	22387.79
775.865	22232.99
776.2	22166.1
776.535	21894.92
776.87	21958.42
777.205	21809.95
777.539	21871.42
777.874	21742.61
778.209	21525.44
778.543	21554.59
778.878	21348.72
779.212	21360.02
779.547	21335.39
779.881	21359.11
780.215	21079.57
780.55	21135.39
780.884	20955.51
781.218	20937.66
781.552	20952.57
781.886	20854.49
782.22	20734.72
782.554	20560.72
782.888	20554.16
783.222	20375.41
783.556	20317.11
783.889	20214.06
784.223	20191.91
784.557	20111.69
784.89	20094.51
785.224	20006.15
785.557	19811.81
785.891	19956.66
786.224	19864.69
786.558	19723
786.891	19641.19
787.224	19513.29
787.557	19460.63
787.891	19468.32
788.224	19414.31
788.557	19346.96
788.89	19338.6
789.223	19257.25
789.556	19057.25
789.888	19165.72
790.221	19116.69
790.554	18846.19
790.887	18907.65
791.219	18845.96
791.552	18800.99
791.884	18653.87
792.217	18585.63
792.549	18562.35
792.882	18415.69
793.214	18449.81
793.546	18392.86
793.879	18284.62
794.211	18203.49
794.543	18299.98
794.875	18179.31
795.207	18199.65
795.539	18001.01
795.871	18070.84
796.203	17901.58
796.535	17683.5
796.867	17709.49
797.198	17695.71
797.53	17725.31
797.862	17577.52
798.193	17570.74
798.525	17554.47
798.856	17429.73
799.188	17376.17
799.519	17249.84
799.85	17151.31
800.182	17155.38
800.513	17190.86
800.844	17000.81
801.175	17131.43
801.506	17103.41
801.837	16976.63
802.168	17013.01
802.499	16950.42
802.83	16844.2
803.161	16799.69
803.491	16729.86
803.822	16727.14
804.153	16673.81
804.483	16505.68
804.814	16431.56
805.145	16394.27
805.475	16380.49
805.805	16356.31
806.136	16275.41
806.466	16314.05
806.796	16270.89
807.126	16207.16
807.457	16107.05
807.787	16113.83
808.117	16004.68
808.447	15955.87
808.777	15974.17
809.107	15942.53
809.436	15790.9
809.766	15872.48
810.096	15808.07
810.426	15714.06
810.755	15754.29
811.085	15671.13
811.414	15526.72
811.744	15458.25
812.073	15437.91
812.403	15575.99
812.732	15357.01
813.061	15448.08
813.39	15288.76
813.719	15338.48
814.049	15353.85
814.378	15251.7
814.707	15228.2
815.036	15179.16
815.365	15082.22
815.693	14951.82
816.022	14970.58
816.351	14930.13
816.68	14892.84
817.008	14933.97
817.337	14787.76
817.665	14845.84
817.994	14793.64
818.322	14740.98
818.651	14626.86
818.979	14611.27
819.307	14714.77
819.636	14609.91
819.964	14553.87
820.292	14555.45
820.62	14588.9
820.948	14632.06
821.276	14642.68
821.604	14519.52
821.932	14531.72
822.259	14544.6
822.587	14484.27
822.915	14493.08
823.243	14564.04
823.57	14475.45
823.898	14482.68
824.225	14347.32
824.553	14415.57
824.88	14458.96
825.207	14393.65
825.535	14423.93
825.862	14496.24
826.189	14302.35
826.516	14458.96
826.843	14450.59
827.17	14468.45
827.497	14480.88
827.824	14413.99
828.151	14426.87
828.478	14401.1
828.805	14471.84
829.131	14409.24
829.458	14425.51
829.785	14348.22
830.111	14381.9
830.438	14444.04
830.764	14286.53
831.09	14435.45
831.417	14372.4
831.743	14357.04
832.069	14422.12
832.395	14249.92
832.722	14314.1
833.048	14273.42
833.374	14342.35
833.7	14272.52
834.026	14235.23
834.351	14236.81
834.677	14277.94
835.003	14241.56
835.329	14192.3
835.654	14185.74
835.98	14213.99
836.306	14105.52
836.631	14090.15
836.956	14221.45
837.282	14120.66
837.607	14033.2
837.932	14002.7
838.258	14045.63
838.583	14064.16
838.908	13947.78
839.233	13939.42
839.558	13921.57
839.883	13844.73
840.208	13787.79
840.533	13819.2
840.858	13803.61
841.182	13839.09
841.507	13779.88
841.832	13679.77
842.156	13796.37
842.481	13674.12
842.805	13629.15
843.13	13626.44
843.454	13586.66
843.778	13582.82
844.103	13543.95
844.427	13477.06
844.751	13519.77
845.075	13424.86
845.399	13420.34
845.723	13251.98
846.047	13297.63
846.371	13245.88
846.695	13189.16
847.019	13025.77
847.343	13041.37
847.666	13052.21
847.99	12948.94
848.313	12904.42
848.637	12803.86
848.96	12827.81
849.284	12675.27
849.607	12716.63
849.931	12675.05
850.254	12637.99
850.577	12461.95
850.9	12469.63
851.223	12486.8
851.546	12386.47
851.869	12308.73
852.192	12383.3
852.515	12188.96
852.838	12174.5
853.161	12183.08
853.483	12118.68
853.806	12042.3
854.129	12002.75
854.451	11987.38
854.774	11934.28
855.096	11912.13
855.419	11844.79
855.741	11776.31
856.063	11757.11
856.385	11704.23
856.708	11753.49
857.03	11654.51
857.352	11664.23
857.674	11570.22
857.996	11586.94
858.318	11493.38
858.64	11451.58
858.961	11401.86
859.283	11433.5
859.605	11389.21
859.926	11479.6
860.248	11345.82
860.57	11331.58
860.891	11322.99
861.212	11235.09
861.534	11240.74
861.855	11146.95
862.176	11197.8
862.498	11164.81
862.819	11206.39
863.14	11116.67
863.461	11099.5
863.782	11150.79
864.103	11021.31
864.424	11050.46
864.745	11030.12
865.065	10987.63
865.386	10943.57
865.707	11065.37
866.027	10984.47
866.348	10983.12
866.668	10942.21
866.989	10940.86
867.309	10822.89
867.63	10874.64
867.95	10824.48
868.27	10801.65
868.59	10800.75
868.91	10729.11
869.23	10716.91
869.55	10683.24
869.87	10753.06
870.19	10684.37
870.51	10771.14
870.83	10684.59
871.15	10600.07
871.469	10602.56
871.789	10613.63
872.109	10637.81
872.428	10618.83
872.748	10652.05
873.067	10592.39
873.386	10501.77
873.706	10485.5
874.025	10434.43
874.344	10391.49
874.663	10472.85
874.982	10379.74
875.301	10440.08
875.62	10390.59
875.939	10377.71
876.258	10364.83
876.577	10334.32
876.896	10263.81
877.214	10248.9
877.533	10240.08
877.852	10182.23
878.17	10282.57
878.489	10283.7
878.807	10227.65
879.125	10188.56
879.444	10186.53
879.762	10145.4
880.08	10105.85
880.398	10111.95
880.716	10199.86
881.034	10102.69
881.352	10083.93
881.67	10024.27
881.988	10062.69
882.306	9998.73
882.624	9984.5
882.941	9992.41
883.259	9944.95
883.577	9897.49
883.894	9903.6
884.212	9947.66
884.529	9833.77
884.846	9802.58
885.164	9774.11
885.481	9790.38
885.798	9714.45
886.115	9776.59
886.432	9770.27
886.75	9695.24
887.067	9680.78
887.383	9675.8
887.7	9677.39
888.017	9583.15
888.334	9565.07
888.651	9532.31
888.967	9556.71
889.284	9542.25
889.6	9459.31
889.917	9385.87
890.233	9411.41
890.55	9318.53
890.866	9339.77
891.182	9284.4
891.498	9273.1
891.815	9314.01
892.131	9316.94
892.447	9181.81
892.763	9175.03
893.079	9197.85
893.395	9146.33
893.71	9090.28
894.026	9081.02
894.342	9132.99
894.657	9006.67
894.973	8993.34
895.289	8991.08
895.604	9003.28
895.92	8889.16
896.235	8883.28
896.55	8914.02
896.865	8880.35
897.181	8805.09
897.496	8810.06
897.811	8735.72
898.126	8761.93
898.441	8693.01
898.756	8735.26
899.071	8629.05
899.386	8561.71
899.7	8523.07
900.015	8491.43
900.33	8452.56
900.644	8528.49
900.959	8420.02
901.273	8467.48
901.588	8377.76
901.902	8339.79
902.216	8349.29
902.531	8293.47
902.845	8254.15
903.159	8223.87
903.473	8142.51
903.787	8159.23
904.101	8058.67
904.415	8136.41
904.729	8096.64
905.042	7995.62
905.356	8062.74
905.67	8046.47
905.984	8047.83
906.297	7962.18
906.611	7849.19
906.924	7907.94
907.237	7883.54
907.551	7816.87
907.864	7867.94
908.177	7764.44
908.491	7733.48
908.804	7746.14
909.117	7704.11
909.43	7610.1
909.743	7561.28
910.056	7585.69
910.368	7564.67
910.681	7476.54
910.994	7482.19
911.307	7464.11
911.619	7400.38
911.932	7396.32
912.244	7355.41
912.557	7358.58
912.869	7324
913.181	7253.95
913.494	7325.81
913.806	7200.16
914.118	7195.42
914.43	7138.24
914.742	7146.83
915.054	7084.01
915.366	7095.31
915.678	7000.85
915.99	7055.08
916.302	6941.87
916.613	6935.09
916.925	6843.34
917.236	6907.29
917.548	6881.98
917.859	6868.2
918.171	6830.91
918.482	6755.43
918.794	6704.58
919.105	6749.1
919.416	6633.4
919.727	6684.7
920.038	6646.96
920.349	6642.89
920.66	6596.11
920.971	6573.29
921.282	6539.62
921.593	6450.13
921.903	6411.94
922.214	6429.79
922.525	6390.02
922.835	6390.47
923.146	6355.89
923.456	6288.1
923.767	6296.23
924.077	6282.22
924.387	6238.38
924.697	6242.22
925.008	6154.54
925.318	6203.81
925.628	6197.93
925.938	6141.89
926.248	6068.22
926.558	6075
926.867	6037.03
927.177	6034.77
927.487	5982.79
927.796	5932.17
928.106	5962.23
928.416	5978.28
928.725	5924.04
929.034	5857.6
929.344	5846.3
929.653	5828
929.962	5773.31
930.271	5778.28
930.581	5702.35
930.89	5724.72
931.199	5664.16
931.508	5700.54
931.817	5639.98
932.125	5638.17
932.434	5623.93
932.743	5590.04
933.051	5575.12
933.36	5566.53
933.669	5475.24
933.977	5520.43
934.286	5464.84
934.594	5435.46
934.902	5388.69
935.21	5386.2
935.519	5386.65
935.827	5310.5
936.135	5324.73
936.443	5292.42
936.751	5295.13
937.059	5268.92
937.367	5225.75
937.674	5251.29
937.982	5198.86
938.29	5138.98
938.597	5170.39
938.905	5076.83
939.213	5070.5
939.52	5046.1
939.827	5054.23
940.135	5048.58
940.442	4976.72
940.749	5013.78
941.056	4955.93
941.363	4925.2
941.67	4918.64
941.977	4867.8
942.284	4879.09
942.591	4866.44
942.898	4855.59
943.205	4826.89
943.511	4790.51
943.818	4820.57
944.125	4771.3
944.431	4689.27
944.738	4724.07
945.044	4682.94
945.35	4683.85
945.657	4678.87
945.963	4635.26
946.269	4623.28
946.575	4596.62
946.881	4583.74
947.187	4554.81
947.493	4521.36
947.799	4542.38
948.105	4485.88
948.41	4488.37
948.716	4407.24
949.022	4468.26
949.327	4467.13
949.633	4390.52
949.938	4385.77
950.244	4373.8
950.549	4330.63
950.854	4319.11
951.16	4289.28
951.465	4286.34
951.77	4247.47
952.075	4271.2
952.38	4252.67
952.685	4208.15
952.99	4200.69
953.294	4157.31
953.599	4124.76
953.904	4133.58
954.209	4099.68
954.513	4127.7
954.818	4110.53
955.122	4092.22
955.426	4042.51
955.731	3997.76
956.035	3986.91
956.339	3979.68
956.643	3952.79
956.948	3974.94
957.252	3961.38
957.556	3936.07
957.86	3913.7
958.163	3916.41
958.467	3864.21
958.771	3901.49
959.075	3890.42
959.378	3788.95
959.682	3805.68
959.985	3802.51
960.289	3771.55
960.592	3755.28
960.896	3733.14
961.199	3729.07
961.502	3755.06
961.805	3730.88
962.108	3666.7
962.411	3674.83
962.714	3625.79
963.017	3666.47
963.32	3668.96
963.623	3565.01
963.926	3612.46
964.228	3579.69
964.531	3532.92
964.833	3557.32
965.136	3517.32
965.438	3511.9
965.741	3503.54
966.043	3455.18
966.345	3473.48
966.648	3442.52
966.95	3430.77
967.252	3412.24
967.554	3379.7
967.856	3394.84
968.158	3367.04
968.46	3378.12
968.761	3350.1
969.063	3347.61
969.365	3322.3
969.666	3293.37
969.968	3293.6
970.269	3276.2
970.571	3278.01
970.872	3245.92
971.174	3194.62
971.475	3221.29
971.776	3181.96
972.077	3190.78
972.378	3172.93
972.679	3155.52
972.98	3155.75
973.281	3096.99
973.582	3115.07
973.883	3103.1
974.183	3090.67
974.484	3101.29
974.785	3091.12
975.085	3078.69
975.386	3053.61
975.686	3011.12
975.986	2991.91
976.287	3004.57
976.587	2965.25
976.887	2955.98
977.187	3007.51
977.487	2981.97
977.787	2918.24
978.087	2907.85
978.387	2930.9
978.687	2897.9
978.987	2878.7
979.286	2881.63
979.586	2837.34
979.885	2876.44
980.185	2838.24
980.484	2824.69
980.784	2824.46
981.083	2757.79
981.382	2783.56
981.682	2790.79
981.981	2757.79
982.28	2763.44
982.579	2735.87
982.878	2746.95
983.177	2697.23
983.475	2692.26
983.774	2686.84
984.073	2645.48
984.372	2670.57
984.67	2649.32
984.969	2640.06
985.267	2622.88
985.566	2628.53
985.864	2617.46
986.162	2590.79
986.461	2558.25
986.759	2565.03
987.057	2555.09
987.355	2540.63
987.653	2539.72
987.951	2527.52
988.249	2531.81
988.547	2502.21
988.844	2493.39
989.142	2464.02
989.44	2472.83
989.737	2487.07
990.035	2409.78
990.332	2388.76
990.63	2446.39
990.927	2394.64
991.224	2397.35
991.521	2369.78
991.819	2382.66
992.116	2367.07
992.413	2372.49
992.71	2315.09
993.006	2353.29
993.303	2316
993.6	2309.22
993.897	2299.73
994.193	2352.61
994.49	2268.99
994.787	2252.95
995.083	2231.93
995.379	2230.8
995.676	2253.63
995.972	2250.92
996.268	2236.9
996.565	2221.99
996.861	2183.12
997.157	2212.05
997.453	2161.2
997.749	2155.55
998.044	2164.82
998.34	2144.03
998.636	2146.06
998.932	2109.9
999.227	2112.39
999.523	2103.35
999.818	2096.34
1000.114	2077.36
1000.409	2078.94
1000.704	2029.9
1001	2057.47
1001.295	2037.36
1001.59	2064.71
1001.885	2009.79
1002.18	2038.27
1002.475	1985.61
1002.77	1979.06
1003.065	1979.74
1003.359	1973.86
1003.654	1923.69
1003.949	1956.46
1004.243	1939.96
1004.538	1942.9
1004.832	1941.32
1005.127	1883.02
1005.421	1909.46
1005.715	1879.4
1006.009	1870.13
1006.304	1858.16
1006.598	1843.47
1006.892	1856.35
1007.186	1817.93
1007.48	1815.67
1007.773	1797.14
1008.067	1812.51
1008.361	1794.2
1008.655	1760.08
1008.948	1763.24
1009.242	1747.43
1009.535	1740.42
1009.829	1760.53
1010.122	1736.8
1010.415	1725.51
1010.708	1684.15
1011.001	1687.09
1011.295	1682.57
1011.588	1663.36
1011.881	1672.85
1012.173	1674.21
1012.466	1650.48
1012.759	1655.9
1013.052	1620.65
1013.344	1604.83
1013.637	1606.86
1013.93	1617.49
1014.222	1568.9
1014.514	1574.77
1014.807	1576.36
1015.099	1553.98
1015.391	1574.32
1015.683	1546.08
1015.976	1560.99
1016.268	1556.24
1016.56	1510.82
1016.851	1516.92
1017.143	1485.29
1017.435	1478.05
1017.727	1496.58
1018.018	1474.89
1018.31	1449.81
1018.602	1450.71
1018.893	1441.22
1019.185	1441.67
1019.476	1408.68
1019.767	1426.53
1020.058	1398.73
1020.35	1407.55
1020.641	1400.09
1020.932	1389.47
1021.223	1401.67
1021.514	1375.91
1021.804	1323.03
1022.095	1356.02
1022.386	1324.61
1022.677	1318.51
1022.967	1304.95
1023.258	1294.33
1023.548	1289.13
1023.839	1299.75
1024.129	1272.86
1024.419	1286.87
1024.709	1268.57
1025	1263.14
1025.29	1269.92
1025.58	1251.17
1025.87	1227.21
1026.16	1236.93
1026.449	1253.88
1026.739	1219.3
1027.029	1224.73
1027.319	1221.11
1027.608	1193.77
1027.898	1170.94
1028.187	1191.96
1028.477	1158.06
1028.766	1163.26
1029.055	1163.94
1029.344	1173.88
1029.634	1157.61
1029.923	1139.53
1030.212	1137.5
1030.501	1123.04
1030.79	1094.34
1031.078	1101.12
1031.367	1085.97
1031.656	1089.59
1031.945	1075.13
1032.233	1078.74
1032.522	1113.77
1032.81	1048.69
1033.099	1054.34
1033.387	1042.81
1033.675	1062.92
1033.963	1037.61
1034.251	1028.8
1034.54	1022.7
1034.828	1001.68
1035.116	1022.93
1035.403	1023.38
1035.691	982.7
1035.979	985.19
1036.267	970.5
1036.554	975.69
1036.842	995.13
1037.129	971.4
1037.417	963.94
1037.704	956.49
1037.992	963.49
1038.279	926.88
1038.566	923.49
1038.853	923.49
1039.14	923.49
