Data from hue_80_FLMS001491_18.txt Node
Date: Mon Feb 06 15:22:33 GMT 2017
User: dcchb
Spectrometer: FLMS00149
Trigger mode: 0
Integration Time (sec): 2.000000E-2
Scans to average: 10
Electric dark correction enabled: true
Nonlinearity correction enabled: false
Boxcar width: 0
XAxis mode: Wavelengths
Number of Pixels in Spectrum: 2048
>>>>>Begin Spectral Data<<<<<
341.393	-18.76
341.776	-18.76
342.16	-18.76
342.543	-69.6
342.927	-60.56
343.31	-57.85
343.693	-80
344.077	-61.24
344.46	-58.53
344.843	-70.51
345.226	-32.77
345.61	-24.63
345.993	-29.38
346.376	0.45
346.759	-4.07
347.142	9.94
347.525	40.68
347.908	53.11
348.291	73.67
348.674	107.34
349.057	133.78
349.44	114.35
349.823	138.08
350.206	164.52
350.588	207.23
350.971	221.24
351.354	227.34
351.737	235.02
352.119	235.47
352.502	248.81
352.884	269.15
353.267	271.63
353.65	297.39
354.032	296.94
354.414	308.69
354.797	319.77
355.179	312.99
355.562	317.73
355.944	315.47
356.326	322.93
356.709	329.48
357.091	322.93
357.473	364.51
357.855	324.51
358.238	326.77
358.62	334.45
359.002	318.41
359.384	340.78
359.766	346.66
360.148	334.68
360.53	332.42
360.912	341.46
361.294	345.08
361.676	328.58
362.057	315.25
362.439	336.04
362.821	313.66
363.203	338.3
363.584	316.6
363.966	321.35
364.348	319.77
364.729	325.42
365.111	330.39
365.493	302.14
365.874	322.25
366.256	312.76
366.637	335.13
367.019	313.44
367.4	304.4
367.781	312.31
368.163	307.79
368.544	289.71
368.925	304.85
369.306	312.99
369.688	302.36
370.069	289.48
370.45	310.95
370.831	313.21
371.212	316.83
371.593	320.9
371.974	291.52
372.355	310.05
372.736	328.13
373.117	311.63
373.498	304.62
373.879	303.72
374.26	292.87
374.641	317.28
375.021	307.79
375.402	311.18
375.783	316.15
376.163	326.09
376.544	313.89
376.925	326.09
377.305	331.06
377.686	319.31
378.066	320.9
378.447	334.45
378.827	323.83
379.208	319.54
379.588	327.9
379.968	332.65
380.349	337.17
380.729	335.81
381.109	321.8
381.489	327.45
381.87	330.39
382.25	336.26
382.63	346.88
383.01	315.02
383.39	328.13
383.77	330.16
384.15	340.56
384.53	335.58
384.91	350.73
385.29	334
385.67	329.03
386.049	343.95
386.429	332.87
386.809	336.94
387.189	345.75
387.568	346.66
387.948	345.98
388.328	333.32
388.707	343.49
389.087	349.6
389.466	348.01
389.846	353.66
390.225	371.06
390.605	352.53
390.984	383.72
391.363	354.34
391.743	337.17
392.122	340.78
392.501	355.47
392.881	364.96
393.26	371.29
393.639	369.48
394.018	368.58
394.397	387.79
394.776	366.77
395.155	346.43
395.534	376.49
395.913	364.51
396.292	360.22
396.671	378.52
397.05	382.36
397.429	369.71
397.808	391.18
398.186	365.41
398.565	369.48
398.944	377.39
399.323	378.52
399.701	382.36
400.08	372.87
400.458	391.85
400.837	389.37
401.215	395.24
401.594	378.52
401.972	378.3
402.351	389.59
402.729	384.85
403.107	396.83
403.486	404.96
403.864	411.29
404.242	395.02
404.62	407.9
404.999	402.48
405.377	409.71
405.755	405.87
406.133	402.25
406.511	416.49
406.889	430.5
407.267	427.33
407.645	409.93
408.023	413.77
408.401	441.57
408.779	414.68
409.156	441.34
409.534	426.88
409.912	416.03
410.29	435.92
410.667	430.95
411.045	460.55
411.422	452.87
411.8	429.37
412.178	451.74
412.555	443.38
412.933	439.99
413.31	471.63
413.687	462.13
414.065	457.16
414.442	462.13
414.819	461.91
415.197	466.65
415.574	468.91
415.951	477.95
416.328	466.88
416.705	495.13
417.082	456.71
417.46	493.55
417.837	496.48
418.214	485.41
418.591	484.06
418.967	500.78
419.344	491.96
419.721	520.44
420.098	502.36
420.475	509.14
420.852	498.07
421.228	515.47
421.605	512.98
421.982	507.78
422.358	498.97
422.735	495.81
423.111	534
423.488	526.54
423.864	516.6
424.241	537.16
424.617	537.61
424.994	545.07
425.37	543.26
425.746	503.94
426.123	537.39
426.499	544.39
426.875	551.85
427.251	553.43
427.627	538.06
428.003	566.09
428.379	569.7
428.756	580.78
429.132	571.06
429.507	588.46
429.883	576.48
430.259	585.97
430.635	599.98
431.011	603.83
431.387	611.96
431.763	602.92
432.138	605.63
432.514	611.96
432.89	632.98
433.265	636.37
433.641	627.55
434.016	638.4
434.392	630.49
434.767	646.54
435.143	656.25
435.518	672.75
435.894	661.23
436.269	684.05
436.644	658.51
437.02	689.47
437.395	693.77
437.77	689.47
438.145	681.34
438.52	698.74
438.895	688.12
439.271	682.24
439.646	713.43
440.021	728.79
440.395	727.66
440.77	710.04
441.145	723.82
441.52	739.42
441.895	746.87
442.27	760.66
442.645	729.92
443.019	742.13
443.394	757.72
443.769	759.08
444.143	764.95
444.518	765.86
444.892	768.57
445.267	766.31
445.641	775.8
446.016	799.75
446.39	807.21
446.764	785.06
447.139	788.23
447.513	799.53
447.887	793.88
448.262	797.72
448.636	802.01
449.01	816.48
449.384	796.82
449.758	830.71
450.132	834.1
450.506	846.31
450.88	835.23
451.254	858.96
451.628	847.66
452.002	861.22
452.376	876.59
452.75	857.83
453.123	908
453.497	894.89
453.871	886.3
454.244	911.16
454.618	918.17
454.992	896.02
455.365	919.07
455.739	951.84
456.112	925.4
456.486	942.8
456.859	967.88
457.232	995.23
457.606	983.48
457.979	1004.95
458.352	997.94
458.725	1018.05
459.099	1030.93
459.472	1053.53
459.845	1058.5
460.218	1070.03
460.591	1066.64
460.964	1069.58
461.337	1092.17
461.71	1112.51
462.083	1116.81
462.456	1136.69
462.829	1153.19
463.201	1157.71
463.574	1161.33
463.947	1167.2
464.32	1204.94
464.692	1239.52
465.065	1224.6
465.438	1232.74
465.81	1256.46
466.183	1245.16
466.555	1308.89
466.928	1330.81
467.3	1309.57
467.672	1338.27
468.045	1373.3
468.417	1377.82
468.789	1392.05
469.161	1416.23
469.534	1439.96
469.906	1507.08
470.278	1518.38
470.65	1508.43
471.022	1538.94
471.394	1587.53
471.766	1571.26
472.138	1609.45
472.51	1675.21
472.882	1705.27
473.253	1717.92
473.625	1782.33
473.997	1812.16
474.369	1832.95
474.74	1853.28
475.112	1930.57
475.484	1955.88
475.855	1994.07
476.227	2019.38
476.598	2116.1
476.97	2129.66
477.341	2168.08
477.713	2270.45
478.084	2313.39
478.455	2378.69
478.827	2375.76
479.198	2506.83
479.569	2544.11
479.94	2589.76
480.311	2666.6
480.682	2770.1
481.053	2863.88
481.424	2920.15
481.795	2984.33
482.166	3078.56
482.537	3147.71
482.908	3226.58
483.279	3348.61
483.65	3431.77
484.021	3507.93
484.391	3615.5
484.762	3686.91
485.133	3795.15
485.503	3876.06
485.874	4011.42
486.244	4117.18
486.615	4211.41
486.985	4302.71
487.356	4464.06
487.726	4606.88
488.097	4692.08
488.467	4730.5
488.837	4936.82
489.207	5056.36
489.578	5152.41
489.948	5284.38
490.318	5387.88
490.688	5473.08
491.058	5628.33
491.428	5821.09
491.798	5938.6
492.168	6051.14
492.538	6178.14
492.908	6311.47
493.278	6399.15
493.648	6525.7
494.017	6640.73
494.387	6803.21
494.757	6998.23
495.126	7113.26
495.496	7174.73
495.866	7342.18
496.235	7542.17
496.605	7525.9
496.974	7726.35
497.344	7846.57
497.713	7961.15
498.082	8087.47
498.452	8201.59
498.821	8368.37
499.19	8400.68
499.559	8523.39
499.928	8590.51
500.298	8787.34
500.667	8909.6
501.036	8968.8
501.405	9060.1
501.774	9220.55
502.143	9265.97
502.512	9437.94
502.88	9515
503.249	9603.14
503.618	9718.61
503.987	9816.69
504.356	9882.23
504.724	10008.78
505.093	10115.44
505.462	10080.41
505.83	10266.85
506.199	10399.27
506.567	10568.99
506.936	10610.79
507.304	10769.89
507.672	10829.09
508.041	10953.16
508.409	10999.26
508.777	11095.98
509.145	11214.62
509.514	11226.15
509.882	11276.09
510.25	11419.13
510.618	11466.82
510.986	11584.1
511.354	11681.05
511.722	11814.38
512.09	11893.25
512.458	11792.91
512.826	12018.67
513.193	12000.14
513.561	12145.9
513.929	12217.08
514.297	12321.48
514.664	12374.36
515.032	12407.81
515.4	12550.18
515.767	12624.98
516.135	12674.69
516.502	12586.11
516.869	12779.1
517.237	12885.31
517.604	12881.47
517.972	12978.42
518.339	13112.2
518.706	12999.66
519.073	13040.79
519.44	13231.52
519.808	13341.57
520.175	13280.55
520.542	13385.64
520.909	13540.89
521.276	13513.54
521.643	13590.6
522.009	13718.06
522.376	13683.71
522.743	13838.05
523.11	14002.8
523.477	14067.88
523.843	14125.96
524.21	14279.17
524.577	14199.63
524.943	14332.28
525.31	14372.96
525.676	14466.29
526.043	14520.75
526.409	14558.71
526.776	14633.51
527.142	14639.62
527.508	14578.6
527.874	14704.92
528.241	14783.57
528.607	14759.84
528.973	14927.07
529.339	14878.03
529.705	14975.2
530.071	14989.44
530.437	15088.19
530.803	15127.06
531.169	15175.65
531.535	15126.38
531.901	15215.42
532.267	15119.38
532.632	15241.86
532.998	15231.92
533.364	15376.54
533.73	15226.72
534.095	15343.78
534.461	15326.6
534.826	15408.41
535.192	15488.41
535.557	15472.14
535.923	15447.28
536.288	15499.93
536.653	15397.56
537.019	15446.6
537.384	15516.43
537.749	15512.59
538.114	15465.81
538.479	15415.19
538.845	15553.49
539.21	15440.05
539.575	15565.47
539.94	15426.26
540.305	15562.75
540.67	15518.46
541.034	15471.46
541.399	15497.45
541.764	15443.89
542.129	15576.77
542.494	15534.73
542.858	15441.85
543.223	15490.21
543.587	15523.66
543.952	15511
544.316	15504.45
544.681	15479.82
545.045	15528.86
545.41	15569.08
545.774	15547.39
546.138	15522.98
546.503	15503.32
546.867	15418.13
547.231	15475.3
547.595	15507.16
547.959	15492.7
548.324	15471.46
548.688	15482.08
549.052	15482.98
549.416	15487.73
549.779	15429.65
550.143	15458.58
550.507	15566.37
550.871	15489.99
551.235	15368.86
551.599	15479.59
551.962	15449.99
552.326	15433.49
552.689	15543.55
553.053	15442.08
553.417	15412.93
553.78	15572.25
554.143	15432.36
554.507	15505.81
554.87	15511
555.234	15658.57
555.597	15518.46
555.96	15483.89
556.323	15616.99
556.686	15547.84
557.05	15627.84
557.413	15570.21
557.776	15523.66
558.139	15577.44
558.502	15661.06
558.865	15720.49
559.228	15721.39
559.59	15732.92
559.953	15798.68
560.316	15870.77
560.679	15662.64
561.041	15806.82
561.404	15832.13
561.767	15913.03
562.129	15855.18
562.492	16004.32
562.854	15899.02
563.217	15903.54
563.579	15978.79
563.941	16026.7
564.304	16018.56
564.666	16129.75
565.028	16172.91
565.39	16113.25
565.753	16110.99
566.115	16218.1
566.477	16201.16
566.839	16131.78
567.201	16254.71
567.563	16301.94
567.925	16375.16
568.287	16351.43
568.648	16325.22
569.01	16463.75
569.372	16482.05
569.734	16456.97
570.095	16566.8
570.457	16561.82
570.819	16688.37
571.18	16685.66
571.542	16722.5
571.903	16635.72
572.265	16668.26
572.626	16738.99
572.987	16714.81
573.349	16835.04
573.71	16766.79
574.071	16858.77
574.432	16824.19
574.794	16925.66
575.155	16952.32
575.516	16923.85
575.877	16910.06
576.238	17026.9
576.599	16933.11
576.96	16986.67
577.32	17019.67
577.681	16974.24
578.042	17047.69
578.403	16826.9
578.763	16955.03
579.124	17056.27
579.485	17130.62
579.845	17111.19
580.206	17117.97
580.566	17099.89
580.927	17021.47
581.287	17165.65
581.648	17074.13
582.008	17056.95
582.368	17031.87
582.728	17046.56
583.089	17120
583.449	17099.89
583.809	17100.34
584.169	17172.43
584.529	17025.77
584.889	17197.97
585.249	17045.88
585.609	17002.94
585.969	17058.53
586.329	16997.75
586.688	17091.3
587.048	17064.86
587.408	16993.9
587.768	17002.26
588.127	17008.59
588.487	16873.23
588.846	17090.4
589.206	16882.49
589.565	16915.71
589.925	17004.07
590.284	16920.69
590.643	16984.86
591.003	17072.77
591.362	17031.19
591.721	16908.03
592.08	16987.12
592.44	16970.4
592.799	17032.77
593.158	16898.09
593.517	16981.02
593.876	16975.15
594.235	16881.14
594.593	16985.09
594.952	16990.29
595.311	16934.92
595.67	16968.14
596.029	16999.55
596.387	16999.78
596.746	17100.12
597.104	16878.2
597.463	16794.59
597.822	16817.18
598.18	16805.66
598.538	16817.64
598.897	17011.53
599.255	16830.97
599.613	17075.26
599.972	16950.29
600.33	17087.23
600.688	16912.1
601.046	17039.55
601.404	17015.82
601.762	17057.86
602.12	17086.33
602.478	17013.79
602.836	17033
603.194	16949.61
603.552	17053.79
603.91	17037.07
604.268	16966.11
604.625	16903.06
604.983	16995.94
605.341	16920.69
605.698	17045.88
606.056	17070.96
606.413	16997.52
606.771	17083.84
607.128	17056.27
607.485	17039.1
607.843	17058.31
608.2	17109.15
608.557	17079.78
608.914	16966.56
609.272	17152.09
609.629	17152.32
609.986	17134.69
610.343	17175.82
610.7	17296.72
611.057	17287
611.414	17231.86
611.771	17254.69
612.127	17338.08
612.484	17308.25
612.841	17347.34
613.198	17256.27
613.554	17331.52
613.911	17367.68
614.267	17350.5
614.624	17313.9
614.98	17405.42
615.337	17520.9
615.693	17409.94
616.05	17445.87
616.406	17632.08
616.762	17479.77
617.118	17422.37
617.475	17465.53
617.831	17563.83
618.187	17586.66
618.543	17597.05
618.899	17610.38
619.255	17550.27
619.611	17526.32
619.967	17674.11
620.323	17649.71
620.678	17607.67
621.034	17619.88
621.39	17581.23
621.746	17632.98
622.101	17762.47
622.457	17622.59
622.812	17649.48
623.168	17703.49
623.523	17790.94
623.879	17755.24
624.234	17684.96
624.589	17611.51
624.945	17781.23
625.3	17646.32
625.655	17769.48
626.01	17738.52
626.365	17690.38
626.72	17665.52
627.075	17717.73
627.43	17732.64
627.785	17724.28
628.14	17716.14
628.495	17741.45
628.85	17684.05
629.205	17595.7
629.559	17771.74
629.914	17636.37
630.269	17649.93
630.623	17597.05
630.978	17607.9
631.332	17690.16
631.687	17595.02
632.041	17485.19
632.396	17557.96
632.75	17477.73
633.104	17569.48
633.459	17449.71
633.813	17535.58
634.167	17456.94
634.521	17499.2
634.875	17561.12
635.229	17378.3
635.583	17428.69
635.937	17325.87
636.291	17443.38
636.645	17290.84
636.999	17297.85
637.352	17354.12
637.706	17200.68
638.06	17390.28
638.413	17370.16
638.767	17213.11
639.121	17246.1
639.474	17155.93
639.828	17184.41
640.181	17203.84
640.534	17202.49
640.888	17115.71
641.241	17098.53
641.594	17100.12
641.947	17233.45
642.301	17058.76
642.654	17081.36
643.007	17072.09
643.36	17110.96
643.713	16958.88
644.066	17117.29
644.419	17041.36
644.771	16912.55
645.124	16755.49
645.477	16695.83
645.83	16619
646.182	16595.5
646.535	16548.04
646.888	16516.18
647.24	16544.2
647.593	16562.95
647.945	16466.69
648.298	16343.07
648.65	16406.8
649.002	16333.13
649.355	16412.45
649.707	16480.7
650.059	16512.11
650.411	16766.79
650.763	16672.1
651.115	16945.32
651.467	16873.68
651.819	16785.1
652.171	16795.04
652.523	16824.19
652.875	16780.35
653.227	16707.58
653.578	16678.21
653.93	16849.73
654.282	16684.76
654.633	16661.93
654.985	16722.95
655.337	16814.93
655.688	16750.07
656.039	16834.81
656.391	16670.97
656.742	16742.84
657.094	16768.6
657.445	16876.17
657.796	16747.13
658.147	16691.09
658.498	16832.33
658.849	16700.8
659.2	16758.2
659.551	16673.01
659.902	16778.54
660.253	16696.28
660.604	16784.87
660.955	16774.93
661.306	16753.46
661.656	16683.63
662.007	16821.93
662.358	16809.95
662.708	16851.76
663.059	16732.67
663.409	16788.26
663.76	16905.09
664.11	16807.02
664.461	16934.7
664.811	16875.26
665.161	16819.9
665.511	16769.05
665.862	16860.8
666.212	16892.66
666.562	16822.38
666.912	16848.14
667.262	16830.97
667.612	16764.3
667.962	16816.73
668.312	16805.66
668.662	16931.08
669.011	16822.83
669.361	16759.33
669.711	16704.19
670.06	16775.15
670.41	16784.19
670.76	16705.32
671.109	16775.15
671.459	16761.14
671.808	16748.71
672.157	16860.12
672.507	16701.48
672.856	16741.03
673.205	16742.38
673.554	16731.31
673.904	16710.52
674.253	16748.49
674.602	16764.3
674.951	16357.76
675.3	16322.96
675.649	16617.19
675.998	16531.54
676.346	16532.45
676.695	16609.51
677.044	16575.16
677.393	16571.77
677.741	16627.59
678.09	16591.2
678.438	16557.53
678.787	16477.31
679.135	16474.14
679.484	16528.38
679.832	16489.06
680.181	16390.53
680.529	16372.45
680.877	16377.2
681.225	16326.35
681.573	16433.24
681.922	16370.87
682.27	16250.87
682.618	16274.15
682.966	16274.15
683.314	16180.59
683.661	16172.46
684.009	16051.78
684.357	16060.59
684.705	16021.05
685.053	16084.55
685.4	15933.14
685.748	15883.2
686.095	15895.85
686.443	15794.16
686.79	15783.54
687.138	15692.92
687.485	15841.84
687.832	15719.36
688.18	15704.9
688.527	15684.79
688.874	15614.96
689.221	15600.72
689.568	15517.33
689.915	15513.72
690.262	15532.25
690.609	15518.69
690.956	15357.56
691.303	15413.38
691.65	15303.55
691.997	15244.12
692.344	15166.15
692.69	15137.91
693.037	15197.79
693.383	15044.58
693.73	15075.99
694.077	15000.96
694.423	14869.89
694.769	14921.64
695.116	14871.25
695.462	14837.58
695.808	14774.98
696.155	14711.25
696.501	14617.47
696.847	14680.07
697.193	14424.71
697.539	14594.42
697.885	14401.66
698.231	14350.36
698.577	14409.34
698.923	14387.42
699.269	14238.27
699.614	14267.65
699.96	14119.4
700.306	14113.3
700.651	14030.59
700.997	14012.29
701.342	13979.75
701.688	13962.34
702.033	13992.63
702.379	13961.89
702.724	13823.37
703.069	13927.09
703.415	13705.63
703.76	13746.08
704.105	13649.36
704.45	13680.09
704.795	13544.05
705.14	13542.69
705.485	13439.19
705.83	13478.29
706.175	13465.63
706.52	13296.6
706.865	13334.34
707.209	13330.04
707.554	13356.03
707.899	13269.48
708.243	13221.57
708.588	13181.12
708.932	13071.97
709.277	13078.53
709.621	13085.53
709.966	12922.82
710.31	12984.74
710.654	12886.89
710.998	12923.5
711.342	12866.1
711.687	12791.3
712.031	12775.48
712.375	12693
712.719	12656.39
713.063	12736.39
713.407	12730.74
713.75	12634.02
714.094	12649.84
714.438	12644.41
714.782	12553.34
715.125	12529.16
715.469	12601.02
715.812	12514.47
716.156	12480.58
716.499	12412.78
716.843	12459.56
717.186	12406.23
717.53	12363.52
717.873	12393.57
718.216	12382.27
718.559	12411.2
718.902	12229.51
719.246	12295.04
719.589	12247.59
719.932	12264.54
720.275	12247.14
720.617	12215.95
720.96	12267.02
721.303	12162.17
721.646	12172.11
721.989	12098.66
722.331	12153.58
722.674	12121.26
723.016	12149.74
723.359	12040.81
723.701	12109.29
724.044	12026.12
724.386	11993.58
724.729	12043.75
725.071	12011.89
725.413	12002.4
725.755	12021.83
726.097	11937.99
726.439	11835.62
726.782	11932.79
727.124	11977.54
727.465	11865.68
727.807	11845.11
728.149	11837.88
728.491	11843.98
728.833	11850.08
729.175	11770.99
729.516	11725.12
729.858	11852.34
730.199	11827.71
730.541	11804.44
730.882	11767.15
731.224	11804.21
731.565	11786.58
731.906	11811.44
732.248	11806.7
732.589	11766.7
732.93	11719.24
733.271	11720.14
733.612	11724.21
733.953	11669.3
734.294	11700.03
734.635	11661.84
734.976	11762.63
735.317	11664.78
735.658	11740.71
735.999	11736.64
736.339	11685.57
736.68	11726.7
737.021	11741.61
737.361	11736.64
737.702	11803.31
738.042	11756.75
738.383	11752.69
738.723	11826.58
739.063	11781.61
739.404	11805.79
739.744	11803.31
740.084	11723.99
740.424	11756.08
740.764	11783.42
741.104	11821.61
741.444	11780.71
741.784	11802.85
742.124	11842.4
742.464	11839.91
742.804	11881.72
743.143	11811.89
743.483	11916.3
743.823	11869.52
744.162	11883.08
744.502	11928.27
744.841	11912.46
745.181	12032.45
745.52	12011.66
745.86	12067.25
746.199	12067.25
746.538	12052.56
746.877	12160.36
747.216	12156.74
747.556	12246.23
747.895	12284.87
748.234	12311.99
748.573	12326
748.911	12387.7
749.25	12467.02
749.589	12494.13
749.928	12495.49
750.267	12591.99
750.605	12749.27
750.944	12774.35
751.283	12733.22
751.621	12846.44
751.96	12844.18
752.298	12974.12
752.636	13069.71
752.975	13082.82
753.313	13144.74
753.651	13350.16
753.989	13370.72
754.327	13455.47
754.666	13502.92
755.004	13579.08
755.342	13688.91
755.679	13868.34
756.017	13904.49
756.355	14054.55
756.693	14074.66
757.031	14290.7
757.368	14217.25
757.706	14425.16
758.044	14499.73
758.381	14626.51
758.719	14730.69
759.056	14836.22
759.394	14873.51
759.731	14999.38
760.068	15092.48
760.405	15139.04
760.743	15306.04
761.08	15475.07
761.417	15472.59
761.754	15600.72
762.091	15712.58
762.428	15730.21
762.765	15749.87
763.102	15986.25
763.438	16047.94
763.775	16118.45
764.112	16232.12
764.449	16439.12
764.785	16414.48
765.122	16362.73
765.458	16434.6
765.795	16638.88
766.131	16737.64
766.467	16752.33
766.804	16760.92
767.14	16793.91
767.476	16965.43
767.812	16972.89
768.148	17076.84
768.485	17065.54
768.821	17169.72
769.157	17172.88
769.492	17325.42
769.828	17327.91
770.164	17204.07
770.5	17270.28
770.836	17369.94
771.171	17295.14
771.507	17408.36
771.842	17392.31
772.178	17389.37
772.513	17467.11
772.849	17477.96
773.184	17451.07
773.519	17591.18
773.855	17475.25
774.19	17487.9
774.525	17471.41
774.86	17550.5
775.195	17560.22
775.53	17555.7
775.865	17471.86
776.2	17386.89
776.535	17351.18
776.87	17453.55
777.205	17382.59
777.539	17341.01
777.874	17455.81
778.209	17265.99
778.543	17384.18
778.878	17338.08
779.212	17322.26
779.547	17230.06
779.881	17334.23
780.215	17254.01
780.55	17249.04
780.884	17246.33
781.218	17140.79
781.552	17216.04
781.886	17055.37
782.22	17033
782.554	17050.85
782.888	16900.12
783.222	16901.7
783.556	16799.78
783.889	16821.93
784.223	16723.85
784.557	16773.12
784.89	16793.46
785.224	16739.45
785.557	16702.39
785.891	16492
786.224	16565.21
786.558	16609.05
786.891	16378.78
787.224	16425.1
787.557	16343.07
787.891	16420.81
788.224	16420.59
788.557	16330.64
788.89	16332.68
789.223	16314.37
789.556	16095.17
789.888	16090.65
790.221	16172.46
790.554	16036.41
790.887	16089.75
791.219	15974.72
791.552	15993.48
791.884	15902.86
792.217	15882.07
792.549	15757.55
792.882	15753.48
793.214	15677.33
793.546	15691.11
793.879	15621.06
794.211	15534.73
794.543	15652.92
794.875	15512.13
795.207	15473.94
795.539	15440.95
795.871	15464.68
796.203	15315.3
796.535	15228.07
796.867	15271.01
797.198	15117.12
797.53	15196.89
797.862	15134.52
798.193	15146.72
798.525	14994.63
798.856	15096.55
799.188	14893.85
799.519	14891.81
799.85	14845.71
800.182	14929.55
800.513	14810.01
800.844	14680.29
801.175	14795.09
801.506	14732.04
801.837	14710.8
802.168	14633.74
802.499	14624.47
802.83	14471.48
803.161	14469.22
803.491	14471.48
803.822	14382.45
804.153	14389.9
804.483	14286.86
804.814	14254.99
805.145	14245.05
805.475	14128.67
805.805	14196.91
806.136	14215.67
806.466	14025.17
806.796	14085.73
807.126	13968.45
807.457	14019.97
807.787	13934.1
808.117	13988.78
808.447	13877.83
808.777	13895.91
809.107	13852.07
809.436	13720.77
809.766	13793.08
810.096	13754.44
810.426	13666.99
810.755	13763.93
811.085	13627.66
811.414	13709.7
811.744	13508.57
812.073	13422.47
812.403	13507.22
812.732	13434.22
813.061	13358.07
813.39	13332.98
813.719	13311.74
814.049	13395.35
814.378	13331.17
814.707	13255.02
815.036	13210.27
815.365	13204.17
815.693	13033.1
816.022	13101.35
816.351	13038.98
816.68	12911.07
817.008	13007.34
817.337	12869.27
817.665	12936.61
817.994	12947.23
818.322	12935.48
818.651	12889.38
818.979	12846.22
819.307	12834.01
819.636	12886.89
819.964	12733.9
820.292	12780.45
820.62	12813
820.948	12702.04
821.276	12782.26
821.604	12708.82
821.932	12730.74
822.259	12788.14
822.587	12693.45
822.915	12716.05
823.243	12688.48
823.57	12711.3
823.898	12651.87
824.225	12706.11
824.553	12596.96
824.88	12685.09
825.207	12671.31
825.535	12676.5
825.862	12793.56
826.189	12688.71
826.516	12695.94
826.843	12710.85
827.17	12746.56
827.497	12705.43
827.824	12752.89
828.151	12768.7
828.478	12748.59
828.805	12764.18
829.131	12759.66
829.458	12691.64
829.785	12559.67
830.111	12649.84
830.438	12686.45
830.764	12688.71
831.09	12698.88
831.417	12638.76
831.743	12698.42
832.069	12629.5
832.395	12619.33
832.722	12624.75
833.048	12598.99
833.374	12571.65
833.7	12552.89
834.026	12611.65
834.351	12598.99
834.677	12650.06
835.003	12562.83
835.329	12566.9
835.654	12487.58
835.98	12415.94
836.306	12501.37
836.631	12363.97
836.956	12519.67
837.282	12435.38
837.607	12427.47
837.932	12340.24
838.258	12346.57
838.583	12353.35
838.908	12314.48
839.233	12322.61
839.558	12297.53
839.883	12241.03
840.208	12199.68
840.533	12224.54
840.858	12263.63
841.182	12260.02
841.507	12171.66
841.832	12136.18
842.156	12056.63
842.481	12010.08
842.805	12048.72
843.13	12018.67
843.454	12008.27
843.778	11882.4
844.103	11897.31
844.427	11936.86
844.751	11875.17
845.075	11858.67
845.399	11899.57
845.723	11766.47
846.047	11737.09
846.371	11686.92
846.695	11698.45
847.019	11582.29
847.343	11594.72
847.666	11472.01
847.99	11462.75
848.313	11497.78
848.637	11364.67
848.96	11346.14
849.284	11331.23
849.607	11254.17
849.931	11250.55
850.254	11131.01
850.577	10989.54
850.9	11006.26
851.223	11026.38
851.546	10969.2
851.869	10937.57
852.192	10891.24
852.515	10805.37
852.838	10819.83
853.161	10820.51
853.483	10710
853.806	10683.79
854.129	10672.94
854.451	10668.65
854.774	10562.43
855.096	10515.2
855.419	10535.99
855.741	10485.83
856.063	10390.24
856.385	10476.79
856.708	10426.62
857.03	10371.03
857.352	10283.57
857.674	10293.29
857.996	10240.41
858.318	10201.09
858.64	10185.95
858.961	10166.06
859.283	10098.27
859.605	10116.12
859.926	10179.39
860.248	10086.74
860.57	10023.69
860.891	9988.89
861.212	9980.98
861.534	9928.55
861.855	9924.48
862.176	9966.29
862.498	9945.28
862.819	9850.36
863.14	9819.63
863.461	9785.96
863.782	9799.97
864.103	9781.66
864.424	9764.94
864.745	9827.09
865.065	9781.89
865.386	9740.99
865.707	9725.62
866.027	9740.99
866.348	9658.28
866.668	9689.46
866.989	9676.81
867.309	9585.06
867.63	9578.73
867.95	9559.3
868.27	9548.22
868.59	9575.12
868.91	9529.92
869.23	9527.21
869.55	9471.84
869.87	9532.4
870.19	9472.97
870.51	9478.39
870.83	9456.25
871.15	9391.84
871.469	9388
871.789	9416.7
872.109	9489.24
872.428	9375.57
872.748	9380.77
873.067	9347.32
873.386	9345.74
873.706	9352.07
874.025	9277.5
874.344	9306.42
874.663	9340.32
874.982	9217.38
875.301	9322.01
875.62	9216.03
875.939	9192.53
876.258	9147.1
876.577	9195.46
876.896	9142.13
877.214	9168.57
877.533	9159.31
877.852	9157.5
878.17	9118.63
878.489	9141
878.807	9158.4
879.125	9108.69
879.444	9040.89
879.762	9015.13
880.08	9026.66
880.398	8979.65
880.716	8996.6
881.034	8998.86
881.352	8884.74
881.67	8885.64
881.988	8930.39
882.306	8905.3
882.624	8868.02
882.941	8818.3
883.259	8796.15
883.577	8847.45
883.894	8723.61
884.212	8756.15
884.529	8783.05
884.846	8782.14
885.164	8668.47
885.481	8738.98
885.798	8687.68
886.115	8628.93
886.432	8628.7
886.75	8595.03
887.067	8614.69
887.383	8531.98
887.7	8548.93
888.017	8536.05
888.334	8503.28
888.651	8477.29
888.967	8401.36
889.284	8383.73
889.6	8413.34
889.917	8319.78
890.233	8392.77
890.55	8302.83
890.866	8296.51
891.182	8329.5
891.498	8278.43
891.815	8258.09
892.131	8194.59
892.447	8196.62
892.763	8119.11
893.079	8107.58
893.395	8133.12
893.71	8119.56
894.026	8124.31
894.342	8051.31
894.657	8003.41
894.973	8021.48
895.289	7972.9
895.604	7986.91
895.92	7856.06
896.235	7892.45
896.55	7844.09
896.865	7833.69
897.181	7834.37
897.496	7822.39
897.811	7763.64
898.126	7795.95
898.441	7683.87
898.756	7712.34
899.071	7661.49
899.386	7590.76
899.7	7602.74
900.015	7617.2
900.33	7529.52
900.644	7479.13
900.959	7527.49
901.273	7445.68
901.588	7401.39
901.902	7398
902.216	7393.03
902.531	7352.35
902.845	7322.75
903.159	7295.18
903.473	7288.85
903.787	7231.22
904.101	7214.5
904.415	7199.81
904.729	7169.08
905.042	7152.35
905.356	7064
905.67	7024.22
905.984	7130.43
906.297	6962.98
906.611	7007.95
906.924	6960.27
907.237	6897.22
907.551	6940.61
907.864	6909.42
908.177	6878.69
908.491	6919.59
908.804	6807.28
909.117	6746.72
909.43	6706.49
909.743	6689.32
910.056	6723.21
910.368	6642.31
910.681	6694.29
910.994	6687.51
911.307	6609.54
911.619	6581.3
911.932	6570.9
912.244	6523.44
912.557	6557.79
912.869	6453.84
913.181	6412.26
913.494	6412.94
913.806	6353.51
914.118	6363.9
914.43	6310.79
914.742	6320.51
915.054	6284.58
915.366	6301.98
915.678	6225.82
915.99	6196
916.302	6143.34
916.613	6177.01
916.925	6137.69
917.236	6120.52
917.548	6059.05
917.859	6050.46
918.171	6019.5
918.482	6003.91
918.794	5968.2
919.105	5989.22
919.416	5864.7
919.727	5949.22
920.038	5880.98
920.349	5926.85
920.66	5807.3
920.971	5865.16
921.282	5770.24
921.593	5751.26
921.903	5759.62
922.214	5750.13
922.525	5694.54
922.835	5659.51
923.146	5689.34
923.456	5610.7
923.767	5599.85
924.077	5624.03
924.387	5630.13
924.697	5537.93
925.008	5532.28
925.318	5544.26
925.628	5514.88
925.938	5432.17
926.248	5415
926.558	5423.13
926.867	5427.43
927.177	5351.95
927.487	5337.26
927.796	5269.92
928.106	5282.35
928.416	5300.65
928.725	5315.79
929.034	5231.73
929.344	5224.95
929.653	5224.04
929.962	5144.5
930.271	5147.66
930.581	5162.8
930.89	5118.74
931.199	5080.09
931.508	5076.93
931.817	5008.68
932.125	5062.47
932.434	4990.15
932.743	4967.33
933.051	4924.16
933.36	4889.36
933.669	4878.74
933.977	4866.54
934.286	4890.27
934.594	4903.6
934.902	4820.66
935.21	4848.23
935.519	4835.35
935.827	4792.19
936.135	4744.51
936.443	4657.96
936.751	4703.15
937.059	4743.83
937.367	4667.22
937.674	4694.57
937.982	4652.31
938.29	4592.42
938.597	4629.71
938.905	4564.85
939.213	4580.67
939.52	4555.13
939.827	4526.43
940.135	4482.59
940.442	4483.5
940.749	4456.15
941.056	4470.84
941.363	4425.65
941.67	4389.26
941.977	4406.21
942.284	4325.76
942.591	4397.17
942.898	4317.4
943.205	4335.93
943.511	4256.16
943.818	4311.07
944.125	4226.1
944.431	4199.66
944.738	4250.51
945.044	4182.26
945.35	4168.7
945.657	4178.2
945.963	4163.05
946.269	4107.01
946.575	4140
946.881	4105.2
947.187	4095.94
947.493	4042.61
947.799	4016.17
948.105	4055.03
948.41	4015.26
948.716	3974.13
949.022	3953.79
949.327	3958.09
949.633	3926.9
949.938	3925.55
950.244	3928.03
950.549	3890.97
950.854	3881.93
951.16	3862.5
951.465	3807.81
951.77	3835.83
952.075	3843.74
952.38	3815.04
952.685	3773.69
952.99	3765.1
953.294	3753.35
953.599	3676.29
953.904	3686.91
954.209	3678.77
954.513	3674.03
954.818	3650.75
955.122	3662.5
955.426	3620.24
955.731	3617.98
956.035	3590.19
956.339	3598.78
956.643	3583.41
956.948	3552.22
957.252	3517.42
957.556	3469.97
957.86	3546.12
958.163	3549.29
958.467	3476.97
958.771	3465.9
959.075	3474.26
959.378	3448.27
959.682	3466.58
959.985	3402.62
960.289	3380.48
960.592	3385.67
960.896	3377.54
961.199	3330.53
961.502	3319.69
961.805	3325.11
962.108	3271.33
962.411	3298.67
962.714	3248.28
963.017	3246.24
963.32	3284.66
963.623	3232.01
963.926	3238.33
964.228	3232.91
964.531	3183.42
964.833	3187.03
965.136	3166.7
965.438	3173.02
965.741	3151.1
966.043	3125.57
966.345	3137.77
966.648	3117.43
966.95	3121.27
967.252	3025.91
967.554	3052.35
967.856	3038.34
968.158	3049.86
968.46	3057.55
968.761	3034.04
969.063	2960.15
969.365	2979.81
969.666	2982.75
969.968	2974.84
970.269	2937.32
970.571	2903.2
970.872	2924.44
971.174	2936.19
971.475	2938.45
971.776	2921.28
972.077	2903.43
972.378	2904.1
972.679	2829.76
972.98	2818.91
973.281	2806.03
973.582	2824.11
973.883	2839.02
974.183	2783.2
974.484	2778.46
974.785	2778.23
975.085	2770.77
975.386	2763.09
975.686	2723.77
975.986	2714.5
976.287	2701.17
976.587	2695.3
976.887	2676.99
977.187	2667.5
977.487	2659.14
977.787	2644.68
978.087	2623.21
978.387	2634.06
978.687	2627.5
978.987	2605.58
979.286	2584.11
979.586	2578.92
979.885	2540.05
980.185	2577.79
980.484	2538.92
980.784	2546.15
981.083	2522.42
981.382	2504.11
981.682	2514.96
981.981	2515.19
982.28	2466.6
982.579	2473.83
982.878	2489.88
983.177	2465.47
983.475	2422.54
983.774	2432.7
984.073	2405.81
984.372	2381.63
984.67	2402.2
984.969	2379.37
985.267	2365.59
985.566	2414.4
985.864	2364.46
986.162	2371.24
986.461	2353.38
986.759	2346.6
987.057	2314.29
987.355	2297.57
987.653	2312.03
987.951	2289.66
988.249	2266.16
988.547	2278.81
988.844	2253.05
989.142	2228.19
989.44	2217.79
989.737	2208.53
990.035	2229.77
990.332	2203.11
990.63	2187.06
990.927	2207.17
991.224	2160.62
991.521	2147.97
991.819	2169.66
992.116	2159.49
992.413	2122.88
992.71	2103.22
993.006	2135.09
993.303	2120.4
993.6	2100.28
993.897	2112.71
994.193	2058.02
994.49	2064.35
994.787	2068.87
995.083	2044.01
995.379	2030.68
995.676	2010.79
995.972	2006.73
996.268	1996.11
996.565	1989.33
996.861	2014.64
997.157	1962.21
997.453	1991.36
997.749	1945.26
998.044	1927.86
998.34	1962.89
998.636	1893.96
998.932	1924.24
999.227	1921.76
999.523	1901.87
999.818	1906.16
1000.114	1887.18
1000.409	1866.84
1000.704	1835.88
1001	1870.91
1001.295	1822.78
1001.59	1870.69
1001.885	1836.56
1002.18	1819.39
1002.475	1825.71
1002.77	1812.61
1003.065	1769.22
1003.359	1770.12
1003.654	1769.9
1003.949	1763.8
1004.243	1729.45
1004.538	1728.77
1004.832	1736.45
1005.127	1704.14
1005.421	1716.57
1005.715	1698.49
1006.009	1685.15
1006.304	1722.89
1006.598	1655.78
1006.892	1641.76
1007.186	1628.21
1007.48	1652.84
1007.773	1649
1008.067	1636.12
1008.361	1638.83
1008.655	1615.1
1008.948	1617.36
1009.242	1597.7
1009.535	1594.99
1009.829	1588.66
1010.122	1589.34
1010.415	1569.22
1010.708	1552.95
1011.001	1534.42
1011.295	1543.69
1011.588	1548.43
1011.881	1535.33
1012.173	1499.17
1012.466	1524.48
1012.759	1494.65
1013.052	1491.71
1013.344	1494.65
1013.637	1482.22
1013.93	1465.5
1014.222	1481.54
1014.514	1451.94
1014.807	1439.06
1015.099	1428.66
1015.391	1409
1015.683	1417.82
1015.976	1398.61
1016.268	1396.8
1016.56	1387.76
1016.851	1369
1017.143	1374.88
1017.435	1367.87
1017.727	1335.33
1018.018	1338.72
1018.31	1358.61
1018.602	1334.88
1018.893	1318.84
1019.185	1319.29
1019.476	1309.57
1019.767	1322
1020.058	1274.32
1020.35	1262.34
1020.641	1258.27
1020.932	1288.1
1021.223	1246.29
1021.514	1254.66
1021.804	1268.22
1022.095	1224.37
1022.386	1204.71
1022.677	1208.1
1022.967	1204.26
1023.258	1174.88
1023.548	1206.97
1023.839	1177.82
1024.129	1206.07
1024.419	1165.62
1024.709	1139.63
1025	1152.06
1025.29	1138.5
1025.58	1138.5
1025.87	1122.23
1026.16	1133.08
1026.449	1146.41
1026.739	1139.63
1027.029	1125.85
1027.319	1110.71
1027.608	1114.32
1027.898	1085.17
1028.187	1081.1
1028.477	1081.78
1028.766	1048.79
1029.055	1071.61
1029.344	1059.18
1029.634	1053.98
1029.923	1042.01
1030.212	1037.49
1030.501	1045.4
1030.79	1019.41
1031.078	1037.94
1031.367	989.13
1031.656	1022.8
1031.945	1001.78
1032.233	997.04
1032.522	992.97
1032.81	998.17
1033.099	995
1033.387	973.99
1033.675	955
1033.963	981.22
1034.251	966.75
1034.54	970.14
1034.828	925.17
1035.116	931.73
1035.403	926.53
1035.691	939.64
1035.979	914.55
1036.267	912.29
1036.554	902.12
1036.842	907.55
1037.129	902.58
1037.417	903.93
1037.704	877.04
1037.992	875.23
1038.279	898.96
1038.566	864.84
1038.853	864.84
1039.14	864.84
