Data from hue_210_FLMS001491_00005.txt Node
Date: Tue Feb 07 16:40:41 GMT 2017
User: dcchb
Spectrometer: FLMS00149
Trigger mode: 0
Integration Time (sec): 2.000000E-2
Scans to average: 10
Electric dark correction enabled: true
Nonlinearity correction enabled: false
Boxcar width: 0
XAxis mode: Wavelengths
Number of Pixels in Spectrum: 2048
>>>>>Begin Spectral Data<<<<<
341.393	-17.6
341.776	-17.6
342.16	-17.6
342.543	-48.56
342.927	-60.99
343.31	-69.8
343.693	-84.72
344.077	-65.28
344.46	-74.32
344.843	-52.17
345.226	-31.61
345.61	-33.19
345.993	-12.85
346.376	15.4
346.759	-9.46
347.142	26.24
347.525	46.58
347.908	63.76
348.291	76.41
348.674	97.43
349.057	107.6
349.44	127.03
349.823	162.28
350.206	150.76
350.588	197.99
350.971	188.5
351.354	232.79
351.737	241.83
352.119	252
352.502	278.89
352.884	260.13
353.267	290.42
353.65	296.97
354.032	303.98
354.414	311.66
354.797	316.18
355.179	314.14
355.562	343.07
355.944	327.93
356.326	313.92
356.709	319.79
357.091	331.77
357.473	343.75
357.855	339.68
358.238	342.62
358.62	334.93
359.002	333.35
359.384	329.29
359.766	339.91
360.148	349.17
360.53	341.26
360.912	330.19
361.294	326.35
361.676	345.56
362.057	317.53
362.439	329.74
362.821	313.47
363.203	320.02
363.584	325.9
363.966	319.57
364.348	321.6
364.729	330.87
365.111	324.54
365.493	331.77
365.874	302.62
366.256	289.96
366.637	325.22
367.019	310.53
367.4	317.99
367.781	289.74
368.163	315.73
368.544	292.68
368.925	312.34
369.306	343.07
369.688	341.26
370.069	321.83
370.45	303.07
370.831	309.17
371.212	309.85
371.593	318.21
371.974	322.28
372.355	309.62
372.736	296.97
373.117	324.31
373.498	331.09
373.879	322.28
374.26	304.65
374.641	315.95
375.021	306.91
375.402	315.5
375.783	314.82
376.163	322.28
376.544	313.24
376.925	317.53
377.305	324.31
377.686	321.38
378.066	318.66
378.447	333.8
378.827	329.06
379.208	350.53
379.588	320.47
379.968	336.74
380.349	326.12
380.729	320.92
381.109	336.06
381.489	328.16
381.87	319.12
382.25	343.3
382.63	323.18
383.01	331.32
383.39	343.3
383.77	345.56
384.15	318.66
384.53	322.51
384.91	367.25
385.29	355.95
385.67	361.6
386.049	337.42
386.429	348.49
386.809	338.78
387.189	350.08
387.568	356.63
387.948	348.49
388.328	355.5
388.707	372.67
389.087	361.37
389.466	384.65
389.846	350.3
390.225	380.81
390.605	386.23
390.984	384.88
391.363	366.8
391.743	384.42
392.122	379.68
392.501	379
392.881	381.26
393.26	379
393.639	390.53
394.018	390.07
394.397	372.67
394.776	377.87
395.155	391.43
395.534	379.91
395.913	394.37
396.292	399.11
396.671	397.53
397.05	396.85
397.429	404.99
397.808	409.51
398.186	396.85
398.565	404.31
398.944	401.37
399.323	415.84
399.701	388.49
400.08	417.42
400.458	409.06
400.837	396.18
401.215	434.59
401.594	416.29
401.972	416.29
402.351	426.23
402.729	435.05
403.107	440.92
403.486	447.25
403.864	465.33
404.242	444.31
404.62	442.28
404.999	451.32
405.377	463.74
405.755	450.86
406.133	452.45
406.511	472.11
406.889	486.34
407.267	490.18
407.645	493.8
408.023	486.57
408.401	498.55
408.779	500.58
409.156	508.72
409.534	528.15
409.912	522.27
410.29	550.52
410.667	531.54
411.045	572.22
411.422	571.31
411.8	562.27
412.178	560.69
412.555	601.59
412.933	582.39
413.31	589.62
413.687	612.22
414.065	629.84
414.442	637.75
414.819	634.14
415.197	634.59
415.574	664.87
415.951	651.54
416.328	677.07
416.705	651.76
417.082	694.93
417.46	710.74
417.837	703.74
418.214	694.47
418.591	726.34
418.967	724.98
419.344	738.09
419.721	775.38
420.098	759.56
420.475	768.37
420.852	756.84
421.228	784.64
421.605	787.58
421.982	830.29
422.358	838.65
422.735	828.93
423.111	874.58
423.488	877.29
423.864	904.19
424.241	894.02
424.617	937.63
424.994	946.67
425.37	932.21
425.746	951.87
426.123	978.31
426.499	975.6
426.875	987.12
427.251	1023.05
427.627	1047.23
428.003	1068.02
428.379	1054.01
428.756	1063.73
429.132	1074.58
429.507	1081.13
429.883	1121.35
430.259	1120.9
430.635	1149.83
431.011	1146.66
431.387	1168.13
431.763	1221.24
432.138	1193.67
432.514	1199.32
432.89	1218.08
433.265	1259.43
433.641	1253.78
434.016	1305.76
434.392	1327.68
434.767	1354.34
435.143	1358.86
435.518	1381.46
435.894	1392.99
436.269	1475.92
436.644	1458.07
437.02	1487.9
437.395	1492.87
437.77	1542.36
438.145	1558.41
438.52	1599.99
438.895	1650.83
439.271	1640.89
439.646	1683.6
440.021	1678.4
440.395	1715.92
440.77	1685.18
441.145	1723.6
441.52	1773.99
441.895	1767.21
442.27	1811.28
442.645	1820.77
443.019	1837.27
443.394	1846.31
443.769	1908
444.143	1840.43
444.518	1926.53
444.892	1918.62
445.267	1937.83
445.641	1964.72
446.016	1987.32
446.39	1983.93
446.764	1995.23
447.139	2001.11
447.513	2008.11
447.887	2030.48
448.262	2057.15
448.636	2083.82
449.01	2060.09
449.384	2093.76
449.758	2143.7
450.132	2146.41
450.506	2177.37
450.88	2203.81
451.254	2212.63
451.628	2239.52
452.002	2232.96
452.376	2260.99
452.75	2323.58
453.123	2304.6
453.497	2349.35
453.871	2350.7
454.244	2440.42
454.618	2421.43
454.992	2444.26
455.365	2439.74
455.739	2517.48
456.112	2557.93
456.486	2558.38
456.859	2583.92
457.232	2656.23
457.606	2603.58
457.979	2686.51
458.352	2693.06
458.725	2737.36
459.099	2725.15
459.472	2794.98
459.845	2819.84
460.218	2825.26
460.591	2881.53
460.964	2858.03
461.337	2960.85
461.71	2972.15
462.083	3014.41
462.456	3051.7
462.829	3035.88
463.201	3106.16
463.574	3086.05
463.947	3183.67
464.32	3204.01
464.692	3234.75
465.065	3229.1
465.438	3326.49
465.81	3336.66
466.183	3384.12
466.555	3471.58
466.928	3446.49
467.3	3447.17
467.672	3537.11
468.045	3560.61
468.417	3613.94
468.789	3613.04
469.161	3679.48
469.534	3747.5
469.906	3760.38
470.278	3879.47
470.65	3849.64
471.022	3926.48
471.394	3979.81
471.766	4028.17
472.138	4078.34
472.51	4103.42
472.882	4198.56
473.253	4222.29
473.625	4272.68
473.997	4380.48
474.369	4348.61
474.74	4425.45
475.112	4491.44
475.484	4593.81
475.855	4676.74
476.227	4687.36
476.598	4773.91
476.97	4821.82
477.341	4897.3
477.713	4976.17
478.084	4973.68
478.455	5140.68
478.827	5174.81
479.198	5261.36
479.569	5267.01
479.94	5438.3
480.311	5499.32
480.682	5522.59
481.053	5657.96
481.424	5697.05
481.795	5764.4
482.166	5881.91
482.537	5926.2
482.908	6003.26
483.279	6097.95
483.65	6211.39
484.021	6287.55
484.391	6430.59
484.762	6410.71
485.133	6426.3
485.503	6497.94
485.874	6659.74
486.244	6645.96
486.615	6788.55
486.985	6851.83
487.356	7003.23
487.726	6999.62
488.097	7075.77
488.467	7134.76
488.837	7295.66
489.207	7368.2
489.578	7404.58
489.948	7507.4
490.318	7565.93
490.688	7576.55
491.058	7733.16
491.428	7797.56
491.798	7848.18
492.168	7995.07
492.538	8012.7
492.908	8038.46
493.278	8169.98
493.648	8193.49
494.017	8260.83
494.387	8334.95
494.757	8377.89
495.126	8421.73
495.496	8501.5
495.866	8449.75
496.235	8529.07
496.605	8677.54
496.974	8652.68
497.344	8716.86
497.713	8763.41
498.082	8830.98
498.452	8878.89
498.821	8906.01
499.19	8886.57
499.559	9029.4
499.928	8990.75
500.298	9028.04
500.667	9096.96
501.036	9047.7
501.405	9213.12
501.774	9090.18
502.143	9257.41
502.512	9204.08
502.88	9269.16
503.249	9257.86
503.618	9307.35
503.987	9342.83
504.356	9339.9
504.724	9380.12
505.093	9438.65
505.462	9432.55
505.83	9474.81
506.199	9536.95
506.567	9601.58
506.936	9568.14
507.304	9683.16
507.672	9646.1
508.041	9606.56
508.409	9739.66
508.777	9740.79
509.145	9797.96
509.514	9725.87
509.882	9720.22
510.25	9840
510.618	9812.88
510.986	9837.74
511.354	9887
511.722	9975.36
512.09	9961.12
512.458	10011.06
512.826	9934.46
513.193	9974.23
513.561	9995.92
513.929	10029.6
514.297	10063.49
514.664	10202.47
515.032	10032.31
515.4	10142.59
515.767	10129.03
516.135	10164.51
516.502	10029.37
516.869	10265.52
517.237	10203.6
517.604	10148.91
517.972	10233.88
518.339	10188.46
518.706	10182.36
519.073	10214.67
519.44	10263.49
519.808	10227.56
520.175	10238.18
520.542	10293.99
520.909	10249.7
521.276	10274.33
521.643	10330.15
522.009	10382.13
522.376	10303.49
522.743	10329.93
523.11	10404.05
523.477	10447.89
523.843	10496.48
524.21	10462.58
524.577	10500.09
524.943	10468.23
525.31	10548.45
525.676	10548.9
526.043	10523.37
526.409	10532.63
526.776	10616.02
527.142	10550.71
527.508	10579.86
527.874	10559.98
528.241	10655.34
528.607	10610.82
528.973	10597.94
529.339	10562.69
529.705	10536.93
530.071	10629.13
530.437	10604.04
530.803	10609.47
531.169	10546.64
531.535	10508.68
531.901	10549.81
532.267	10480.66
532.632	10567.43
532.998	10584.61
533.364	10516.14
533.73	10534.21
534.095	10539.64
534.461	10441.11
534.826	10501
535.192	10485.18
535.557	10503.25
535.923	10409.92
536.288	10335.58
536.653	10429.13
537.019	10379.19
537.384	10388.68
537.749	10282.24
538.114	10283.37
538.479	10239.76
538.845	10206.77
539.21	10205.41
539.575	10151.85
539.94	10239.53
540.305	10179.42
540.67	10093.1
541.034	10121.57
541.399	10066.66
541.764	10025.98
542.129	10030.5
542.494	9969.26
542.858	10003.38
543.223	9943.72
543.587	9899.43
543.952	9881.8
544.316	9843.61
544.681	9866.21
545.045	9790.28
545.41	9828.02
545.774	9690.39
546.138	9683.16
546.503	9730.85
546.867	9635.71
547.231	9664.41
547.595	9649.94
547.959	9649.49
548.324	9633.67
548.688	9572.88
549.052	9532.66
549.416	9540.12
549.779	9498.54
550.143	9511.19
550.507	9404.98
550.871	9468.48
551.235	9397.97
551.599	9393.68
551.962	9404.75
552.326	9293.8
552.689	9290.63
553.053	9230.97
553.417	9285.66
553.78	9327.92
554.143	9188.26
554.507	9129.05
554.87	9178.32
555.234	9271.65
555.597	9177.41
555.96	9172.67
556.323	9145.32
556.686	9097.19
557.05	9122.5
557.413	9115.04
557.776	9089.05
558.139	9134.25
558.502	9038.66
558.865	9048.38
559.228	9088.6
559.59	9039.56
559.953	9101.03
560.316	9101.71
560.679	9066.23
561.041	9096.74
561.404	9121.82
561.767	9122.05
562.129	9062.39
562.492	9092.67
562.854	9013.35
563.217	9032.11
563.579	8989.85
563.941	9175.83
564.304	9107.13
564.666	9080.92
565.028	9074.82
565.39	9107.36
565.753	9213.57
566.115	9130.41
566.477	9120.47
566.839	9106.46
567.201	9129.96
567.563	9089.28
567.925	9191.65
568.287	9209.05
568.648	9190.52
569.01	9183.52
569.372	9216.51
569.734	9165.44
570.095	9248.82
570.457	9271.65
570.819	9255.83
571.18	9213.57
571.542	9235.94
571.903	9315.04
572.265	9278.2
572.626	9300.57
572.987	9376.96
573.349	9265.77
573.71	9315.49
574.071	9284.53
574.432	9303.96
574.794	9299.44
575.155	9348.71
575.516	9332.44
575.877	9414.02
576.238	9358.65
576.599	9430.97
576.96	9421.48
577.32	9439.33
577.681	9506.22
578.042	9473.23
578.403	9421.02
578.763	9483.39
579.124	9465.77
579.485	9498.31
579.845	9518.2
580.206	9505.99
580.566	9463.51
580.927	9564.75
581.287	9578.53
581.648	9534.47
582.008	9558.2
582.368	9562.71
582.728	9531.53
583.089	9511.87
583.449	9581.92
583.809	9537.86
584.169	9566.56
584.529	9597.29
584.889	9661.24
585.249	9636.39
585.609	9584.41
585.969	9631.87
586.329	9600.23
586.688	9616.95
587.048	9608.82
587.408	9591.41
587.768	9609.49
588.127	9604.52
588.487	9644.29
588.846	9720.68
589.206	9709.6
589.565	9675.93
589.925	9672.54
590.284	9704.86
590.643	9668.02
591.003	9744.4
591.362	9769.71
591.721	9689.94
592.08	9743.27
592.44	9792.99
592.799	9766.78
593.158	9751.64
593.517	9806.78
593.876	9800.22
594.235	9723.84
594.593	9819.66
594.952	9800.67
595.311	9742.6
595.67	9743.95
596.029	9857.85
596.387	9803.39
596.746	9821.92
597.104	9825.31
597.463	9767.68
597.822	9753.44
598.18	9768.81
598.538	9774.23
598.897	9834.12
599.255	9786.44
599.613	9878.19
599.972	9822.59
600.33	9838.41
600.688	9802.93
601.046	9837.96
601.404	9865.98
601.762	9869.37
602.12	9885.42
602.478	9890.39
602.836	9923.16
603.194	9858.75
603.552	9931.97
603.91	9814.01
604.268	9917.06
604.625	9843.39
604.983	9923.61
605.341	9850.39
605.698	9949.15
606.056	9944.4
606.413	9941.01
606.771	9928.35
607.128	9938.52
607.485	9858.53
607.843	9914.34
608.2	9891.07
608.557	9948.24
608.914	9925.87
609.272	9911.86
609.629	10035.7
609.986	10007.22
610.343	9971.52
610.7	10005.87
611.057	9989.14
611.414	9925.87
611.771	10045.41
612.127	10018.07
612.484	10035.7
612.841	10067.56
613.198	10050.84
613.554	9984.62
613.911	10059.2
614.267	10043.61
614.624	10072.31
614.98	10007.67
615.337	10098.29
615.693	10112.98
616.05	10089.93
616.406	10155.69
616.762	10014.68
617.118	10106.66
617.475	10082.48
617.831	10182.13
618.187	10137.84
618.543	10173.55
618.899	10162.25
619.255	10194.79
619.611	10140.78
619.967	10199.76
620.323	10217.39
620.678	10174.9
621.034	10140.33
621.39	10106.66
621.746	10067.56
622.101	10305.97
622.457	10178.52
622.812	10146.43
623.168	10213.77
623.523	10144.62
623.879	10194.79
624.234	10172.64
624.589	10245.63
624.945	10221.91
625.3	10213.32
625.655	10236.6
626.01	10168.57
626.365	10188.23
626.72	10147.33
627.075	10164.05
627.43	10147.11
627.785	10166.77
628.14	10154.11
628.495	10176.94
628.85	10127.22
629.205	10084.06
629.559	10149.82
629.914	10080.22
630.269	10128.35
630.623	10062.14
630.978	10057.84
631.332	10119.31
631.687	10053.78
632.041	10076.37
632.396	10040.44
632.75	10041.57
633.104	10086.32
633.459	9956.15
633.813	10024.4
634.167	9914.34
634.521	10004.74
634.875	10038.86
635.229	9957.96
635.583	9931.29
635.937	9952.99
636.291	9897.85
636.645	9899.43
636.999	9848.58
637.352	9829.15
637.706	9815.14
638.06	9884.29
638.413	9842.26
638.767	9823.95
639.121	9783.05
639.474	9800.45
639.828	9724.74
640.181	9763.84
640.534	9795.7
640.888	9786.66
641.241	9675.25
641.594	9764.07
641.947	9768.36
642.301	9666.21
642.654	9695.82
643.007	9795.02
643.36	9709.6
643.713	9686.33
644.066	9724.29
644.419	9655.82
644.771	9642.49
645.124	9537.18
645.477	9517.97
645.83	9466.22
646.182	9434.58
646.535	9400.91
646.888	9408.37
647.24	9362.04
647.593	9454.24
647.945	9363.4
648.298	9314.59
648.65	9383.06
649.002	9352.78
649.355	9360.91
649.707	9422.61
650.059	9384.87
650.411	9493.79
650.763	9486.56
651.115	9656.5
651.467	9559.32
651.819	9556.39
652.171	9589.61
652.523	9521.36
652.875	9490.17
653.227	9543.51
653.578	9571.53
653.93	9588.25
654.282	9512.32
654.633	9527.24
654.985	9505.77
655.337	9537.63
655.688	9597.97
656.039	9592.77
656.391	9513
656.742	9525.2
657.094	9558.2
657.445	9512.09
657.796	9538.53
658.147	9527.69
658.498	9594.35
658.849	9543.05
659.2	9586.89
659.551	9594.35
659.902	9628.48
660.253	9527.24
660.604	9604.75
660.955	9574.69
661.306	9565.65
661.656	9552.09
662.007	9614.01
662.358	9606.78
662.708	9621.02
663.059	9632.09
663.409	9544.64
663.76	9567.23
664.11	9602.94
664.461	9664.18
664.811	9574.47
665.161	9605.43
665.511	9559.1
665.862	9625.99
666.212	9603.62
666.562	9650.17
666.912	9579.66
667.262	9579.66
667.612	9603.17
667.962	9616.72
668.312	9576.05
668.662	9582.83
669.011	9543.51
669.361	9545.99
669.711	9525.88
670.06	9566.1
670.41	9567.69
670.76	9524.52
671.109	9613.33
671.459	9507.8
671.808	9561.81
672.157	9562.26
672.507	9431.42
672.856	9502.6
673.205	9462.38
673.554	9582.83
673.904	9510.51
674.253	9560.91
674.602	9513.45
674.951	9403.4
675.3	9327.47
675.649	9530.4
675.998	9564.3
676.346	9486.56
676.695	9536.27
677.044	9390.52
677.393	9435.03
677.741	9417.41
678.09	9433.23
678.438	9434.58
678.787	9395.94
679.135	9356.62
679.484	9296.96
679.832	9381.25
680.181	9343.29
680.529	9326.11
680.877	9275.94
681.225	9209.5
681.573	9354.81
681.922	9260.12
682.27	9267.58
682.618	9252.89
682.966	9182.61
683.314	9184.42
683.661	9176.51
684.009	9128.6
684.357	9101.03
684.705	9075.04
685.053	9152.1
685.4	9054.48
685.748	9035.27
686.095	9002.96
686.443	8978.32
686.79	8953.92
687.138	8987.36
687.485	8943.97
687.832	8902.39
688.18	8936.29
688.527	8899.46
688.874	8813.58
689.221	8807.93
689.568	8835.73
689.915	8789.85
690.262	8798.89
690.609	8750.08
690.956	8746.24
691.303	8627.37
691.65	8652
691.997	8673.7
692.344	8567.03
692.69	8581.72
693.037	8511.22
693.383	8447.94
693.73	8513.48
694.077	8415.17
694.423	8438.45
694.769	8434.16
695.116	8388.28
695.462	8346.25
695.808	8371.56
696.155	8358.23
696.501	8244.33
696.847	8308.74
697.193	8189.42
697.539	8265.12
697.885	8159.14
698.231	8160.27
698.577	8149.87
698.923	8059.93
699.269	7991
699.614	7995.3
699.96	7994.85
700.306	7991.23
700.651	7905.36
700.997	7923.44
701.342	7875.75
701.688	7822.65
702.033	7911.91
702.379	7849.31
702.724	7745.81
703.069	7793.04
703.415	7654.06
703.76	7687.06
704.105	7664.01
704.45	7674.63
704.795	7635.99
705.14	7645.25
705.485	7563.45
705.83	7626.04
706.175	7504.69
706.52	7522.09
706.865	7514.41
707.209	7458.14
707.554	7413.84
707.899	7443.45
708.243	7390.79
708.588	7403.9
708.932	7323.23
709.277	7329.78
709.621	7336.78
709.966	7301.53
710.31	7304.47
710.654	7214.98
710.998	7223.12
711.342	7292.27
711.687	7222.89
712.031	7147.86
712.375	7143.57
712.719	7151.48
713.063	7149.9
713.407	7107.86
713.75	7130.01
714.094	7131.59
714.438	7042.78
714.782	7076.68
715.125	7066.06
715.469	7112.38
715.812	7048.2
716.156	6944.7
716.499	7006.62
716.843	6947.87
717.186	6957.13
717.53	6942.9
717.873	6969.11
718.216	6922.33
718.559	6953.97
718.902	6840.3
719.246	6894.76
719.589	6831.49
719.932	6842.56
720.275	6831.26
720.617	6818.83
720.96	6855.67
721.303	6822
721.646	6800.75
721.989	6798.27
722.331	6788.32
722.674	6788.32
723.016	6808.21
723.359	6772.51
723.701	6820.19
724.044	6757.14
724.386	6732.28
724.729	6803.01
725.071	6746.74
725.413	6734.54
725.755	6749.91
726.097	6735.67
726.439	6673.53
726.782	6683.02
727.124	6763.01
727.465	6664.03
727.807	6621.32
728.149	6662.23
728.491	6647.76
728.833	6666.97
729.175	6703.35
729.516	6685.28
729.858	6680.53
730.199	6659.74
730.541	6728.21
730.882	6648.67
731.224	6684.6
731.565	6659.97
731.906	6625.62
732.248	6630.59
732.589	6598.95
732.93	6647.76
733.271	6623.58
733.612	6632.17
733.953	6679.4
734.294	6627.42
734.635	6601.44
734.976	6668.55
735.317	6600.98
735.658	6604.37
735.999	6656.8
736.339	6615.67
736.68	6715.11
737.021	6648.67
737.361	6631.04
737.702	6694.54
738.042	6671.72
738.383	6713.07
738.723	6664.94
739.063	6735.9
739.404	6699.74
739.744	6676.46
740.084	6725.05
740.424	6744.48
740.764	6672.4
741.104	6792.62
741.444	6744.03
741.784	6812.05
742.124	6783.35
742.464	6847.53
742.804	6819.74
743.143	6864.48
743.483	6843.92
743.823	6820.64
744.162	6874.2
744.502	6940.18
744.841	6906.29
745.181	6986.06
745.52	6989.45
745.86	7048.43
746.199	7100.41
746.538	7089.33
746.877	7158.26
747.216	7207.07
747.556	7149.44
747.895	7222.66
748.234	7304.92
748.573	7338.59
748.911	7351.93
749.25	7405.71
749.589	7436.22
749.928	7554.86
750.267	7616.78
750.605	7711.01
750.944	7759.6
751.283	7768.19
751.621	7922.08
751.96	7982.87
752.298	8079.82
752.636	8145.8
752.975	8213.37
753.313	8330.66
753.651	8458.34
753.989	8511.22
754.327	8607.03
754.666	8709.63
755.004	8839.34
755.342	8958.89
755.679	9126.12
756.017	9219.22
756.355	9443.62
756.693	9482.94
757.031	9675.03
757.368	9757.29
757.706	9959.31
758.044	10071.85
758.381	10220.1
758.719	10395.46
759.056	10584.38
759.394	10775.56
759.731	10858.5
760.068	11003.35
760.405	11231.15
760.743	11388.43
761.08	11597.92
761.417	11727.86
761.754	11868.64
762.091	12035.64
762.428	12189.76
762.765	12367.16
763.102	12633.82
763.438	12734.61
763.775	12943.87
764.112	13060.02
764.449	13320.36
764.785	13430.86
765.122	13641.48
765.458	13726
765.795	13920.79
766.131	14125.08
766.467	14255.25
766.804	14402.59
767.14	14452.08
767.476	14683.26
767.812	14841.9
768.148	14971.84
768.485	15067.65
768.821	15172.28
769.157	15355.56
769.492	15594.19
769.828	15696.56
770.164	15678.49
770.5	15903.34
770.836	16047.06
771.171	16087.97
771.507	16208.19
771.842	16230.79
772.178	16365.7
772.513	16514.85
772.849	16685.69
773.184	16734.73
773.519	16812.47
773.855	16908.28
774.19	17076.42
774.525	17002.97
774.86	17214.72
775.195	17318.22
775.53	17284.32
775.865	17314.38
776.2	17353.92
776.535	17371.1
776.87	17521.6
777.205	17583.07
777.539	17579.68
777.874	17706.91
778.209	17706.68
778.543	17689.73
778.878	17686.79
779.212	17820.12
779.547	17789.39
779.881	17943.51
780.215	17866.23
780.55	17967.92
780.884	17986
781.218	17924.08
781.552	18049.95
781.886	17960.69
782.22	18039.55
782.554	18010.18
782.888	17962.04
783.222	17948.03
783.556	17972.66
783.889	17960.01
784.223	17842.27
784.557	17893.57
784.89	18028.48
785.224	17847.47
785.557	17858.09
785.891	17986.9
786.224	17910.52
786.558	18041.81
786.891	17821.93
787.224	17822.61
787.557	17850.63
787.891	17851.08
788.224	17878.65
788.557	17881.82
788.89	17868.94
789.223	17845.66
789.556	17815.61
789.888	17766.57
790.221	17732.67
790.554	17571.09
790.887	17608.38
791.219	17560.7
791.552	17621.49
791.884	17556.85
792.217	17589.62
792.549	17528.15
792.882	17519.12
793.214	17412.68
793.546	17506.46
793.879	17272.34
794.211	17292
794.543	17428.27
794.875	17338.56
795.207	17405.67
795.539	17264.43
795.871	17430.3
796.203	17256.52
796.535	17235.51
796.867	17120.03
797.198	17096.53
797.53	17079.13
797.862	17025.8
798.193	17101.27
798.525	16951.45
798.856	16937.89
799.188	16687.27
799.519	16709.42
799.85	16669.42
800.182	16745.35
800.513	16765.24
800.844	16649.76
801.175	16725.69
801.506	16676.88
801.837	16612.7
802.168	16580.38
802.499	16445.7
802.83	16469.2
803.161	16461.74
803.491	16414.29
803.822	16417
804.153	16397.79
804.483	16286.38
804.814	16138.59
805.145	16201.64
805.475	16167.74
805.805	16091.81
806.136	16141.52
806.466	16125.93
806.796	16156.44
807.126	16029.21
807.457	15981.53
807.787	15872.15
808.117	15973.85
808.447	15802.55
808.777	15939.95
809.107	15830.8
809.436	15860.4
809.766	15763.23
810.096	15776.34
810.426	15743.8
810.755	15713.97
811.085	15648.88
811.414	15638.04
811.744	15532.5
812.073	15535.21
812.403	15499.96
812.732	15443.24
813.061	15444.59
813.39	15319.63
813.719	15308.1
814.049	15481.43
814.378	15389
814.707	15324.82
815.036	15251.83
815.365	15262.9
815.693	15072.4
816.022	15145.62
816.351	15148.1
816.68	15003.25
817.008	15066.98
817.337	15005.74
817.665	14916.02
817.994	14978.39
818.322	14951.27
818.651	14888
818.979	14809.13
819.307	14882.35
819.636	14979.97
819.964	14796.48
820.292	14862.01
820.62	14753.31
820.948	14769.58
821.276	14789.24
821.604	14881.9
821.932	14785.85
822.259	14826.53
822.587	14850.49
822.915	14773.43
823.243	14771.39
823.57	14724.84
823.898	14780.43
824.225	14759.64
824.553	14732.52
824.88	14826.53
825.207	14880.77
825.535	14758.96
825.862	14807.1
826.189	14784.27
826.516	14840.32
826.843	14944.27
827.17	14825.63
827.497	14789.47
827.824	14950.14
828.151	14847.55
828.478	14773.2
828.805	14917.6
829.131	14768.23
829.458	14768.45
829.785	14692.98
830.111	14815.46
830.438	14919.64
830.764	14847.77
831.09	14897.26
831.417	14822.01
831.743	14882.57
832.069	14769.58
832.395	14817.94
832.722	14802.35
833.048	14766.42
833.374	14780.2
833.7	14698.17
834.026	14776.59
834.351	14805.06
834.677	14664.5
835.003	14764.16
835.329	14752.18
835.654	14625.86
835.98	14596.03
836.306	14691.62
836.631	14576.37
836.956	14638.97
837.282	14593.54
837.607	14523.94
837.932	14491.85
838.258	14521.45
838.583	14469.48
838.908	14452.76
839.233	14403.72
839.558	14412.08
839.883	14419.54
840.208	14372.31
840.533	14358.07
840.858	14345.87
841.182	14349.03
841.507	14319.88
841.832	14224.74
842.156	14219.32
842.481	14181.12
842.805	14128.92
843.13	14097.96
843.454	14160.79
843.778	14003.28
844.103	14069.49
844.427	14045.53
844.751	13947.91
845.075	13944.07
845.399	13912.88
845.723	13896.61
846.047	13810.74
846.371	13736.62
846.695	13758.54
847.019	13677.86
847.343	13563.51
847.666	13542.27
847.99	13488.71
848.313	13499.79
848.637	13349.73
848.96	13348.15
849.284	13415.04
849.607	13212.11
849.931	13236.97
850.254	13103.86
850.577	13045.33
850.9	12950.42
851.223	12901.61
851.546	12913.36
851.869	12820.93
852.192	12843.53
852.515	12732.8
852.838	12743.65
853.161	12678.79
853.483	12594.27
853.806	12574.61
854.129	12551.34
854.451	12529.19
854.774	12416.42
855.096	12393.37
855.419	12363.77
855.741	12383.21
856.063	12316.31
856.385	12304.34
856.708	12256.43
857.03	12149.99
857.352	12210.78
857.674	12046.94
857.996	12093.04
858.318	11940.96
858.64	12045.59
858.961	11950
859.283	11933.27
859.605	11864.58
859.926	11912.71
860.248	11828.87
860.57	11870.45
860.891	11847.17
861.212	11729.21
861.534	11731.02
861.855	11707.97
862.176	11707.29
862.498	11678.59
862.819	11654.86
863.14	11576.67
863.461	11574.41
863.782	11568.54
864.103	11604.92
864.424	11512.72
864.745	11565.83
865.065	11500.06
865.386	11471.59
865.707	11421.87
866.027	11438.37
866.348	11386.62
866.668	11392.72
866.989	11413.51
867.309	11246.51
867.63	11375.32
867.95	11366.28
868.27	11249.45
868.59	11278.38
868.91	11203.12
869.23	11197.93
869.55	11155.67
869.87	11263.46
870.19	11222.56
870.51	11179.85
870.83	11157.93
871.15	11145.95
871.469	11123.35
871.789	11148.89
872.109	11102.79
872.428	11055.78
872.748	11031.6
873.067	11011.72
873.386	11054.88
873.706	10952.51
874.025	10910.7
874.344	10873.64
874.663	10969.23
874.982	10961.1
875.301	10922.68
875.62	10835
875.939	10793.64
876.258	10827.54
876.577	10801.1
876.896	10837.26
877.214	10813.76
877.533	10814.21
877.852	10757.71
878.17	10759.52
878.489	10706.41
878.807	10723.14
879.125	10640.2
879.444	10688.56
879.762	10610.37
880.08	10645.17
880.398	10567.66
880.716	10562.69
881.034	10580.54
881.352	10549.13
881.67	10481.79
881.988	10514.55
882.306	10445.86
882.624	10433.43
882.941	10475.23
883.259	10342.36
883.577	10290.61
883.894	10402.47
884.212	10393.43
884.529	10256.26
884.846	10212.42
885.164	10277.95
885.481	10235.69
885.798	10304.84
886.115	10182.13
886.432	10167.44
886.75	10127.22
887.067	10107.56
887.383	10058.07
887.7	10095.58
888.017	10056.49
888.334	10095.36
888.651	10002.25
888.967	9957.96
889.284	9964.96
889.6	9911.86
889.917	9805.65
890.233	9827.34
890.55	9797.51
890.866	9744.63
891.182	9777.62
891.498	9748.25
891.815	9698.76
892.131	9724.07
892.447	9696.04
892.763	9634.13
893.079	9572.88
893.395	9591.87
893.71	9553
894.026	9502.38
894.342	9491.08
894.657	9445.43
894.973	9437.29
895.289	9451.98
895.604	9350.29
895.92	9277.75
896.235	9291.99
896.55	9291.76
896.865	9231.65
897.181	9246.79
897.496	9251.54
897.811	9119.56
898.126	9119.11
898.441	9087.92
898.756	9046.57
899.071	8996.85
899.386	9016.74
899.7	8937.42
900.015	8876.63
900.33	8802.51
900.644	8851.77
900.959	8846.12
901.273	8800.02
901.588	8739.46
901.902	8681.61
902.216	8625.79
902.531	8665.11
902.845	8601.61
903.159	8602.97
903.473	8571.55
903.787	8547.83
904.101	8471.9
904.415	8439.81
904.729	8438.9
905.042	8352.8
905.356	8368.4
905.67	8367.27
905.984	8375.85
906.297	8314.84
906.611	8247.95
906.924	8264.44
907.237	8207.5
907.551	8179.25
907.864	8095.18
908.177	7999.82
908.491	8092.47
908.804	8024.9
909.117	7900.39
909.43	7912.59
909.743	7859.48
910.056	7867.39
910.368	7798.92
910.681	7789.88
910.994	7734.74
911.307	7757.56
911.619	7681.86
911.932	7715.98
912.244	7620.39
912.557	7599.38
912.869	7515.08
913.181	7522.54
913.494	7596.44
913.806	7479.15
914.118	7469.66
914.43	7431.92
914.742	7403.68
915.054	7328.65
915.366	7327.07
915.678	7287.07
915.99	7213.17
916.302	7270.12
916.613	7124.13
916.925	7181.99
917.236	7121.65
917.548	7110.12
917.859	7178.6
918.171	7093.63
918.482	7027.41
918.794	7005.95
919.105	6963.91
919.416	6948.55
919.727	6970.69
920.038	6891.6
920.349	6873.52
920.66	6826.06
920.971	6813.18
921.282	6781.54
921.593	6725.95
921.903	6789.23
922.214	6706.52
922.525	6693.41
922.835	6610.02
923.146	6630.59
923.456	6579.74
923.767	6580.87
924.077	6532.29
924.387	6494.55
924.697	6447.32
925.008	6419.97
925.318	6390.59
925.628	6401.89
925.938	6372.52
926.248	6345.62
926.558	6308.79
926.867	6304.72
927.177	6266.3
927.487	6199.87
927.796	6199.19
928.106	6171.17
928.416	6179.75
928.725	6128.91
929.034	6118.06
929.344	6089.13
929.653	6060.43
929.962	6065.18
930.271	5984.5
930.581	5965.52
930.89	5947.89
931.199	5877.39
931.508	5906.31
931.817	5921.23
932.125	5897.95
932.434	5862.02
932.743	5776.83
933.051	5826.32
933.36	5740.67
933.669	5779.09
933.977	5714.23
934.286	5719.43
934.594	5733.21
934.902	5681.69
935.21	5608.92
935.519	5633.78
935.827	5591.29
936.135	5561.92
936.443	5590.84
936.751	5573.44
937.059	5500.9
937.367	5486.66
937.674	5467
937.982	5430.62
938.29	5388.59
938.597	5407.12
938.905	5326.89
939.213	5318.08
939.52	5306.1
939.827	5282.15
940.135	5278.53
940.442	5239.44
940.749	5214.13
941.056	5252.55
941.363	5179.1
941.67	5165.77
941.977	5138.42
942.284	5069.95
942.591	5131.87
942.898	5050.06
943.205	5065.43
943.511	5030.4
943.818	5029.73
944.125	4956.28
944.431	4904.31
944.738	4957.64
945.044	4903.18
945.35	4892.55
945.657	4883.52
945.963	4890.07
946.269	4884.87
946.575	4854.36
946.881	4751.54
947.187	4763.29
947.493	4760.58
947.799	4731.66
948.105	4701.83
948.41	4719.68
948.716	4709.06
949.022	4691.43
949.327	4665.44
949.633	4631.77
949.938	4617.53
950.244	4587.93
950.549	4539.34
950.854	4536.86
951.16	4544.77
951.465	4539.12
951.77	4523.3
952.075	4464.77
952.38	4442.17
952.685	4407.37
952.99	4372.12
953.294	4389.07
953.599	4361.04
953.904	4325.56
954.209	4299.12
954.513	4322.85
954.818	4258.67
955.122	4245.79
955.426	4238.33
955.731	4215.28
956.035	4218.45
956.339	4213.93
956.643	4220.03
956.948	4167.15
957.252	4167.15
957.556	4142.29
957.86	4132.35
958.163	4089.86
958.467	4039.02
958.771	4072.46
959.075	4016.65
959.378	4013.03
959.682	4003.31
959.985	4009.87
960.289	3994.05
960.592	3972.58
960.896	3935.97
961.199	3956.08
961.502	3895.75
961.805	3925.12
962.108	3837.89
962.411	3872.24
962.714	3850.77
963.017	3839.7
963.32	3839.93
963.623	3813.26
963.926	3798.8
964.228	3786.37
964.531	3722.19
964.833	3714.96
965.136	3663.66
965.438	3689.42
965.741	3660.27
966.043	3693.94
966.345	3686.03
966.648	3635.86
966.95	3555.87
967.252	3567.62
967.554	3599.93
967.856	3592.02
968.158	3543.66
968.46	3510.67
968.761	3532.59
969.063	3526.94
969.365	3505.02
969.666	3532.36
969.968	3452.59
970.269	3480.84
970.571	3416.44
970.872	3406.04
971.174	3409.66
971.475	3422.31
971.776	3387.51
972.077	3363.1
972.378	3373.27
972.679	3351.58
972.98	3351.8
973.281	3277
973.582	3261.41
973.883	3284.69
974.183	3262.32
974.484	3232.71
974.785	3207.85
975.085	3216.21
975.386	3202.2
975.686	3205.14
975.986	3166.95
976.287	3171.47
976.587	3133.51
976.887	3136.67
977.187	3155.2
977.487	3143.22
977.787	3092.83
978.087	3082.21
978.387	3066.84
978.687	3060.06
978.987	3032.72
979.286	3018.71
979.586	3021.19
979.885	2980.51
980.185	2973.96
980.484	2957.69
980.784	2945.49
981.083	2915.66
981.382	2933.06
981.682	2906.39
981.981	2927.41
982.28	2895.09
982.579	2906.39
982.878	2851.25
983.177	2810.35
983.475	2846.73
983.774	2833.63
984.073	2831.14
984.372	2814.19
984.67	2775.1
984.969	2806.96
985.267	2781.42
985.566	2777.81
985.864	2728.54
986.162	2718.83
986.461	2700.52
986.759	2689
987.057	2695.1
987.355	2682.9
987.653	2667.75
987.951	2665.27
988.249	2625.95
988.547	2634.76
988.844	2614.87
989.142	2609.9
989.44	2580.3
989.737	2569.9
990.035	2544.82
990.332	2579.17
990.63	2553.86
990.927	2543.92
991.224	2530.58
991.521	2506.18
991.819	2523.8
992.116	2475.67
992.413	2477.25
992.71	2458.72
993.006	2457.14
993.303	2436.12
993.6	2428.89
993.897	2403.81
994.193	2448.55
994.49	2365.39
994.787	2370.81
995.083	2381.66
995.379	2351.6
995.676	2346.63
995.972	2342.11
996.268	2344.37
996.565	2309.8
996.861	2320.87
997.157	2281.55
997.453	2254.21
997.749	2255.34
998.044	2244.04
998.34	2234.55
998.636	2227.31
998.932	2203.13
999.227	2224.38
999.523	2210.82
999.818	2200.42
1000.114	2166.98
1000.409	2165.62
1000.704	2158.62
1001	2133.76
1001.295	2114.55
1001.59	2092.4
1001.885	2085.85
1002.18	2097.6
1002.475	2081.78
1002.77	2074.78
1003.065	2062.35
1003.359	2050.37
1003.654	2031.39
1003.949	2002.01
1004.243	2013.76
1004.538	1992.52
1004.832	1999.98
1005.127	1989.35
1005.421	1952.97
1005.715	1989.13
1006.009	1928.11
1006.304	1936.47
1006.598	1939.64
1006.892	1916.59
1007.186	1903.26
1007.48	1877.04
1007.773	1864.61
1008.067	1882.01
1008.361	1876.36
1008.655	1852.18
1008.948	1840.43
1009.242	1822.81
1009.535	1882.69
1009.829	1808.34
1010.122	1781.9
1010.415	1756.37
1010.708	1774.22
1011.001	1784.61
1011.295	1765.86
1011.588	1736.25
1011.881	1725.63
1012.173	1713.2
1012.466	1730.6
1012.759	1705.75
1013.052	1680.44
1013.344	1684.96
1013.637	1699.42
1013.93	1706.2
1014.222	1686.99
1014.514	1683.37
1014.807	1647.89
1015.099	1628.91
1015.391	1630.49
1015.683	1618.97
1015.976	1612.64
1016.268	1571.74
1016.56	1557.5
1016.851	1563.83
1017.143	1571.96
1017.435	1542.36
1017.727	1541
1018.018	1534.68
1018.31	1556.15
1018.602	1534.9
1018.893	1510.5
1019.185	1474.11
1019.476	1479.76
1019.767	1498.07
1020.058	1485.86
1020.35	1475.02
1020.641	1453.1
1020.932	1420.1
1021.223	1467.79
1021.514	1411.06
1021.804	1417.17
1022.095	1386.43
1022.386	1383.27
1022.677	1398.64
1022.967	1363.38
1023.258	1356.6
1023.548	1342.82
1023.839	1351.41
1024.129	1358.18
1024.419	1349.15
1024.709	1320.22
1025	1313.44
1025.29	1281.8
1025.58	1317.96
1025.87	1285.19
1026.16	1258.75
1026.449	1244.97
1026.739	1252.42
1027.029	1259.66
1027.319	1232.09
1027.608	1267.11
1027.898	1255.81
1028.187	1188.25
1028.477	1209.26
1028.766	1197.74
1029.055	1197.96
1029.344	1185.31
1029.634	1183.5
1029.923	1180.56
1030.212	1175.14
1030.501	1133.11
1030.79	1177.62
1031.078	1148.7
1031.367	1112.54
1031.656	1107.12
1031.945	1133.33
1032.233	1104.18
1032.522	1103.5
1032.81	1118.19
1033.099	1101.02
1033.387	1078.19
1033.675	1093.33
1033.963	1091.52
1034.251	1079.77
1034.54	1044.29
1034.828	1066.44
1035.116	1054.01
1035.403	1058.98
1035.691	1051.07
1035.979	1031.87
1036.267	1052.66
1036.554	1013.79
1036.842	995.26
1037.129	1003.84
1037.417	1011.98
1037.704	984.86
1037.992	971.98
1038.279	996.84
1038.566	982.15
1038.853	982.15
1039.14	982.15
