Data from hue_260_FLMS001491_00018.txt Node
Date: Tue Feb 07 15:58:39 GMT 2017
User: dcchb
Spectrometer: FLMS00149
Trigger mode: 0
Integration Time (sec): 2.000000E-2
Scans to average: 10
Electric dark correction enabled: true
Nonlinearity correction enabled: false
Boxcar width: 0
XAxis mode: Wavelengths
Number of Pixels in Spectrum: 2048
>>>>>Begin Spectral Data<<<<<
341.393	-7.91
341.776	-7.91
342.16	-7.91
342.543	-49.26
342.927	-88.36
343.31	-56.5
343.693	-86.55
344.077	-59.66
344.46	-60.56
344.843	-41.81
345.226	-42.26
345.61	-32.77
345.993	-25.76
346.376	-15.14
346.759	13.11
347.142	25.08
347.525	58.76
347.908	47.23
348.291	74.8
348.674	100.79
349.057	101.24
349.44	120
349.823	141.69
350.206	164.74
350.588	181.46
350.971	192.99
351.354	232.31
351.737	219.66
352.119	240.45
352.502	238.64
352.884	265.53
353.267	267.79
353.65	291.07
354.032	277.96
354.414	280.67
354.797	302.14
355.179	303.72
355.562	298.3
355.944	312.76
356.326	309.6
356.709	327.9
357.091	328.8
357.473	348.01
357.855	322.03
358.238	348.01
358.62	319.99
359.002	328.35
359.384	319.09
359.766	319.09
360.148	334.45
360.53	334.68
360.912	337.84
361.294	318.64
361.676	320.44
362.057	332.42
362.439	333.1
362.821	319.99
363.203	319.54
363.584	307.11
363.966	308.01
364.348	298.75
364.729	303.49
365.111	311.4
365.493	319.99
365.874	323.38
366.256	311.63
366.637	300.56
367.019	317.05
367.4	303.04
367.781	313.89
368.163	297.17
368.544	293.78
368.925	293.33
369.306	313.21
369.688	317.96
370.069	299.65
370.45	303.49
370.831	312.99
371.212	308.47
371.593	306.88
371.974	298.3
372.355	298.3
372.736	290.84
373.117	303.49
373.498	313.66
373.879	310.27
374.26	318.86
374.641	310.05
375.021	318.41
375.402	312.08
375.783	315.7
376.163	317.28
376.544	311.18
376.925	316.38
377.305	322.7
377.686	319.99
378.066	323.61
378.447	307.56
378.827	318.18
379.208	332.87
379.588	293.78
379.968	303.72
380.349	313.66
380.729	324.51
381.109	343.95
381.489	334.91
381.87	329.71
382.25	307.11
382.63	344.17
383.01	340.1
383.39	332.42
383.77	335.13
384.15	327.67
384.53	319.99
384.91	333.78
385.29	330.84
385.67	340.56
386.049	338.97
386.429	356.37
386.809	333.55
387.189	355.92
387.568	337.62
387.948	357.5
388.328	350.5
388.707	352.99
389.087	362.25
389.466	359.09
389.846	336.49
390.225	348.01
390.605	356.15
390.984	360.22
391.363	372.65
391.743	374.45
392.122	375.36
392.501	363.38
392.881	366.09
393.26	357.28
393.639	368.58
394.018	378.3
394.397	380.1
394.776	343.95
395.155	372.42
395.534	379.2
395.913	385.98
396.292	394.79
396.671	397.96
397.05	397.05
397.429	399.54
397.808	396.6
398.186	380.55
398.565	403.15
398.944	386.43
399.323	402.7
399.701	391.85
400.08	415.36
400.458	404.06
400.837	405.87
401.215	410.84
401.594	429.14
401.972	410.84
402.351	393.44
402.729	421.23
403.107	428.92
403.486	421.01
403.864	436.37
404.242	443.6
404.62	434.34
404.999	450.61
405.377	454.68
405.755	442.47
406.133	459.87
406.511	446.99
406.889	470.27
407.267	465.98
407.645	454
408.023	447.22
408.401	496.03
408.779	484.28
409.156	491.51
409.534	473.89
409.912	492.64
410.29	506.88
410.667	505.3
411.045	532.42
411.422	501
411.8	494.68
412.178	537.84
412.555	536.94
412.933	528.35
413.31	555.92
413.687	553.66
414.065	559.76
414.442	580.78
414.819	598.18
415.197	584.39
415.574	596.14
415.951	593.88
416.328	600.89
416.705	603.37
417.082	615.8
417.46	618.06
417.837	647.89
418.214	639.53
418.591	632.07
418.967	635.92
419.344	656.93
419.721	668.68
420.098	664.39
420.475	700.77
420.852	665.75
421.228	715.01
421.605	723.82
421.982	737.83
422.358	713.65
422.735	737.83
423.111	746.2
423.488	753.43
423.864	764.05
424.241	795.91
424.617	796.36
424.994	797.49
425.37	833.88
425.746	813.31
426.123	834.33
426.499	839.75
426.875	855.8
427.251	856.47
427.627	883.14
428.003	888.34
428.379	914.55
428.756	932.63
429.132	911.61
429.507	921.33
429.883	932.63
430.259	946.42
430.635	956.59
431.011	972.86
431.387	985.74
431.763	1016.24
432.138	1008.11
432.514	1031.61
432.89	1026.19
433.265	1038.84
433.641	1082.68
434.016	1073.87
434.392	1098.73
434.767	1149.12
435.143	1129.69
435.518	1160.87
435.894	1190.25
436.269	1178.95
436.644	1223.47
437.02	1222.57
437.395	1213.98
437.77	1251.72
438.145	1248.55
438.52	1289.68
438.895	1328.55
439.271	1294.2
439.646	1338.04
440.021	1347.99
440.395	1353.86
440.77	1328.78
441.145	1391.38
441.52	1406.29
441.895	1386.86
442.27	1423.24
442.645	1430.92
443.019	1447.42
443.394	1465.27
443.769	1501.43
444.143	1447.87
444.518	1480.87
444.892	1501.43
445.267	1514.54
445.641	1504.14
446.016	1535.78
446.39	1545.72
446.764	1547.98
447.139	1565.38
447.513	1561.31
447.887	1586.62
448.262	1588.43
448.636	1618.71
449.01	1643.35
449.384	1639.5
449.758	1661.2
450.132	1679.96
450.506	1693.51
450.88	1682.22
451.254	1682.44
451.628	1712.27
452.002	1735.32
452.376	1752.5
452.75	1767.64
453.123	1776.9
453.497	1825.04
453.871	1822.32
454.244	1851.48
454.618	1852.83
454.992	1846.51
455.365	1864.36
455.739	1947.52
456.112	1905.94
456.486	1920.63
456.859	1971.7
457.232	2009.44
457.606	1996.11
457.979	2021.42
458.352	2036.33
458.725	2097.57
459.099	2076.33
459.472	2092.6
459.845	2116.55
460.218	2167.63
460.591	2157.91
460.964	2202.43
461.337	2217.12
461.71	2250.34
462.083	2286.27
462.456	2276.32
462.829	2270.67
463.201	2353.84
463.574	2341.18
463.947	2379.6
464.32	2399.03
464.692	2429.77
465.065	2475.87
465.438	2480.16
465.81	2490.1
466.183	2533.04
466.555	2583.43
466.928	2564.9
467.3	2564
467.672	2632.25
468.045	2709.76
468.417	2698.01
468.789	2685.58
469.161	2748.63
469.534	2755.18
469.906	2825.24
470.278	2844.67
470.65	2911.79
471.022	2939.81
471.394	2961.28
471.766	2986.59
472.138	3018.9
472.51	3041.5
472.882	3103.42
473.253	3134.61
473.625	3182.74
473.997	3252.8
474.369	3275.85
474.74	3307.94
475.112	3338.67
475.484	3395.62
475.855	3430.64
476.227	3419.12
476.598	3522.17
476.97	3566.69
477.341	3637.19
477.713	3622.05
478.084	3691.88
478.455	3765.32
478.827	3802.84
479.198	3890.97
479.569	3892.55
479.94	3985.43
480.311	4019.56
480.682	4076.73
481.053	4200.12
481.424	4217.52
481.795	4239.44
482.166	4328.47
482.537	4319.43
482.908	4384.74
483.279	4443.05
483.65	4501.8
484.021	4622.25
484.391	4664.06
484.762	4697.05
485.133	4767.11
485.503	4731.63
485.874	4890.49
486.244	4893.66
486.615	5019.53
486.985	5032.41
487.356	5163.25
487.726	5154.67
488.097	5183.37
488.467	5255.46
488.837	5327.77
489.207	5356.02
489.578	5475.34
489.948	5449.12
490.318	5580.19
490.688	5556.46
491.058	5627.42
491.428	5725.5
491.798	5672.62
492.168	5832.16
492.538	5854.08
492.908	5877.13
493.278	5940.18
493.648	5988.09
494.017	6008.66
494.387	6081.42
494.757	6085.94
495.126	6146.05
495.496	6194.64
495.866	6175.88
496.235	6289.33
496.605	6265.37
496.974	6375.2
497.344	6361.64
497.713	6394.86
498.082	6459.04
498.452	6455.65
498.821	6551.69
499.19	6479.83
499.559	6612.26
499.928	6607.96
500.298	6676.21
500.667	6712.59
501.036	6633.05
501.405	6759.37
501.774	6782.19
502.143	6755.3
502.512	6801.63
502.88	6818.35
503.249	6835.75
503.618	6860.84
503.987	6875.07
504.356	6989.87
504.724	6945.81
505.093	6961.4
505.462	6960.04
505.83	7045.69
506.199	7032.58
506.567	7106.03
506.936	7051.34
507.304	7125.91
507.672	7165.91
508.041	7191.68
508.409	7132.02
508.777	7255.18
509.145	7246.82
509.514	7265.12
509.882	7269.19
510.25	7318.68
510.618	7287.94
510.986	7324.33
511.354	7395.29
511.722	7497.43
512.09	7436.64
512.458	7440.03
512.826	7516.86
513.193	7575.62
513.561	7543.98
513.929	7571.55
514.297	7644.54
514.664	7636.18
515.032	7672.11
515.4	7616.07
515.767	7653.13
516.135	7701.04
516.502	7613.36
516.869	7752.56
517.237	7721.6
517.604	7673.92
517.972	7726.58
518.339	7705.79
518.706	7793.24
519.073	7767.25
519.44	7861.49
519.808	7861.49
520.175	7879.11
520.542	7877.08
520.909	7840.02
521.276	7861.04
521.643	7954.37
522.009	7993.24
522.376	8001.15
522.743	8000.47
523.11	8032.33
523.477	8081.37
523.843	8065.32
524.21	8140.12
524.577	8118.88
524.943	8136.51
525.31	8124.98
525.676	8215.6
526.043	8245.21
526.409	8269.39
526.776	8278.43
527.142	8220.57
527.508	8260.57
527.874	8316.39
528.241	8333.79
528.607	8353.68
528.973	8369.05
529.339	8363.4
529.705	8343.96
530.071	8420.8
530.437	8414.92
530.803	8448.37
531.169	8450.85
531.535	8421.47
531.901	8394.81
532.267	8414.24
532.632	8477.29
532.998	8453.11
533.364	8463.51
533.73	8403.17
534.095	8475.26
534.461	8502.83
534.826	8549.15
535.192	8558.42
535.557	8493.79
535.923	8531.98
536.288	8567.46
536.653	8543.28
537.019	8560.23
537.384	8564.75
537.749	8444.07
538.114	8560.23
538.479	8498.53
538.845	8513
539.21	8497.4
539.575	8547.12
539.94	8553
540.305	8495.82
540.67	8490.17
541.034	8482.71
541.399	8570.4
541.764	8463.73
542.129	8498.08
542.494	8503.96
542.858	8477.29
543.223	8498.99
543.587	8535.14
543.952	8503.05
544.316	8429.38
544.681	8475.71
545.045	8468.48
545.41	8469.61
545.774	8432.32
546.138	8496.73
546.503	8472.09
546.867	8418.76
547.231	8457.86
547.595	8490.17
547.959	8416.5
548.324	8453.56
548.688	8419.89
549.052	8388.48
549.416	8475.03
549.779	8428.7
550.143	8403.62
550.507	8428.48
550.871	8450.63
551.235	8353.45
551.599	8410.4
551.962	8410.4
552.326	8404.98
552.689	8395.26
553.053	8420.57
553.417	8372.89
553.78	8399.1
554.143	8423.28
554.507	8451.76
554.87	8439.78
555.234	8429.38
555.597	8453.79
555.96	8411.3
556.323	8450.85
556.686	8431.87
557.05	8395.03
557.413	8451.3
557.776	8498.76
558.139	8491.98
558.502	8474.13
558.865	8503.28
559.228	8543.28
559.59	8496.73
559.953	8528.36
560.316	8611.07
560.679	8537.18
561.041	8590.06
561.404	8560
561.767	8628.47
562.129	8604.75
562.492	8626.21
562.854	8640.9
563.217	8604.07
563.579	8675.48
563.941	8649.94
564.304	8673.22
564.666	8810.62
565.028	8710.96
565.39	8726.32
565.753	8783.27
566.115	8801.58
566.477	8800.22
566.839	8871.86
567.201	8903.72
567.563	8864.17
567.925	8925.87
568.287	8905.3
568.648	8907.79
569.01	8934.45
569.372	8999.31
569.734	8991.18
570.095	9080.44
570.457	9038.41
570.819	9053.77
571.18	9081.34
571.542	9092.42
571.903	9183.26
572.265	9152.53
572.626	9136.26
572.987	9162.92
573.349	9221
573.71	9281.56
574.071	9192.53
574.432	9348.91
574.794	9344.16
575.155	9359.98
575.516	9314.56
575.877	9354.33
576.238	9360.66
576.599	9343.03
576.96	9423.71
577.32	9396.14
577.681	9496.7
578.042	9451.73
578.403	9481.33
578.763	9488.56
579.124	9558.39
579.485	9561.78
579.845	9618.73
580.206	9653.53
580.566	9566.98
580.927	9690.82
581.287	9656.24
581.648	9577.6
582.008	9675.68
582.368	9615.79
582.728	9697.37
583.089	9735.34
583.449	9691.72
583.809	9770.14
584.169	9731.72
584.529	9774.88
584.889	9845.62
585.249	9752.96
585.609	9795.67
585.969	9795.67
586.329	9823.02
586.688	9899.63
587.048	9897.82
587.408	9778.5
587.768	9862.11
588.127	9899.4
588.487	9921.1
588.846	9929.23
589.206	9839.06
589.565	9959.96
589.925	9984.37
590.284	9987.08
590.643	9949.34
591.003	10005.84
591.362	9997.7
591.721	10011.26
592.08	10028.44
592.44	10086.74
592.799	10024.37
593.158	10036.57
593.517	10097.59
593.876	10122.67
594.235	10076.8
594.593	10061.43
594.952	10099.85
595.311	10152.5
595.67	10138.26
596.029	10185.04
596.387	10200.86
596.746	10232.95
597.104	10133.97
597.463	10189.79
597.822	10195.66
598.18	10225.72
598.538	10142.11
598.897	10254.19
599.255	10187.75
599.613	10321.76
599.972	10256.68
600.33	10300.07
600.688	10209.22
601.046	10219.17
601.404	10289.67
601.762	10273.18
602.12	10319.5
602.478	10335.32
602.836	10329.22
603.194	10303.91
603.552	10316.79
603.91	10270.01
604.268	10326.28
604.625	10260.07
604.983	10327.19
605.341	10266.4
605.698	10340.52
606.056	10337.13
606.413	10300.29
606.771	10450.35
607.128	10401.76
607.485	10368.54
607.843	10375.77
608.2	10380.74
608.557	10465.49
608.914	10398.6
609.272	10452.83
609.629	10436.79
609.986	10523.79
610.343	10457.35
610.7	10520.63
611.057	10506.84
611.414	10522.44
611.771	10486.28
612.127	10522.66
612.484	10563.79
612.841	10513.62
613.198	10559.27
613.554	10475.88
613.911	10600.17
614.267	10644.01
614.624	10578.03
614.98	10632.71
615.337	10623.68
615.693	10641.75
616.05	10585.48
616.406	10693.05
616.762	10634.3
617.118	10625.71
617.475	10602.66
617.831	10710.45
618.187	10693.28
618.543	10656.89
618.899	10635.65
619.255	10760.17
619.611	10650.79
619.967	10766.04
620.323	10780.28
620.678	10701.19
621.034	10615.99
621.39	10624.35
621.746	10660.96
622.101	10833.16
622.457	10659.38
622.812	10813.05
623.168	10731.24
623.523	10732.15
623.879	10775.76
624.234	10750.45
624.589	10788.42
624.945	10702.77
625.3	10704.13
625.655	10758.14
626.01	10734.18
626.365	10746.16
626.72	10678.59
627.075	10711.36
627.43	10705.26
627.785	10705.71
628.14	10592.26
628.495	10684.46
628.85	10711.36
629.205	10642.21
629.559	10669.78
629.914	10642.88
630.269	10655.54
630.623	10630.23
630.978	10600.85
631.332	10652.15
631.687	10697.12
632.041	10575.99
632.396	10615.77
632.75	10466.62
633.104	10540.29
633.459	10505.26
633.813	10518.59
634.167	10433.85
634.521	10492.61
634.875	10444.47
635.229	10487.86
635.583	10449.22
635.937	10458.03
636.291	10412.16
636.645	10391.59
636.999	10401.53
637.352	10416.45
637.706	10368.99
638.06	10352.72
638.413	10325.15
638.767	10357.02
639.121	10352.72
639.474	10336.23
639.828	10328.99
640.181	10348.2
640.534	10273.4
640.888	10257.13
641.241	10244.7
641.594	10265.72
641.947	10326.51
642.301	10229.56
642.654	10307.3
643.007	10215.78
643.36	10228.66
643.713	10204.25
644.066	10244.7
644.419	10166.51
644.771	10108.43
645.124	10024.14
645.477	9996.8
645.83	9979.17
646.182	9863.47
646.535	9889.46
646.888	9927.2
647.24	9835.67
647.593	9908.67
647.945	9902.79
648.298	9807.43
648.65	9802.91
649.002	9821.44
649.355	9824.6
649.707	9805.39
650.059	9865.05
650.411	9986.4
650.763	10092.62
651.115	10162.67
651.467	10140.98
651.819	10093.97
652.171	10063.01
652.523	10018.49
652.875	10042.45
653.227	10030.92
653.578	10033.41
653.93	10093.75
654.282	10069.34
654.633	9993.64
654.985	10067.98
655.337	9974.43
655.688	10004.48
656.039	10042.22
656.391	9996.35
656.742	9989.12
657.094	9983.24
657.445	10052.62
657.796	9987.08
658.147	9989.57
658.498	9985.73
658.849	9967.65
659.2	9988.66
659.551	10055.1
659.902	10054.42
660.253	9931.26
660.604	10030.7
660.955	9987.31
661.306	10037.93
661.656	10001.54
662.007	10042.9
662.358	10003.13
662.708	10016.23
663.059	10040.19
663.409	9938.04
663.76	10036.12
664.11	10146.63
664.461	9971.04
664.811	10050.36
665.161	10037.7
665.511	10020.08
665.862	10089
666.212	10120.19
666.562	10064.59
666.912	10034.76
667.262	10005.16
667.612	10015.33
667.962	10008.1
668.312	10087.64
668.662	10063.92
669.011	10009
669.361	10007.87
669.711	9977.82
670.06	9947.08
670.41	9912.06
670.76	9991.83
671.109	10058.27
671.459	10063.69
671.808	10004.26
672.157	9917.71
672.507	9931.49
672.856	9950.7
673.205	9965.39
673.554	9955.44
673.904	9895.78
674.253	9996.57
674.602	9918.16
674.951	9744.38
675.3	9735.11
675.649	9830.93
675.998	9846.97
676.346	9857.37
676.695	9835
677.044	9779.63
677.393	9805.84
677.741	9899.17
678.09	9864.37
678.438	9819.63
678.787	9819.63
679.135	9822.11
679.484	9796.35
679.832	9745.51
680.181	9686.52
680.529	9688.78
680.877	9740.31
681.225	9767.2
681.573	9736.69
681.922	9622.12
682.27	9623.25
682.618	9686.75
682.966	9658.96
683.314	9612.63
683.661	9565.17
684.009	9545.96
684.357	9518.17
684.705	9476.59
685.053	9468
685.4	9483.82
685.748	9492.63
686.095	9440.66
686.443	9395.23
686.79	9401.33
687.138	9357.04
687.485	9364.05
687.832	9300.32
688.18	9376.25
688.527	9271.17
688.874	9297.83
689.221	9301.22
689.568	9284.28
689.915	9188.01
690.262	9149.14
690.609	9167.67
690.956	9128.35
691.303	9022.36
691.65	9049.03
691.997	9068.01
692.344	8941.91
692.69	8948.92
693.037	8972.65
693.383	8894.23
693.73	8901.01
694.077	8758.41
694.423	8814.91
694.769	8810.39
695.116	8776.04
695.462	8792.99
695.808	8743.27
696.155	8745.53
696.501	8637.51
696.847	8594.35
697.193	8573.56
697.539	8624.18
697.885	8540.79
698.231	8462.83
698.577	8499.44
698.923	8460.34
699.269	8430.06
699.614	8394.36
699.96	8351.64
700.306	8331.53
700.651	8264.42
700.997	8272.78
701.342	8271.65
701.688	8213.34
702.033	8206.79
702.379	8224.42
702.724	8122.95
703.069	8174.25
703.415	8071.2
703.76	8030.52
704.105	8056.96
704.45	8098.32
704.795	8046.34
705.14	8000.24
705.485	7968.15
705.83	7968.38
706.175	7975.61
706.52	7913.69
706.865	7899.45
707.209	7879.11
707.554	7782.85
707.899	7825.56
708.243	7750.3
708.588	7693.81
708.932	7718.67
709.277	7657.88
709.621	7668.27
709.966	7649.06
710.31	7643.87
710.654	7579.69
710.998	7594.15
711.342	7640.03
711.687	7579.01
712.031	7587.82
712.375	7558.9
712.719	7481.39
713.063	7521.84
713.407	7499.92
713.75	7423.08
714.094	7479.13
714.438	7498.56
714.782	7470.99
715.125	7424.44
715.469	7458.79
715.812	7371.33
716.156	7352.8
716.499	7389.18
716.843	7359.35
717.186	7379.69
717.53	7309.86
717.873	7352.35
718.216	7326.14
718.559	7302.86
718.902	7240.49
719.246	7259.92
719.589	7257.44
719.932	7243.2
720.275	7208.17
720.617	7243.43
720.96	7234.16
721.303	7197.78
721.646	7233.26
721.989	7122.3
722.331	7198.23
722.674	7157.55
723.016	7212.69
723.359	7146.03
723.701	7184.9
724.044	7142.19
724.386	7044.79
724.729	7190.32
725.071	7082.3
725.413	7094.5
725.755	7094.05
726.097	7074.16
726.439	7018.12
726.782	7081.4
727.124	7068.74
727.465	7052.24
727.807	7018.12
728.149	7032.81
728.491	7032.81
728.833	7061.28
729.175	7039.81
729.516	7045.24
729.858	7002.53
730.199	7011.79
730.541	7022.41
730.882	6991.45
731.224	7069.19
731.565	6988.52
731.906	7055.86
732.248	7019.25
732.589	6978.8
732.93	6971.34
733.271	6978.57
733.612	6985.35
733.953	7002.08
734.294	6996.65
734.635	6929.76
734.976	6994.62
735.317	6998.91
735.658	6988.74
735.999	6960.49
736.339	6958.46
736.68	7011.34
737.021	6911
737.361	6949.2
737.702	7012.47
738.042	6920.95
738.383	6977.44
738.723	6998.01
739.063	6954.17
739.404	6988.29
739.744	7006.82
740.084	7000.04
740.424	6976.77
740.764	6989.42
741.104	7092.24
741.444	6969.99
741.784	6993.94
742.124	7064.9
742.464	7084.11
742.804	7057.22
743.143	7104.9
743.483	7165.01
743.823	7037.1
744.162	7149.42
744.502	7123.43
744.841	7065.58
745.181	7189.87
745.52	7166.59
745.86	7242.75
746.199	7267.38
746.538	7250.88
746.877	7306.25
747.216	7295.18
747.556	7370.65
747.895	7331.33
748.234	7385.57
748.573	7445.45
748.911	7507.83
749.25	7532.23
749.589	7586.69
749.928	7656.3
750.267	7690.87
750.605	7728.61
750.944	7813.81
751.283	7781.49
751.621	7868.27
751.96	7946.23
752.298	8040.24
752.636	8115.04
752.975	8168.82
753.313	8236.85
753.651	8332.44
753.989	8385.32
754.327	8447.24
754.666	8506.44
755.004	8673.9
755.342	8704.86
755.679	8857.85
756.017	8942.14
756.355	8983.72
756.693	9038.86
757.031	9272.98
757.368	9319.53
757.706	9494.21
758.044	9556.58
758.381	9660.76
758.719	9740.76
759.056	9886.97
759.394	10010.81
759.731	10058.04
760.068	10166.29
760.405	10316.11
760.743	10389.11
761.08	10549.1
761.417	10607.86
761.754	10779.83
762.091	10912.93
762.428	11013.04
762.765	11162.42
763.102	11275.64
763.438	11385.46
763.775	11559.24
764.112	11648.96
764.449	11768.5
764.785	11917.65
765.122	12003.75
765.458	12004.66
765.795	12167.59
766.131	12387.02
766.467	12396.74
766.804	12517.18
767.14	12538.2
767.476	12720.34
767.812	12812.77
768.148	12898.64
768.485	12984.29
768.821	13115.14
769.157	13111.07
769.492	13255.92
769.828	13404.39
770.164	13352.87
770.5	13367.33
770.836	13524.39
771.171	13546.08
771.507	13693.88
771.842	13687.32
772.178	13773.88
772.513	13812.74
772.849	13904.72
773.184	14012.51
773.519	13995.79
773.855	14063.36
774.19	14094.09
774.525	14125.73
774.86	14266.97
775.195	14260.19
775.53	14262.22
775.865	14259.74
776.2	14366.4
776.535	14184.71
776.87	14277.36
777.205	14366.4
777.539	14367.76
777.874	14440.3
778.209	14423.58
778.543	14380.64
778.878	14384.25
779.212	14444.37
779.547	14486.62
779.881	14468.55
780.215	14482.56
780.55	14503.35
780.884	14458.15
781.218	14514.65
781.552	14502.22
781.886	14451.15
782.22	14426.29
782.554	14475.55
782.888	14382.67
783.222	14464.48
783.556	14382.22
783.889	14352.62
784.223	14246.63
784.557	14318.95
784.89	14388.55
785.224	14334.99
785.557	14282.56
785.891	14300.19
786.224	14222.68
786.558	14273.75
786.891	14204.37
787.224	14210.25
787.557	14183.58
787.891	14204.6
788.224	14210.93
788.557	14197.82
788.89	14171.83
789.223	14186.75
789.556	14082.79
789.888	14109.69
790.221	14113.53
790.554	14066.52
790.887	13964.83
791.219	13969.8
791.552	13903.14
791.884	13896.36
792.217	13895.23
792.549	13884.83
792.882	13859.52
793.214	13789.92
793.546	13794.44
793.879	13741.11
794.211	13629.25
794.543	13752.41
794.875	13617.72
795.207	13762.8
795.539	13640.77
795.871	13651.17
796.203	13531.4
796.535	13519.64
796.867	13495.69
797.198	13527.33
797.53	13470.61
797.862	13452.53
798.193	13426.99
798.525	13375.24
798.856	13309.93
799.188	13218.64
799.519	13187.68
799.85	13128.69
800.182	13176.15
800.513	13200.33
800.844	13049.83
801.175	13161.01
801.506	13142.71
801.837	13010.96
802.168	12952.2
802.499	13000.79
802.83	12954.46
803.161	12928.7
803.491	12805.31
803.822	12952.2
804.153	12890.28
804.483	12716.28
804.814	12753.56
805.145	12743.17
805.475	12746.11
805.805	12671.53
806.136	12688.93
806.466	12662.04
806.796	12621.82
807.126	12580.23
807.457	12544.98
807.787	12459.56
808.117	12459.79
808.447	12469.28
808.777	12447.13
809.107	12401.26
809.436	12436.96
809.766	12408.49
810.096	12370.07
810.426	12356.06
810.755	12289.85
811.085	12273.35
811.414	12262.95
811.744	12051.89
812.073	12202.62
812.403	12169.17
812.732	12048.72
813.061	12152.9
813.39	12017.99
813.719	12016.63
814.049	12069.06
814.378	12013.7
814.707	11950.65
815.036	11976.86
815.365	11920.14
815.693	11754.27
816.022	11853.7
816.351	11791.78
816.68	11686.02
817.008	11828.84
817.337	11606.25
817.665	11639.69
817.994	11704.1
818.322	11640.15
818.651	11625.23
818.979	11600.6
819.307	11643.08
819.636	11592.46
819.964	11614.38
820.292	11603.99
820.62	11576.64
820.948	11589.53
821.276	11588.85
821.604	11477.21
821.932	11619.81
822.259	11641.5
822.587	11612.12
822.915	11527.38
823.243	11484.44
823.57	11518.12
823.898	11493.71
824.225	11465.24
824.553	11480.38
824.88	11502.52
825.207	11529.41
825.535	11516.31
825.862	11575.51
826.189	11462.07
826.516	11557.21
826.843	11539.13
827.17	11591.11
827.497	11654.83
827.824	11495.52
828.151	11606.25
828.478	11588.4
828.805	11596.31
829.131	11547.04
829.458	11556.31
829.785	11512.47
830.111	11560.37
830.438	11576.19
830.764	11528.06
831.09	11595.18
831.417	11479.47
831.743	11505.23
832.069	11488.96
832.395	11495.06
832.722	11549.53
833.048	11520.15
833.374	11470.21
833.7	11430.66
834.026	11460.49
834.351	11535.06
834.677	11462.07
835.003	11451.9
835.329	11413.49
835.654	11445.35
835.98	11411.9
836.306	11403.77
836.631	11348.63
836.956	11450.55
837.282	11353.37
837.607	11329.65
837.932	11318.12
838.258	11356.76
838.583	11285.35
838.908	11237.67
839.233	11312.02
839.558	11228.18
839.883	11193.6
840.208	11131.23
840.533	11111.8
840.858	11175.98
841.182	11212.59
841.507	11154.96
841.832	11041.52
842.156	11036.77
842.481	11050.78
842.805	11057.56
843.13	11056.88
843.454	10951.12
843.778	10929.2
844.103	10954.29
844.427	10861.18
844.751	10909.77
845.075	10917
845.399	10880.17
845.723	10653.96
846.047	10808.53
846.371	10712.26
846.695	10709.77
847.019	10585.48
847.343	10525.6
847.666	10477.01
847.99	10512.94
848.313	10432.04
848.637	10394.75
848.96	10398.37
849.284	10312.27
849.607	10228.88
849.931	10280.86
850.254	10244.7
850.577	10090.13
850.9	10058.27
851.223	10093.52
851.546	10021.21
851.869	9916.35
852.192	10039.06
852.515	9878.84
852.838	9866.18
853.161	9927.2
853.483	9811.27
853.806	9763.81
854.129	9831.15
854.451	9721.1
854.774	9709.8
855.096	9651.72
855.419	9707.09
855.741	9670.48
856.063	9552.29
856.385	9608.11
856.708	9529.01
857.03	9521.33
857.352	9427.55
857.674	9419.19
857.996	9395.01
858.318	9423.48
858.64	9357.49
858.961	9331.96
859.283	9294.67
859.605	9241.56
859.926	9303.03
860.248	9279.3
860.57	9219.64
860.891	9258.51
861.212	9253.54
861.534	9107.56
861.855	9182.58
862.176	9149.36
862.498	9123.6
862.819	9113.66
863.14	9042.7
863.461	9103.72
863.782	9031.4
864.103	9056.49
864.424	9005.41
864.745	9073.43
865.065	8987.79
865.386	8918.86
865.707	8892.87
866.027	8939.88
866.348	8944.62
866.668	8892.42
866.989	8827.11
867.309	8833.44
867.63	8828.69
867.95	8799.77
868.27	8784.18
868.59	8797.28
868.91	8756.15
869.23	8779.88
869.55	8750.05
869.87	8778.98
870.19	8760.67
870.51	8682.03
870.83	8677.96
871.15	8635.71
871.469	8689.04
871.789	8638.64
872.109	8660.34
872.428	8634.35
872.748	8664.63
873.067	8606.55
873.386	8680.68
873.706	8629.6
874.025	8621.24
874.344	8555.03
874.663	8579.44
874.982	8574.24
875.301	8550.06
875.62	8503.73
875.939	8503.73
876.258	8485.2
876.577	8470.74
876.896	8430.06
877.214	8449.04
877.533	8444.98
877.852	8379.89
878.17	8385.77
878.489	8388.93
878.807	8365.66
879.125	8309.84
879.444	8290.18
879.762	8336.05
880.08	8340.8
880.398	8277.3
880.716	8286.79
881.034	8258.31
881.352	8290.63
881.67	8211.54
881.988	8171.31
882.306	8232.78
882.624	8146.23
882.941	8155.49
883.259	8166.56
883.577	8089.5
883.894	8039.79
884.212	8069.62
884.529	8106.23
884.846	8103.97
885.164	8034.82
885.481	8005.44
885.798	8005.21
886.115	7903.75
886.432	8027.81
886.75	7924.31
887.067	7940.13
887.383	7847.93
887.7	7890.19
888.017	7875.95
888.334	7815.84
888.651	7869.62
888.967	7809.06
889.284	7717.54
889.6	7768.38
889.917	7720.7
890.233	7710.98
890.55	7626.92
890.866	7656.97
891.182	7700.59
891.498	7609.52
891.815	7596.86
892.131	7573.36
892.447	7586.47
892.763	7474.61
893.079	7463.53
893.395	7488.62
893.71	7474.83
894.026	7442.97
894.342	7434.15
894.657	7337.21
894.973	7346.93
895.289	7348.73
895.604	7271.67
895.92	7278.68
896.235	7261.28
896.55	7246.14
896.865	7207.95
897.181	7210.66
897.496	7198.68
897.811	7100.6
898.126	7073.49
898.441	7110.77
898.756	7086.59
899.071	7019.02
899.386	7056.31
899.7	7025.35
900.015	6946.48
900.33	6944.45
900.644	6845.47
900.959	6949.87
901.273	6881.63
901.588	6800.27
901.902	6797.56
902.216	6784.68
902.531	6809.99
902.845	6730.44
903.159	6720.28
903.473	6662.42
903.787	6685.93
904.101	6586.72
904.415	6669.43
904.729	6561.18
905.042	6566.61
905.356	6517.34
905.67	6522.99
905.984	6520.51
906.297	6475.76
906.611	6450.9
906.924	6473.5
907.237	6412.94
907.551	6413.62
907.864	6374.07
908.177	6296.11
908.491	6363
908.804	6266.73
909.117	6262.43
909.43	6252.94
909.743	6199.16
910.056	6205.03
910.368	6178.37
910.681	6110.57
910.994	6078.03
911.307	6109.67
911.619	6109.44
911.932	6052.27
912.244	6019.73
912.557	5985.83
912.869	5958.49
913.181	5930.01
913.494	5907.64
913.806	5858.6
914.118	5896.57
914.43	5864.25
914.742	5829.23
915.054	5773.41
915.366	5791.26
915.678	5786.51
915.99	5757.59
916.302	5721.43
916.613	5657.7
916.925	5707.19
917.236	5629.91
917.548	5594.66
917.859	5593.75
918.171	5572.51
918.482	5552.85
918.794	5567.99
919.105	5549.46
919.416	5473.3
919.727	5440.31
920.038	5458.84
920.349	5391.72
920.66	5424.72
920.971	5385.4
921.282	5351.95
921.593	5296.81
921.903	5322.35
922.214	5283.02
922.525	5289.35
922.835	5267.43
923.146	5227.89
923.456	5241.22
923.767	5264.95
924.077	5184.04
924.387	5161.9
924.697	5109.24
925.008	5098.85
925.318	5116.7
925.628	5050.04
925.938	5047.78
926.248	5017.04
926.558	5000.09
926.867	4977.04
927.177	5001
927.487	4951.73
927.796	4992.41
928.106	4880.55
928.416	4898.63
928.725	4895.24
929.034	4859.53
929.344	4850.95
929.653	4836.48
929.962	4797.84
930.271	4761.91
930.581	4792.19
930.89	4724.62
931.199	4690.05
931.508	4700.89
931.817	4695.02
932.125	4642.82
932.434	4647.34
932.743	4582.25
933.051	4574.34
933.36	4573.89
933.669	4597.85
933.977	4510.62
934.286	4536.15
934.594	4516.72
934.902	4461.35
935.21	4469.04
935.519	4474.68
935.827	4482.59
936.135	4427.91
936.443	4393.33
936.751	4378.19
937.059	4410.51
937.367	4324.63
937.674	4350.39
937.982	4334.58
938.29	4295.71
938.597	4265.65
938.905	4301.36
939.213	4245.31
939.52	4210.96
939.827	4189.27
940.135	4163.96
940.442	4144.98
940.749	4171.42
941.056	4192.43
941.363	4115.6
941.67	4077.86
941.977	4095.26
942.284	4014.58
942.591	4043.96
942.898	3970.74
943.205	4017.3
943.511	3967.13
943.818	3990.86
944.125	3919.67
944.431	3921.25
944.738	3953.12
945.044	3908.82
945.35	3901.37
945.657	3852.55
945.963	3851.2
946.269	3875.83
946.575	3860.92
946.881	3830.63
947.187	3764.65
947.493	3756.74
947.799	3739.79
948.105	3744.31
948.41	3678.77
948.716	3721.26
949.022	3672.67
949.327	3709.96
949.633	3664.54
949.938	3669.28
950.244	3668.38
950.549	3625.67
950.854	3584.76
951.16	3580.47
951.465	3561.49
951.77	3559.91
952.075	3556.29
952.38	3543.41
952.685	3492.79
952.99	3499.57
953.294	3493.24
953.599	3522.62
953.904	3435.62
954.209	3416.41
954.513	3418.44
954.818	3424.77
955.122	3401.04
955.426	3361.49
955.731	3372.11
956.035	3361.49
956.339	3399.68
956.643	3350.87
956.948	3307.26
957.252	3297.77
957.556	3267.48
957.86	3283.98
958.163	3271.55
958.467	3253.93
958.771	3271.33
959.075	3196.98
959.378	3206.24
959.682	3226.13
959.985	3205.11
960.289	3177.54
960.592	3161.5
960.896	3180.26
961.199	3130.77
961.502	3126.47
961.805	3104.33
962.108	3101.61
962.411	3103.2
962.714	3095.51
963.017	3048.06
963.32	3070.43
963.623	3040.6
963.926	2995.63
964.228	3018.23
964.531	2948.62
964.833	3017.55
965.136	2955.63
965.438	2952.01
965.741	2936.19
966.043	2905.69
966.345	2892.81
966.648	2901.84
966.95	2901.62
967.252	2894.61
967.554	2823.65
967.856	2859.13
968.158	2823.88
968.46	2826.37
968.761	2807.16
969.063	2794.95
969.365	2772.36
969.666	2803.09
969.968	2780.94
970.269	2755.63
970.571	2736.43
970.872	2722.19
971.174	2728.06
971.475	2718.12
971.776	2711.34
972.077	2678.35
972.378	2665.47
972.679	2645.35
972.98	2644.22
973.281	2644.68
973.582	2625.69
973.883	2619.37
974.183	2613.04
974.484	2628.41
974.785	2596.09
975.085	2564.68
975.386	2577.79
975.686	2547.05
975.986	2534.17
976.287	2574.17
976.587	2512.7
976.887	2533.04
977.187	2477.67
977.487	2476.09
977.787	2472.93
978.087	2469.54
978.387	2467.51
978.687	2459.37
978.987	2409.43
979.286	2422.31
979.586	2428.41
979.885	2428.18
980.185	2365.14
980.484	2376.66
980.784	2376.21
981.083	2351.8
981.382	2386.83
981.682	2346.38
981.981	2359.03
982.28	2319.94
982.579	2310.9
982.878	2297.11
983.177	2275.87
983.475	2270.67
983.774	2270.67
984.073	2261.86
984.372	2241.07
984.67	2238.81
984.969	2204.46
985.267	2236.55
985.566	2221.64
985.864	2159.27
986.162	2192.94
986.461	2186.61
986.759	2184.8
987.057	2181.19
987.355	2169.66
987.653	2153.16
987.951	2136.89
988.249	2109.55
988.547	2104.58
988.844	2118.59
989.142	2114.75
989.44	2122.2
989.737	2078.14
990.035	2069.32
990.332	2047.4
990.63	2056.67
990.927	2060.06
991.224	2034.75
991.521	2035.88
991.819	2020.51
992.116	2017.8
992.413	1990.68
992.71	1984.58
993.006	1992.26
993.303	1962.43
993.6	1949.1
993.897	1968.31
994.193	1954.98
994.49	1936.9
994.787	1935.54
995.083	1924.47
995.379	1902.32
995.676	1911.36
995.972	1893.51
996.268	1885.15
996.565	1865.26
996.861	1885.15
997.157	1829.1
997.453	1841.31
997.749	1841.08
998.044	1830.23
998.34	1804.7
998.636	1816
998.932	1795.43
999.227	1799.73
999.523	1772.16
999.818	1763.12
1000.114	1759.05
1000.409	1789.56
1000.704	1753.63
1001	1743.01
1001.295	1718.82
1001.59	1711.14
1001.885	1714.76
1002.18	1697.58
1002.475	1686.28
1002.77	1679.73
1003.065	1667.98
1003.359	1679.96
1003.654	1700.07
1003.949	1654.42
1004.243	1612.16
1004.538	1645.15
1004.832	1628.66
1005.127	1624.36
1005.421	1572.61
1005.715	1607.42
1006.009	1608.32
1006.304	1559.73
1006.598	1567.19
1006.892	1534.87
1007.186	1531.03
1007.48	1532.16
1007.773	1548.43
1008.067	1516.57
1008.361	1491.03
1008.655	1521.54
1008.948	1506.63
1009.242	1481.99
1009.535	1505.5
1009.829	1495.33
1010.122	1465.5
1010.415	1453.75
1010.708	1470.92
1011.001	1445.84
1011.295	1442
1011.588	1417.14
1011.881	1405.61
1012.173	1405.84
1012.466	1408.78
1012.759	1408.78
1013.052	1408.55
1013.344	1420.53
1013.637	1376.69
1013.93	1378.49
1014.222	1333.98
1014.514	1348.44
1014.807	1371.04
1015.099	1359.51
1015.391	1319.06
1015.683	1334.88
1015.976	1321.55
1016.268	1285.62
1016.56	1282.68
1016.851	1292.17
1017.143	1289.23
1017.435	1301.21
1017.727	1272.06
1018.018	1253.07
1018.31	1239.97
1018.602	1249.01
1018.893	1279.06
1019.185	1205.62
1019.476	1244.49
1019.767	1211.95
1020.058	1200.65
1020.35	1203.13
1020.641	1204.04
1020.932	1199.52
1021.223	1160.2
1021.514	1182.79
1021.804	1168.1
1022.095	1169.91
1022.386	1159.52
1022.677	1159.52
1022.967	1165.17
1023.258	1130.59
1023.548	1133.76
1023.839	1107.99
1024.129	1104.6
1024.419	1117.48
1024.709	1096.02
1025	1081.78
1025.29	1085.17
1025.58	1057.37
1025.87	1049.24
1026.16	1059.86
1026.449	1063.25
1026.739	1031.39
1027.029	1047.2
1027.319	1046.3
1027.608	1041.1
1027.898	1027.54
1028.187	1032.74
1028.477	1042.68
1028.766	1010.14
1029.055	994.55
1029.344	976.25
1029.634	996.36
1029.923	984.61
1030.212	977.15
1030.501	980.77
1030.79	960.2
1031.078	946.42
1031.367	968.56
1031.656	930.6
1031.945	944.61
1032.233	927.21
1032.522	921.78
1032.81	925.85
1033.099	908.9
1033.387	908.22
1033.675	900.32
1033.963	919.75
1034.251	908.9
1034.54	884.72
1034.828	889.47
1035.116	885.4
1035.403	897.6
1035.691	877.94
1035.979	852.41
1036.267	847.66
1036.554	868.9
1036.842	842.01
1037.129	839.53
1037.417	839.98
1037.704	821.45
1037.992	846.53
1038.279	830.94
1038.566	832.52
1038.853	832.52
1039.14	832.52
