Data from hue_34_FLMS001491_00019.txt Node
Date: Tue Feb 07 17:25:16 GMT 2017
User: dcchb
Spectrometer: FLMS00149
Trigger mode: 0
Integration Time (sec): 2.000000E-2
Scans to average: 10
Electric dark correction enabled: true
Nonlinearity correction enabled: false
Boxcar width: 0
XAxis mode: Wavelengths
Number of Pixels in Spectrum: 2048
>>>>>Begin Spectral Data<<<<<
341.393	-7.26
341.776	-7.26
342.16	-7.26
342.543	-51.78
342.927	-60.82
343.31	-61.72
343.693	-86.58
344.077	-56.98
344.46	-59.69
344.843	-52
345.226	-53.36
345.61	-34.83
345.993	-31.44
346.376	3.81
346.759	17.37
347.142	32.97
347.525	43.59
347.908	59.41
348.291	89.01
348.674	82.91
349.057	107.54
349.44	138.27
349.823	141.66
350.206	156.58
350.588	217.14
350.971	190.02
351.354	235.45
351.737	240.42
352.119	262.56
352.502	270.02
352.884	277.25
353.267	288.1
353.65	291.94
354.032	314.99
354.414	317.93
354.797	323.35
355.179	331.94
355.562	345.95
355.944	331.71
356.326	330.81
356.709	350.25
357.091	322.22
357.473	355.44
357.855	351.6
358.238	351.15
358.62	344.6
359.002	327.87
359.384	343.47
359.766	339.62
360.148	322.45
360.53	369.45
360.912	367.19
361.294	359.51
361.676	345.05
362.057	327.42
362.439	350.47
362.821	351.15
363.203	333.3
363.584	326.06
363.966	319.96
364.348	351.83
364.729	328.78
365.111	330.58
365.493	328.55
365.874	317.03
366.256	340.3
366.637	319.96
367.019	304.14
367.4	316.57
367.781	324.03
368.163	324.93
368.544	306.4
368.925	317.48
369.306	307.31
369.688	319.51
370.069	331.26
370.45	337.59
370.831	332.17
371.212	347.76
371.593	308.66
371.974	324.03
372.355	319.96
372.736	317.7
373.117	313.64
373.498	339.17
373.879	335.1
374.26	347.08
374.641	320.19
375.021	340.75
375.402	331.94
375.783	308.89
376.163	330.36
376.544	324.48
376.925	323.35
377.305	339.62
377.686	338.95
378.066	360.64
378.447	325.16
378.827	349.79
379.208	332.17
379.588	336.46
379.968	331.71
380.349	338.49
380.729	313.41
381.109	333.07
381.489	328.1
381.87	344.6
382.25	352.28
382.63	349.79
383.01	347.99
383.39	345.5
383.77	375.78
384.15	349.34
384.53	355.67
384.91	346.4
385.29	363.35
385.67	337.82
386.049	353.41
386.429	345.5
386.809	380.53
387.189	383.24
387.568	366.97
387.948	356.12
388.328	371.04
388.707	359.28
389.087	375.56
389.466	380.53
389.846	373.3
390.225	375.56
390.605	385.27
390.984	389.11
391.363	384.82
391.743	363.35
392.122	377.59
392.501	374.2
392.881	388.44
393.26	386.4
393.639	362.9
394.018	392.5
394.397	381.66
394.776	373.52
395.155	372.62
395.534	386.4
395.913	395.22
396.292	395.89
396.671	417.14
397.05	398.15
397.429	384.59
397.808	382.79
398.186	394.99
398.565	417.59
398.944	408.77
399.323	388.21
399.701	418.72
400.08	408.77
400.458	403.35
400.837	410.13
401.215	411.49
401.594	405.16
401.972	416.68
402.351	413.07
402.729	434.08
403.107	411.94
403.486	419.4
403.864	435.44
404.242	420.75
404.62	434.99
404.999	396.35
405.377	438.15
405.755	427.08
406.133	419.85
406.511	429.79
406.889	443.8
407.267	434.08
407.645	443.35
408.023	437.7
408.401	427.53
408.779	444.93
409.156	444.71
409.534	456
409.912	439.28
410.29	456.68
410.667	462.11
411.045	470.02
411.422	476.12
411.8	456
412.178	485.83
412.555	455.33
412.933	469.34
413.31	478.83
413.687	480.64
414.065	481.09
414.442	484.93
414.819	496.46
415.197	482.22
415.574	514.99
415.951	495.78
416.328	518.15
416.705	496.46
417.082	492.39
417.46	499.62
417.837	509.79
418.214	521.31
418.591	518.15
418.967	508.66
419.344	540.07
419.721	529.68
420.098	537.13
420.475	522.9
420.852	540.97
421.228	519.96
421.605	536.23
421.982	544.59
422.358	554.53
422.735	559.73
423.111	524.7
423.488	527.19
423.864	577.36
424.241	573.74
424.617	559.28
424.994	542.78
425.37	566.96
425.746	576.23
426.123	551.6
426.499	594.31
426.875	598.37
427.251	599.05
427.627	570.13
428.003	589.11
428.379	604.25
428.756	594.31
429.132	606.06
429.507	606.06
429.883	623.91
430.259	639.05
430.635	593.18
431.011	646.28
431.387	675.66
431.763	646.06
432.138	640.86
432.514	639.28
432.89	656.23
433.265	661.42
433.641	676.11
434.016	669.11
434.392	669.56
434.767	693.06
435.143	704.59
435.518	676.11
435.894	701.2
436.269	720.63
436.644	722.44
437.02	712.5
437.395	729.22
437.77	708.2
438.145	727.86
438.52	722.66
438.895	740.07
439.271	758.14
439.646	757.47
440.021	758.37
440.395	755.66
440.77	756.34
441.145	765.83
441.52	787.07
441.895	777.13
442.27	783
442.645	773.28
443.019	811.48
443.394	783.45
443.769	788.88
444.143	808.09
444.518	816.45
444.892	815.09
445.267	798.59
445.641	811.25
446.016	829.55
446.39	819.84
446.764	837.69
447.139	843.11
447.513	836.56
447.887	852.83
448.262	829.55
448.636	852.15
449.01	854.86
449.384	850.8
449.758	886.5
450.132	869.1
450.506	881.76
450.88	873.85
451.254	883.11
451.628	886.73
452.002	905.94
452.376	924.02
452.75	915.65
453.123	932.83
453.497	940.96
453.871	921.76
454.244	953.62
454.618	964.01
454.992	949.78
455.365	965.37
455.739	982.09
456.112	990.91
456.486	1008.31
456.859	1013.5
457.232	1024.35
457.606	1008.76
457.979	1002.43
458.352	1056.89
458.725	1056.89
459.099	1071.13
459.472	1097.34
459.845	1091.47
460.218	1090.56
460.591	1115.2
460.964	1119.04
461.337	1143.22
461.71	1177.57
462.083	1163.56
462.456	1159.26
462.829	1186.83
463.201	1198.58
463.574	1206.27
463.947	1233.84
464.32	1226.15
464.692	1254.63
465.065	1258.02
465.438	1264.12
465.81	1297.11
466.183	1286.94
466.555	1331.46
466.928	1333.5
467.3	1364.46
467.672	1373.27
468.045	1408.07
468.417	1399.26
468.789	1426.15
469.161	1449.88
469.534	1476.77
469.906	1513.6
470.278	1540.95
470.65	1540.5
471.022	1575.3
471.394	1567.16
471.766	1591.79
472.138	1635.18
472.51	1660.04
472.882	1694.84
473.253	1724.45
473.625	1725.58
473.997	1786.59
474.369	1820.94
474.74	1850.32
475.112	1900.71
475.484	1907.04
475.855	1945.01
476.227	1985.91
476.598	2028.84
476.97	2097.54
477.341	2122.63
477.713	2175.06
478.084	2215.28
478.455	2235.17
478.827	2281.95
479.198	2350.42
479.569	2392.68
479.94	2441.72
480.311	2495.05
480.682	2642.84
481.053	2659.34
481.424	2735.49
481.795	2781.37
482.166	2825.66
482.537	2877.86
482.908	3022.27
483.279	3008.03
483.65	3135.93
484.021	3210.51
484.391	3258.42
484.762	3354.69
485.133	3397.62
485.503	3428.36
485.874	3583.38
486.244	3629.48
486.615	3738.63
486.985	3784.51
487.356	3894.11
487.726	3964.84
488.097	4058.4
488.467	4105.17
488.837	4232.85
489.207	4306.53
489.578	4409.8
489.948	4494.99
490.318	4623.58
490.688	4639.85
491.058	4743.8
491.428	4823.12
491.798	4930.46
492.168	5040.97
492.538	5156.45
492.908	5184.02
493.278	5279.83
493.648	5348.53
494.017	5488.19
494.387	5527.51
494.757	5639.37
495.126	5668.52
495.496	5727.05
495.866	5845.92
496.235	5912.58
496.605	6017.89
496.974	6086.14
497.344	6178.34
497.713	6203.65
498.082	6278.22
498.452	6423.53
498.821	6497.43
499.19	6477.77
499.559	6575.39
499.928	6611.32
500.298	6710.08
500.667	6837.08
501.036	6830.53
501.405	6978.09
501.774	7033.01
502.143	7097.64
502.512	7059.22
502.88	7258.76
503.249	7241.36
503.618	7344.64
503.987	7325.88
504.356	7446.1
504.724	7491.53
505.093	7573.33
505.462	7522.94
505.83	7671.18
506.199	7797.28
506.567	7877.96
506.936	7866.43
507.304	7879.31
507.672	8056.26
508.041	8066.2
508.409	8136.25
508.777	8180.1
509.145	8244.73
509.514	8302.13
509.882	8356.14
510.25	8412.86
510.618	8493.99
510.986	8489.01
511.354	8551.61
511.722	8650.37
512.09	8709.57
512.458	8695.79
512.826	8755.9
513.193	8817.14
513.561	8894.65
513.929	8906.63
514.297	9000.64
514.664	9039.06
515.032	9066.4
515.4	9143.91
515.767	9171.48
516.135	9265.72
516.502	9233.85
516.869	9422.55
517.237	9465.49
517.604	9394.08
517.972	9467.07
518.339	9542.77
518.706	9589.55
519.073	9584.8
519.44	9718.13
519.808	9747.96
520.175	9692.37
520.542	9893.04
520.909	9927.62
521.276	9918.81
521.643	9965.81
522.009	10072.25
522.376	10065.7
522.743	10172.59
523.11	10257.56
523.477	10348.63
523.843	10358.57
524.21	10532.12
524.577	10551.11
524.943	10577.55
525.31	10689.86
525.676	10729.41
526.043	10804.43
526.409	10806.47
526.776	10883.08
527.142	10889.85
527.508	11067.25
527.874	11069.74
528.241	11175.27
528.607	11231.31
528.973	11328.26
529.339	11336.17
529.705	11366.45
530.071	11488.94
530.437	11541.82
530.803	11553.34
531.169	11675.14
531.535	11644.41
531.901	11720.12
532.267	11739.55
532.632	11752.43
532.998	11863.84
533.364	11906.55
533.73	12043.27
534.095	12079.65
534.461	12062.03
534.826	12138.86
535.192	12249.14
535.557	12223.83
535.923	12337.27
536.288	12407.1
536.653	12454.79
537.019	12452.98
537.384	12399.19
537.749	12546.53
538.114	12605.97
538.479	12650.49
538.845	12695.01
539.21	12679.86
539.575	12781.1
539.94	12826.3
540.305	12894.32
540.67	12841.67
541.034	13004.83
541.399	13035.79
541.764	13059.74
542.129	13069.68
542.494	13153.98
542.858	13184.03
543.223	13309.45
543.587	13278.27
543.952	13303.58
544.316	13432.61
544.681	13379.51
545.045	13431.48
545.41	13448.43
545.774	13591.93
546.138	13701.53
546.503	13726.62
546.867	13697.92
547.231	13799.16
547.595	13812.49
547.959	13889.55
548.324	13895.43
548.688	13919.15
549.052	13939.04
549.416	14081.86
549.779	14150.79
550.143	14144.01
550.507	14168.41
550.871	14209.77
551.235	14218.58
551.599	14445.69
551.962	14464
552.326	14492.92
552.689	14528.86
553.053	14493.15
553.417	14540.15
553.78	14736.31
554.143	14708.51
554.507	14711.22
554.87	14806.14
555.234	14957.32
555.597	14862.41
555.96	14872.35
556.323	15017.88
556.686	14988.5
557.05	15100.82
557.413	15093.59
557.776	15155.96
558.139	15233.7
558.502	15214.26
558.865	15336.74
559.228	15383.52
559.59	15426.23
559.953	15502.16
560.316	15595.95
560.679	15553.01
561.041	15676.17
561.404	15747.58
561.767	15884.75
562.129	15802.72
562.492	16052.21
562.854	15962.72
563.217	16016.95
563.579	16020.12
563.941	16148.93
564.304	16261.24
564.666	16282.93
565.028	16281.35
565.39	16353.67
565.753	16416.04
566.115	16488.13
566.477	16604.28
566.839	16637.27
567.201	16771.28
567.563	16688.8
567.925	16853.31
568.287	16778.29
568.648	16885.63
569.01	17098.28
569.372	17108
569.734	17027.32
570.095	17218.05
570.457	17356.35
570.819	17311.38
571.18	17331.49
571.542	17527.65
571.903	17470.7
572.265	17582.11
572.626	17645.84
572.987	17854.87
573.349	17867.3
573.71	17865.04
574.071	17986.17
574.432	18064.36
574.794	18334.63
575.155	18436.32
575.516	18339.83
575.877	18454.18
576.238	18597.22
576.599	18674.96
576.96	18717.22
577.32	18805.13
577.681	18998.12
578.042	19088.28
578.403	19180.71
578.763	19384.55
579.124	19439.01
579.485	19683.07
579.845	19770.98
580.206	19944.98
580.566	20053
580.927	20143.17
581.287	20338.42
581.648	20489.38
582.008	20702.48
582.368	20878.07
582.728	21033.09
583.089	21199.87
583.449	21375.45
583.809	21599.18
584.169	21809.12
584.529	21960.3
584.889	22288.65
585.249	22371.81
585.609	22604.12
585.969	22854.96
586.329	22978.35
586.688	23230.55
587.048	23423.08
587.408	23679.58
587.768	23818.55
588.127	24078.21
588.487	24248.15
588.846	24687.91
589.206	24717.29
589.565	25026.43
589.925	25379.87
590.284	25525.63
590.643	25740.76
591.003	25973.75
591.362	26371.93
591.721	26628.65
592.08	26756.78
592.44	27211.91
592.799	27273.15
593.158	27439.25
593.517	27844.89
593.876	28109.97
594.235	28268.16
594.593	28486.45
594.952	28792.89
595.311	28847.8
595.67	29145.42
596.029	29614.33
596.387	29865.85
596.746	30073.53
597.104	30214.32
597.463	30437.14
597.822	30809.56
598.18	30829.67
598.538	31085.03
598.897	31554.4
599.255	31587.16
599.613	32035.97
599.972	32065.34
600.33	32406.58
600.688	32560.47
601.046	32751.65
601.404	33199.32
601.762	33343.05
602.12	33654.68
602.478	33837.5
602.836	33962.02
603.194	34003.82
603.552	34271.16
603.91	34337.83
604.268	34782.11
604.625	34777.14
604.983	35102.1
605.341	35028.66
605.698	35346.16
606.056	35566.27
606.413	35785.92
606.771	35987.27
607.128	36172.13
607.485	36129.19
607.843	36366.7
608.2	36622.29
608.557	36778.89
608.914	36806.91
609.272	37286.67
609.629	37336.62
609.986	37680.34
610.343	37508.59
610.7	38019.09
611.057	38001.46
611.414	38034.45
611.771	38327.78
612.127	38489.36
612.484	38578.17
612.841	38789.46
613.198	38739.52
613.554	39072.84
613.911	39271.71
614.267	39217.25
614.624	39227.19
614.98	39548.08
615.337	39870.79
615.693	39740.62
616.05	39810
616.406	40118.46
616.762	40190.1
617.118	40208.63
617.475	40238.01
617.831	40364.79
618.187	40579.24
618.543	40784.89
618.899	40911.21
619.255	40830.76
619.611	40853.13
619.967	41207.25
620.323	41275.27
620.678	41141.71
621.034	41122.73
621.39	41365.89
621.746	41273.46
622.101	41757.52
622.457	41568.37
622.812	41610.86
623.168	41837.97
623.523	41838.87
623.879	42033.44
624.234	41749.38
624.589	42093.1
624.945	42091.07
625.3	42250.84
625.655	42224.62
626.01	42190.05
626.365	42378.07
626.72	42362.7
627.075	42359.31
627.43	42302.14
627.785	42383.94
628.14	42570.38
628.495	42545.52
628.85	42454.9
629.205	42358.41
629.559	42649.47
629.914	42443.38
630.269	42453.09
630.623	42467.33
630.978	42409.7
631.332	42506.65
631.687	42785.29
632.041	42597.27
632.396	42597.95
632.75	42451.96
633.104	42662.13
633.459	42549.36
633.813	42586.87
634.167	42497.16
634.521	42601.56
634.875	42621.45
635.229	42542.13
635.583	42369.03
635.937	42439.53
636.291	42317.28
636.645	42465.3
636.999	42344.62
637.352	42571.06
637.706	42370.16
638.06	42494.45
638.413	42538.06
638.767	42363.38
639.121	42347.11
639.474	42192.99
639.828	42367.67
640.181	42351.85
640.534	42354.79
640.888	42295.13
641.241	41981.92
641.594	42186.66
641.947	42323.38
642.301	42240.44
642.654	42092.2
643.007	42137.39
643.36	42221.01
643.713	42152.76
644.066	42193.44
644.419	42126.77
644.771	41930.17
645.124	41355.49
645.477	41438.2
645.83	41151.21
646.182	41029.4
646.535	40893.36
646.888	41088.16
647.24	40809.97
647.593	41033.7
647.945	40860.59
648.298	40661.05
648.65	40739.92
649.002	40648.17
649.355	40813.36
649.707	40765.23
650.059	41043.41
650.411	41508.94
650.763	41392.56
651.115	41821.7
651.467	41482.72
651.819	41652.21
652.171	41533.12
652.523	41516.39
652.875	41364.76
653.227	41380.8
653.578	41549.84
653.93	41473.46
654.282	41271.88
654.633	41271.88
654.985	41372.67
655.337	41336.96
655.688	41407.47
656.039	41566.56
656.391	41246.34
656.742	41333.12
657.094	41350.75
657.445	41417.64
657.796	41245.21
658.147	41256.29
658.498	41315.04
658.849	41448.37
659.2	41360.69
659.551	41096.52
659.902	41360.01
660.253	41167.02
660.604	41271.65
660.955	41071.89
661.306	41251.32
661.656	41187.36
662.007	41188.49
662.358	41155.05
662.708	41297.42
663.059	41094.94
663.409	40853.13
663.76	41235.05
664.11	41142.62
664.461	41184.65
664.811	41109.63
665.161	41096.29
665.511	41024.66
665.862	40960.7
666.212	41017.2
666.562	41228.49
666.912	41078.21
667.262	41104.2
667.612	41088.83
667.962	41144.43
668.312	40993.92
668.662	41318.89
669.011	41112.34
669.361	41066.24
669.711	41061.94
670.06	40975.17
670.41	40965.9
670.76	40912.34
671.109	41049.29
671.459	41037.99
671.808	40733.14
672.157	41032.79
672.507	40646.81
672.856	40707.38
673.205	40760.48
673.554	40980.82
673.904	40842.74
674.253	40981.95
674.602	40800.71
674.951	40178.58
675.3	40220.38
675.649	40766.13
675.998	40732.01
676.346	40755.06
676.695	40843.19
677.044	40552.58
677.393	40589.41
677.741	40659.47
678.09	40466.7
678.438	40523.65
678.787	40680.03
679.135	40429.42
679.484	40182.64
679.832	40438
680.181	40100.84
680.529	40281.4
680.877	40141.06
681.225	40154.85
681.573	40317.78
681.922	40055.42
682.27	40038.02
682.618	40089.54
682.966	39908.53
683.314	39971.58
683.661	39825.59
684.009	39638.25
684.357	39618.59
684.705	39489.55
685.053	39636.22
685.4	39451.82
685.748	39394.19
686.095	39317.58
686.443	39317.13
686.79	39153.52
687.138	39276.45
687.485	39275.55
687.832	39215.66
688.18	39167.98
688.527	38891.6
688.874	38937.03
689.221	38957.37
689.568	38723.7
689.915	38692.06
690.262	38586.08
690.609	38623.14
690.956	38567.09
691.303	38464.05
691.65	38262.92
691.997	38279.64
692.344	38148.35
692.69	38173.66
693.037	37977.73
693.383	37677.17
693.73	37786.1
694.077	37603.95
694.423	37638.98
694.769	37533.45
695.116	37429.04
695.462	37455.48
695.808	37390.18
696.155	37287.8
696.501	37098.88
696.847	37100.92
697.193	36779.8
697.539	36928.27
697.885	36674.49
698.231	36519.01
698.577	36667.71
698.923	36556.75
699.269	36272.01
699.614	36178.46
699.96	36183.65
700.306	36164.67
700.651	35994.96
700.997	35835.64
701.342	35758.81
701.688	35766.26
702.033	35686.49
702.379	35529.88
702.724	35590
703.069	35660.05
703.415	35218.93
703.76	35320.4
704.105	35233.85
704.45	35081.54
704.795	34856
705.14	34928.09
705.485	34740.53
705.83	34585.73
706.175	34763.13
706.52	34647.42
706.865	34559.74
707.209	34387.09
707.554	34359.52
707.899	34437.26
708.243	34246.3
708.588	34124.72
708.932	33945.75
709.277	33910.49
709.621	33991.39
709.966	33699.65
710.31	33873.43
710.654	33487.23
710.998	33627.11
711.342	33732.19
711.687	33526.32
712.031	33304.41
712.375	33362.48
712.719	33380.11
713.063	33328.13
713.407	33314.35
713.75	33230.28
714.094	33124.07
714.438	33047.92
714.782	33021.93
715.125	32699.22
715.469	32926.56
715.812	32677.76
716.156	32634.37
716.499	32477.99
716.843	32610.64
717.186	32366.13
717.53	32646.57
717.873	32605.22
718.216	32354.6
718.559	32247.49
718.902	32238.45
719.246	32234.38
719.589	32000.94
719.932	31905.57
720.275	31950.54
720.617	31988.51
720.96	31954.16
721.303	31778.8
721.646	31839.36
721.989	31694.73
722.331	31795.75
722.674	31608.18
723.016	31803.2
723.359	31587.16
723.701	31612.47
724.044	31395.53
724.386	31317.79
724.729	31398.24
725.071	31292.71
725.413	31332.93
725.755	31257.23
726.097	31106.95
726.439	30980.17
726.782	31026.5
727.124	31051.13
727.465	30825.15
727.807	30937.46
728.149	30848.65
728.491	30785.83
728.833	30792.38
729.175	30666.74
729.516	30581.77
729.858	30582.44
730.199	30725.72
730.541	30445.27
730.882	30495.22
731.224	30496.57
731.565	30350.36
731.906	30412.28
732.248	30445.27
732.589	30280.08
732.93	30017.94
733.271	30120.31
733.612	30247.76
733.953	30209.12
734.294	29955.57
734.635	29873.31
734.976	29986.98
735.317	29812.07
735.658	29958.96
735.999	29775.01
736.339	29800.32
736.68	29796.48
737.021	29758.51
737.361	29588.12
737.702	29686.65
738.042	29593.32
738.383	29589.7
738.723	29664.28
739.063	29651.62
739.404	29564.17
739.744	29464.28
740.084	29312.42
740.424	29346.77
740.764	29348.35
741.104	29463.83
741.444	29269.71
741.784	29079.21
742.124	29128.47
742.464	29238.3
742.804	29065.65
743.143	29057.51
743.483	29008.47
743.823	28864.3
744.162	28880.34
744.502	28912.43
744.841	28784.07
745.181	28943.39
745.52	28696.84
745.86	28737.97
746.199	28737.97
746.538	28680.8
746.877	28698.65
747.216	28572.1
747.556	28571.2
747.895	28542.05
748.234	28410.3
748.573	28352.22
748.911	28338.44
749.25	28387.7
749.589	28278.55
749.928	28265.22
750.267	28299.34
750.605	28132.57
750.944	28181.6
751.283	28119.68
751.621	28040.36
751.96	27828.17
752.298	27866.13
752.636	27793.37
752.975	27822.97
753.313	27560.38
753.651	27855.28
753.989	27667.27
754.327	27555.41
754.666	27507.95
755.004	27452.58
755.342	27518.12
755.679	27382.3
756.017	27301.17
756.355	27240.16
756.693	27196.54
757.031	27271.57
757.368	27015.76
757.706	27038.58
758.044	26994.06
758.381	26827.29
758.719	26746.61
759.056	26905.03
759.394	26758.14
759.731	26552.49
760.068	26588.43
760.405	26500.29
760.743	26546.84
761.08	26374.42
761.417	26283.8
761.754	26303.91
762.091	26079.96
762.428	26129.91
762.765	26045.61
763.102	26144.37
763.438	25919.29
763.775	25688.79
764.112	25741.22
764.449	25764.04
764.785	25657.38
765.122	25406.99
765.458	25399.98
765.795	25407.67
766.131	25369.25
766.467	25191.63
766.804	25078.63
767.14	24959.09
767.476	24992.53
767.812	24832.54
768.148	24922.93
768.485	24805.42
768.821	24565.2
769.157	24510.29
769.492	24560.46
769.828	24431.19
770.164	24152.33
770.5	24282.5
770.836	24167.47
771.171	24054.71
771.507	23996.18
771.842	23781.72
772.178	23828.72
772.513	23846.35
772.849	23771.78
773.184	23683.19
773.519	23595.96
773.855	23341.28
774.19	23392.35
774.525	23317.1
774.86	23307.16
775.195	23282.75
775.53	23175.86
775.865	22925.92
776.2	22866.04
776.535	22647.96
776.87	22674.18
777.205	22632.37
777.539	22558.02
777.874	22535.88
778.209	22380.63
778.543	22297.69
778.878	22203
779.212	22157.36
779.547	22076.23
779.881	22051.14
780.215	21917.59
780.55	21807.31
780.884	21762.56
781.218	21775.44
781.552	21669.68
781.886	21564.6
782.22	21441.89
782.554	21450.48
782.888	21225.85
783.222	21159.87
783.556	21071.96
783.889	20986.99
784.223	20893.89
784.557	20868.12
784.89	20763.27
785.224	20719.43
785.557	20632.2
785.891	20623.16
786.224	20512.2
786.558	20449.6
786.891	20252.09
787.224	20264.75
787.557	20234.24
787.891	20181.14
788.224	20141.59
788.557	20076.51
788.89	20083.29
789.223	19974.59
789.556	19901.82
789.888	19867.47
790.221	19749.73
790.554	19505
790.887	19600.59
791.219	19473.58
791.552	19500.25
791.884	19221.16
792.217	19233.82
792.549	19122.18
792.882	19022.3
793.214	18999.7
793.546	19042.41
793.879	18883.99
794.211	18735.3
794.543	18805.58
794.875	18740.5
795.207	18841.06
795.539	18779.36
795.871	18662.08
796.203	18447.17
796.535	18302.54
796.867	18376.66
797.198	18350.45
797.53	18373.95
797.862	18211.92
798.193	18239.72
798.525	18155.43
798.856	18138.48
799.188	17901.65
799.519	17848.77
799.85	17802.22
800.182	17797.02
800.513	17848.54
800.844	17724.93
801.175	17708.43
801.506	17636.57
801.837	17647.87
802.168	17552.28
802.499	17497.36
802.83	17402.45
803.161	17388.22
803.491	17338.95
803.822	17386.63
804.153	17246.3
804.483	17115.45
804.814	17030.48
805.145	17032.52
805.475	17011.95
805.805	16978.73
806.136	16939.41
806.466	16924.72
806.796	16870.26
807.126	16777.84
807.457	16707.56
807.787	16711.17
808.117	16597.05
808.447	16537.84
808.777	16613.77
809.107	16538.07
809.436	16467.56
809.766	16403.16
810.096	16249.94
810.426	16325.42
810.755	16360.9
811.085	16230.96
811.414	16182.15
811.744	16087.01
812.073	16100.79
812.403	16112.09
812.732	15979.66
813.061	15907.58
813.39	15906.9
813.719	15843.62
814.049	15823.28
814.378	15898.08
814.707	15715.04
815.036	15743.29
815.365	15680.92
815.693	15554.59
816.022	15499.45
816.351	15514.82
816.68	15410.87
817.008	15458.1
817.337	15351.21
817.665	15322.73
817.994	15260.81
818.322	15347.36
818.651	15200.48
818.979	15202.74
819.307	15247.48
819.636	15117.31
819.964	15085
820.292	15159.57
820.62	15092.46
820.948	15068.95
821.276	15207.93
821.604	15105.34
821.932	15046.13
822.259	15106.47
822.587	15081.38
822.915	14956.41
823.243	15064.21
823.57	14991.89
823.898	14934.27
824.225	14903.76
824.553	14927.94
824.88	14952.8
825.207	14984.21
825.535	14900.14
825.862	14955.74
826.189	14839.58
826.516	15005.68
826.843	14938.34
827.17	14951.22
827.497	14986.47
827.824	14931.56
828.151	14949.86
828.478	14923.42
828.805	14894.72
829.131	14855.85
829.458	14917.77
829.785	14831.22
830.111	14967.94
830.438	14986.47
830.764	14939.24
831.09	14901.27
831.417	14852.46
831.743	14858.11
832.069	14875.06
832.395	14821.73
832.722	14798.9
833.048	14859.47
833.374	14796.42
833.7	14764.56
834.026	14799.81
834.351	14830.77
834.677	14697.21
835.003	14734.05
835.329	14788.74
835.654	14642.07
835.98	14640.26
836.306	14665.8
836.631	14645.24
836.956	14702.18
837.282	14558.68
837.607	14511.23
837.932	14547.84
838.258	14497.44
838.583	14559.36
838.908	14393.49
839.233	14411.8
839.558	14385.13
839.883	14376.54
840.208	14313.04
840.533	14260.39
840.858	14327.28
841.182	14300.61
841.507	14266.72
841.832	14160.96
842.156	14163.44
842.481	14177.68
842.805	14121.63
843.13	14073.05
843.454	14032.6
843.778	14015.87
844.103	13968.87
844.427	13939.94
844.751	13927.97
845.075	13885.03
845.399	13933.39
845.723	13720.06
846.047	13844.35
846.371	13635.55
846.695	13682.55
847.019	13582.21
847.343	13521.2
847.666	13388.55
847.99	13436
848.313	13445.27
848.637	13393.97
848.96	13336.12
849.284	13254.99
849.607	13150.81
849.931	13068.1
850.254	13036.92
850.577	13049.12
850.9	12861.1
851.223	12851.39
851.546	12809.58
851.869	12804.83
852.192	12831.95
852.515	12745.17
852.838	12601.22
853.161	12629.7
853.483	12567.78
853.806	12473.77
854.129	12475.12
854.451	12390.61
854.774	12458.18
855.096	12338.4
855.419	12378.4
855.741	12307.44
856.063	12238.75
856.385	12189.93
856.708	12179.09
857.03	12089.6
857.352	12168.47
857.674	12091.86
857.996	12013.67
858.318	11968.7
858.64	11884.86
858.961	11927.57
859.283	11864.97
859.605	11900.45
859.926	11829.04
860.248	11793.33
860.57	11758.53
860.891	11720.79
861.212	11716.27
861.534	11651.64
861.855	11631.98
862.176	11652.32
862.498	11600.12
862.819	11532.55
863.14	11561.48
863.461	11569.39
863.782	11505.66
864.103	11534.58
864.424	11477.86
864.745	11439.67
865.065	11355.61
865.386	11391.31
865.707	11286.45
866.027	11311.54
866.348	11224.31
866.668	11326.45
866.989	11307.7
867.309	11163.29
867.63	11278.77
867.95	11232.9
868.27	11104.09
868.59	11155.16
868.91	11114.93
869.23	11087.82
869.55	11040.13
869.87	11194.71
870.19	11086.69
870.51	11052.34
870.83	11058.44
871.15	11035.84
871.469	10991.1
871.789	11036.52
872.109	11017.54
872.428	10867.26
872.748	10942.96
873.067	10883.98
873.386	10910.19
873.706	10866.35
874.025	10778.67
874.344	10844.88
874.663	10893.47
874.982	10813.47
875.301	10777.09
875.62	10730.76
875.939	10738.67
876.258	10711.55
876.577	10709.97
876.896	10770.08
877.214	10707.26
877.533	10665.45
877.852	10620.48
878.17	10654.38
878.489	10651.67
878.807	10621.84
879.125	10576.64
879.444	10566.02
879.762	10532.58
880.08	10567.15
880.398	10497.32
880.716	10529.64
881.034	10440.38
881.352	10412.58
881.67	10459.81
881.988	10439.02
882.306	10383.88
882.624	10370.32
882.941	10342.52
883.259	10293.94
883.577	10305.69
883.894	10216.88
884.212	10250.32
884.529	10206.03
884.846	10180.95
885.164	10161.06
885.481	10079.48
885.798	10109.54
886.115	10062.98
886.432	10068.63
886.75	9994.96
887.067	10016.88
887.383	9951.8
887.7	10028.41
888.017	9982.76
888.334	9918.58
888.651	9890.56
888.967	9859.6
889.284	9777.12
889.6	9804.91
889.917	9756.33
890.233	9734.41
890.55	9730.79
890.866	9729.89
891.182	9663.22
891.498	9670.45
891.815	9636.1
892.131	9612.15
892.447	9512.49
892.763	9543.22
893.079	9545.48
893.395	9474.07
893.71	9483.79
894.026	9426.16
894.342	9408.31
894.657	9380.06
894.973	9190.01
895.289	9249.22
895.604	9291.03
895.92	9183.69
896.235	9184.81
896.55	9189.56
896.865	9177.36
897.181	9118.15
897.496	9110.69
897.811	9033.18
898.126	9021.43
898.441	9011.94
898.756	9018.27
899.071	8933.97
899.386	8923.8
899.7	8869.12
900.015	8751.61
900.33	8717.48
900.644	8753.87
900.959	8760.87
901.273	8772.85
901.588	8720.42
901.902	8641.78
902.216	8639.29
902.531	8639.74
902.845	8562.01
903.159	8526.98
903.473	8520.65
903.787	8453.53
904.101	8433.87
904.415	8393.2
904.729	8439.07
905.042	8344.61
905.356	8348.9
905.67	8336.02
905.984	8268.45
906.297	8248.34
906.611	8183.26
906.924	8183.94
907.237	8118.4
907.551	8056.71
907.864	8097.16
908.177	8101.23
908.491	8010.16
908.804	7967.45
909.117	7889.26
909.43	7884.74
909.743	7860.33
910.056	7847.68
910.368	7804.29
910.681	7781.91
910.994	7757.51
911.307	7705.08
911.619	7672.99
911.932	7686.78
912.244	7632.31
912.557	7595.7
912.869	7558.87
913.181	7590.05
913.494	7461.02
913.806	7469.15
914.118	7436.39
914.43	7391.42
914.742	7404.07
915.054	7331.76
915.366	7338.54
915.678	7287.01
915.99	7289.27
916.302	7169.27
916.613	7145.55
916.925	7129.73
917.236	7129.28
917.548	7112.78
917.859	7130.41
918.171	7072.1
918.482	7020.35
918.794	6965.89
919.105	6950.75
919.416	6895.61
919.727	6933.57
920.038	6877.76
920.349	6813.35
920.66	6806.8
920.971	6807.93
921.282	6746.01
921.593	6728.83
921.903	6712.79
922.214	6675.5
922.525	6614.94
922.835	6615.84
923.146	6593.92
923.456	6567.93
923.767	6569.74
924.077	6527.94
924.387	6455.62
924.697	6426.7
925.008	6428.96
925.318	6413.59
925.628	6346.02
925.938	6394.15
926.248	6288.62
926.558	6284.33
926.867	6278.9
927.177	6246.59
927.487	6182.18
927.796	6082.3
928.106	6174.27
928.416	6120.71
928.725	6118.91
929.034	6077.1
929.344	6066.25
929.653	6075.07
929.962	6024.9
930.271	5933.38
930.581	5935.18
930.89	5922.53
931.199	5846.37
931.508	5865.35
931.817	5890.89
932.125	5825.81
932.434	5776.32
932.743	5739.03
933.051	5776.77
933.36	5653.38
933.669	5690.22
933.977	5653.16
934.286	5666.26
934.594	5620.61
934.902	5596.66
935.21	5557.79
935.519	5541.52
935.827	5537
936.135	5492.93
936.443	5432.6
936.751	5435.08
937.059	5442.09
937.367	5398.93
937.674	5382.66
937.982	5346.95
938.29	5347.85
938.597	5367.97
938.905	5232.6
939.213	5256.78
939.52	5200.74
939.827	5258.82
940.135	5207.07
940.442	5147.41
940.749	5192.38
941.056	5151.25
941.363	5096.79
941.67	5087.3
941.977	5092.72
942.284	5038.03
942.591	5014.98
942.898	5017.47
943.205	5019.5
943.511	4956.9
943.818	4973.63
944.125	4930.24
944.431	4911.03
944.738	4905.83
945.044	4835.1
945.35	4845.27
945.657	4825.61
945.963	4776.57
946.269	4785.83
946.575	4713.07
946.881	4742.9
947.187	4713.07
947.493	4653.41
947.799	4759.39
948.105	4621.77
948.41	4608.44
948.716	4650.02
949.022	4573.41
949.327	4617.25
949.633	4544.26
949.938	4548.55
950.244	4512.62
950.549	4504.71
950.854	4444.37
951.16	4396.92
951.465	4465.39
951.77	4383.81
952.075	4394.66
952.38	4361.66
952.685	4375.68
952.99	4326.41
953.294	4365.51
953.599	4308.33
953.904	4304.04
954.209	4227.66
954.513	4250.93
954.818	4229.47
955.122	4186.75
955.426	4189.69
955.731	4153.99
956.035	4116.25
956.339	4126.87
956.643	4138.62
956.948	4108.56
957.252	4085.06
957.556	4043.48
957.86	4045.97
958.163	4031.96
958.467	4014.33
958.771	4029.24
959.075	3946.31
959.378	3975.01
959.682	3942.92
959.985	3931.39
960.289	3898.63
960.592	3886.65
960.896	3881.45
961.199	3902.24
961.502	3810.04
961.805	3869.93
962.108	3802.58
962.411	3783.38
962.714	3771.17
963.017	3757.61
963.32	3718.29
963.623	3657.28
963.926	3743.83
964.228	3650.27
964.531	3672.87
964.833	3640.33
965.136	3608.24
965.438	3604.4
965.741	3598.3
966.043	3592.19
966.345	3560.56
966.648	3577.73
966.95	3565.53
967.252	3511.52
967.554	3540.44
967.856	3486.43
968.158	3488.92
968.46	3503.83
968.761	3457.73
969.063	3451.18
969.365	3388.58
969.666	3398.98
969.968	3354.91
970.269	3396.04
970.571	3361.92
970.872	3362.37
971.174	3355.59
971.475	3355.82
971.776	3321.47
972.077	3339.77
972.378	3270.85
972.679	3251.19
972.98	3254.12
973.281	3235.82
973.582	3228.81
973.883	3251.19
974.183	3211.41
974.484	3198.53
974.785	3186.78
975.085	3174.58
975.386	3135.48
975.686	3124.18
975.986	3144.75
976.287	3109.95
976.587	3113.11
976.887	3074.92
977.187	3112.66
977.487	3059.1
977.787	3046.9
978.087	3045.99
978.387	3016.62
978.687	3018.2
978.987	2979.78
979.286	2936.17
979.586	2954.7
979.885	2933
980.185	2942.49
980.484	2944.3
980.784	2861.82
981.083	2908.82
981.382	2858.88
981.682	2850.29
981.981	2838.54
982.28	2861.59
982.579	2802.61
982.878	2806.45
983.177	2806.45
983.475	2801.48
983.774	2799.9
984.073	2781.14
984.372	2756.96
984.67	2766.23
984.969	2681.03
985.267	2724.65
985.566	2690.75
985.864	2680.13
986.162	2695.72
986.461	2660.92
986.759	2630.41
987.057	2623.18
987.355	2628.83
987.653	2618.89
987.951	2615.04
988.249	2570.07
988.547	2585.44
988.844	2597.42
989.142	2591.32
989.44	2553.58
989.737	2559.9
990.035	2535.27
990.332	2566.01
990.63	2527.81
990.927	2534.82
991.224	2490.53
991.521	2462.51
991.819	2469.74
992.116	2432.45
992.413	2457.31
992.71	2415.73
993.006	2399
993.303	2422.05
993.6	2391.55
993.897	2379.12
994.193	2361.27
994.49	2328.95
994.787	2343.86
995.083	2329.85
995.379	2343.41
995.676	2337.09
995.972	2302.06
996.268	2293.7
996.565	2260.25
996.861	2246.47
997.157	2234.94
997.453	2228.16
997.749	2262.51
998.044	2242.4
998.34	2159.46
998.636	2179.58
998.932	2181.84
999.227	2172.34
999.523	2156.75
999.818	2158.11
1000.114	2152.01
1000.409	2143.19
1000.704	2108.16
1001	2130.31
1001.295	2085.34
1001.59	2097.77
1001.885	2095.74
1002.18	2077.66
1002.475	2059.35
1002.77	2041.95
1003.065	2038.79
1003.359	2024.78
1003.654	2055.51
1003.949	2012.57
1004.243	1977.09
1004.538	1968.96
1004.832	2007.6
1005.127	1963.08
1005.421	1951.11
1005.715	1948.62
1006.009	1947.27
1006.304	1912.92
1006.598	1898.68
1006.892	1909.98
1007.186	1870.88
1007.48	1864.33
1007.773	1875.63
1008.067	1876.53
1008.361	1846.93
1008.655	1865.23
1008.948	1830.88
1009.242	1836.76
1009.535	1820.04
1009.829	1808.06
1010.122	1797.44
1010.415	1762.64
1010.708	1758.8
1011.001	1750.66
1011.295	1762.64
1011.588	1733.71
1011.881	1696.42
1012.173	1702.3
1012.466	1685.8
1012.759	1689.64
1013.052	1693.71
1013.344	1673.37
1013.637	1675.86
1013.93	1646.93
1014.222	1639.25
1014.514	1653.49
1014.807	1658.91
1015.099	1623.43
1015.391	1597.67
1015.683	1623.21
1015.976	1590.89
1016.268	1572.59
1016.56	1571.91
1016.851	1556.54
1017.143	1561.06
1017.435	1533.72
1017.727	1525.81
1018.018	1515.64
1018.31	1538.46
1018.602	1521.97
1018.893	1489.65
1019.185	1471.57
1019.476	1465.24
1019.767	1460.05
1020.058	1470.44
1020.35	1446.94
1020.641	1436.54
1020.932	1447.84
1021.223	1415.75
1021.514	1417.34
1021.804	1384.57
1022.095	1407.39
1022.386	1394.29
1022.677	1397.22
1022.967	1372.82
1023.258	1362.65
1023.548	1356.09
1023.839	1333.5
1024.129	1312.93
1024.419	1325.36
1024.709	1337.56
1025	1325.36
1025.29	1308.64
1025.58	1285.36
1025.87	1287.85
1026.16	1227.74
1026.449	1293.27
1026.739	1253.05
1027.029	1248.75
1027.319	1213.05
1027.608	1227.51
1027.898	1228.19
1028.187	1220.73
1028.477	1203.33
1028.766	1186.38
1029.055	1198.58
1029.344	1168.98
1029.634	1197.23
1029.923	1166.95
1030.212	1163.33
1030.501	1151.13
1030.79	1175.08
1031.078	1129.43
1031.367	1112.03
1031.656	1119.49
1031.945	1101.64
1032.233	1123.56
1032.522	1121.75
1032.81	1116.1
1033.099	1076.55
1033.387	1071.36
1033.675	1062.77
1033.963	1062.77
1034.251	1054.18
1034.54	1082.88
1034.828	1059.6
1035.116	1034.75
1035.403	1030.91
1035.691	1027.29
1035.979	1014.63
1036.267	1014.63
1036.554	999.04
1036.842	1011.92
1037.129	1004.24
1037.417	969.89
1037.704	971.92
1037.992	990.23
1038.279	999.49
1038.566	975.54
1038.853	975.54
1039.14	975.54
