Data from hue_320_FLMS001491_12.txt Node
Date: Mon Feb 06 15:46:47 GMT 2017
User: dcchb
Spectrometer: FLMS00149
Trigger mode: 0
Integration Time (sec): 2.000000E-2
Scans to average: 10
Electric dark correction enabled: true
Nonlinearity correction enabled: false
Boxcar width: 0
XAxis mode: Wavelengths
Number of Pixels in Spectrum: 2048
>>>>>Begin Spectral Data<<<<<
341.393	4.97
341.776	4.97
342.16	4.97
342.543	-49.72
342.927	-64.63
343.31	-80.68
343.693	-69.6
344.077	-62.82
344.46	-46.55
344.843	-46.1
345.226	-29.83
345.61	-25.08
345.993	-18.3
346.376	-22.37
346.759	-7.68
347.142	53.78
347.525	22.15
347.908	48.13
348.291	82.48
348.674	98.75
349.057	103.73
349.44	113.9
349.823	137.17
350.206	179.88
350.588	202.71
350.971	215.14
351.354	234.8
351.737	250.16
352.119	273.89
352.502	265.3
352.884	271.41
353.267	289.26
353.65	291.07
354.032	320.22
354.414	318.41
354.797	294.91
355.179	304.4
355.562	309.82
355.944	352.31
356.326	344.62
356.709	348.69
357.091	339.2
357.473	352.53
357.855	345.53
358.238	344.85
358.62	343.72
359.002	354.57
359.384	346.43
359.766	345.08
360.148	333.1
360.53	337.17
360.912	340.56
361.294	329.48
361.676	333.1
362.057	324.06
362.439	352.08
362.821	300.78
363.203	341.46
363.584	319.09
363.966	332.19
364.348	331.74
364.729	330.84
365.111	315.47
365.493	326.32
365.874	310.27
366.256	312.31
366.637	316.15
367.019	324.29
367.4	313.66
367.781	336.04
368.163	329.93
368.544	327.9
368.925	317.05
369.306	307.34
369.688	317.73
370.069	320.44
370.45	315.7
370.831	321.8
371.212	322.93
371.593	317.51
371.974	316.38
372.355	314.79
372.736	320.22
373.117	327.22
373.498	304.62
373.879	331.29
374.26	317.51
374.641	321.8
375.021	317.96
375.402	345.75
375.783	311.86
376.163	343.49
376.544	327.9
376.925	322.48
377.305	340.78
377.686	321.35
378.066	336.49
378.447	331.52
378.827	333.78
379.208	310.5
379.588	317.96
379.968	333.55
380.349	327.22
380.729	344.85
381.109	346.66
381.489	333.55
381.87	337.84
382.25	331.97
382.63	351.4
383.01	352.99
383.39	349.14
383.77	341.01
384.15	332.19
384.53	340.56
384.91	345.53
385.29	345.08
385.67	347.56
386.049	351.86
386.429	350.73
386.809	383.04
387.189	349.6
387.568	358.63
387.948	368.35
388.328	346.43
388.707	362.48
389.087	376.71
389.466	365.64
389.846	362.02
390.225	351.86
390.605	367.67
390.984	376.71
391.363	385.3
391.743	395.92
392.122	371.06
392.501	368.8
392.881	372.87
393.26	398.63
393.639	381.23
394.018	394.79
394.397	384.17
394.776	381.23
395.155	355.47
395.534	387.33
395.913	372.19
396.292	406.54
396.671	363.38
397.05	388.01
397.429	394.79
397.808	392.98
398.186	397.28
398.565	379.2
398.944	383.04
399.323	399.76
399.701	400.44
400.08	404.74
400.458	402.48
400.837	395.24
401.215	394.11
401.594	426.2
401.972	419.65
402.351	401.57
402.729	435.24
403.107	414
403.486	399.09
403.864	429.37
404.242	416.26
404.62	430.72
404.999	424.4
405.377	432.08
405.755	434.79
406.133	453.1
406.511	449.93
406.889	423.72
407.267	435.69
407.645	451.74
408.023	466.43
408.401	501.23
408.779	461
409.156	467.56
409.534	473.43
409.912	482.02
410.29	494.45
410.667	478.86
411.045	521.57
411.422	497.84
411.8	507.33
412.178	502.59
412.555	515.69
412.933	522.47
413.31	532.42
413.687	514.79
414.065	550.95
414.442	540.78
414.819	547.1
415.197	556.14
415.574	568.8
415.951	559.08
416.328	580.1
416.705	573.09
417.082	590.04
417.46	579.65
417.837	622.58
418.214	608.12
418.591	611.74
418.967	627.78
419.344	628.01
419.721	617.16
420.098	631.85
420.475	623.26
420.852	646.99
421.228	645.18
421.605	661.23
421.982	666.65
422.358	678.85
422.735	698.06
423.111	696.25
423.488	720.66
423.864	684.28
424.241	697.16
424.617	721.34
424.994	700.77
425.37	732.86
425.746	723.14
426.123	754.56
426.499	739.42
426.875	751.62
427.251	781.22
427.627	771.96
428.003	772.41
428.379	792.3
428.756	789.81
429.132	805.4
429.507	801.11
429.883	826.64
430.259	818.74
430.635	826.87
431.011	835.46
431.387	872.07
431.763	869.81
432.138	860.77
432.514	895.8
432.89	883.37
433.265	929.02
433.641	936.47
434.016	930.6
434.392	926.08
434.767	930.37
435.143	951.84
435.518	984.38
435.894	972.18
436.269	1003.82
436.644	1004.95
437.02	995.45
437.395	985.28
437.77	1031.16
438.145	1008.56
438.52	1010.37
438.895	1045.85
439.271	1030.26
439.646	1059.86
440.021	1069.35
440.395	1076.13
440.77	1048.33
441.145	1073.42
441.52	1063.93
441.895	1101.44
442.27	1082.68
442.645	1095.34
443.019	1106.64
443.394	1130.82
443.769	1094.21
444.143	1141.89
444.518	1131.72
444.892	1115.68
445.267	1127.88
445.641	1120.42
446.016	1165.62
446.39	1142.57
446.764	1142.79
447.139	1140.99
447.513	1177.37
447.887	1178.5
448.262	1177.37
448.636	1186.18
449.01	1174.88
449.384	1183.7
449.758	1154.77
450.132	1182.57
450.506	1211.49
450.88	1209.23
451.254	1201.55
451.628	1232.28
452.002	1223.24
452.376	1229.8
452.75	1237.03
453.123	1256.24
453.497	1258.72
453.871	1296.24
454.244	1268.89
454.618	1291.49
454.992	1300.98
455.365	1323.58
455.739	1321.55
456.112	1340.08
456.486	1308.21
456.859	1366.52
457.232	1363.13
457.606	1335.11
457.979	1370.13
458.352	1387.99
458.725	1423.92
459.099	1436.12
459.472	1433.63
459.845	1423.24
460.218	1436.35
460.591	1474.54
460.964	1450.58
461.337	1506.4
461.71	1506.85
462.083	1507.31
462.456	1519.51
462.829	1520.64
463.201	1540.98
463.574	1552.05
463.947	1577.13
464.32	1597.02
464.692	1601.31
465.065	1580.3
465.438	1602.67
465.81	1626.4
466.183	1632.05
466.555	1648.77
466.928	1659.84
467.3	1696.23
467.672	1693.06
468.045	1698.71
468.417	1710.92
468.789	1717.69
469.161	1762.44
469.534	1743.68
469.906	1768.77
470.278	1771.03
470.65	1821.87
471.022	1813.96
471.394	1857.35
471.766	1850.35
472.138	1890.12
472.51	1918.14
472.882	1932.15
473.253	1973.28
473.625	1958.14
473.997	1995.65
474.369	2003.34
474.74	2027.97
475.112	2043.34
475.484	2085.37
475.855	2102.54
476.227	2088.53
476.598	2165.14
476.97	2185.03
477.341	2221.86
477.713	2218.47
478.084	2238.59
478.455	2290.11
478.827	2255.31
479.198	2348.41
479.569	2324.01
479.94	2378.24
480.311	2440.39
480.682	2483.32
481.053	2498.47
481.424	2512.02
481.795	2526.71
482.166	2587.28
482.537	2567.84
482.908	2631.12
483.279	2611.23
483.65	2676.77
484.021	2710.44
484.391	2747.05
484.762	2754.5
485.133	2812.81
485.503	2789.98
485.874	2836.99
486.244	2886.48
486.615	2916.99
486.985	2957.44
487.356	3001.5
487.726	3015.97
488.097	3024.55
488.467	3042.86
488.837	3141.84
489.207	3141.16
489.578	3198.79
489.948	3205.34
490.318	3224.55
490.688	3229.52
491.058	3272.68
491.428	3327.82
491.798	3314.72
492.168	3394.94
492.538	3407.14
492.908	3431.32
493.278	3444.66
493.648	3404.66
494.017	3501.6
494.387	3541.15
494.757	3514.94
495.126	3549.96
495.496	3581.6
495.866	3622.5
496.235	3667.02
496.605	3603.75
496.974	3666.57
497.344	3691.2
497.713	3690.3
498.082	3732.56
498.452	3756.51
498.821	3767.58
499.19	3782.5
499.559	3787.7
499.928	3831.09
500.298	3857.3
500.667	3869.5
501.036	3847.13
501.405	3885.1
501.774	3878.09
502.143	3933.23
502.512	3918.32
502.88	3952.44
503.249	3972.78
503.618	3977.52
503.987	3954.25
504.356	4069.5
504.724	4028.82
505.093	4036.73
505.462	4029.95
505.83	4037.18
506.199	4086.22
506.567	4086.45
506.936	4148.14
507.304	4137.97
507.672	4165.77
508.041	4161.47
508.409	4197.63
508.777	4240.34
509.145	4236.05
509.514	4235.14
509.882	4252.54
510.25	4255.03
510.618	4298.42
510.986	4259.1
511.354	4326.44
511.722	4327.57
512.09	4355.14
512.458	4375.48
512.826	4392.43
513.193	4402.37
513.561	4354.46
513.929	4426.78
514.297	4401.01
514.664	4444.63
515.032	4439.88
515.4	4443.05
515.767	4527.11
516.135	4473.78
516.502	4473.55
516.869	4541.35
517.237	4525.53
517.604	4481.24
517.972	4522.37
518.339	4544.51
518.706	4588.35
519.073	4610.73
519.44	4602.36
519.808	4603.04
520.175	4548.81
520.542	4618.41
520.909	4695.7
521.276	4679.88
521.643	4724.17
522.009	4744.28
522.376	4801.23
522.743	4776.6
523.11	4801.23
523.477	4802.59
523.843	4830.38
524.21	4871.28
524.577	4907.22
524.943	4918.51
525.31	4906.31
525.676	4949.02
526.043	4974.78
526.409	5010.04
526.776	4990.6
527.142	5038.29
527.508	5065.63
527.874	5081.67
528.241	5119.41
528.607	5148.11
528.973	5155.12
529.339	5192.63
529.705	5225.17
530.071	5226.76
530.437	5247.09
530.803	5282.12
531.169	5305.62
531.535	5347.66
531.901	5336.81
532.267	5378.39
532.632	5412.06
532.998	5413.19
533.364	5407.09
533.73	5431.5
534.095	5422
534.461	5519.18
534.826	5556.46
535.192	5566.63
535.557	5601.66
535.923	5585.16
536.288	5590.59
536.653	5678.27
537.019	5628.1
537.384	5676.69
537.749	5677.36
538.114	5700.87
538.479	5727.08
538.845	5764.37
539.21	5760.53
539.575	5817.47
539.94	5810.92
540.305	5810.47
540.67	5857.25
541.034	5902.22
541.399	5968.88
541.764	5918.49
542.129	5921.43
542.494	6015.21
542.858	6043.46
543.223	6010.69
543.587	6040.75
543.952	6072.83
544.316	6064.47
544.681	6071.93
545.045	6115.55
545.41	6141.08
545.774	6186.05
546.138	6243
546.503	6234.19
546.867	6217.92
547.231	6334.75
547.595	6347.4
547.959	6351.47
548.324	6324.58
548.688	6352.83
549.052	6411.13
549.416	6399.15
549.779	6407.74
550.143	6419.04
550.507	6453.39
550.871	6497.23
551.235	6547.4
551.599	6565.48
551.962	6581.07
552.326	6557.12
552.689	6573.84
553.053	6601.63
553.417	6633.27
553.78	6673.5
554.143	6676.89
554.507	6675.53
554.87	6692.03
555.234	6727.96
555.597	6720.95
555.96	6798.69
556.323	6818.58
556.686	6755.98
557.05	6838.24
557.413	6865.36
557.776	6845.24
558.139	6897.67
558.502	6971.12
558.865	6918.69
559.228	6962.98
559.59	7029.42
559.953	6959.14
560.316	7110.55
560.679	7096.08
561.041	7055.41
561.404	7112.36
561.767	7123.2
562.129	7121.85
562.492	7231.67
562.854	7207.49
563.217	7183.09
563.579	7214.5
563.941	7298.79
564.304	7300.82
564.666	7357.77
565.028	7355.06
565.39	7400.71
565.753	7409.75
566.115	7443.19
566.477	7453.36
566.839	7489.29
567.201	7540.82
567.563	7590.76
567.925	7609.52
568.287	7604.09
568.648	7633.92
569.01	7654.94
569.372	7675.73
569.734	7685.67
570.095	7737.65
570.457	7770.19
570.819	7781.26
571.18	7810.64
571.542	7882.28
571.903	7908.49
572.265	7951.2
572.626	7960.47
572.987	7990.07
573.349	8072.1
573.71	8129.05
574.071	8218.09
574.432	8274.81
574.794	8329.72
575.155	8332.89
575.516	8343.28
575.877	8455.82
576.238	8521.81
576.599	8600.68
576.96	8665.76
577.32	8679.32
577.681	8761.58
578.042	8905.98
578.403	8960.67
578.763	9050.84
579.124	9133.09
579.485	9181.68
579.845	9336.03
580.206	9478.62
580.566	9565.85
580.927	9734.66
581.287	9820.98
581.648	9864.6
582.008	10064.59
582.368	10247.64
582.728	10317.47
583.089	10500.51
583.449	10675.2
583.809	10864.35
584.169	11073.61
584.529	11135.3
584.889	11430.89
585.249	11590.43
585.609	11676.98
585.969	12007.14
586.329	12177.53
586.688	12471.99
587.048	12657.07
587.408	12880.11
587.768	13076.27
588.127	13380.67
588.487	13570.72
588.846	13853.2
589.206	14060.87
589.565	14337.25
589.925	14712.83
590.284	14879.16
590.643	15214.06
591.003	15456.99
591.362	15775.86
591.721	15962.52
592.08	16300.59
592.44	16545.55
592.799	16944.87
593.158	17102.15
593.517	17507.56
593.876	17792.07
594.235	18093.99
594.593	18312.29
594.952	18709.11
595.311	18943.91
595.67	19242.88
596.029	19646.04
596.387	19925.8
596.746	20290.99
597.104	20569.4
597.463	20777.31
597.822	21190.4
598.18	21381.36
598.538	21675.81
598.897	22099.53
599.255	22236.25
599.613	22760.53
599.972	22861.09
600.33	23262.67
600.688	23470.8
601.046	23851.8
601.404	24247.72
601.762	24470.09
602.12	24842.06
602.478	25032.34
602.836	25291.54
603.194	25574.24
603.552	25893.1
603.91	26071.63
604.268	26520.66
604.625	26596.36
604.983	26920.42
605.341	27044.26
605.698	27451.48
606.056	27733.28
606.413	27959.94
606.771	28361.97
607.128	28562.19
607.485	28505.92
607.843	28900.03
608.2	29234.49
608.557	29544.76
608.914	29523.29
609.272	29978.19
609.629	30350.39
609.986	30506.32
610.343	30721
610.7	30886.65
611.057	31173.42
611.414	31255.45
611.771	31659.28
612.127	31771.37
612.484	31943.11
612.841	32259.49
613.198	32274.63
613.554	32394.18
613.911	32895.18
614.267	32927.04
614.624	33129.3
614.98	33355.51
615.337	33624.43
615.693	33650.41
616.05	33796.4
616.406	34089.27
616.762	34125.2
617.118	34343.28
617.475	34482.48
617.831	34610.62
618.187	34759.99
618.543	34965.18
618.899	35195.01
619.255	35394.1
619.611	35387.32
619.967	35725.16
620.323	35837.48
620.678	35908.21
621.034	35975.33
621.39	35919.06
621.746	35936.91
622.101	36512.71
622.457	36376.22
622.812	36589.09
623.168	36698.7
623.523	36874.51
623.879	36834.06
624.234	36787.96
624.589	37073.15
624.945	37152.02
625.3	37062.98
625.655	37274.05
626.01	37354.05
626.365	37471.11
626.72	37493.7
627.075	37425.91
627.43	37566.92
627.785	37697.09
628.14	37704.32
628.495	37808.95
628.85	37849.17
629.205	37714.04
629.559	38106.34
629.914	37931.21
630.269	37977.98
630.623	37885.11
630.978	37969.4
631.332	38144.76
631.687	38262.5
632.041	38212.55
632.396	38254.14
632.75	38128.94
633.104	38227.92
633.459	38069.73
633.813	38093.91
634.167	38196.06
634.521	38206
634.875	38339.78
635.229	38289.61
635.583	38088.04
635.937	38202.84
636.291	38258.66
636.645	38300.69
636.999	38168.26
637.352	38474.92
637.706	38150.18
638.06	38305.89
638.413	38310.63
638.767	38187.7
639.121	38366
639.474	38022.5
639.828	38224.08
640.181	38241.25
640.534	38308.82
640.888	38087.13
641.241	38084.87
641.594	38143.4
641.947	38293.91
642.301	38124.42
642.654	38132.78
643.007	38140.92
643.36	38197.41
643.713	38107.47
644.066	38092.33
644.419	38084.2
644.771	37833.81
645.124	37612.34
645.477	37665.9
645.83	37235.86
646.182	37210.55
646.535	37052.59
646.888	37207.61
647.24	36946.6
647.593	37067.27
647.945	37075.18
648.298	36893.72
648.65	36943.21
649.002	36788.19
649.355	36938.69
649.707	36813.27
650.059	37044.22
650.411	37524.21
650.763	37491.22
651.115	37765.11
651.467	37847.14
651.819	37685.11
652.171	37768.72
652.523	37703.19
652.875	37711.1
653.227	37562.63
653.578	37777.99
653.93	37645.11
654.282	37564.21
654.633	37539.13
654.985	37625.23
655.337	37468.17
655.688	37631.1
656.039	37579.58
656.391	37445.57
656.742	37391.56
657.094	37494.83
657.445	37592.91
657.796	37482.63
658.147	37517.43
658.498	37448.05
658.849	37575.96
659.2	37451.44
659.551	37366.7
659.902	37567.83
660.253	37401.28
660.604	37547.71
660.955	37293.03
661.306	37526.02
661.656	37408.28
662.007	37328.96
662.358	37443.76
662.708	37272.69
663.059	37330.32
663.409	37137.33
663.76	37489.64
664.11	37486.02
664.461	37313.37
664.811	37500.71
665.161	37430.43
665.511	37204.22
665.862	37353.59
666.212	37519.69
666.562	37570.76
666.912	37311.56
667.262	37266.36
667.612	37271.79
667.962	37294.84
668.312	37224.11
668.662	37447.6
669.011	37316.08
669.361	37221.39
669.711	37212.35
670.06	37130.78
670.41	37092.36
670.76	37171.45
671.109	37222.07
671.459	37243.31
671.808	37206.93
672.157	37321.73
672.507	36922.19
672.856	37157.89
673.205	37102.53
673.554	37130.1
673.904	37120.61
674.253	37238.34
674.602	37083.32
674.951	36609.43
675.3	36336.9
675.649	37042.64
675.998	36909.99
676.346	36966.71
676.695	37053.04
677.044	36836.09
677.393	37022.53
677.741	37015.52
678.09	36783.89
678.438	36722.42
678.787	36850.56
679.135	36885.81
679.484	36639.71
679.832	36639.71
680.181	36554.29
680.529	36713.84
680.877	36509.32
681.225	36366.5
681.573	36786.15
681.922	36439.95
682.27	36303.9
682.618	36408.99
682.966	36225.71
683.314	36528.31
683.661	36291.93
684.009	36069.33
684.357	35937.13
684.705	35780.98
685.053	36020.52
685.4	35957.47
685.748	35884.93
686.095	35745.5
686.443	35670.93
686.79	35737.14
687.138	35630.25
687.485	35627.76
687.832	35539.18
688.18	35578.27
688.527	35415.79
688.874	35450.14
689.221	35344.61
689.568	35141.9
689.915	35124.27
690.262	35136.48
690.609	34973.09
690.956	34964.28
691.303	34942.36
691.65	34855.58
691.997	34703.27
692.344	34611.75
692.69	34643.16
693.037	34607.9
693.383	34282.04
693.73	34338.31
694.077	34163.62
694.423	34160.91
694.769	34009.05
695.116	34001.14
695.462	33942.16
695.808	33785.78
696.155	33927.24
696.501	33666.01
696.847	33586.01
697.193	33449.97
697.539	33449.97
697.885	33212.01
698.231	33195.74
698.577	33244.78
698.923	33108.51
699.269	33004.78
699.614	32958.91
699.96	32822.87
700.306	32928.85
700.651	32725.47
700.997	32685.02
701.342	32548.97
701.688	32551.46
702.033	32503.55
702.379	32391.69
702.724	32247.51
703.069	32444.34
703.415	32013.62
703.76	32071.25
704.105	32050.68
704.45	32066.5
704.795	31774.53
705.14	31633.97
705.485	31662.67
705.83	31645.5
706.175	31615.44
706.52	31468.1
706.865	31433.52
707.209	31400.08
707.554	31269.23
707.899	31291.38
708.243	31186.3
708.588	31107.43
708.932	30981.56
709.277	30919.86
709.621	30977.49
709.966	30721.9
710.31	30807.55
710.654	30462.02
710.998	30599.65
711.342	30528.46
711.687	30495.47
712.031	30408.69
712.375	30328.92
712.719	30314.23
713.063	30225.87
713.407	30309.94
713.75	30006.44
714.094	30087.57
714.438	29905.65
714.782	29981.81
715.125	29791.76
715.469	29912.66
715.812	29758.77
716.156	29577.98
716.499	29655.04
716.843	29568.26
717.186	29514.93
717.53	29671.76
717.873	29621.59
718.216	29492.78
718.559	29432.22
718.902	29232.45
719.246	29265.67
719.589	29193.58
719.932	29102.74
720.275	28987.26
720.617	28962.63
720.96	28955.62
721.303	28896.87
721.646	28969.18
721.989	28733.93
722.331	28931.44
722.674	28811.22
723.016	28774.61
723.359	28700.49
723.701	28817.77
724.044	28585.46
724.386	28401.29
724.729	28549.08
725.071	28436.31
725.413	28381.17
725.755	28385.69
726.097	28251.46
726.439	28202.65
726.782	28176.66
727.124	28137.57
727.465	28120.84
727.807	28033.61
728.149	27948.19
728.491	27951.58
728.833	28010.56
729.175	27886.05
729.516	27938.47
729.858	27814.64
730.199	27743.68
730.541	27696.45
730.882	27728.54
731.224	27780.29
731.565	27419.17
731.906	27500.29
732.248	27653.28
732.589	27438.37
732.93	27260.07
733.271	27399.28
733.612	27429.79
733.953	27399.96
734.294	27252.84
734.635	27103.92
734.976	27342.11
735.317	27115.9
735.658	27092.17
735.999	27123.13
736.339	27025.28
736.68	27124.94
737.021	27071.83
737.361	26909.35
737.702	26996.35
738.042	26909.35
738.383	26775.12
738.723	26771.27
739.063	26628.23
739.404	26786.64
739.744	26680.43
740.084	26605.18
740.424	26581.22
740.764	26609.47
741.104	26530.83
741.444	26362.02
741.784	26481.56
742.124	26519.08
742.464	26426.42
742.804	26334.22
743.143	26190.05
743.483	26334
743.823	26226.88
744.162	26182.59
744.502	26244.96
744.841	26103.95
745.181	26157.28
745.52	26112.08
745.86	26051.29
746.199	26074.79
746.538	25859.21
746.877	25941.24
747.216	25906.66
747.556	25739.44
747.895	25892.88
748.234	25705.54
748.573	25606.78
748.911	25691.53
749.25	25673.45
749.589	25567.24
749.928	25438.2
750.267	25488.14
750.605	25481.36
750.944	25351.88
751.283	25324.76
751.621	25383.06
751.96	25278.43
752.298	25202.05
752.636	25231.88
752.975	25028.95
753.313	24858.78
753.651	25070.75
753.989	24881.83
754.327	24893.58
754.666	24767.26
755.004	24895.16
755.342	24782.63
755.679	24745.56
756.017	24541.95
756.355	24693.36
756.693	24464.89
757.031	24589.86
757.368	24381.05
757.706	24418.34
758.044	24223.54
758.381	24405.69
758.719	24155.98
759.056	24183.54
759.394	24113.94
759.731	23839.6
760.068	24011.8
760.405	23795.53
760.743	23728.87
761.08	23851.8
761.417	23633.95
761.754	23575.88
762.091	23548.99
762.428	23497.91
762.765	23415.2
763.102	23436.22
763.438	23297.24
763.775	23117.81
764.112	23127.53
764.449	23161.42
764.785	23070.13
765.122	22837.37
765.458	22850.7
765.795	22825.39
766.131	22712.4
766.467	22699.29
766.804	22545.17
767.14	22463.59
767.476	22494.78
767.812	22383.82
768.148	22398.06
768.485	22277.38
768.821	22205.74
769.157	22122.58
769.492	22055.47
769.828	22140.89
770.164	21870.39
770.5	21759.2
770.836	21742.25
771.171	21565.53
771.507	21565.53
771.842	21478.08
772.178	21483.05
772.513	21289.38
772.849	21257.52
773.184	21235.83
773.519	21160.8
773.855	21062.05
774.19	20968.49
774.525	21003.52
774.86	20951.99
775.195	20842.84
775.53	20771.88
775.865	20723.97
776.2	20514.26
776.535	20526.69
776.87	20398.11
777.205	20358.56
777.539	20210.09
777.874	20279.92
778.209	20063.65
778.543	20059.36
778.878	19894.39
779.212	19917.44
779.547	19813.04
779.881	19825.02
780.215	19656.88
780.55	19749.99
780.884	19469.09
781.218	19522.88
781.552	19424.35
781.886	19345.48
782.22	19305.03
782.554	19129.89
782.888	19112.04
783.222	19018.48
783.556	18904.81
783.889	18911.82
784.223	18747.08
784.557	18694.42
784.89	18668.21
785.224	18704.37
785.557	18540.3
785.891	18501.89
786.224	18394.54
786.558	18436.35
786.891	18193.42
787.224	18244.27
787.557	18157.04
787.891	18115
788.224	18040.88
788.557	18040.88
788.89	18061.67
789.223	17929.7
789.556	17893.31
789.888	17789.59
790.221	17698.74
790.554	17510.95
790.887	17561.57
791.219	17529.93
791.552	17489.94
791.884	17468.69
792.217	17356.83
792.549	17259.89
792.882	17168.81
793.214	17084.75
793.546	17212.88
793.879	16948.71
794.211	16925.43
794.543	16968.37
794.875	16859.22
795.207	16988.25
795.539	16818.09
795.871	16749.39
796.203	16724.53
796.535	16625.55
796.867	16450.41
797.198	16522.5
797.53	16526.12
797.862	16366.58
798.193	16389.4
798.525	16330.19
798.856	16284.09
799.188	16036.41
799.519	16130.2
799.85	16050.2
800.182	15980.37
800.513	15983.31
800.844	15792.58
801.175	15904.67
801.506	15965.91
801.837	15824.67
802.168	15732.92
802.499	15556.2
802.83	15589.42
803.161	15562.08
803.491	15499.93
803.822	15605.01
804.153	15472.81
804.483	15346.49
804.814	15335.64
805.145	15307.85
805.475	15306.49
805.805	15141.07
806.136	15198.02
806.466	15246.15
806.796	15129.77
807.126	14926.84
807.457	14959.61
807.787	15094.29
808.117	14940.62
808.447	14826.95
808.777	15003.67
809.107	14831.7
809.436	14731.36
809.766	14755.09
810.096	14680.52
810.426	14583.12
810.755	14629.45
811.085	14547.19
811.414	14522.33
811.744	14468.55
812.073	14405.5
812.403	14401.43
812.732	14258.83
813.061	14293.18
813.39	14251.38
813.719	14227.65
814.049	14248.21
814.378	14097.26
814.707	14118.5
815.036	14144.49
815.365	14042.79
815.693	13882.35
816.022	14080.76
816.351	13934.1
816.68	13780.65
817.008	13822.91
817.337	13727.32
817.665	13789.92
817.994	13743.37
818.322	13638.06
818.651	13649.58
818.979	13676.48
819.307	13697.94
819.636	13594.9
819.964	13501.57
820.292	13594.44
820.62	13612.75
820.948	13554.45
821.276	13630.15
821.604	13455.47
821.932	13534.79
822.259	13481
822.587	13447.56
822.915	13420.44
823.243	13481.23
823.57	13476.48
823.898	13432.42
824.225	13325.53
824.553	13259.54
824.88	13479.65
825.207	13371.4
825.535	13364.39
825.862	13470.61
826.189	13443.26
826.516	13434.45
826.843	13465.86
827.17	13468.57
827.497	13434.67
827.824	13446.2
828.151	13469.02
828.478	13447.33
828.805	13438.29
829.131	13305.19
829.458	13475.35
829.785	13239.2
830.111	13387.67
830.438	13398.29
830.764	13351.51
831.09	13355.81
831.417	13351.29
831.743	13411.17
832.069	13435.35
832.395	13278.52
832.722	13290.05
833.048	13295.47
833.374	13365.52
833.7	13274.23
834.026	13261.8
834.351	13238.97
834.677	13338.18
835.003	13249.6
835.329	13215.47
835.654	13240.33
835.98	13139.77
836.306	13141.58
836.631	13104.29
836.956	13189.94
837.282	13137.51
837.607	13098.19
837.932	13052.09
838.258	13071.07
838.583	13043.27
838.908	13000.79
839.233	13017.06
839.558	12957.4
839.883	12945.2
840.208	12919.66
840.533	12899.77
840.858	12805.09
841.182	12916.95
841.507	12832.2
841.832	12799.44
842.156	12790.17
842.481	12793.34
842.805	12660.23
843.13	12666.79
843.454	12635.37
843.778	12605.32
844.103	12598.54
844.427	12504.08
844.751	12540.01
845.075	12510.86
845.399	12519.44
845.723	12365.1
846.047	12474.02
846.371	12214.14
846.695	12274.03
847.019	12212.11
847.343	12197.87
847.666	12103.41
847.99	12084.2
848.313	12063.41
848.637	11939.35
848.96	11872.91
849.284	11893.7
849.607	11856.86
849.931	11800.37
850.254	11752.91
850.577	11636.53
850.9	11549.75
851.223	11564.44
851.546	11572.35
851.869	11513.6
852.192	11505.69
852.515	11351.11
852.838	11270.66
853.161	11294.84
853.483	11289.87
853.806	11258.24
854.129	11197.22
854.451	11182.98
854.774	11090.56
855.096	11068.18
855.419	11054.85
855.741	11014.4
856.063	11025.92
856.385	10926.49
856.708	10894.85
857.03	10806.27
857.352	10931.46
857.674	10799.94
857.996	10790
858.318	10730.57
858.64	10768.08
858.961	10613.51
859.283	10670.91
859.605	10632.26
859.926	10622.77
860.248	10651.25
860.57	10496.67
860.891	10635.43
861.212	10476.11
861.534	10430.23
861.855	10431.36
862.176	10408.99
862.498	10386.85
862.819	10458.71
863.14	10447.86
863.461	10353.17
863.782	10300.52
864.103	10310.69
864.424	10319.28
864.745	10331.93
865.065	10201.77
865.386	10246.28
865.707	10195.21
866.027	10234.53
866.348	10237.47
866.668	10150.47
866.989	10131.49
867.309	10058.27
867.63	10115.44
867.95	10092.84
868.27	9993.64
868.59	10047.19
868.91	10039.28
869.23	10025.73
869.55	9953.18
869.87	10055.55
870.19	9993.41
870.51	10006.29
870.83	9997.03
871.15	9889.68
871.469	9870.47
871.789	9942.56
872.109	9915.22
872.428	9817.82
872.748	9870.25
873.067	9858.95
873.386	9823.24
873.706	9814.43
874.025	9809.01
874.344	9791.15
874.663	9705.73
874.982	9724.72
875.301	9744.38
875.62	9682.46
875.939	9706.19
876.258	9687.43
876.577	9597.04
876.896	9601.1
877.214	9620.76
877.533	9566.08
877.852	9550.26
878.17	9612.63
878.489	9550.26
878.807	9553.42
879.125	9457.6
879.444	9547.09
879.762	9528.34
880.08	9517.26
880.398	9440.66
880.716	9427.77
881.034	9404.27
881.352	9436.14
881.67	9381.67
881.988	9291.73
882.306	9316.14
882.624	9325.63
882.941	9282.47
883.259	9317.27
883.577	9151.4
883.894	9230.27
884.212	9234.33
884.529	9213.09
884.846	9175.13
885.164	9102.13
885.481	9144.17
885.798	9118.4
886.115	9046.54
886.432	8988.69
886.75	9032.3
887.067	9028.01
887.383	8913.89
887.7	8988.01
888.017	8894.68
888.334	8905.08
888.651	8917.73
888.967	8868.92
889.284	8803.16
889.6	8855.81
889.917	8770.62
890.233	8809.94
890.55	8748.02
890.866	8776.49
891.182	8665.76
891.498	8694.69
891.815	8668.25
892.131	8589.38
892.447	8588.02
892.763	8590.73
893.079	8536.27
893.395	8525.88
893.71	8503.51
894.026	8550.74
894.342	8468.25
894.657	8396.16
894.973	8402.49
895.289	8415.37
895.604	8421.7
895.92	8272.78
896.235	8291.53
896.55	8285.88
896.865	8269.39
897.181	8257.41
897.496	8309.61
897.811	8229.84
898.126	8177.41
898.441	8124.98
898.756	8163.63
899.071	8063.52
899.386	8110.07
899.7	8070.07
900.015	8015.83
900.33	7885.22
900.644	7936.06
900.959	7894.48
901.273	7873.47
901.588	7817.42
901.902	7838.44
902.216	7823.52
902.531	7760.47
902.845	7735.84
903.159	7626.92
903.473	7682.28
903.787	7621.27
904.101	7568.39
904.415	7567.48
904.729	7537.65
905.042	7515.28
905.356	7453.14
905.67	7458.56
905.984	7440.26
906.297	7428.96
906.611	7356.64
906.924	7385.34
907.237	7346.93
907.551	7294.05
907.864	7261.96
908.177	7260.83
908.491	7245.69
908.804	7206.59
909.117	7134.95
909.43	7112.58
909.743	7128.85
910.056	7018.57
910.368	7034.84
910.681	6963.66
910.994	6992.58
911.307	6992.36
911.619	6864.45
911.932	6926.6
912.244	6856.32
912.557	6878.92
912.869	6789.88
913.181	6759.37
913.494	6755.3
913.806	6697
914.118	6682.99
914.43	6637.34
914.742	6625.81
915.054	6650.9
915.366	6582.88
915.678	6610.22
915.99	6576.78
916.302	6467.85
916.613	6503.78
916.925	6410.9
917.236	6406.16
917.548	6422.2
917.859	6361.19
918.171	6281.42
918.482	6314.64
918.794	6264.69
919.105	6254.75
919.416	6237.12
919.727	6231.47
920.038	6235.09
920.349	6156.45
920.66	6143.79
920.971	6102.89
921.282	6049.11
921.593	6051.59
921.903	6034.64
922.214	6026.73
922.525	5968.43
922.835	5969.11
923.146	5910.13
923.456	5917.36
923.767	5883.69
924.077	5867.64
924.387	5857.25
924.697	5814.54
925.008	5794.65
925.318	5824.03
925.628	5797.14
925.938	5757.14
926.248	5704.48
926.558	5669.23
926.867	5653.41
927.177	5628.1
927.487	5602.56
927.796	5582.45
928.106	5538.16
928.416	5550.14
928.725	5477.82
929.034	5497.93
929.344	5487.77
929.653	5434.89
929.962	5433.08
930.271	5389.69
930.581	5387.43
930.89	5341.78
931.199	5281.22
931.508	5261.33
931.817	5294.1
932.125	5281.9
932.434	5251.16
932.743	5194.89
933.051	5200.99
933.36	5133.42
933.669	5177.49
933.977	5097.72
934.286	5084.39
934.594	5081.9
934.902	5069.7
935.21	5014.11
935.519	5012.07
935.827	5022.24
936.135	4977.5
936.443	4922.81
936.751	4914.45
937.059	4899.76
937.367	4841
937.674	4875.8
937.982	4868.57
938.29	4844.17
938.597	4823.6
938.905	4789.7
939.213	4745.86
939.52	4757.16
939.827	4785.86
940.135	4674
940.442	4706.54
940.749	4674
941.056	4679.88
941.363	4631.97
941.67	4659.76
941.977	4598.98
942.284	4565.08
942.591	4559.88
942.898	4492.99
943.205	4521.24
943.511	4488.24
943.818	4498.41
944.125	4425.19
944.431	4451.63
944.738	4405.76
945.044	4406.66
945.35	4398.75
945.657	4386.1
945.963	4370.73
946.269	4350.17
946.575	4309.72
946.881	4318.08
947.187	4296.84
947.493	4271.3
947.799	4238.98
948.105	4208.7
948.41	4188.59
948.716	4236.72
949.022	4203.28
949.327	4144.98
949.633	4128.03
949.938	4115.6
950.244	4099.1
950.549	4070.4
950.854	4032.21
951.16	4022.95
951.465	4039.67
951.77	4010.74
952.075	3981.36
952.38	4018.65
952.685	3963.06
952.99	3920.57
953.294	3928.03
953.599	3902.95
953.904	3882.38
954.209	3866.11
954.513	3848.49
954.818	3848.94
955.122	3829.96
955.426	3849.39
955.731	3785.21
956.035	3766
956.339	3739.34
956.643	3732.78
956.948	3691.88
957.252	3743.86
957.556	3713.12
957.86	3679.68
958.163	3691.2
958.467	3669.73
958.771	3627.93
959.075	3629.96
959.378	3620.02
959.682	3613.69
959.985	3552.22
960.289	3573.24
960.592	3613.69
960.896	3520.36
961.199	3517.87
961.502	3498.21
961.805	3501.38
962.108	3436.29
962.411	3474.71
962.714	3403.98
963.017	3368.72
963.32	3394.71
963.623	3359.46
963.926	3392.91
964.228	3393.13
964.531	3338.22
964.833	3326.69
965.136	3344.54
965.438	3300.93
965.741	3281.04
966.043	3293.92
966.345	3257.54
966.648	3251.44
966.95	3235.4
967.252	3164.66
967.554	3185.68
967.856	3207.83
968.158	3148.62
968.46	3145.23
968.761	3126.92
969.063	3130.31
969.365	3114.27
969.666	3069.07
969.968	3076.53
970.269	3058.22
970.571	3100.26
970.872	3050.09
971.174	3079.24
971.475	3004.44
971.776	2993.59
972.077	2991.33
972.378	2960.37
972.679	2969.41
972.98	2978.45
973.281	2928.51
973.582	2977.32
973.883	2914.05
974.183	2871.11
974.484	2877.66
974.785	2864.78
975.085	2904.56
975.386	2898
975.686	2845.35
975.986	2787.05
976.287	2842.41
976.587	2787.27
976.887	2785.46
977.187	2761.06
977.487	2746.82
977.787	2754.96
978.087	2769.64
978.387	2750.21
978.687	2749.53
978.987	2696.2
979.286	2676.77
979.586	2655.98
979.885	2665.92
980.185	2660.5
980.484	2678.57
980.784	2659.82
981.083	2632.47
981.382	2599.71
981.682	2590.67
981.981	2596.99
982.28	2567.62
982.579	2580.72
982.878	2574.85
983.177	2569.2
983.475	2580.95
983.774	2526.04
984.073	2528.97
984.372	2509.99
984.67	2493.04
984.969	2451.23
985.267	2529.2
985.566	2484.23
985.864	2490.1
986.162	2474.06
986.461	2440.16
986.759	2422.54
987.057	2441.07
987.355	2400.16
987.653	2410.33
987.951	2388.41
988.249	2379.6
988.547	2375.3
988.844	2364.23
989.142	2394.51
989.44	2317.23
989.737	2345.48
990.035	2292.6
990.332	2286.04
990.63	2295.53
990.927	2306.38
991.224	2257.12
991.521	2270.67
991.819	2258.7
992.116	2243.78
992.413	2240.85
992.71	2224.57
993.006	2208.53
993.303	2221.64
993.6	2212.82
993.897	2175.08
994.193	2161.75
994.49	2142.54
994.787	2143.9
995.083	2118.59
995.379	2123.56
995.676	2121.53
995.972	2105.48
996.268	2088.31
996.565	2076.56
996.861	2064.13
997.157	2067.52
997.453	2064.8
997.749	2053.28
998.044	1998.59
998.34	2034.07
998.636	1983
998.932	2001.76
999.227	1962.66
999.523	1971.02
999.818	1951.36
1000.114	1940.29
1000.409	1932.15
1000.704	1971.25
1001	1922.44
1001.295	1921.31
1001.59	1935.54
1001.885	1929.44
1002.18	1917.01
1002.475	1865.71
1002.77	1863.45
1003.065	1884.47
1003.359	1826.17
1003.654	1863.45
1003.949	1838.14
1004.243	1830.01
1004.538	1847.86
1004.832	1834.98
1005.127	1800.86
1005.421	1782.1
1005.715	1785.26
1006.009	1777.35
1006.304	1761.08
1006.598	1766.51
1006.892	1746.85
1007.186	1734.64
1007.48	1725.38
1007.773	1728.32
1008.067	1672.27
1008.361	1686.96
1008.655	1705.04
1008.948	1663.91
1009.242	1678.15
1009.535	1662.78
1009.829	1666.17
1010.122	1627.08
1010.415	1600.18
1010.708	1619.62
1011.001	1634.99
1011.295	1597.7
1011.588	1597.92
1011.881	1570.35
1012.173	1587.75
1012.466	1605.38
1012.759	1564.93
1013.052	1552.73
1013.344	1554.54
1013.637	1548.21
1013.93	1520.86
1014.222	1534.87
1014.514	1498.72
1014.807	1482.45
1015.099	1509.34
1015.391	1468.21
1015.683	1468.21
1015.976	1468.66
1016.268	1457.14
1016.56	1413.3
1016.851	1423.01
1017.143	1452.17
1017.435	1436.12
1017.727	1410.36
1018.018	1419.62
1018.31	1397.48
1018.602	1396.12
1018.893	1383.24
1019.185	1374.88
1019.476	1356.12
1019.767	1368.33
1020.058	1352.73
1020.35	1335.78
1020.641	1327.2
1020.932	1315.45
1021.223	1300.76
1021.514	1313.64
1021.804	1289.68
1022.095	1302.34
1022.386	1294.88
1022.677	1274.77
1022.967	1246.29
1023.258	1250.59
1023.548	1252.85
1023.839	1254.43
1024.129	1216.24
1024.419	1218.5
1024.709	1210.59
1025	1209.69
1025.29	1194.77
1025.58	1199.06
1025.87	1175.79
1026.16	1180.08
1026.449	1183.25
1026.739	1166.52
1027.029	1160.65
1027.319	1136.92
1027.608	1134.21
1027.898	1148.9
1028.187	1127.65
1028.477	1145.96
1028.766	1128.33
1029.055	1107.77
1029.344	1102.8
1029.634	1118.16
1029.923	1079.52
1030.212	1077.94
1030.501	1073.87
1030.79	1081.1
1031.078	1047.2
1031.367	1080.88
1031.656	1035.23
1031.945	1022.12
1032.233	1025.51
1032.522	1027.09
1032.81	1002.01
1033.099	1004.04
1033.387	1011.5
1033.675	1026.19
1033.963	1024.83
1034.251	984.38
1034.54	1011.27
1034.828	975.34
1035.116	976.02
1035.403	957.71
1035.691	968.34
1035.979	946.64
1036.267	946.19
1036.554	945.06
1036.842	935.12
1037.129	904.16
1037.417	917.94
1037.704	925.4
1037.992	923.14
1038.279	923.59
1038.566	893.31
1038.853	893.31
1039.14	893.31
