Data from hue_00_FLMS001491_52.txt Node
Date: Mon Feb 06 15:29:54 GMT 2017
User: dcchb
Spectrometer: FLMS00149
Trigger mode: 0
Integration Time (sec): 2.000000E-2
Scans to average: 10
Electric dark correction enabled: true
Nonlinearity correction enabled: false
Boxcar width: 0
XAxis mode: Wavelengths
Number of Pixels in Spectrum: 2048
>>>>>Begin Spectral Data<<<<<
341.393	-27.78
341.776	-27.78
342.16	-27.78
342.543	-67.33
342.927	-91.73
343.31	-81.79
343.693	-63.04
344.077	-47.67
344.46	-77.5
344.843	-40.66
345.226	-58.29
345.61	-26.43
345.993	-11.51
346.376	13.12
346.759	9.96
347.142	40.92
347.525	38.21
347.908	59.67
348.291	70.29
348.674	94.7
349.057	80.01
349.44	114.14
349.823	111.42
350.206	159.11
350.588	177.64
350.971	230.97
351.354	210.18
351.737	213.12
352.119	252.66
352.502	268.03
352.884	246.34
353.267	277.97
353.65	284.75
354.032	277.75
354.414	314.58
354.797	304.86
355.179	315.49
355.562	313
355.944	316.84
356.326	336.05
356.709	326.56
357.091	334.69
357.473	342.83
357.855	336.95
358.238	318.42
358.62	333.34
359.002	324.98
359.384	326.33
359.766	320.23
360.148	359.33
360.53	330.17
360.912	329.27
361.294	307.35
361.676	324.75
362.057	317.52
362.439	308.25
362.821	317.07
363.203	299.22
363.584	310.06
363.966	298.31
364.348	311.42
364.729	305.99
365.111	295.83
365.493	324.07
365.874	306.22
366.256	320.23
366.637	300.35
367.019	309.84
367.4	339.44
367.781	323.62
368.163	301.7
368.544	313
368.925	294.24
369.306	330.17
369.688	297.63
370.069	294.47
370.45	306.67
370.831	314.36
371.212	306.67
371.593	285.66
371.974	296.28
372.355	305.99
372.736	297.18
373.117	282.27
373.498	300.57
373.879	306.67
374.26	308.71
374.641	283.17
375.021	303.73
375.402	300.8
375.783	304.64
376.163	314.58
376.544	309.84
376.925	315.94
377.305	299.44
377.686	333.79
378.066	314.81
378.447	336.73
378.827	319.78
379.208	339.21
379.588	310.29
379.968	341.25
380.349	345.54
380.729	319.1
381.109	317.29
381.489	327.46
381.87	334.69
382.25	331.08
382.63	330.4
383.01	346.22
383.39	329.5
383.77	333.56
384.15	314.58
384.53	313
384.91	327.46
385.29	333.79
385.67	334.92
386.049	328.37
386.429	318.2
386.809	349.84
387.189	322.94
387.568	332.89
387.948	328.59
388.328	343.96
388.707	350.06
389.087	347.58
389.466	352.77
389.846	335.6
390.225	352.55
390.605	350.29
390.984	338.54
391.363	336.28
391.743	352.1
392.122	363.17
392.501	354.58
392.881	359.78
393.26	345.77
393.639	348.03
394.018	360.68
394.397	374.02
394.776	351.64
395.155	356.39
395.534	352.32
395.913	385.99
396.292	371.3
396.671	366.11
397.05	370.85
397.429	366.78
397.808	376.95
398.186	388.93
398.565	361.36
398.944	372.89
399.323	366.56
399.701	372.66
400.08	379.89
400.458	371.53
400.837	400.46
401.215	378.54
401.594	394.13
401.972	395.48
402.351	376.73
402.729	379.21
403.107	384.86
403.486	385.09
403.864	402.04
404.242	384.86
404.62	383.05
404.999	409.49
405.377	376.95
405.755	383.96
406.133	376.73
406.511	405.2
406.889	419.21
407.267	403.39
407.645	392.77
408.023	401.13
408.401	408.14
408.779	387.12
409.156	375.6
409.534	394.81
409.912	418.31
410.29	393
410.667	439.55
411.045	436.84
411.422	426.22
411.8	449.27
412.178	401.81
412.555	423.73
412.933	445.2
413.31	437.97
413.687	445.65
414.065	438.19
414.442	425.77
414.819	450.17
415.197	444.97
415.574	465.31
415.951	462.37
416.328	456.27
416.705	453.79
417.082	461.47
417.46	459.66
417.837	470.06
418.214	483.39
418.591	495.37
418.967	528.14
419.344	479.32
419.721	503.05
420.098	480
420.475	492.66
420.852	481.81
421.228	511.87
421.605	504.18
421.982	492.2
422.358	516.61
422.735	512.32
423.111	487.46
423.488	492.88
423.864	500.79
424.241	522.26
424.617	518.19
424.994	512.54
425.37	505.54
425.746	534.69
426.123	531.3
426.499	548.25
426.875	542.15
427.251	547.34
427.627	560.68
428.003	571.98
428.379	546.44
428.756	536.5
429.132	555.71
429.507	574.91
429.883	567.68
430.259	585.99
430.635	551.41
431.011	570.17
431.387	579.89
431.763	602.03
432.138	611.52
432.514	601.81
432.89	592.31
433.265	611.75
433.641	607.68
434.016	614.24
434.392	636.83
434.767	614.24
435.143	623.27
435.518	634.12
435.894	639.55
436.269	648.36
436.644	628.02
437.02	644.97
437.395	661.92
437.77	640.22
438.145	679.54
438.52	689.49
438.895	670.96
439.271	686.1
439.646	700.56
440.021	701.24
440.395	708.7
440.77	679.32
441.145	690.17
441.52	708.24
441.895	695.36
442.27	713.22
442.645	686.1
443.019	711.86
443.394	720.22
443.769	726.55
444.143	731.07
444.518	738.53
444.892	718.64
445.267	724.29
445.641	721.58
446.016	753.21
446.39	754.34
446.764	741.01
447.139	757.73
447.513	759.32
447.887	764.29
448.262	736.04
448.636	762.25
449.01	767.23
449.384	780.56
449.758	757.73
450.132	766.1
450.506	779.88
450.88	770.39
451.254	774.23
451.628	781.91
452.002	791.41
452.376	811.29
452.75	797.28
453.123	811.29
453.497	807.9
453.871	800.9
454.244	856.04
454.618	841.57
454.992	825.53
455.365	834.57
455.739	861.23
456.112	847
456.486	872.53
456.859	892.19
457.232	903.95
457.606	887.22
457.979	891.06
458.352	922.02
458.725	903.04
459.099	926.77
459.472	926.77
459.845	932.42
460.218	934.23
460.591	937.16
460.964	941.23
461.337	974.23
461.71	995.24
462.083	1016.71
462.456	994.56
462.829	1021.46
463.201	997.95
463.574	1009.25
463.947	1030.95
464.32	1054.45
464.692	1068.69
465.065	1073.88
465.438	1065.97
465.81	1090.15
466.183	1109.14
466.555	1108.91
466.928	1119.31
467.3	1090.38
467.672	1146.65
468.045	1155.01
468.417	1143.03
468.789	1159.08
469.161	1185.52
469.534	1190.04
469.906	1192.3
470.278	1254.9
470.65	1226.87
471.022	1267.1
471.394	1287.21
471.766	1295.35
472.138	1276.14
472.51	1341.22
472.882	1359.98
473.253	1366.98
473.625	1392.52
473.997	1413.76
474.369	1396.36
474.74	1438.39
475.112	1458.05
475.484	1497.38
475.855	1516.81
476.227	1513.87
476.598	1566.98
476.97	1554.78
477.341	1622.57
477.713	1619.18
478.084	1641.1
478.455	1673.19
478.827	1685.85
479.198	1741.44
479.569	1741.89
479.94	1794.32
480.311	1803.13
480.682	1870.7
481.053	1871.38
481.424	1888.1
481.795	1933.97
482.166	1993.41
482.537	2000.19
482.908	2028.44
483.279	2026.85
483.65	2079.06
484.021	2140.97
484.391	2177.58
484.762	2199.5
485.133	2227.53
485.503	2242.67
485.874	2328.54
486.244	2321.99
486.615	2338.71
486.985	2393.17
487.356	2437.24
487.726	2473.4
488.097	2493.73
488.467	2538.7
488.837	2585.48
489.207	2615.09
489.578	2629.78
489.948	2669.55
490.318	2708.87
490.688	2724.24
491.058	2790.22
491.428	2848.98
491.798	2873.16
492.168	2933.04
492.538	2922.42
492.908	2918.36
493.278	2994.29
493.648	3000.84
494.017	3033.61
494.387	3066.37
494.757	3121.29
495.126	3113.38
495.496	3139.14
495.866	3167.61
496.235	3209.87
496.605	3255.07
496.974	3286.48
497.344	3300.27
497.713	3326.93
498.082	3348.4
498.452	3398.34
498.821	3389.98
499.19	3414.84
499.559	3422.07
499.928	3431.34
500.298	3440.15
500.667	3459.81
501.036	3538.68
501.405	3540.26
501.774	3547.49
502.143	3576.19
502.512	3607.15
502.88	3611.67
503.249	3656.42
503.618	3637.21
503.987	3698
504.356	3709.3
504.724	3704.78
505.093	3689.63
505.462	3775.51
505.83	3770.08
506.199	3790.42
506.567	3855.05
506.936	3851.21
507.304	3851.89
507.672	3914.94
508.041	3893.25
508.409	3923.75
508.777	3949.74
509.145	3969.18
509.514	3936.18
509.882	3992.9
510.25	4030.87
510.618	4031.32
510.986	3982.96
511.354	4053.24
511.722	4080.36
512.09	4083.3
512.458	4061.15
512.826	4116.06
513.193	4118.32
513.561	4167.59
513.929	4196.97
514.297	4181.37
514.664	4189.96
515.032	4216.4
515.4	4246.91
515.767	4224.99
516.135	4288.04
516.502	4239.22
516.869	4362.61
517.237	4344.53
517.604	4321.71
517.972	4320.35
518.339	4384.08
518.706	4345.21
519.073	4386.57
519.44	4375.04
519.808	4413.01
520.175	4417.75
520.542	4480.35
520.909	4530.29
521.276	4474.47
521.643	4543.62
522.009	4511.31
522.376	4541.82
522.743	4574.36
523.11	4601.25
523.477	4645.99
523.843	4647.58
524.21	4699.55
524.577	4677.63
524.943	4760.11
525.31	4692.55
525.676	4772.77
526.043	4783.17
526.409	4783.17
526.776	4820.9
527.142	4876.72
527.508	4870.17
527.874	4909.49
528.241	4909.94
528.607	4956.49
528.973	4938.19
529.339	4964.4
529.705	5010.28
530.071	5082.14
530.437	5085.3
530.803	5132.31
531.169	5183.38
531.535	5161.46
531.901	5111.97
532.267	5170.5
532.632	5163.95
532.998	5239.88
533.364	5225.19
533.73	5240.55
534.095	5326.65
534.461	5325.98
534.826	5347.67
535.192	5383.15
535.557	5428.12
535.923	5398.97
536.288	5415.01
536.653	5457.27
537.019	5446.65
537.384	5463.83
537.749	5509.25
538.114	5485.52
538.479	5505.86
538.845	5544.05
539.21	5549.02
539.575	5559.19
539.94	5631.28
540.305	5685.29
540.67	5611.17
541.034	5647.55
541.399	5711.28
541.764	5718.28
542.129	5776.81
542.494	5805.29
542.858	5803.03
543.223	5803.03
543.587	5853.65
543.952	5852.97
544.316	5889.12
544.681	5880.09
545.045	5857.04
545.41	5968.44
545.774	6024.04
546.138	5969.8
546.503	6026.3
546.867	6114.88
547.231	6084.37
547.595	6117.14
547.959	6083.24
548.324	6073.53
548.688	6157.82
549.052	6128.44
549.416	6191.94
549.779	6154.65
550.143	6236.01
550.507	6271.71
550.871	6279.17
551.235	6260.41
551.599	6313.29
551.962	6306.29
552.326	6342.45
552.689	6392.16
553.053	6341.32
553.417	6402.11
553.78	6478.04
554.143	6459.05
554.507	6427.19
554.87	6489.11
555.234	6527.75
555.597	6502.67
555.96	6512.61
556.323	6588.99
556.686	6548.32
557.05	6614.76
557.413	6622.89
557.776	6603
558.139	6687.97
558.502	6718.93
558.865	6691.36
559.228	6709.67
559.59	6801.87
559.953	6795.54
560.316	6827.41
560.679	6845.48
561.041	6848.65
561.404	6847.97
561.767	6909.44
562.129	6925.03
562.492	6985.59
562.854	6958.93
563.217	6934.75
563.579	6970.9
563.941	7070.79
564.304	7051.58
564.666	7064.46
565.028	7103.33
565.39	7078.02
565.753	7122.76
566.115	7218.58
566.477	7225.13
566.839	7257.68
567.201	7262.42
567.563	7294.29
567.925	7306.49
568.287	7347.17
568.648	7393.72
569.01	7466.03
569.372	7455.64
569.734	7429.88
570.095	7462.64
570.457	7584.9
570.819	7522.53
571.18	7580.83
571.542	7637.33
571.903	7640.94
572.265	7709.19
572.626	7726.59
572.987	7775.85
573.349	7851.11
573.71	7859.02
574.071	7936.75
574.432	7921.16
574.794	8047.71
575.155	8118.44
575.516	8087.71
575.877	8188.05
576.238	8216.3
576.599	8275.73
576.96	8300.13
577.32	8366.57
577.681	8451.09
578.042	8493.35
578.403	8611.09
578.763	8695.6
579.124	8779.9
579.485	8836.62
579.845	8964.07
580.206	9007.91
580.566	9105.76
580.927	9174.46
581.287	9378.52
581.648	9435.02
582.008	9527.22
582.368	9703.49
582.728	9789.59
583.089	10002.24
583.449	10017.38
583.809	10162.91
584.169	10339.18
584.529	10442.45
584.889	10751.14
585.249	10756.79
585.609	10964.47
585.969	11211.92
586.329	11334.63
586.688	11487.4
587.048	11663.21
587.408	11864.79
587.768	12130.09
588.127	12266.36
588.487	12542.06
588.846	12806.91
589.206	12926
589.565	13146.34
589.925	13423.84
590.284	13618.41
590.643	13841.01
591.003	14190.6
591.362	14402.8
591.721	14593.75
592.08	14881.43
592.44	15129.56
592.799	15351.93
593.158	15634.18
593.517	15914.4
593.876	16220.6
594.235	16448.4
594.593	16798.44
594.952	17082.05
595.311	17286.57
595.67	17571.76
596.029	17925.87
596.387	18295.58
596.746	18502.13
597.104	18687.43
597.463	18983.24
597.822	19389.11
598.18	19577.13
598.538	19817.57
598.897	20145.47
599.255	20205.13
599.613	20825.68
599.972	20867.71
600.33	21256.18
600.688	21439.9
601.046	21805.54
601.404	22140.45
601.762	22269.49
602.12	22784.95
602.478	22824.05
602.836	23246.63
603.194	23253.64
603.552	23641.2
603.91	23858.6
604.268	24185.59
604.625	24305.36
604.983	24710.55
605.341	24720.27
605.698	25206.13
606.056	25541.94
606.413	25557.08
606.771	26023.28
607.128	26217.18
607.485	26252.43
607.843	26550.05
608.2	26872.98
608.557	27225.29
608.914	27132.18
609.272	27572.17
609.629	27714.99
609.986	28051.48
610.343	28134.42
610.7	28512.94
611.057	28684.23
611.414	28830.22
611.771	29093.26
612.127	29272.24
612.484	29399.47
612.841	29693.47
613.198	29701.15
613.554	29945.22
613.911	30200.8
614.267	30306.11
614.624	30427.01
614.98	30732.09
615.337	30934.34
615.693	31016.6
616.05	31208.01
616.406	31371.39
616.762	31413.65
617.118	31598.05
617.475	31751.5
617.831	31868.78
618.187	32085.27
618.543	32047.99
618.899	32424.7
619.255	32520.74
619.611	32650.68
619.967	32939.04
620.323	32899.94
620.678	32945.81
621.034	32981.97
621.39	33061.74
621.746	33122.76
622.101	33629.86
622.457	33496.76
622.812	33613.59
623.168	33718.22
623.523	33923.64
623.879	34057.2
624.234	33865.56
624.589	34106.69
624.945	34178.32
625.3	34286.8
625.655	34191.88
626.01	34417.87
626.365	34463.97
626.72	34555.72
627.075	34542.38
627.43	34501.71
627.785	34650.63
628.14	34805.2
628.495	34868.48
628.85	34921.36
629.205	34828.25
629.559	34991.18
629.914	34883.62
630.269	35090.16
630.623	35005.42
630.978	34924.75
631.332	35107.34
631.687	35104.63
632.041	35099.43
632.396	35224.17
632.75	35066.89
633.104	35268.47
633.459	35006.55
633.813	35190.73
634.167	35186.66
634.521	35343.94
634.875	35229.82
635.229	35210.84
635.583	35082.71
635.937	35258.3
636.291	35139.43
636.645	35218.75
636.999	35270.27
637.352	35327.45
637.706	35073.44
638.06	35245.19
638.413	35246.54
638.767	35121.12
639.121	35125.19
639.474	35043.16
639.828	35126.32
640.181	35239.31
640.534	35325.64
640.888	35167.68
641.241	35052.65
641.594	35319.09
641.947	35183.04
642.301	35019.66
642.654	35182.37
643.007	35243.83
643.36	34986.44
643.713	35225.53
644.066	35239.09
644.419	34946.21
644.771	34900.34
645.124	34519.11
645.477	34405.44
645.83	34261.26
646.182	34110.53
646.535	34009.52
646.888	34193.47
647.24	34000.25
647.593	34259
647.945	34180.81
648.298	34096.07
648.65	33884.32
649.002	33845.68
649.355	33957.09
649.707	33908.95
650.059	34053.13
650.411	34598.43
650.763	34412.22
651.115	34781.47
651.467	34726.33
651.819	34738.08
652.171	34645.66
652.523	34608.82
652.875	34597.75
653.227	34565.43
653.578	34779.44
653.93	34515.04
654.282	34427.81
654.633	34390.75
654.985	34561.14
655.337	34471.2
655.688	34451.76
656.039	34578.77
656.391	34437.75
656.742	34442.05
657.094	34411.76
657.445	34533.34
657.796	34379.45
658.147	34412.44
658.498	34359.34
658.849	34563.63
659.2	34349.17
659.551	34360.92
659.902	34503.97
660.253	34502.84
660.604	34456.06
660.955	34313.69
661.306	34532.44
661.656	34288.6
662.007	34409.96
662.358	34426
662.708	34306.23
663.059	34190.98
663.409	34083.41
663.76	34286.8
664.11	34341.94
664.461	34400.01
664.811	34420.8
665.161	34301.49
665.511	34334.93
665.862	34234.59
666.212	34393.91
666.562	34284.31
666.912	34219.45
667.262	34201.15
667.612	34263.29
667.962	34186.01
668.312	34263.52
668.662	34317.53
669.011	34145.56
669.361	34112.56
669.711	34138.55
670.06	34093.58
670.41	34215.84
670.76	34037.54
671.109	34343.29
671.459	34082.06
671.808	34018.33
672.157	34230.07
672.507	34069.17
672.856	34039.8
673.205	33965.45
673.554	34142.17
673.904	34042.51
674.253	34209.06
674.602	33993.7
674.951	33503.31
675.3	33429.19
675.649	33916.64
675.998	33907.6
676.346	33847.94
676.695	34133.35
677.044	33737.21
677.393	33705.12
677.741	33917.99
678.09	33874.83
678.438	33694.04
678.787	33660.15
679.135	33749.86
679.484	33534.95
679.832	33627.15
680.181	33504.22
680.529	33526.82
680.877	33539.47
681.225	33511.9
681.573	33695.17
681.922	33310.1
682.27	33253.83
682.618	33418.12
682.966	33364.11
683.314	33367.72
683.661	33327.05
684.009	33013.38
684.357	32979.94
684.705	32890.22
685.053	33107.17
685.4	32937.91
685.748	32819.94
686.095	32760.28
686.443	32797.34
686.79	32711.47
687.138	32714.86
687.485	32725.71
687.832	32555.09
688.18	32645.26
688.527	32446.84
688.874	32460.4
689.221	32317.81
689.568	32136.57
689.915	32242.1
690.262	32249.79
690.609	32135.21
690.956	31992.62
691.303	31940.87
691.65	31683.93
691.997	31756.24
692.344	31644.83
692.69	31599.18
693.037	31603.93
693.383	31337.04
693.73	31425.63
694.077	31411.39
694.423	31296.59
694.769	31144.96
695.116	31196.93
695.462	31081.46
695.808	30939.54
696.155	30996.04
696.501	30766.66
696.847	30822.71
697.193	30532.54
697.539	30789.04
697.885	30399.67
698.231	30430.17
698.577	30332.55
698.923	30349.95
699.269	30189.05
699.614	30065.89
699.96	30111.54
700.306	29992.9
700.651	29904.09
700.997	29820.02
701.342	29741.38
701.688	29728.27
702.033	29567.6
702.379	29527.15
702.724	29409.41
703.069	29453.48
703.415	29196.08
703.76	29255.74
704.105	29168.96
704.45	29135.52
704.795	28929.87
705.14	28888.75
705.485	28937.78
705.83	28785.7
706.175	28819.82
706.52	28770.11
706.865	28698.47
707.209	28580.73
707.554	28523.11
707.899	28555.87
708.243	28406.72
708.588	28314.07
708.932	28102.33
709.277	28328.53
709.621	28095.55
709.966	28054.64
710.31	28085.6
710.654	27816.23
710.998	27982.56
711.342	27884.7
711.687	27970.8
712.031	27813.75
712.375	27571.49
712.719	27720.64
713.063	27556.8
713.407	27627.99
713.75	27520.65
714.094	27380.31
714.438	27288.56
714.782	27386.64
715.125	27302.8
715.469	27270.26
715.812	27082.92
716.156	26921.34
716.499	27094.89
716.843	26979.42
717.186	26914.56
717.53	26971.06
717.873	26922.24
718.216	26917.95
718.559	26746.43
718.902	26649.71
719.246	26717.73
719.589	26524.97
719.932	26458.75
720.275	26406.55
720.617	26456.27
720.96	26399.55
721.303	26397.06
721.646	26341.47
721.989	26238.19
722.331	26305.76
722.674	26199.1
723.016	26212.66
723.359	26179.44
723.701	26078.65
724.044	25982.38
724.386	25898.32
724.729	26051.53
725.071	25880.24
725.413	25836.62
725.755	25802.73
726.097	25842.72
726.439	25639.79
726.782	25678.21
727.124	25780.81
727.465	25545.11
727.807	25589.4
728.149	25509.17
728.491	25471.21
728.833	25514.15
729.175	25237.99
729.516	25454.49
729.858	25364.54
730.199	25321.16
730.541	25188.96
730.882	25334.04
731.224	25312.34
731.565	25237.77
731.906	25168.84
732.248	25106.92
732.589	24926.14
732.93	24859.47
733.271	24889.76
733.612	24998.45
733.953	25025.8
734.294	24764.11
734.635	24776.54
734.976	24873.48
735.317	24681.85
735.658	24726.37
735.999	24763.66
736.339	24679.14
736.68	24757.56
737.021	24598.46
737.361	24494.06
737.702	24631.46
738.042	24492.93
738.383	24517.79
738.723	24430.11
739.063	24370.22
739.404	24469.88
739.744	24332.48
740.084	24205.93
740.424	24328.41
740.764	24207.74
741.104	24310.56
741.444	24193.5
741.784	24026.73
742.124	24154.18
742.464	24091.81
742.804	24061.98
743.143	23999.61
743.483	23942.66
743.823	23900.63
744.162	23836.45
744.502	23891.36
744.841	23782.89
745.181	23988.31
745.52	23773.4
745.86	23671.26
746.199	23761.2
746.538	23681.65
746.877	23758.26
747.216	23713.06
747.556	23614.31
747.895	23621.31
748.234	23480.75
748.573	23439.4
748.911	23422.22
749.25	23471.49
749.589	23379.51
749.928	23304.94
750.267	23360.53
750.605	23319.4
750.944	23264.26
751.283	23220.42
751.621	23214.54
751.96	23070.59
752.298	23027.21
752.636	23031.05
752.975	22989.01
753.313	22932.97
753.651	22941.78
753.989	22772.52
754.327	22893.42
754.666	22694.56
755.004	22859.75
755.342	22770.71
755.679	22753.99
756.017	22551.06
756.355	22561.68
756.693	22474.9
757.031	22465.41
757.368	22334.34
757.706	22412.53
758.044	22244.18
758.381	22316.49
758.719	22233.78
759.056	22271.29
759.394	22136.83
759.731	22002.15
760.068	21963.96
760.405	21905.88
760.743	21897.74
761.08	21961.02
761.417	21799.89
761.754	21749.95
762.091	21625.43
762.428	21621.82
762.765	21524.87
763.102	21583.63
763.438	21442.39
763.775	21292.56
764.112	21315.61
764.449	21283.97
764.785	21092.57
765.122	21091.21
765.458	21069.29
765.795	20954.04
766.131	20970.31
766.467	20829.97
766.804	20754.72
767.14	20645.8
767.476	20631.56
767.812	20512.7
768.148	20622.07
768.485	20451.45
768.821	20396.31
769.157	20409.65
769.492	20272.02
769.828	20284.9
770.164	20092.82
770.5	20146.38
770.836	20068.86
771.171	19906.16
771.507	19903.9
771.842	19717.01
772.178	19797.91
772.513	19670.91
772.849	19660.29
773.184	19470.69
773.519	19616.22
773.855	19406.51
774.19	19349.34
774.525	19314.08
774.86	19253.52
775.195	19190.92
775.53	19091.94
775.865	18945.5
776.2	18791.84
776.535	18809.69
776.87	18714.32
777.205	18640.43
777.539	18584.61
777.874	18686.75
778.209	18464.84
778.543	18493.31
778.878	18398.63
779.212	18316.82
779.547	18188.01
779.881	18271.62
780.215	18151.4
780.55	18194.56
780.884	18015.13
781.218	17983.72
781.552	17983.27
781.886	17774.91
782.22	17717.51
782.554	17689.49
782.888	17684.97
783.222	17666.89
783.556	17475.49
783.889	17447.24
784.223	17285.44
784.557	17304.64
784.89	17304.19
785.224	17248.15
785.557	17214.02
785.891	17097.64
786.224	17038.66
786.558	17061.71
786.891	16778.33
787.224	16757.77
787.557	16805.22
787.891	16729.52
788.224	16647.26
788.557	16567.04
788.89	16579.47
789.223	16569.52
789.556	16407.49
789.888	16405.68
790.221	16376.31
790.554	16198.68
790.887	16233.71
791.219	16191.45
791.552	16182.41
791.884	16021.97
792.217	15922.31
792.549	15981.51
792.882	15795.31
793.214	15755.31
793.546	15866.72
793.879	15616.55
794.211	15619.04
794.543	15672.37
794.875	15562.09
795.207	15561.41
795.539	15459.04
795.871	15498.14
796.203	15352.15
796.535	15288.43
796.867	15255.88
797.198	15246.62
797.53	15130.92
797.862	15067.87
798.193	15094.31
798.525	15017.7
798.856	15084.59
799.188	14857.48
799.519	14816.35
799.85	14715.56
800.182	14866.52
800.513	14713.3
800.844	14672.4
801.175	14700.19
801.506	14612.06
801.837	14653.87
802.168	14531.16
802.499	14455.23
802.83	14326.19
803.161	14282.12
803.491	14364.61
803.822	14292.52
804.153	14238.06
804.483	14154.22
804.814	14034
805.145	14077.61
805.475	14060.44
805.805	14040.32
806.136	14014.33
806.466	14001.68
806.796	13939.99
807.126	13805.3
807.457	13923.49
807.787	13780.22
808.117	13784.06
808.447	13674.46
808.777	13692.54
809.107	13645.53
809.436	13663.16
809.766	13630.62
810.096	13482.37
810.426	13453.45
810.755	13512.43
811.085	13515.14
811.414	13477.17
811.744	13277.41
812.073	13289.38
812.403	13306.1
812.732	13174.81
813.061	13133.91
813.39	13103.62
813.719	13159.67
814.049	13273.56
814.378	13093.46
814.707	13086.45
815.036	12981.37
815.365	12954.93
815.693	12813.01
816.022	12858.66
816.351	12846.23
816.68	12820.69
817.008	12823.41
817.337	12710.41
817.665	12729.4
817.994	12691.21
818.322	12676.29
818.651	12566.46
818.979	12555.39
819.307	12661.38
819.636	12505.45
819.964	12525.56
820.292	12540.02
820.62	12483.98
820.948	12428.16
821.276	12394.49
821.604	12423.19
821.932	12465.9
822.259	12459.35
822.587	12352.23
822.915	12399.91
823.243	12483.75
823.57	12373.47
823.898	12394.94
824.225	12363.3
824.553	12396.52
824.88	12392.23
825.207	12429.97
825.535	12302.97
825.862	12467.93
826.189	12410.54
826.516	12389.07
826.843	12449.18
827.17	12401.72
827.497	12456.64
827.824	12467.03
828.151	12387.49
828.478	12377.77
828.805	12420.93
829.131	12357.2
829.458	12330.09
829.785	12253.03
830.111	12355.62
830.438	12335.73
830.764	12325.34
831.09	12375.51
831.417	12340.48
831.743	12346.13
832.069	12273.82
832.395	12283.08
832.722	12321.27
833.048	12258.22
833.374	12251.67
833.7	12230.2
834.026	12279.92
834.351	12274.49
834.677	12167.83
835.003	12230.65
835.329	12221.16
835.654	12184.1
835.98	12107.94
836.306	12095.29
836.631	12062.97
836.956	12129.86
837.282	12072.01
837.607	12115.85
837.932	12098.91
838.258	12013.48
838.583	11997.44
838.908	11925.35
839.233	12000.38
839.558	11901.85
839.883	11884.22
840.208	11800.38
840.533	11879.93
840.858	11819.36
841.182	11858.91
841.507	11792.25
841.832	11781.17
842.156	11837.67
842.481	11748.63
842.805	11715.19
843.13	11577.11
843.454	11631.8
843.778	11562.42
844.103	11538.69
844.427	11475.42
844.751	11507.73
845.075	11460.05
845.399	11489.43
845.723	11401.52
846.047	11400.17
846.371	11354.97
846.695	11360.62
847.019	11205.82
847.343	11270.68
847.666	11138.7
847.99	11165.37
848.313	11112.49
848.637	11015.54
848.96	10968.31
849.284	10953.62
849.607	10915.89
849.931	10888.54
850.254	10839.5
850.577	10754.53
850.9	10658.94
851.223	10734.87
851.546	10690.13
851.869	10570.36
852.192	10642.22
852.515	10465.5
852.838	10503.01
853.161	10521.77
853.483	10417.82
853.806	10361.32
854.129	10289.24
854.451	10296.69
854.774	10246.75
855.096	10275
855.419	10120.65
855.741	10204.94
856.063	10159.97
856.385	10125.85
856.708	10058.05
857.03	10077.04
857.352	10056.7
857.674	9988.68
857.996	9935.35
858.318	9890.38
858.64	9888.12
858.961	9893.77
859.283	9792.07
859.605	9849.92
859.926	9769.93
860.248	9777.38
860.57	9686.09
860.891	9713.66
861.212	9651.74
861.534	9658.74
861.855	9697.39
862.176	9592.08
862.498	9634.56
862.819	9634.56
863.14	9552.76
863.461	9559.08
863.782	9561.12
864.103	9478.63
864.424	9483.83
864.745	9486.32
865.065	9433.44
865.386	9409.26
865.707	9411.29
866.027	9444.06
866.348	9355.25
866.668	9381.91
866.989	9394.8
867.309	9299.2
867.63	9344.4
867.95	9322.25
868.27	9312.09
868.59	9316.38
868.91	9235.25
869.23	9239.77
869.55	9164.97
869.87	9281.8
870.19	9209.94
870.51	9175.59
870.83	9179.43
871.15	9116.38
871.469	9103.96
871.789	9149.6
872.109	9064.41
872.428	9102.37
872.748	9145.76
873.067	9097.63
873.386	9130.17
873.706	9039.55
874.025	8988.93
874.344	8997.97
874.663	9016.05
874.982	8983.73
875.301	8973.79
875.62	8932.89
875.939	8961.59
876.258	8973.11
876.577	8842.95
876.896	8866.45
877.214	8878.65
877.533	8869.84
877.852	8850.4
878.17	8865.09
878.489	8844.53
878.807	8858.31
879.125	8726.34
879.444	8828.26
879.762	8686.79
880.08	8829.16
880.398	8719.78
880.716	8779.22
881.034	8642.95
881.352	8682.27
881.67	8657.19
881.988	8670.97
882.306	8657.87
882.624	8583.97
882.941	8621.03
883.259	8545.33
883.577	8540.58
883.894	8483.86
884.212	8506.68
884.529	8477.98
884.846	8476.63
885.164	8422.17
885.481	8413.58
885.798	8407.02
886.115	8311.43
886.432	8363.41
886.75	8347.37
887.067	8339.68
887.383	8333.58
887.7	8315.28
888.017	8255.84
888.334	8245.45
888.651	8255.39
888.967	8190.31
889.284	8164.09
889.6	8130.2
889.917	8078.45
890.233	8101.72
890.55	8101.27
890.866	8052.68
891.182	7987.15
891.498	7998
891.815	8019.46
892.131	7985.11
892.447	7950.54
892.763	7953.93
893.079	7930.88
893.395	7863.99
893.71	7827.83
894.026	7847.94
894.342	7768.62
894.657	7736.99
894.973	7711.45
895.289	7764.1
895.604	7696.08
895.92	7660.15
896.235	7623.09
896.55	7623.54
896.865	7610.21
897.181	7607.27
897.496	7539.48
897.811	7516.43
898.126	7505.81
898.441	7467.39
898.756	7499.48
899.071	7370.67
899.386	7411.57
899.7	7361.4
900.015	7318.01
900.33	7224.23
900.644	7256.55
900.959	7310.1
901.273	7258.81
901.588	7187.85
901.902	7215.87
902.216	7118.7
902.531	7152.82
902.845	7077.34
903.159	7061.75
903.473	7044.35
903.787	7059.26
904.101	7023.33
904.415	6909.89
904.729	6896.1
905.042	6905.6
905.356	6911.47
905.67	6932.71
905.984	6885.03
906.297	6866.27
906.611	6731.59
906.924	6828.76
907.237	6799.84
907.551	6734.53
907.864	6759.16
908.177	6662.89
908.491	6657.69
908.804	6626.28
909.117	6607.07
909.43	6565.27
909.743	6507.41
910.056	6582.21
910.368	6507.19
910.681	6464.25
910.994	6437.13
911.307	6437.81
911.619	6321.88
911.932	6353.29
912.244	6322.11
912.557	6315.55
912.869	6294.09
913.181	6264.48
913.494	6321.88
913.806	6233.52
914.118	6193.98
914.43	6162.56
914.742	6106.75
915.054	6132.06
915.366	6057.03
915.678	6092.74
915.99	6051.83
916.302	5995.79
916.613	5916.47
916.925	6013.19
917.236	6002.12
917.548	5921.67
917.859	5910.14
918.171	5831.27
918.482	5857.26
918.794	5797.38
919.105	5829.24
919.416	5742.01
919.727	5721.67
920.038	5735.91
920.349	5692.75
920.66	5625.4
920.971	5650.26
921.282	5603.03
921.593	5629.7
921.903	5571.62
922.214	5537.04
922.525	5544.5
922.835	5475.12
923.146	5475.12
923.456	5430.61
923.767	5414.11
924.077	5446.88
924.387	5375.69
924.697	5393.54
925.008	5361
925.318	5360.33
925.628	5335.92
925.938	5285.75
926.248	5238.97
926.558	5247.79
926.867	5193.1
927.177	5197.84
927.487	5184.74
927.796	5154.23
928.106	5127.56
928.416	5103.16
928.725	5108.81
929.034	5072.2
929.344	5065.64
929.653	5034.91
929.962	5039.2
930.271	4975.02
930.581	4962.82
930.89	4975.7
931.199	4900.22
931.508	4921.47
931.817	4918.08
932.125	4864.74
932.434	4845.99
932.743	4812.99
933.051	4799.89
933.36	4766.22
933.669	4724.18
933.977	4743.62
934.286	4698.65
934.594	4694.35
934.902	4648.48
935.21	4615.03
935.519	4668.37
935.827	4611.42
936.135	4642.38
936.443	4603.28
936.751	4580.91
937.059	4588.37
937.367	4540.01
937.674	4526
937.982	4501.59
938.29	4446.9
938.597	4451.42
938.905	4408.49
939.213	4387.92
939.52	4409.84
939.827	4450.97
940.135	4391.76
940.442	4354.7
940.749	4312.22
941.056	4298.66
941.363	4281.71
941.67	4302.27
941.977	4217.53
942.284	4173.92
942.591	4201.26
942.898	4238.55
943.205	4189.06
943.511	4168.94
943.818	4153.58
944.125	4118.1
944.431	4093.47
944.738	4084.2
945.044	4078.78
945.35	4024.09
945.657	4045.78
945.963	4036.97
946.269	3996.97
946.575	4035.39
946.881	3974.6
947.187	3972.11
947.493	3947.25
947.799	3930.08
948.105	3923.07
948.41	3892.57
948.716	3893.7
949.022	3854.83
949.327	3843.53
949.633	3857.54
949.938	3859.8
950.244	3844.88
950.549	3811.67
950.854	3746.58
951.16	3750.2
951.465	3736.87
951.77	3688.28
952.075	3688.96
952.38	3667.94
952.685	3673.59
952.99	3649.41
953.294	3615.06
953.599	3647.15
953.904	3594.27
954.209	3551.79
954.513	3589.98
954.818	3575.06
955.122	3526.02
955.426	3524.44
955.731	3500.26
956.035	3481.5
956.339	3473.6
956.643	3496.65
956.948	3455.06
957.252	3447.61
957.556	3412.81
957.86	3395.18
958.163	3419.13
958.467	3359.25
958.771	3377.55
959.075	3381.17
959.378	3351.79
959.682	3352.24
959.985	3330.32
960.289	3241.96
960.592	3272.02
960.896	3286.93
961.199	3217.1
961.502	3244.67
961.805	3238.12
962.108	3210.55
962.411	3218.91
962.714	3148.86
963.017	3158.35
963.32	3155.86
963.623	3110.44
963.926	3139.82
964.228	3066.6
964.531	3068.41
964.833	3100.27
965.136	3006.04
965.438	3082.64
965.741	3017.11
966.043	3018.24
966.345	3026.15
966.648	3030.44
966.95	3019.82
967.252	2992.93
967.554	2976.89
967.856	2966.04
968.158	2944.12
968.46	2933.95
968.761	2898.47
969.063	2874.29
969.365	2907.96
969.666	2888.53
969.968	2877.23
970.269	2872.03
970.571	2848.98
970.872	2831.13
971.174	2838.58
971.475	2820.73
971.776	2803.33
972.077	2774.63
972.378	2748.64
972.679	2773.5
972.98	2786.16
973.281	2751.13
973.582	2743.9
973.883	2740.73
974.183	2680.62
974.484	2717.46
974.785	2682.66
975.085	2691.69
975.386	2682.88
975.686	2639.04
975.986	2643.11
976.287	2646.05
976.587	2587.06
976.887	2606.05
977.187	2629.55
977.487	2601.3
977.787	2592.26
978.087	2548.2
978.387	2553.17
978.687	2526.5
978.987	2537.8
979.286	2520.4
979.586	2531.47
979.885	2485.37
980.185	2470.46
980.484	2440.18
980.784	2453.06
981.083	2427.07
981.382	2422.1
981.682	2437.01
981.981	2402.66
982.28	2388.65
982.579	2375.54
982.878	2388.2
983.177	2370.8
983.475	2350.46
983.774	2353.4
984.073	2358.37
984.372	2340.29
984.67	2298.03
984.969	2346.62
985.267	2322.21
985.566	2297.13
985.864	2264.81
986.162	2290.35
986.461	2237.47
986.759	2247.64
987.057	2240.18
987.355	2242.22
987.653	2263.68
987.951	2232.5
988.249	2236.79
988.547	2199.05
988.844	2200.41
989.142	2208.54
989.44	2148.43
989.737	2154.08
990.035	2202.89
990.332	2117.25
990.63	2146.4
990.927	2131.03
991.224	2118.38
991.521	2107.3
991.819	2076.12
992.116	2087.42
992.413	2064.82
992.71	2055.1
993.006	2076.12
993.303	2059.4
993.6	2063.46
993.897	2052.39
994.193	2029.34
994.49	1996.12
994.787	2009.23
995.083	1947.31
995.379	1952.73
995.676	1982.79
995.972	1937.36
996.268	1937.14
996.565	1941.66
996.861	1925.61
997.157	1927.42
997.453	1914.31
997.749	1948.44
998.044	1896.46
998.34	1882
998.636	1863.92
998.932	1875.9
999.227	1874.77
999.523	1826.63
999.818	1863.69
1000.114	1828.21
1000.409	1831.38
1000.704	1810.14
1001	1807.65
1001.295	1816.01
1001.59	1760.42
1001.885	1765.17
1002.18	1793.87
1002.475	1737.6
1002.77	1759.97
1003.065	1742.57
1003.359	1748.44
1003.654	1718.39
1003.949	1725.62
1004.243	1726.52
1004.538	1675
1004.832	1672.74
1005.127	1700.08
1005.421	1641.55
1005.715	1635.45
1006.009	1669.12
1006.304	1644.94
1006.598	1645.85
1006.892	1603.14
1007.186	1613.53
1007.48	1611.72
1007.773	1590.25
1008.067	1602.46
1008.361	1562.23
1008.655	1573.98
1008.948	1530.37
1009.242	1538.05
1009.535	1570.59
1009.829	1537.37
1010.122	1531.95
1010.415	1510.03
1010.708	1497.83
1011.001	1498.05
1011.295	1481.78
1011.588	1508.68
1011.881	1473.65
1012.173	1490.6
1012.466	1454.89
1012.759	1425.06
1013.052	1464.61
1013.344	1436.13
1013.637	1467.09
1013.93	1455.34
1014.222	1417.38
1014.514	1423.71
1014.807	1408.79
1015.099	1399.53
1015.391	1398.85
1015.683	1381.67
1015.976	1381.22
1016.268	1351.84
1016.56	1335.12
1016.851	1324.05
1017.143	1356.81
1017.435	1342.58
1017.727	1315.69
1018.018	1306.87
1018.31	1298.74
1018.602	1322.92
1018.893	1271.17
1019.185	1280.88
1019.476	1266.42
1019.767	1269.13
1020.058	1276.59
1020.35	1253.77
1020.641	1263.26
1020.932	1211.51
1021.223	1210.6
1021.514	1222.13
1021.804	1185.29
1022.095	1228.68
1022.386	1195.91
1022.677	1192.07
1022.967	1174.45
1023.258	1169.7
1023.548	1178.06
1023.839	1140.32
1024.129	1140.32
1024.419	1155.24
1024.709	1141.45
1025	1143.26
1025.29	1121.11
1025.58	1112.75
1025.87	1111.17
1026.16	1081.12
1026.449	1107.33
1026.739	1098.06
1027.029	1093.09
1027.319	1078.18
1027.608	1094.22
1027.898	1065.97
1028.187	1068.23
1028.477	1029.82
1028.766	1020.33
1029.055	1057.39
1029.344	1029.82
1029.634	1012.64
1029.923	1013.09
1030.212	986.65
1030.501	1004.51
1030.79	970.38
1031.078	1009.25
1031.367	999.31
1031.656	977.16
1031.945	998.41
1032.233	972.42
1032.522	980.78
1032.81	961.12
1033.099	967.9
1033.387	939.65
1033.675	929.71
1033.963	945.98
1034.251	928.58
1034.54	911.4
1034.828	915.7
1035.116	896.94
1035.403	896.49
1035.691	923.61
1035.979	938.52
1036.267	886.54
1036.554	883.61
1036.842	866.66
1037.129	878.18
1037.417	865.75
1037.704	851.97
1037.992	858.07
1038.279	863.95
1038.566	842.48
1038.853	842.48
1039.14	842.48
