Data from hue_38_FLMS001491_00030.txt Node
Date: Tue Feb 07 17:31:18 GMT 2017
User: dcchb
Spectrometer: FLMS00149
Trigger mode: 0
Integration Time (sec): 2.000000E-2
Scans to average: 10
Electric dark correction enabled: true
Nonlinearity correction enabled: false
Boxcar width: 0
XAxis mode: Wavelengths
Number of Pixels in Spectrum: 2048
>>>>>Begin Spectral Data<<<<<
341.393	-10.52
341.776	-10.52
342.16	-10.52
342.543	-76.06
342.927	-77.41
343.31	-70.63
343.693	-76.51
344.077	-59.56
344.46	-58.2
344.843	-59.33
345.226	-31.09
345.61	-17.75
345.993	-21.6
346.376	-24.31
346.759	-9.62
347.142	21.34
347.525	44.84
347.908	60.44
348.291	69.48
348.674	112.64
349.057	119.87
349.44	123.94
349.823	167.1
350.206	161
350.588	205.07
350.971	209.36
351.354	232.86
351.737	257.95
352.119	262.69
352.502	276.02
352.884	278.74
353.267	288.9
353.65	309.24
354.032	285.06
354.414	320.32
354.797	325.06
355.179	336.36
355.562	330.03
355.944	328.23
356.326	344.95
356.709	342.01
357.091	338.17
357.473	353.76
357.855	369.13
358.238	341.11
358.62	349.92
359.002	346.08
359.384	347.89
359.766	347.66
360.148	323.71
360.53	349.47
360.912	356.47
361.294	332.29
361.676	339.07
362.057	348.34
362.439	318.28
362.821	347.89
363.203	335.01
363.584	341.11
363.966	349.24
364.348	347.21
364.729	336.81
365.111	327.55
365.493	329.58
365.874	330.26
366.256	335.46
366.637	326.64
367.019	354.67
367.4	319.19
367.781	323.25
368.163	316.02
368.544	308.57
368.925	314.44
369.306	320.32
369.688	293.42
370.069	310.15
370.45	337.72
370.831	330.03
371.212	332.07
371.593	335.23
371.974	323.03
372.355	317.38
372.736	312.41
373.117	334.78
373.498	331.39
373.879	327.32
374.26	318.06
374.641	324.38
375.021	327.55
375.402	311.5
375.783	327.77
376.163	338.85
376.544	353.76
376.925	350.15
377.305	328.9
377.686	336.14
378.066	353.31
378.447	333.88
378.827	346.98
379.208	323.71
379.588	335.68
379.968	327.55
380.349	337.04
380.729	335.23
381.109	336.59
381.489	362.12
381.87	360.32
382.25	341.78
382.63	370.71
383.01	349.69
383.39	360.54
383.77	357.38
384.15	330.26
384.53	364.84
384.91	354.21
385.29	365.51
385.67	351.73
386.049	344.04
386.429	360.32
386.809	353.99
387.189	368.9
387.568	384.95
387.948	356.25
388.328	386.98
388.707	383.59
389.087	372.97
389.466	366.64
389.846	368.22
390.225	366.42
390.605	392.63
390.984	382.91
391.363	373.65
391.743	382.69
392.122	367.77
392.501	369.81
392.881	389.47
393.26	401.44
393.639	414.1
394.018	385.17
394.397	391.73
394.776	404.38
395.155	394.21
395.534	387.89
395.913	407.09
396.292	394.21
396.671	416.81
397.05	396.47
397.429	405.96
397.808	402.35
398.186	392.86
398.565	412.52
398.944	414.78
399.323	409.81
399.701	403.25
400.08	424.04
400.458	402.12
400.837	419.75
401.215	419.97
401.594	396.7
401.972	420.88
402.351	411.61
402.729	435.57
403.107	436.92
403.486	426.3
403.864	439.64
404.242	413.2
404.62	437.6
404.999	433.99
405.377	427.43
405.755	441.22
406.133	444.38
406.511	447.09
406.889	430.14
407.267	478.96
407.645	457.71
408.023	450.03
408.401	460.88
408.779	471.5
409.156	478.96
409.534	447.54
409.912	470.59
410.29	459.52
410.667	463.59
411.045	466.98
411.422	460.88
411.8	465.4
412.178	480.09
412.555	488
412.933	491.84
413.31	490.26
413.687	503.36
414.065	491.84
414.442	500.88
414.819	502.01
415.197	502.46
415.574	526.86
415.951	498.39
416.328	522.12
416.705	528.45
417.082	530.93
417.46	532.51
417.837	525.51
418.214	526.19
418.591	540.65
418.967	529.12
419.344	546.07
419.721	517.15
420.098	538.39
420.475	534.77
420.852	543.81
421.228	572.51
421.605	572.97
421.982	564.6
422.358	570.48
422.735	547.66
423.111	571.38
423.488	552.63
423.864	570.25
424.241	559.18
424.617	587.43
424.994	593.3
425.37	580.87
425.746	591.72
426.123	596.47
426.499	560.76
426.875	580.87
427.251	606.18
427.627	605.73
428.003	639.18
428.379	617.71
428.756	644.15
429.132	617.94
429.507	641.21
429.883	632.17
430.259	647.77
430.635	646.64
431.011	656.35
431.387	658.16
431.763	654.32
432.138	673.98
432.514	674.43
432.89	690.25
433.265	684.83
433.641	703.81
434.016	681.89
434.392	695.22
434.767	720.76
435.143	710.59
435.518	710.81
435.894	725.73
436.269	718.72
436.644	728.89
437.02	732.73
437.395	734.54
437.77	761.66
438.145	748.78
438.52	752.17
438.895	759.85
439.271	765.05
439.646	787.87
440.021	783.81
440.395	799.63
440.77	796.01
441.145	821.55
441.52	819.96
441.895	824.94
442.27	792.17
442.645	788.33
443.019	835.11
443.394	823.35
443.769	829.23
444.143	821.77
444.518	848.89
444.892	834.88
445.267	859.06
445.641	856.12
446.016	853.64
446.39	862.68
446.764	848.89
447.139	869.23
447.513	890.92
447.887	903.13
448.262	874.65
448.636	877.59
449.01	862
449.384	890.7
449.758	909.45
450.132	904.93
450.506	911.71
450.88	948.32
451.254	903.8
451.628	925.27
452.002	939.51
452.376	939.96
452.75	934.54
453.123	986.51
453.497	971.6
453.871	969.56
454.244	983.8
454.618	1001.65
454.992	1020.19
455.365	1017.25
455.739	1031.71
456.112	1031.94
456.486	1049.11
456.859	1057.02
457.232	1054.08
457.606	1090.47
457.979	1083.69
458.352	1090.69
458.725	1132.5
459.099	1117.81
459.472	1126.17
459.845	1134.98
460.218	1179.05
460.591	1166.17
460.964	1160.07
461.337	1196.9
461.71	1200.97
462.083	1229.67
462.456	1228.09
462.829	1259.05
463.201	1281.42
463.574	1247.52
463.947	1268.99
464.32	1313.06
464.692	1319.16
465.065	1332.95
465.438	1346.5
465.81	1379.27
466.183	1384.92
466.555	1421.53
466.928	1429.67
467.3	1444.81
467.672	1447.07
468.045	1483.68
468.417	1513.51
468.789	1507.63
469.161	1510.79
469.534	1547.85
469.906	1590.57
470.278	1597.35
470.65	1623.56
471.022	1654.07
471.394	1709.21
471.766	1706.27
472.138	1730.67
472.51	1784.01
472.882	1799.6
473.253	1842.54
473.625	1861.29
473.997	1910.56
474.369	1949.43
474.74	1980.61
475.112	2018.35
475.484	2058.58
475.855	2101.51
476.227	2145.81
476.598	2204.33
476.97	2232.81
477.341	2301.96
477.713	2348.51
478.084	2339.7
478.455	2440.49
478.827	2487.94
479.198	2558
479.569	2616.75
479.94	2672.57
480.311	2746.02
480.682	2771.78
481.053	2906.46
481.424	2976.97
481.795	2993.47
482.166	3077.31
482.537	3168.6
482.908	3242.05
483.279	3296.96
483.65	3399.11
484.021	3509.84
484.391	3543.51
484.762	3634.13
485.133	3694.69
485.503	3762.49
485.874	3896.49
486.244	3979.43
486.615	4048.58
486.985	4177.39
487.356	4275.24
487.726	4409.02
488.097	4472.52
488.467	4545.06
488.837	4625.06
489.207	4778.5
489.578	4820.31
489.948	4948.9
490.318	5056.69
490.688	5164.71
491.058	5279.96
491.428	5351.82
491.798	5423.69
492.168	5599.73
492.538	5696.9
492.908	5801.08
493.278	5926.27
493.648	5944.58
494.017	6098.24
494.387	6138.69
494.757	6306.83
495.126	6385.69
495.496	6432.7
495.866	6549.76
496.235	6629.98
496.605	6723.99
496.974	6790.88
497.344	6907.49
497.713	6957.66
498.082	7094.38
498.452	7235.39
498.821	7336.86
499.19	7375.5
499.559	7468.83
499.928	7566.45
500.298	7655.26
500.667	7789.05
501.036	7787.46
501.405	7966.67
501.774	8008.02
502.143	8049.83
502.512	8139.55
502.88	8210.73
503.249	8205.08
503.618	8385.19
503.987	8405.98
504.356	8564.17
504.724	8567.33
505.093	8671.74
505.462	8802.58
505.83	8772.3
506.199	8982.24
506.567	9075.34
506.936	9042.12
507.304	9203.02
507.672	9242.12
508.041	9354.43
508.409	9432.62
508.777	9443.69
509.145	9553.75
509.514	9627.42
509.882	9722.56
510.25	9779.05
510.618	9788.99
510.986	9845.94
511.354	9927.75
511.722	10024.47
512.09	10210.45
512.458	10140.17
512.826	10312.14
513.193	10309.43
513.561	10318.25
513.929	10458.35
514.297	10541.74
514.664	10610.67
515.032	10675.52
515.4	10768.86
515.767	10812.02
516.135	10921.39
516.502	10933.6
516.869	11048.4
517.237	11066.47
517.604	11113.03
517.972	11144.66
518.339	11295.85
518.706	11262.4
519.073	11343.98
519.44	11453.36
519.808	11588.95
520.175	11554.37
520.542	11703.75
520.909	11770.86
521.276	11727.25
521.643	11811.31
522.009	11987.35
522.376	12034.13
522.743	12073.45
523.11	12145.09
523.477	12387.34
523.843	12428.92
524.21	12439.55
524.577	12618.3
524.943	12571.07
525.31	12702.59
525.676	12809.25
526.043	12827.78
526.409	12916.14
526.776	13016.03
527.142	13050.15
527.508	13168.34
527.874	13298.96
528.241	13279.07
528.607	13330.37
528.973	13453.53
529.339	13534.88
529.705	13638.16
530.071	13704.15
530.437	13807.65
530.803	13908.43
531.169	13983.91
531.535	14055.1
531.901	14002.22
532.267	14119.28
532.632	14270.91
532.998	14265.71
533.364	14371.7
533.73	14438.82
534.095	14544.35
534.461	14573.95
534.826	14625.48
535.192	14629.77
535.557	14745.02
535.923	14739.6
536.288	14847.84
536.653	14931.01
537.019	14916.77
537.384	14936.66
537.749	15063.21
538.114	15055.3
538.479	15212.13
538.845	15273.37
539.21	15324.89
539.575	15301.62
539.94	15317.89
540.305	15430.43
540.67	15492.8
541.034	15678.33
541.399	15595.85
541.764	15706.58
542.129	15674.94
542.494	15788.38
542.858	15801.72
543.223	15875.39
543.587	15976.85
543.952	15966.01
544.316	16136.4
544.681	16103.4
545.045	16141.6
545.41	16212.33
545.774	16238.99
546.138	16329.39
546.503	16363.74
546.867	16438.08
547.231	16495.26
547.595	16514.92
547.959	16655.25
548.324	16652.54
548.688	16680.79
549.052	16827.9
549.416	16807.79
549.779	16968.24
550.143	16915.59
550.507	17112.87
550.871	17164.17
551.235	17159.65
551.599	17332.98
551.962	17322.36
552.326	17321.45
552.689	17390.38
553.053	17295.69
553.417	17399.87
553.78	17718.96
554.143	17542.01
554.507	17672.85
554.87	17809.12
555.234	17918.72
555.597	17812.29
555.96	17923.92
556.323	17966.63
556.686	17967.54
557.05	18150.58
557.413	18098.83
557.776	18182.22
558.139	18284.82
558.502	18345.83
558.865	18374.53
559.228	18489.1
559.59	18543.34
559.953	18634.19
560.316	18768.42
560.679	18838.02
561.041	18981.75
561.404	18973.39
561.767	19088.86
562.129	19001.18
562.492	19230.33
562.854	19185.36
563.217	19211.12
563.579	19357.56
563.941	19425.12
564.304	19442.75
564.666	19644.55
565.028	19593.03
565.39	19697.89
565.753	19846.36
566.115	19901.95
566.477	19964.09
566.839	20000.7
567.201	20146.46
567.563	20122.06
567.925	20274.59
568.287	20348.94
568.648	20315.5
569.01	20433.91
569.372	20651.99
569.734	20540.12
570.095	20709.61
570.457	20756.39
570.819	20907.35
571.18	20937.63
571.542	21072.31
571.903	21090.39
572.265	21272.08
572.626	21189.15
572.987	21340.78
573.349	21444.73
573.71	21511.17
574.071	21639.08
574.432	21730.15
574.794	21900.31
575.155	21933.53
575.516	21945.51
575.877	22103.92
576.238	22165.39
576.599	22347.53
576.96	22426.4
577.32	22612.16
577.681	22676.56
578.042	22857.35
578.403	22893.51
578.763	22966.05
579.124	23110.68
579.485	23270.9
579.845	23438.13
580.206	23489.2
580.566	23610.55
580.927	23725.58
581.287	23968.28
581.648	24023.65
582.008	24304.54
582.368	24495.95
582.728	24603.75
583.089	24662.73
583.449	24954.7
583.809	25046.9
584.169	25188.14
584.529	25411.63
584.889	25722.59
585.249	25882.58
585.609	25859.31
585.969	26344.04
586.329	26367.54
586.688	26491.83
587.048	26808.21
587.408	26836
587.768	27080.29
588.127	27403.45
588.487	27474.4
588.846	27834.4
589.206	27862.87
589.565	28004.33
589.925	28455.85
590.284	28599.8
590.643	28781.04
591.003	28964.99
591.362	29387.8
591.721	29445.88
592.08	29573.78
592.44	29963.6
592.799	30125.86
593.158	30317.27
593.517	30520.2
593.876	30654.66
594.235	30849.91
594.593	31156.57
594.952	31335.32
595.311	31411.93
595.67	31700.51
596.029	32063.89
596.387	32270.21
596.746	32554.5
597.104	32543.2
597.463	32695.96
597.822	33045.56
598.18	33100.92
598.538	33217.98
598.897	33675.82
599.255	33475.15
599.613	34131.63
599.972	34051.63
600.33	34331.4
600.688	34465.86
601.046	34670.37
601.404	34906.53
601.762	34947.88
602.12	35329.57
602.478	35308.55
602.836	35590.58
603.194	35459.73
603.552	35730.01
603.91	35769.55
604.268	36064.24
604.625	36236.66
604.983	36385.36
605.341	36438.91
605.698	36638.91
606.056	36916.64
606.413	37014.27
606.771	37217.43
607.128	37393.01
607.485	37308.72
607.843	37514.37
608.2	37786
608.557	37862.38
608.914	37897.86
609.272	38226.66
609.629	38374.91
609.986	38484.74
610.343	38401.12
610.7	38856.03
611.057	38880.43
611.414	39009.47
611.771	39127.66
612.127	39157.71
612.484	39233.42
612.841	39489.46
613.198	39522.68
613.554	39607.19
613.911	39989.78
614.267	39958.82
614.624	39985.49
614.98	40171.25
615.337	40461.18
615.693	40324.01
616.05	40447.62
616.406	40587.51
616.762	40599.48
617.118	40772.81
617.475	40763.32
617.831	40964.67
618.187	40979.36
618.543	41133.25
618.899	41447.82
619.255	41359.46
619.611	41385.23
619.967	41558.1
620.323	41709.51
620.678	41610.53
621.034	41477.2
621.39	41679.45
621.746	41722.39
622.101	42177.52
622.457	41948.83
622.812	42039.45
623.168	42113.57
623.523	42069.05
623.879	42293
624.234	42137.07
624.589	42235.6
624.945	42312.43
625.3	42411.64
625.655	42347.91
626.01	42529.6
626.365	42430.85
626.72	42554.91
627.075	42585.19
627.43	42637.4
627.785	42549.49
628.14	42631.07
628.495	42666.77
628.85	42586.1
629.205	42568.7
629.559	42749.94
629.914	42627
630.269	42676.49
630.623	42653.67
630.978	42595.36
631.332	42875.36
631.687	42843.27
632.041	42775.47
632.396	42783.83
632.75	42671.07
633.104	42756.71
633.459	42493.67
633.813	42649.6
634.167	42721.46
634.521	42681.46
634.875	42855.02
635.229	42679.2
635.583	42574.8
635.937	42549.71
636.291	42550.84
636.645	42711.29
636.999	42578.41
637.352	42756.04
637.706	42399.66
638.06	42671.29
638.413	42611.86
638.767	42480.34
639.121	42554.46
639.474	42340
639.828	42414.12
640.181	42505.87
640.534	42465.87
640.888	42410.96
641.241	42212.77
641.594	42167.8
641.947	42554.91
642.301	42391.98
642.654	42282.15
643.007	42387.01
643.36	42426.55
643.713	42312.88
644.066	42436.95
644.419	42176.17
644.771	41975.72
645.124	41437.65
645.477	41445.56
645.83	41251.67
646.182	40989.3
646.535	41012.13
646.888	41044.67
647.24	40935.75
647.593	41131.45
647.945	41075.4
648.298	40965.12
648.65	40716.32
649.002	40731.46
649.355	40980.49
649.707	40845.8
650.059	41093.48
650.411	41373.93
650.763	41512.91
651.115	41821.6
651.467	41786.57
651.819	41804.88
652.171	41649.17
652.523	41639.68
652.875	41683.97
653.227	41460.48
653.578	41696.18
653.93	41567.82
654.282	41605.78
654.633	41479.23
654.985	41409.41
655.337	41653.69
655.688	41432.68
656.039	41825.89
656.391	41391.78
656.742	41292.57
657.094	41440.37
657.445	41598.33
657.796	41425
658.147	41335.28
658.498	41395.62
658.849	41386.58
659.2	41535.28
659.551	41172.8
659.902	41364.66
660.253	41351.33
660.604	41431.55
660.955	41266.58
661.306	41263.65
661.656	41232.46
662.007	41219.58
662.358	41162.86
662.708	41201.95
663.059	41211.22
663.409	41040.38
663.76	41307.26
664.11	41267.94
664.461	41233.36
664.811	41377.09
665.161	41295.28
665.511	41175.51
665.862	41153.59
666.212	41455.05
666.562	41466.58
666.912	41236.3
667.262	41066.59
667.612	41209.18
667.962	41152.92
668.312	41125.12
668.662	41349.07
669.011	41320.14
669.361	41048.29
669.711	41115.85
670.06	41039.02
670.41	41079.47
670.76	40826.82
671.109	41131.67
671.459	41030.43
671.808	40901.85
672.157	41038.57
672.507	40783.43
672.856	40773.94
673.205	41014.61
673.554	40958.8
673.904	40897.78
674.253	41165.12
674.602	40865.92
674.951	40329.66
675.3	40130.34
675.649	40893.26
675.998	40826.37
676.346	40849.87
676.695	40940.04
677.044	40572.14
677.393	40712.7
677.741	40834.28
678.09	40734.85
678.438	40476.1
678.787	40664.79
679.135	40631.57
679.484	40461.86
679.832	40529.65
680.181	40289.43
680.529	40418.47
680.877	40300.51
681.225	40029.33
681.573	40451.01
681.922	40146.39
682.27	40071.59
682.618	39919.95
682.966	40066.16
683.314	40136.67
683.661	40027.52
684.009	39824.59
684.357	39710.92
684.705	39694.65
685.053	39706.4
685.4	39567.42
685.748	39472.96
686.095	39441.55
686.443	39237.03
686.79	39333.53
687.138	39372.85
687.485	39388.44
687.832	39167.43
688.18	39279.52
688.527	39147.54
688.874	39178.96
689.221	38943.26
689.568	38918.4
689.915	38797.5
690.262	38782.36
690.609	38646.99
690.956	38674.34
691.303	38528.8
691.65	38378.07
691.997	38478.64
692.344	38217.63
692.69	38175.14
693.037	38291.3
693.383	37812.66
693.73	38010.4
694.077	37697.19
694.423	37839.78
694.769	37580.13
695.116	37490.19
695.462	37546
695.808	37386.46
696.155	37523.63
696.501	37285.67
696.847	37110.99
697.193	36951.44
697.539	37108.28
697.885	36844.78
698.231	36563.88
698.577	36747.38
698.923	36702.41
699.269	36448.86
699.614	36319.6
699.96	36274.17
700.306	36260.39
700.651	36036.44
700.997	35948.98
701.342	36008.42
701.688	35786.5
702.033	35690.91
702.379	35732.49
702.724	35754.19
703.069	35777.69
703.415	35261.32
703.76	35330.7
704.105	35600.07
704.45	35304.26
704.795	35073.98
705.14	35046.18
705.485	34921.21
705.83	34863.59
706.175	34836.47
706.52	34839.41
706.865	34734.33
707.209	34637.15
707.554	34528.23
707.899	34536.14
708.243	34483.49
708.588	34290.95
708.932	34046.89
709.277	34143.83
709.621	34215.7
709.966	33928.92
710.31	33956.04
710.654	33685.99
710.998	33724.64
711.342	33763.28
711.687	33668.37
712.031	33524.19
712.375	33401.71
712.719	33392.89
713.063	33426.34
713.407	33468.82
713.75	33199.23
714.094	33190.19
714.438	33163.52
714.782	33158.1
715.125	32875.84
715.469	33039.46
715.812	32876.97
716.156	32744.1
716.499	32846.47
716.843	32837.88
717.186	32605.57
717.53	32691.67
717.873	32605.57
718.216	32632.01
718.559	32438.12
718.902	32313.6
719.246	32361.28
719.589	32321.73
719.932	32048.07
720.275	32148.18
720.617	32039.26
720.96	31889.2
721.303	31908.64
721.646	31935.3
721.989	31771.24
722.331	31962.2
722.674	31802.43
723.016	31817.34
723.359	31616.89
723.701	31744.57
724.044	31455.09
724.386	31460.29
724.729	31495.09
725.071	31396.56
725.413	31413.96
725.755	31294.42
726.097	31248.54
726.439	31031.6
726.782	31085.84
727.124	31277.69
727.465	31160.64
727.807	30907.53
728.149	30921.77
728.491	30961.77
728.833	30944.37
729.175	30793.87
729.516	30784.83
729.858	30753.41
730.199	30703.92
730.541	30754.54
730.882	30753.64
731.224	30802
731.565	30489.92
731.906	30515.23
732.248	30534.44
732.589	30291.96
732.93	30324.05
733.271	30316.14
733.612	30282.92
733.953	30280.43
734.294	30137.84
734.635	30045.64
734.976	30126.54
735.317	29905.08
735.658	29943.49
735.999	30044.51
736.339	29847.22
736.68	30039.99
737.021	29793.89
737.361	29756.83
737.702	29855.59
738.042	29723.61
738.383	29653.78
738.723	29787.79
739.063	29570.17
739.404	29762.71
739.744	29536.05
740.084	29434.35
740.424	29434.81
740.764	29355.26
741.104	29527.91
741.444	29266
741.784	29139.45
742.124	29333.56
742.464	29273.23
742.804	29235.94
743.143	29206.11
743.483	29178.77
743.823	28939.45
744.162	28978.09
744.502	29007.92
744.841	28846.35
745.181	29039.34
745.52	28939.22
745.86	28889.73
746.199	28772.68
746.538	28809.51
746.877	28833.24
747.216	28744.2
747.556	28666.69
747.895	28558.22
748.234	28456.75
748.573	28512.8
748.911	28465.11
749.25	28449.75
749.589	28269.64
749.928	28316.19
750.267	28318.68
750.605	28250.66
750.944	28153.93
751.283	28090.66
751.621	28027.16
751.96	27958.69
752.298	28012.47
752.636	28001.4
752.975	27872.36
753.313	27640.5
753.651	27750.78
753.989	27529.77
754.327	27618.36
754.666	27491.35
755.004	27567.28
755.342	27640.73
755.679	27536.55
756.017	27346.95
756.355	27436.21
756.693	27247.52
757.031	27417.23
757.368	27137.24
757.706	27131.59
758.044	26972.5
758.381	27116.22
758.719	26956
759.056	26952.84
759.394	26698.15
759.731	26693.18
760.068	26581.55
760.405	26529.57
760.743	26524.6
761.08	26601.66
761.417	26415.68
761.754	26302.68
762.091	26194.66
762.428	26137.26
762.765	26075.57
763.102	26131.39
763.438	25865.41
763.775	25820.21
764.112	25842.36
764.449	25851.85
764.785	25752.42
765.122	25610.5
765.458	25485.98
765.795	25404.4
766.131	25383.61
766.467	25398.53
766.804	25170.06
767.14	24955.6
767.476	25052.77
767.812	24885.77
768.148	25013.23
768.485	24769.84
768.821	24623.18
769.157	24595.16
769.492	24650.98
769.828	24531.43
770.164	24332.34
770.5	24293.25
770.836	24257.77
771.171	24042.86
771.507	24142.51
771.842	23919.92
772.178	23885.12
772.513	23768.51
772.849	23828.85
773.184	23630.21
773.519	23707.05
773.855	23509.31
774.19	23449.2
774.525	23436.77
774.86	23379.37
775.195	23335.08
775.53	23185.25
775.865	23029.1
776.2	22858.71
776.535	22812.15
776.87	22873.62
777.205	22763.79
777.539	22607.64
777.874	22523.57
778.209	22336.46
778.543	22317.93
778.878	22243.81
779.212	22218.5
779.547	22145.96
779.881	22168.33
780.215	21937.83
780.55	21969.24
780.884	21830.03
781.218	21796.14
781.552	21724.5
781.886	21740.54
782.22	21450.16
782.554	21438.41
782.888	21260.78
783.222	21215.81
783.556	21179.2
783.889	21152.76
784.223	20873.67
784.557	20914.35
784.89	20964.29
785.224	20807.46
785.557	20677.75
785.891	20696.96
786.224	20643.62
786.558	20489.05
786.891	20375.38
787.224	20303.29
787.557	20174.03
787.891	20264.42
788.224	20204.99
788.557	20159.34
788.89	20016.97
789.223	20106.24
789.556	19868.73
789.888	19850.42
790.221	19779.24
790.554	19699.24
790.887	19610.2
791.219	19594.61
791.552	19559.36
791.884	19381.28
792.217	19449.53
792.549	19221.51
792.882	19158.24
793.214	19027.17
793.546	19179.93
793.879	18936.78
794.211	18835.08
794.543	18923.44
794.875	18841.64
795.207	18756.44
795.539	18798.93
795.871	18775.42
796.203	18624.02
796.535	18503.79
796.867	18485.49
797.198	18366.85
797.53	18421.99
797.862	18245.04
798.193	18290.01
798.525	18200.98
798.856	18191.03
799.188	17949.68
799.519	17986.07
799.85	17874.21
800.182	17898.61
800.513	17886.41
800.844	17755.56
801.175	17728.9
801.506	17762.8
801.837	17642.8
802.168	17577.26
802.499	17558.06
802.83	17424.5
803.161	17410.04
803.491	17337.95
803.822	17327.55
804.153	17295.69
804.483	17023.38
804.814	17160.78
805.145	17142.25
805.475	16917.62
805.805	16976.38
806.136	16937.73
806.466	16903.61
806.796	16834.68
807.126	16744.52
807.457	16831.29
807.787	16796.72
808.117	16662.49
808.447	16634.01
808.777	16556.73
809.107	16502.94
809.436	16489.83
809.766	16399.67
810.096	16428.14
810.426	16355.38
810.755	16360.35
811.085	16265.21
811.414	16182.27
811.744	16085.55
812.073	16136.17
812.403	16052.78
812.732	15956.74
813.061	15990.19
813.39	15896.4
813.719	15849.17
814.049	15965.55
814.378	15864.77
814.707	15825.22
815.036	15697.77
815.365	15685.34
815.693	15487.83
816.022	15536.87
816.351	15483.08
816.68	15458.68
817.008	15503.19
817.337	15322.86
817.665	15300.71
817.994	15350.2
818.322	15259.13
818.651	15235.4
818.979	15176.2
819.307	15370.32
819.636	15180.94
819.964	15052.36
820.292	15086.26
820.62	15226.82
820.948	14982.76
821.276	15054.84
821.604	14989.54
821.932	15116.54
822.259	15105.92
822.587	15060.95
822.915	15019.59
823.243	15085.8
823.57	14991.57
823.898	15025.01
824.225	14997.9
824.553	14945.92
824.88	15009.65
825.207	14922.87
825.535	14913.61
825.862	15025.01
826.189	14966.03
826.516	14977.33
826.843	15070.21
827.17	15079.48
827.497	14989.76
827.824	15013.72
828.151	15061.4
828.478	14967.16
828.805	15055.52
829.131	15018.01
829.458	15018.91
829.785	14996.77
830.111	14890.33
830.438	14989.76
830.764	14926.03
831.09	14951.12
831.417	14946.82
831.743	14931.23
832.069	14944.34
832.395	14889.2
832.722	14994.28
833.048	14867.96
833.374	14846.49
833.7	14784.34
834.026	14802.87
834.351	14866.15
834.677	14785.02
835.003	14799.71
835.329	14679.94
835.654	14844.91
835.98	14644.01
836.306	14735.53
836.631	14602.88
836.956	14666.83
837.282	14704.57
837.607	14675.19
837.932	14555.42
838.258	14596.55
838.583	14522.2
838.908	14484.92
839.233	14530.79
839.558	14564.91
839.883	14352.49
840.208	14406.5
840.533	14279.72
840.858	14432.49
841.182	14301.19
841.507	14324.02
841.832	14258.03
842.156	14196.79
842.481	14262.77
842.805	14172.61
843.13	14094.87
843.454	14110.46
843.778	13971.03
844.103	14178.94
844.427	13995.44
844.751	14024.59
845.075	13952.95
845.399	13895.78
845.723	13822.79
846.047	13917.93
846.371	13790.7
846.695	13750.47
847.019	13640.87
847.343	13585.73
847.666	13525.17
847.99	13438.84
848.313	13468.67
848.637	13405.4
848.96	13333.99
849.284	13259.41
849.607	13171.96
849.931	13200.66
850.254	13044.5
850.577	12975.12
850.9	12889.7
851.223	12894.22
851.546	12914.34
851.869	12788.69
852.192	12802.02
852.515	12712.31
852.838	12720.89
853.161	12664.4
853.483	12651.74
853.806	12482.48
854.129	12537.62
854.451	12521.13
854.774	12418.98
855.096	12341.92
855.419	12336.95
855.741	12306.22
856.063	12256.5
856.385	12204.98
856.708	12152.77
857.03	12147.58
857.352	12200.23
857.674	12105.32
857.996	12025.09
858.318	12005.88
858.64	11967.47
858.961	11963.4
859.283	11892.22
859.605	11814.48
859.926	11757.98
860.248	11820.58
860.57	11737.64
860.891	11747.81
861.212	11709.4
861.534	11670.75
861.855	11619
862.176	11631.43
862.498	11623.97
862.819	11593.69
863.14	11555.95
863.461	11589.85
863.782	11518.21
864.103	11533.81
864.424	11583.3
864.745	11535.16
865.065	11408.16
865.386	11371.55
865.707	11377.88
866.027	11397.54
866.348	11317.09
866.668	11396.18
866.989	11293.14
867.309	11232.57
867.63	11273.02
867.95	11247.03
868.27	11188.51
868.59	11244.55
868.91	11244.1
869.23	11134.04
869.55	11063.99
869.87	11173.14
870.19	11155.51
870.51	11161.61
870.83	11126.59
871.15	11021.28
871.469	10986.7
871.789	11070.77
872.109	11016.31
872.428	11012.46
872.748	10974.73
873.067	10938.34
873.386	10978.57
873.706	10922.52
874.025	10901.96
874.344	10868.97
874.663	10968.62
874.982	10906.03
875.301	10866.93
875.62	10793.49
875.939	10753.94
876.258	10783.77
876.577	10765.24
876.896	10771.34
877.214	10726.37
877.533	10732.92
877.852	10702.19
878.17	10677.78
878.489	10653.38
878.807	10695.64
879.125	10598.69
879.444	10625.81
879.762	10549.65
880.08	10587.17
880.398	10497
880.716	10550.1
881.034	10448.86
881.352	10512.59
881.67	10511.91
881.988	10452.71
882.306	10425.36
882.624	10401.41
882.941	10319.15
883.259	10291.35
883.577	10272.6
883.894	10276.21
884.212	10228.98
884.529	10220.17
884.846	10228.98
885.164	10185.82
885.481	10180.17
885.798	10178.59
886.115	10066.73
886.432	10121.87
886.75	10045.94
887.067	10035.77
887.383	10009.33
887.7	10041.87
888.017	9924.81
888.334	9979.72
888.651	9916.9
888.967	9883.91
889.284	9922.55
889.6	9825.6
889.917	9786.73
890.233	9740.18
890.55	9779.73
890.866	9774.31
891.182	9721.43
891.498	9678.94
891.815	9711.71
892.131	9684.14
892.447	9618.6
892.763	9627.64
893.079	9603.69
893.395	9517.14
893.71	9466.29
894.026	9478.49
894.342	9452.96
894.657	9363.92
894.973	9360.08
895.289	9321.66
895.604	9392.62
895.92	9292.74
896.235	9223.13
896.55	9275.34
896.865	9217.94
897.181	9152.17
897.496	9150.82
897.811	9115.11
898.126	9059.52
898.441	9024.04
898.756	9018.39
899.071	8934.33
899.386	8993.99
899.7	8896.14
900.015	8944.04
900.33	8796.48
900.644	8789.02
900.959	8813.43
901.273	8770.49
901.588	8735.91
901.902	8725.75
902.216	8675.35
902.531	8579.53
902.845	8603.26
903.159	8535.47
903.473	8537.5
903.787	8441.68
904.101	8418.86
904.415	8405.53
904.729	8408.69
905.042	8361.01
905.356	8376.15
905.67	8344.74
905.984	8276.04
906.297	8255.02
906.611	8202.14
906.924	8219.77
907.237	8129.15
907.551	8133.67
907.864	8108.36
908.177	8090.06
908.491	8049.83
908.804	8009.83
909.117	7996.5
909.43	7918.08
909.743	7918.53
910.056	7841.47
910.368	7841.7
910.681	7779.1
910.994	7768.48
911.307	7774.81
911.619	7721.48
911.932	7684.42
912.244	7689.84
912.557	7603.29
912.869	7603.97
913.181	7547.47
913.494	7531.43
913.806	7540.47
914.118	7467.25
914.43	7424.76
914.742	7401.71
915.054	7403.52
915.366	7390.86
915.678	7264.54
915.99	7284.88
916.302	7287.36
916.613	7256.86
916.925	7175.96
917.236	7203.53
917.548	7147.26
917.859	7152.23
918.171	7075.17
918.482	7041.95
918.794	7006.02
919.105	7052.12
919.416	6938
919.727	6940.93
920.038	6921.05
920.349	6902.06
920.66	6838.56
920.971	6846.7
921.282	6843.76
921.593	6756.53
921.903	6714.95
922.214	6646.25
922.525	6676.76
922.835	6661.84
923.146	6642.18
923.456	6591.56
923.767	6521.51
924.077	6592.24
924.387	6523.54
924.697	6451.23
925.008	6389.54
925.318	6412.13
925.628	6384.34
925.938	6384.11
926.248	6263.44
926.558	6282.42
926.867	6229.09
927.177	6255.08
927.487	6220.27
927.796	6139.37
928.106	6147.28
928.416	6152.93
928.725	6133.95
929.034	6107.06
929.344	6096.89
929.653	6051.69
929.962	5990
930.271	5977.12
930.581	5978.92
930.89	5876.78
931.199	5898.47
931.508	5887.63
931.817	5877.23
932.125	5852.37
932.434	5771.25
932.743	5778.93
933.051	5703.9
933.36	5759.72
933.669	5650.57
933.977	5676.56
934.286	5671.14
934.594	5664.81
934.902	5586.62
935.21	5612.15
935.519	5534.42
935.827	5546.17
936.135	5522.21
936.443	5441.76
936.751	5481.99
937.059	5497.36
937.367	5373.52
937.674	5460.97
937.982	5364.48
938.29	5363.12
938.597	5404.7
938.905	5276.34
939.213	5313.63
939.52	5258.94
939.827	5230.02
940.135	5249.9
940.442	5176.01
940.749	5169.45
941.056	5154.31
941.363	5139.62
941.67	5157.93
941.977	5103.92
942.284	5092.17
942.591	5012.62
942.898	5015.56
943.205	5019.18
943.511	4984.37
943.818	4964.49
944.125	4937.37
944.431	4932.62
944.738	4921.1
945.044	4920.2
945.35	4884.26
945.657	4828.45
945.963	4842.68
946.269	4796.13
946.575	4774.44
946.881	4733.53
947.187	4701.22
947.493	4723.14
947.799	4703.03
948.105	4676.81
948.41	4625.29
948.716	4640.65
949.022	4635.01
949.327	4600.43
949.633	4554.78
949.938	4525.4
950.244	4579.19
950.549	4518.85
950.854	4501.22
951.16	4423.71
951.465	4441.11
951.77	4444.73
952.075	4410.38
952.38	4373.77
952.685	4354.56
952.99	4333.09
953.294	4330.61
953.599	4302.58
953.904	4293.77
954.209	4292.19
954.513	4253.32
954.818	4278.86
955.122	4232.53
955.426	4179.42
955.731	4204.06
956.035	4171.29
956.339	4138.3
956.643	4164.28
956.948	4129.71
957.252	4126.32
957.556	4081.57
957.86	4093.55
958.163	4071.4
958.467	4009.94
958.771	4023.72
959.075	3995.93
959.378	3979.88
959.682	3952.54
959.985	3983.95
960.289	3909.15
960.592	3922.26
960.896	3896.95
961.199	3882.03
961.502	3905.08
961.805	3826.44
962.108	3853.78
962.411	3835.25
962.714	3766.1
963.017	3761.81
963.32	3825.99
963.623	3744.18
963.926	3748.93
964.228	3716.61
964.531	3696.27
964.833	3672.54
965.136	3673.9
965.438	3649.49
965.741	3659.21
966.043	3616.95
966.345	3587.12
966.648	3593.9
966.95	3571.76
967.252	3524.53
967.554	3539.67
967.856	3508.26
968.158	3490.63
968.46	3515.03
968.761	3493.57
969.063	3459.22
969.365	3442.04
969.666	3468.71
969.968	3426.22
970.269	3404.98
970.571	3391.42
970.872	3404.3
971.174	3343.74
971.475	3350.97
971.776	3329.5
972.077	3307.36
972.378	3310.97
972.679	3298.09
972.98	3294.48
973.281	3251.31
973.582	3283.18
973.883	3255.38
974.183	3196.4
974.484	3200.24
974.785	3209.96
975.085	3189.85
975.386	3199.34
975.686	3171.31
975.986	3121.15
976.287	3136.29
976.587	3079.34
976.887	3075.27
977.187	3057.19
977.487	3057.87
977.787	3037.99
978.087	3027.14
978.387	3015.84
978.687	3026.69
978.987	3004.09
979.286	2955.28
979.586	2972
979.885	2969.06
980.185	2971.77
980.484	2927.25
980.784	2939.46
981.083	2893.36
981.382	2910.53
981.682	2873.47
981.981	2823.08
982.28	2861.72
982.579	2818.56
982.878	2861.72
983.177	2848.61
983.475	2810.19
983.774	2768.39
984.073	2803.87
984.372	2767.71
984.67	2781.27
984.969	2741.27
985.267	2738.11
985.566	2683.87
985.864	2719.12
986.162	2721.84
986.461	2694.49
986.759	2671.44
987.057	2673.02
987.355	2630.31
987.653	2651.55
987.951	2608.84
988.249	2636.87
988.547	2627.6
988.844	2603.87
989.142	2575.17
989.44	2556.19
989.737	2563.65
990.035	2516.42
990.332	2511.45
990.63	2502.63
990.927	2509.41
991.224	2506.47
991.521	2498.79
991.819	2487.04
992.116	2443.2
992.413	2440.26
992.71	2397.32
993.006	2416.98
993.303	2385.35
993.6	2414.5
993.897	2394.61
994.193	2389.64
994.49	2341.73
994.787	2345.12
995.083	2342.64
995.379	2336.76
995.676	2332.47
995.972	2347.61
996.268	2304.22
996.565	2276.65
996.861	2301.06
997.157	2270.32
997.453	2243.88
997.749	2235.52
998.044	2201.4
998.34	2266.48
998.636	2203.88
998.932	2203.66
999.227	2191
999.523	2159.14
999.818	2155.75
1000.114	2137.44
1000.409	2148.06
1000.704	2085.69
1001	2127.95
1001.295	2097.9
1001.59	2097.67
1001.885	2101.74
1002.18	2085.47
1002.475	2050.21
1002.77	2052.47
1003.065	2036.43
1003.359	2043.43
1003.654	2012.7
1003.949	1995.75
1004.243	1995.53
1004.538	1944.68
1004.832	1967.05
1005.127	1980.16
1005.421	1961.18
1005.715	1943.55
1006.009	1930.44
1006.304	1948.52
1006.598	1904
1006.892	1901.29
1007.186	1892.03
1007.48	1867.62
1007.773	1907.39
1008.067	1864.68
1008.361	1835.08
1008.655	1856.1
1008.948	1835.53
1009.242	1836.43
1009.535	1788.75
1009.829	1775.42
1010.122	1767.74
1010.415	1774.06
1010.708	1759.15
1011.001	1770.22
1011.295	1717.34
1011.588	1738.81
1011.881	1730
1012.173	1705.82
1012.466	1717.12
1012.759	1674.18
1013.052	1691.13
1013.344	1696.1
1013.637	1700.39
1013.93	1667.17
1014.222	1661.3
1014.514	1641.86
1014.807	1650.22
1015.099	1642.77
1015.391	1598.47
1015.683	1588.31
1015.976	1597.8
1016.268	1604.58
1016.56	1583.79
1016.851	1557.8
1017.143	1586.95
1017.435	1549.21
1017.727	1533.84
1018.018	1528.19
1018.31	1486.61
1018.602	1511.25
1018.893	1515.99
1019.185	1501.3
1019.476	1477.8
1019.767	1486.39
1020.058	1458.14
1020.35	1437.35
1020.641	1395.77
1020.932	1423.56
1021.223	1422.21
1021.514	1421.08
1021.804	1398.48
1022.095	1404.81
1022.386	1408.2
1022.677	1364.81
1022.967	1368.2
1023.258	1374.3
1023.548	1353.28
1023.839	1332.72
1024.129	1327.97
1024.419	1355.54
1024.709	1328.65
1025	1307.64
1025.29	1287.3
1025.58	1278.48
1025.87	1283.23
1026.16	1269.9
1026.449	1281.65
1026.739	1264.47
1027.029	1254.53
1027.319	1255.89
1027.608	1248.65
1027.898	1238.48
1028.187	1214.3
1028.477	1238.26
1028.766	1187.64
1029.055	1166.4
1029.344	1194.19
1029.634	1181.99
1029.923	1178.6
1030.212	1171.37
1030.501	1155.55
1030.79	1170.24
1031.078	1141.31
1031.367	1143.57
1031.656	1126.85
1031.945	1111.48
1032.233	1111.48
1032.522	1094.99
1032.81	1092.5
1033.099	1110.35
1033.387	1092.95
1033.675	1083.01
1033.963	1048.21
1034.251	1072.39
1034.54	1063.12
1034.828	1073.52
1035.116	1054.31
1035.403	1046.85
1035.691	1030.35
1035.979	1013.63
1036.267	1025.61
1036.554	1021.31
1036.842	1025.83
1037.129	1003.69
1037.417	988.77
1037.704	1001.88
1037.992	973.63
1038.279	981.77
1038.566	954.2
1038.853	954.2
1039.14	954.2
