Data from hue_40_FLMS001491_17.txt Node
Date: Mon Feb 06 15:07:31 GMT 2017
User: dcchb
Spectrometer: FLMS00149
Trigger mode: 0
Integration Time (sec): 2.000000E-2
Scans to average: 10
Electric dark correction enabled: true
Nonlinearity correction enabled: false
Boxcar width: 0
XAxis mode: Wavelengths
Number of Pixels in Spectrum: 2048
>>>>>Begin Spectral Data<<<<<
341.393	-9.55
341.776	-9.55
342.16	-9.55
342.543	-70.56
342.927	-66.04
343.31	-76.21
343.693	-82.09
344.077	-67.63
344.46	-67.63
344.843	-50.9
345.226	-30.79
345.61	-33.05
345.993	-17.23
346.376	-10.68
346.759	22.54
347.142	30.23
347.525	55.99
347.908	74.29
348.291	66.61
348.674	83.11
349.057	103.44
349.44	133.05
349.823	143.67
350.206	158.36
350.588	192.71
350.971	222.76
351.354	214.85
351.737	244
352.119	278.58
352.502	288.07
352.884	289.2
353.267	290.56
353.65	296.66
354.032	312.93
354.414	312.03
354.797	319.26
355.179	312.7
355.562	328.07
355.944	337.79
356.326	341.4
356.709	343.66
357.091	342.53
357.473	341.4
357.855	342.08
358.238	345.25
358.62	325.13
359.002	334.85
359.384	343.44
359.766	329.88
360.148	339.6
360.53	341.86
360.912	350.22
361.294	343.44
361.676	341.86
362.057	339.37
362.439	318.35
362.821	341.86
363.203	337.56
363.584	358.13
363.966	330.56
364.348	328.97
364.729	318.35
365.111	320.16
365.493	300.73
365.874	304.12
366.256	330.1
366.637	336.21
367.019	326.26
367.4	331.69
367.781	322.19
368.163	310.67
368.544	321.97
368.925	319.71
369.306	329.43
369.688	320.16
370.069	309.99
370.45	311.35
370.831	313.83
371.212	324
371.593	314.06
371.974	325.36
372.355	330.78
372.736	294.63
373.117	313.61
373.498	305.47
373.879	327.84
374.26	330.1
374.641	318.13
375.021	311.12
375.402	321.29
375.783	327.39
376.163	327.62
376.544	331.46
376.925	338.69
377.305	331.46
377.686	321.07
378.066	340.73
378.447	328.3
378.827	331.23
379.208	345.25
379.588	338.47
379.968	335.3
380.349	326.49
380.729	332.59
381.109	337.56
381.489	339.37
381.87	316.77
382.25	343.66
382.63	345.92
383.01	328.52
383.39	348.86
383.77	324.23
384.15	345.47
384.53	341.86
384.91	332.82
385.29	380.5
385.67	346.38
386.049	365.13
386.429	352.7
386.809	366.94
387.189	337.79
387.568	361.52
387.948	345.92
388.328	340.27
388.707	360.84
389.087	359.26
389.466	347.5
389.846	364.91
390.225	380.5
390.605	379.82
390.984	384.79
391.363	365.13
391.743	362.65
392.122	380.95
392.501	376.66
392.881	362.19
393.26	364.68
393.639	377.11
394.018	405.36
394.397	379.82
394.776	388.86
395.155	373.49
395.534	359.03
395.913	383.89
396.292	392.93
396.671	373.49
397.05	371.69
397.429	383.44
397.808	381.85
398.186	391.35
398.565	385.02
398.944	395.64
399.323	385.47
399.701	386.83
400.08	385.47
400.458	394.74
400.837	381.63
401.215	409.42
401.594	392.25
401.972	385.47
402.351	408.29
402.729	424.11
403.107	401.29
403.486	403.32
403.864	418.92
404.242	399.48
404.62	415.3
404.999	409.88
405.377	402.19
405.755	422.53
406.133	420.95
406.511	428.63
406.889	439.03
407.267	428.63
407.645	443.32
408.023	429.76
408.401	411.01
408.779	436.77
409.156	440.84
409.534	433.38
409.912	430.44
410.29	456.2
410.667	462.98
411.045	437.67
411.422	454.62
411.8	459.59
412.178	453.94
412.555	472.25
412.933	451.68
413.31	469.54
413.687	449.65
414.065	485.81
414.442	467.95
414.819	470.21
415.197	484.68
415.574	497.56
415.951	478.35
416.328	475.64
416.705	479.03
417.082	486.94
417.46	476.99
417.837	488.74
418.214	493.49
418.591	512.92
418.967	529.87
419.344	504.34
419.721	500.04
420.098	487.39
420.475	519.7
420.852	513.83
421.228	531.68
421.605	515.41
421.982	518.8
422.358	526.26
422.735	544.79
423.111	524.45
423.488	533.94
423.864	572.36
424.241	574.39
424.617	552.7
424.994	568.06
425.37	546.37
425.746	555.86
426.123	555.64
426.499	587.27
426.875	550.66
427.251	564.9
427.627	580.27
428.003	584.56
428.379	590.66
428.756	579.36
429.132	589.08
429.507	587.05
429.883	599.48
430.259	617.78
430.635	592.47
431.011	615.07
431.387	618.46
431.763	606.48
432.138	623.66
432.514	639.25
432.89	629.31
433.265	679.93
433.641	658.46
434.016	643.09
434.392	652.81
434.767	658.23
435.143	665.46
435.518	646.93
435.894	690.77
436.269	684.22
436.644	702.3
437.02	706.37
437.395	686.93
437.77	711.34
438.145	733.71
438.52	714.73
438.895	713.6
439.271	727.38
439.646	717.44
440.021	726.25
440.395	749.3
440.77	738.46
441.145	743.65
441.52	768.06
441.895	731.45
442.27	762.64
442.645	733.03
443.019	759.47
443.394	754.05
443.769	799.92
444.143	762.41
444.518	782.97
444.892	782.97
445.267	763.54
445.641	808.06
446.016	810.32
446.39	822.75
446.764	790.66
447.139	803.99
447.513	827.49
447.887	833.37
448.262	840.15
448.636	806.93
449.01	842.63
449.384	834.5
449.758	837.21
450.132	819.13
450.506	850.09
450.88	861.16
451.254	893.03
451.628	887.6
452.002	884.44
452.376	864.33
452.75	875.85
453.123	891.9
453.497	890.09
453.871	887.38
454.244	928.51
454.618	909.75
454.992	955.17
455.365	934.16
455.739	971.44
456.112	972.8
456.486	968.05
456.859	979.58
457.232	991.78
457.606	992.23
457.979	1001.5
458.352	998.79
458.725	1023.42
459.099	1038.11
459.472	1039.69
459.845	1057.09
460.218	1068.62
460.591	1077.66
460.964	1097.77
461.337	1086.24
461.71	1107.26
462.083	1149.52
462.456	1150.65
462.829	1137.31
463.201	1205.79
463.574	1177.99
463.947	1176.18
464.32	1199.91
464.692	1238.33
465.065	1222.96
465.438	1205.79
465.81	1267.03
466.183	1288.27
466.555	1312.68
466.928	1306.58
467.3	1330.53
467.672	1368.72
468.045	1386.35
468.417	1370.98
468.789	1404.2
469.161	1415.5
469.534	1467.48
469.906	1483.52
470.278	1497.53
470.65	1522.84
471.022	1562.61
471.394	1566.23
471.766	1568.04
472.138	1609.84
472.51	1641.93
472.882	1694.14
473.253	1701.82
473.625	1763.06
473.997	1764.64
474.369	1830.63
474.74	1844.19
475.112	1869.5
475.484	1932.77
475.855	1943.85
476.227	2002.38
476.598	2073.79
476.97	2113.11
477.341	2151.98
477.713	2231.98
478.084	2250.51
478.455	2303.84
478.827	2383.38
479.198	2458.64
479.569	2465.87
479.94	2548.58
480.311	2635.13
480.682	2697.95
481.053	2765.07
481.424	2822.69
481.795	2891.17
482.166	2967.1
482.537	3033.08
482.908	3092.07
483.279	3162.35
483.65	3279.41
484.021	3365.5
484.391	3451.6
484.762	3500.87
485.133	3602.79
485.503	3692.5
485.874	3800.52
486.244	3868.32
486.615	3954.64
486.985	4083
487.356	4137.46
487.726	4251.36
488.097	4387.85
488.467	4443.44
488.837	4533.84
489.207	4685.92
489.578	4782.64
489.948	4861.06
490.318	5012.69
490.688	5074.84
491.058	5218.56
491.428	5311.89
491.798	5420.37
492.168	5547.82
492.538	5647.7
492.908	5751.2
493.278	5880.01
493.648	5929.73
494.017	6035.04
494.387	6135.6
494.757	6234.81
495.126	6393.9
495.496	6409.49
495.866	6608.81
496.235	6687.9
496.605	6775.36
496.974	6877.5
497.344	6949.14
497.713	7062.13
498.082	7165.4
498.452	7273.88
498.821	7310.26
499.19	7445.62
499.559	7537.37
499.928	7593.19
500.298	7720.19
500.667	7838.83
501.036	7849.68
501.405	8030.47
501.774	8032.73
502.143	8147.07
502.512	8232.27
502.88	8293.51
503.249	8371.7
503.618	8466.16
503.987	8539.61
504.356	8630.9
504.724	8688.75
505.093	8738.02
505.462	8822.76
505.83	8900.27
506.199	8984.57
506.567	9126.26
506.936	9206.48
507.304	9285.12
507.672	9378.23
508.041	9470.43
508.409	9488.28
508.777	9662.51
509.145	9725.56
509.514	9729.63
509.882	9883.98
510.25	9860.93
510.618	9956.07
510.986	9987.93
511.354	10114.03
511.722	10214.59
512.09	10313.12
512.458	10351.54
512.826	10381.82
513.193	10536.62
513.561	10575.26
513.929	10696.16
514.297	10812.99
514.664	10848.25
515.032	10916.94
515.4	10984.97
515.767	11035.81
516.135	11126.43
516.502	11073.78
516.869	11240.33
517.237	11284.39
517.604	11329.82
517.972	11439.64
518.339	11479.19
518.706	11577.49
519.073	11596.02
519.44	11695
519.808	11809.8
520.175	11846.64
520.542	12020.64
520.909	12072.85
521.276	12024.71
521.643	12154.65
522.009	12203.24
522.376	12296.34
522.743	12407.75
523.11	12483.46
523.477	12612.72
523.843	12668.08
524.21	12749.21
524.577	12880.73
524.943	12902.88
525.31	13006.83
525.676	13148.75
526.043	13240.27
526.409	13260.16
526.776	13401.17
527.142	13423.32
527.508	13635.52
527.874	13716.19
528.241	13717.77
528.607	13791.45
528.973	13968.39
529.339	13882.97
529.705	14054.94
530.071	14069.4
530.437	14236.86
530.803	14240.92
531.169	14355.27
531.535	14305.1
531.901	14367.93
532.267	14518.88
532.632	14640.01
532.998	14698.09
533.364	14743.96
533.73	14808.14
534.095	14853.56
534.461	14901.47
534.826	14973.34
535.192	15110.96
535.557	15122.03
535.923	15176.95
536.288	15189.37
536.653	15352.76
537.019	15367.68
537.384	15440.22
537.749	15427.79
538.114	15484.51
538.479	15527.67
538.845	15631.4
539.21	15676.14
539.575	15678.18
539.94	15843.14
540.305	15900.99
540.67	15851.28
541.034	15950.48
541.399	16085.4
541.764	16068.67
542.129	16251.72
542.494	16179.63
542.858	16218.95
543.223	16326.97
543.587	16427.08
543.952	16468.44
544.316	16508.66
544.681	16559.73
545.045	16603.8
545.41	16734.42
545.774	16837.01
546.138	16798.37
546.503	16801.99
546.867	16927.63
547.231	17055.77
547.595	17059.83
547.959	17024.35
548.324	17146.84
548.688	17196.78
549.052	17218.25
549.416	17264.57
549.779	17391.58
550.143	17409.43
550.507	17506.6
550.871	17564
551.235	17555.87
551.599	17687.39
551.962	17802.87
552.326	17744.11
552.689	17900.26
553.053	17869.53
553.417	17913.37
553.78	18086.47
554.143	18092.8
554.507	18158.79
554.87	18194.49
555.234	18359.91
555.597	18212.57
555.96	18399.91
556.323	18446.69
556.686	18480.36
557.05	18580.25
557.413	18655.95
557.776	18787.7
558.139	18807.58
558.502	18842.16
558.865	18897.3
559.228	19007.35
559.59	19060.69
559.953	19124.19
560.316	19215.48
560.679	19312.43
561.041	19455.03
561.404	19491.18
561.767	19555.14
562.129	19619.77
562.492	19807.78
562.854	19669.48
563.217	19781.57
563.579	19862.47
563.941	20013.2
564.304	19969.14
564.666	20238.73
565.028	20212.29
565.39	20364.15
565.753	20448.67
566.115	20513.3
566.477	20537.26
566.839	20606.18
567.201	20632.17
567.563	20654.54
567.925	20887.98
568.287	20809.11
568.648	20980.18
569.01	21074.19
569.372	21263.11
569.734	21159.61
570.095	21259.72
570.457	21376.78
570.819	21446.16
571.18	21492.26
571.542	21640.96
571.903	21633.95
572.265	21797.79
572.626	21873.94
572.987	21951.23
573.349	21964.56
573.71	22084.11
574.071	22175.63
574.432	22315.74
574.794	22476.41
575.155	22445.46
575.516	22548.28
575.877	22749.85
576.238	22800.02
576.599	22942.84
576.96	22950.75
577.32	23027.81
577.681	23287.92
578.042	23406.11
578.403	23479.78
578.763	23536.95
579.124	23682.26
579.485	23797.51
579.845	24031.63
580.206	24122.25
580.566	24205.63
580.927	24352.75
581.287	24480.2
581.648	24474.78
582.008	24820.76
582.368	24946.18
582.728	24985.5
583.089	25171.26
583.449	25324.7
583.809	25436.11
584.169	25697.57
584.529	25724.01
584.889	26185.24
585.249	26171.46
585.609	26238.58
585.969	26521.51
586.329	26614.84
586.688	26735.06
587.048	27015.73
587.408	27027.93
587.768	27226.12
588.127	27513.12
588.487	27591.99
588.846	27958.76
589.206	27952.65
589.565	28138.19
589.925	28384.06
590.284	28663.14
590.643	28809.13
591.003	29006.86
591.362	29323.24
591.721	29329.34
592.08	29677.13
592.44	29892.72
592.799	29999.83
593.158	30004.35
593.517	30361.41
593.876	30621.06
594.235	30666.26
594.593	30852.69
594.952	31161.84
595.311	31078.45
595.67	31492.22
596.029	31751.65
596.387	31953
596.746	32139.66
597.104	32074.35
597.463	32458.07
597.822	32650.38
598.18	32541.46
598.538	32725.64
598.897	33152.52
599.255	33099.41
599.613	33563.35
599.972	33437.71
600.33	33760.41
600.688	33867.75
601.046	34090.35
601.404	34344.8
601.762	34387.06
602.12	34638.81
602.478	34690.56
602.836	34831.8
603.194	34701.4
603.552	35058.91
603.91	35093.26
604.268	35316.53
604.625	35307.26
604.983	35657.31
605.341	35393.14
605.698	35896.85
606.056	35999.67
606.413	36046
606.771	36230.86
607.128	36451.64
607.485	36291.64
607.843	36579.77
608.2	36807.79
608.557	36937.05
608.914	36916.03
609.272	37264.5
609.629	37540.65
609.986	37652.51
610.343	37497.71
610.7	37910.36
611.057	37817.93
611.414	37981.32
611.771	37996.01
612.127	38199.17
612.484	38240.07
612.841	38421.53
613.198	38264.93
613.554	38593.51
613.911	38640.06
614.267	38687.06
614.624	38810.67
614.98	38832.82
615.337	39231.23
615.693	39087.28
616.05	39193.04
616.406	39418.57
616.762	39331.79
617.118	39336.54
617.475	39457.66
617.831	39695.4
618.187	39612.01
618.543	39748.5
618.899	40074.82
619.255	40008.84
619.611	40145.1
619.967	40177.64
620.323	40335.38
620.678	40337.64
621.034	40233.69
621.39	40368.15
621.746	40315.95
622.101	40803.84
622.457	40531.08
622.812	40675.26
623.168	40735.14
623.523	40727.91
623.879	40923.61
624.234	40557.75
624.589	40912.31
624.945	41002.03
625.3	40865.54
625.655	40968.13
626.01	40968.58
626.365	41061.69
626.72	41082.93
627.075	41134.23
627.43	41077.96
627.785	41044.51
628.14	41202.7
628.495	41323.6
628.85	41245.41
629.205	41097.85
629.559	41384.62
629.914	41235.7
630.269	41347.33
630.623	41192.98
630.978	41203.38
631.332	41287.22
631.687	41444.5
632.041	41260.55
632.396	41202.48
632.75	41212.65
633.104	41291.06
633.459	41110.95
633.813	41050.16
634.167	41095.81
634.521	41163.15
634.875	41278.63
635.229	41239.09
635.583	41098.98
635.937	41022.82
636.291	41017.85
636.645	41010.62
636.999	41057.85
637.352	41246.32
637.706	41064.4
638.06	41093.55
638.413	40992.31
638.767	40823.05
639.121	41022.59
639.474	40758.42
639.828	40849.26
640.181	40880.9
640.534	40826.44
640.888	40770.17
641.241	40640.91
641.594	40682.49
641.947	40863.95
642.301	40687.91
642.654	40834.35
643.007	40769.94
643.36	40704.86
643.713	40537.18
644.066	40806.33
644.419	40500.35
644.771	40183.52
645.124	39857.2
645.477	39899.01
645.83	39605.68
646.182	39546.93
646.535	39276.2
646.888	39521.16
647.24	39229.42
647.593	39397.78
647.945	39465.35
648.298	39306.25
648.65	39297.44
649.002	39188.97
649.355	39248.86
649.707	39209.08
650.059	39298.8
650.411	39785.56
650.763	39736.75
651.115	40289.73
651.467	40168.15
651.819	40062.84
652.171	40042.96
652.523	39926.8
652.875	40007.93
653.227	39765.45
653.578	39980.14
653.93	39920.02
654.282	39806.35
654.633	39723.64
654.985	39793.47
655.337	39841.61
655.688	39688.62
656.039	39907.14
656.391	39637.32
656.742	39617.66
657.094	39579.92
657.445	39756.86
657.796	39550.99
658.147	39563.87
658.498	39604.55
658.849	39725.68
659.2	39583.76
659.551	39536.76
659.902	39607.04
660.253	39514.38
660.604	39704.44
660.955	39266.26
661.306	39544.67
661.656	39605
662.007	39438.23
662.358	39438.23
662.708	39529.75
663.059	39571.78
663.409	39215.86
663.76	39672.35
664.11	39461.05
664.461	39456.08
664.811	39599.81
665.161	39468.51
665.511	39315.29
665.862	39429.19
666.212	39555.97
666.562	39669.63
666.912	39432.13
667.262	39459.24
667.612	39431.9
667.962	39454.5
668.312	39412.24
668.662	39395.97
669.011	39400.94
669.361	39348.51
669.711	39265.13
670.06	39155.3
670.41	39077.11
670.76	39035.08
671.109	39223.77
671.459	39235.3
671.808	39207.05
672.157	39163.89
672.507	38926.6
672.856	38967.73
673.205	39065.36
673.554	39275.97
673.904	38964.57
674.253	39235.97
674.602	39029.65
674.951	38581.98
675.3	38364.13
675.649	38955.53
675.998	38967.51
676.346	38848.87
676.695	39018.8
677.044	38658.36
677.393	38903.1
677.741	38912.59
678.09	38824.46
678.438	38699.04
678.787	38841.18
679.135	38760.96
679.484	38596.67
679.832	38607.97
680.181	38366.39
680.529	38583.56
680.877	38345.6
681.225	38489.78
681.573	38544.47
681.922	38286.17
682.27	38247.98
682.618	38414.98
682.966	38294.53
683.314	38295.43
683.661	38196.45
684.009	37986.97
684.357	37939.74
684.705	38051.82
685.053	37935.22
685.4	37832.17
685.748	37734.77
686.095	37696.35
686.443	37576.36
686.79	37552.18
687.138	37558.5
687.485	37561.44
687.832	37409.58
688.18	37370.26
688.527	37188.8
688.874	37200.77
689.221	37182.47
689.568	37083.04
689.915	36874.45
690.262	36951.97
690.609	36788.35
690.956	36672.88
691.303	36616.16
691.65	36571.86
691.997	36398.08
692.344	36313.56
692.69	36283.06
693.037	36315.37
693.383	36065.66
693.73	36123.06
694.077	35975.04
694.423	35991.77
694.769	35886.91
695.116	35685.78
695.462	35751.55
695.808	35583.41
696.155	35708.16
696.501	35370.76
696.847	35410.31
697.193	35094.16
697.539	35279.47
697.885	35080.15
698.231	34906.14
698.577	34924.22
698.923	34816.2
699.269	34691.01
699.614	34537.79
699.96	34418.25
700.306	34482.2
700.651	34459.15
700.997	34273.17
701.342	34270.23
701.688	34270.68
702.033	33998.37
702.379	33986.17
702.724	33879.73
703.069	33987.98
703.415	33607.42
703.76	33599.74
704.105	33638.61
704.45	33659.17
704.795	33386.41
705.14	33255.57
705.485	33200.65
705.83	33159.3
706.175	33213.08
706.52	33061.22
706.865	32928.34
707.209	32980.32
707.554	32909.13
707.899	32965.86
708.243	32612.87
708.588	32740.33
708.932	32616.49
709.277	32428.47
709.621	32337.17
709.966	32173.79
710.31	32333.1
710.654	32136.5
710.998	32156.84
711.342	32220.79
711.687	31941.7
712.031	31926.56
712.375	31724.76
712.719	31926.11
713.063	31755.27
713.407	31769.73
713.75	31661.03
714.094	31548.72
714.438	31506.01
714.782	31576.51
715.125	31212
715.469	31447.25
715.812	31146.24
716.156	31042.52
716.499	31129.07
716.843	31115.96
717.186	30863.31
717.53	30850.88
717.873	31009.75
718.216	30839.81
718.559	30741.06
718.902	30618.57
719.246	30579.03
719.589	30546.71
719.932	30478.01
720.275	30538.58
720.617	30372.93
720.96	30284.12
721.303	30332.93
721.646	30434.4
721.989	30164.8
722.331	30220.62
722.674	30158.7
723.016	30120.28
723.359	29993.28
723.701	30195.31
724.044	29859.95
724.386	29693.17
724.729	29989.44
725.071	29785.15
725.413	29921.87
725.755	29808.88
726.097	29572.05
726.439	29433.97
726.782	29614.08
727.124	29635.77
727.465	29444.14
727.807	29439.85
728.149	29211.15
728.491	29254.32
728.833	29330.25
729.175	29160.76
729.516	29243.02
729.858	29125.28
730.199	29186.97
730.541	29025.4
730.882	29003.47
731.224	29046.41
731.565	28907.21
731.906	28995.34
732.248	29013.19
732.589	28591.96
732.93	28641.9
733.271	28755.57
733.612	28793.99
733.953	28630.38
734.294	28531.17
734.635	28533.88
734.976	28574.33
735.317	28436.94
735.658	28459.08
735.999	28392.42
736.339	28307.67
736.68	28384.06
737.021	28329.14
737.361	28219.54
737.702	28341.35
738.042	28066.32
738.383	28116.49
738.723	28190.84
739.063	28006.21
739.404	28067.91
739.744	28042.37
740.084	27943.39
740.424	27976.61
740.764	27846.44
741.104	27900.68
741.444	27796.95
741.784	27716.95
742.124	27655.04
742.464	27671.53
742.804	27597.18
743.143	27476.51
743.483	27511.76
743.823	27459.11
744.162	27417.53
744.502	27449.17
744.841	27191.09
745.181	27456.62
745.52	27219.34
745.86	27323.52
746.199	27247.59
746.538	27079.46
746.877	27247.36
747.216	27152.9
747.556	27013.92
747.895	27081.72
748.234	26855.96
748.573	26885.34
748.911	26908.84
749.25	26890.31
749.589	26668.85
749.928	26740.71
750.267	26752.69
750.605	26602.18
750.944	26493.94
751.283	26493.03
751.621	26600.6
751.96	26353.37
752.298	26288.07
752.636	26353.37
752.975	26236.32
753.313	26066.6
753.651	26244
753.989	26168.52
754.327	26004.01
754.666	26011.69
755.004	25974.85
755.342	25951.13
755.679	25950.9
756.017	25674.52
756.355	25890.11
756.693	25719.49
757.031	25710.45
757.368	25508.43
757.706	25595.88
758.044	25449.9
758.381	25528.76
758.719	25340.07
759.056	25391.14
759.394	25285.15
759.731	25187.76
760.068	25253.06
760.405	25114.31
760.743	25022.11
761.08	24933.53
761.417	24870.25
761.754	24757.03
762.091	24719.75
762.428	24669.35
762.765	24496.93
763.102	24545.51
763.438	24311.85
763.775	24287.21
764.112	24289.47
764.449	24318.63
764.785	24161.34
765.122	24098.07
765.458	23982.82
765.795	23905.76
766.131	23906.21
766.467	23715.93
766.804	23650.4
767.14	23441.59
767.476	23528.14
767.812	23502.15
768.148	23543.51
768.485	23262.61
768.821	23250.41
769.157	23157.53
769.492	23102.61
769.828	23075.72
770.164	22738.55
770.5	22779.23
770.836	22805.22
771.171	22703.53
771.507	22623.3
771.842	22520.93
772.178	22398.22
772.513	22418.56
772.849	22299.92
773.184	22258.12
773.519	22164.56
773.855	22019.03
774.19	22070.32
774.525	22007.5
774.86	21874.85
775.195	21813.16
775.53	21747.85
775.865	21686.83
776.2	21513.95
776.535	21344.92
776.87	21466.05
777.205	21313.96
777.539	21236.9
777.874	21188.31
778.209	21116.45
778.543	21059.05
778.878	20851.37
779.212	20872.16
779.547	20760.3
779.881	20843.69
780.215	20663.35
780.55	20762.79
780.884	20421.1
781.218	20556.92
781.552	20449.35
781.886	20269.47
782.22	20281.9
782.554	20166.19
782.888	19938.18
783.222	19781.57
783.556	19855.69
783.889	19756.49
784.223	19676.49
784.557	19690.95
784.89	19641.01
785.224	19487.57
785.557	19469.71
785.891	19446.89
786.224	19353.78
786.558	19293.22
786.891	19129.84
787.224	19078.31
787.557	19106.79
787.891	19043.74
788.224	18933.68
788.557	18866.57
788.89	18957.41
789.223	18901.37
789.556	18640.58
789.888	18622.96
790.221	18519.68
790.554	18436.07
790.887	18427.93
791.219	18317.65
791.552	18322.4
791.884	18266.81
792.217	18255.06
792.549	18127.83
792.882	17951.34
793.214	17888.06
793.546	17911.34
793.879	17788.63
794.211	17672.02
794.543	17758.8
794.875	17717.67
795.207	17663.43
795.539	17621.18
795.871	17626.82
796.203	17363.55
796.535	17332.14
796.867	17366.27
797.198	17266.38
797.53	17295.53
797.862	17173.5
798.193	17243.11
798.525	17118.14
798.856	17100.74
799.188	16821.87
799.519	16872.95
799.85	16721.54
800.182	16736.23
800.513	16649
800.844	16605.16
801.175	16606.51
801.506	16517.93
801.837	16547.08
802.168	16391.83
802.499	16383.69
802.83	16286.29
803.161	16281.1
803.491	16217.6
803.822	16267.31
804.153	16119.07
804.483	16018.05
804.814	15990.94
805.145	15941.45
805.475	15892.63
805.805	15927.89
806.136	15953.87
806.466	15895.12
806.796	15884.5
807.126	15726.54
807.457	15647.67
807.787	15739.42
808.117	15603.38
808.447	15516.82
808.777	15566.09
809.107	15410.84
809.436	15485.19
809.766	15455.36
810.096	15425.53
810.426	15449.03
810.755	15354.34
811.085	15308.92
811.414	15339.43
811.744	15096.72
812.073	15098.08
812.403	15075.25
812.732	14953.9
813.061	14997.29
813.39	14904.64
813.719	14942.6
814.049	14900.79
814.378	14852.89
814.707	14786.22
815.036	14774.7
815.365	14650.63
815.693	14540.35
816.022	14589.62
816.351	14527.92
816.68	14418.1
817.008	14503.97
817.337	14396.63
817.665	14395.5
817.994	14411.99
818.322	14423.97
818.651	14295.39
818.979	14285.67
819.307	14251.09
819.636	14235.73
819.964	14108.5
820.292	14124.77
820.62	14134.04
820.948	14135.17
821.276	14211.77
821.604	14112.34
821.932	14119.8
822.259	14126.58
822.587	14172.9
822.915	14044.32
823.243	14086.13
823.57	14054.49
823.898	14026.02
824.225	14070.76
824.553	13997.99
824.88	13979.24
825.207	14063.08
825.535	14021.5
825.862	14076.64
826.189	14002.51
826.516	14087.93
826.843	14092.23
827.17	14026.69
827.497	13979.01
827.824	14110.31
828.151	14018.56
828.478	14061.27
828.805	14104.88
829.131	14037.99
829.458	13995.73
829.785	13852.69
830.111	13988.28
830.438	14086.13
830.764	14060.14
831.09	14031.89
831.417	13958.9
831.743	13991.89
832.069	13981.72
832.395	13923.19
832.722	14000.48
833.048	13866.02
833.374	13973.81
833.7	13765.91
834.026	13856.08
834.351	13923.87
834.677	13908.73
835.003	13816.98
835.329	13905.57
835.654	13854.49
835.98	13738.79
836.306	13734.72
836.631	13718
836.956	13773.14
837.282	13714.84
837.607	13610.43
837.932	13607.27
838.258	13683.43
838.583	13621.96
838.908	13584.22
839.233	13529.53
839.558	13594.16
839.883	13454.05
840.208	13458.12
840.533	13459.02
840.858	13393.04
841.182	13434.62
841.507	13400.95
841.832	13384.9
842.156	13434.39
842.481	13325.92
842.805	13219.48
843.13	13256.54
843.454	13201.86
843.778	13160.28
844.103	13151.69
844.427	13082.09
844.751	13124.57
845.075	13104.68
845.399	13049.77
845.723	12972.48
846.047	13054.06
846.371	12882.09
846.695	12905.14
847.019	12732.72
847.343	12734.07
847.666	12673.06
847.99	12676.67
848.313	12667.18
848.637	12557.13
848.96	12491.37
849.284	12439.62
849.607	12364.36
849.931	12313.74
850.254	12349.22
850.577	12210.92
850.9	12080.98
851.223	12112.62
851.546	12019.51
851.869	11973.87
852.192	12056.12
852.515	11918.5
852.838	11872.4
853.161	11819.75
853.483	11719.41
853.806	11792.18
854.129	11676.02
854.451	11645.96
854.774	11670.37
855.096	11559.87
855.419	11520.54
855.741	11504.5
856.063	11416.14
856.385	11424.95
856.708	11426.31
857.03	11286.43
857.352	11413.43
857.674	11357.16
857.996	11272.87
858.318	11185.86
858.64	11198.52
858.961	11235.81
859.283	11150.84
859.605	10994.68
859.926	11121.23
860.248	11053.66
860.57	11037.62
860.891	10996.49
861.212	10969.15
861.534	10928.24
861.855	10877.62
862.176	10942.93
862.498	10928.24
862.819	10925.76
863.14	10845.31
863.461	10809.83
863.782	10790.62
864.103	10758.98
864.424	10760.56
864.745	10777.97
865.065	10645.09
865.386	10610.51
865.707	10639.66
866.027	10663.62
866.348	10643.96
866.668	10574.13
866.989	10538.65
867.309	10501.36
867.63	10563.73
867.95	10502.72
868.27	10451.19
868.59	10517.18
868.91	10513.11
869.23	10533.45
869.55	10367.58
869.87	10445.54
870.19	10474.7
870.51	10408.26
870.83	10427.24
871.15	10361.7
871.469	10336.85
871.789	10358.09
872.109	10348.15
872.428	10283.97
872.748	10358.09
873.067	10301.59
873.386	10277.19
873.706	10292.1
874.025	10252.1
874.344	10200.13
874.663	10209.39
874.982	10165.78
875.301	10163.74
875.62	10077.87
875.939	10124.42
876.258	10055.27
876.577	10067.48
876.896	10110.64
877.214	9956.29
877.533	10031.32
877.852	10010.3
878.17	9938.67
878.489	9942.73
878.807	9962.62
879.125	9952.22
879.444	9973.47
879.762	9898.44
880.08	9877.2
880.398	9833.81
880.716	9878.1
881.034	9800.14
881.352	9761.27
881.67	9740.7
881.988	9728.95
882.306	9789.74
882.624	9729.41
882.941	9679.01
883.259	9619.13
883.577	9565.34
883.894	9612.57
884.212	9629.97
884.529	9565.79
884.846	9533.7
885.164	9498.45
885.481	9479.47
885.798	9469.75
886.115	9447.83
886.432	9479.02
886.75	9506.13
887.067	9503.87
887.383	9397.21
887.7	9376.87
888.017	9315.18
888.334	9272.69
888.651	9246.25
888.967	9309.76
889.284	9199.25
889.6	9218.68
889.917	9117.22
890.233	9160.15
890.55	9119.25
890.866	9157.67
891.182	9013.94
891.498	9089.42
891.815	8982.98
892.131	8978.24
892.447	8933.49
892.763	8917
893.079	8929.43
893.395	8893.27
893.71	8899.82
894.026	8843.55
894.342	8798.81
894.657	8778.02
894.973	8772.37
895.289	8745.25
895.604	8779.83
895.92	8660.51
896.235	8631.81
896.55	8661.41
896.865	8603.56
897.181	8578.02
897.496	8586.84
897.811	8518.36
898.126	8413.51
898.441	8460.74
898.756	8458.25
899.071	8465.26
899.386	8394.75
899.7	8328.76
900.015	8346.84
900.33	8294.87
900.644	8269.1
900.959	8224.81
901.273	8145.27
901.588	8197.02
901.902	8109.79
902.216	8077.25
902.531	8024.14
902.845	8073.18
903.159	8006.51
903.473	8038.6
903.787	7937.81
904.101	7884.03
904.415	7928.77
904.729	7884.26
905.042	7863.69
905.356	7832.05
905.67	7776.91
905.984	7741.43
906.297	7735.79
906.611	7675.45
906.924	7687.88
907.237	7664.83
907.551	7613.75
907.864	7558.61
908.177	7568.56
908.491	7519.07
908.804	7469.8
909.117	7379.86
909.43	7372.63
909.743	7428
910.056	7385.74
910.368	7322.69
910.681	7319.3
910.994	7283.82
911.307	7253.09
911.619	7192.75
911.932	7185.74
912.244	7119.3
912.557	7099.19
912.869	7084.28
913.181	7058.74
913.494	7006.54
913.806	6999.76
914.118	6965.64
914.43	6906.2
914.742	6953.43
915.054	6880.67
915.366	6884.51
915.678	6848.35
915.99	6859.65
916.302	6733.78
916.613	6769.26
916.925	6736.94
917.236	6684.29
917.548	6702.82
917.859	6692.42
918.171	6634.8
918.482	6565.65
918.794	6593.22
919.105	6507.34
919.416	6510.51
919.727	6471.41
920.038	6395.26
920.349	6385.31
920.66	6414.24
920.971	6394.35
921.282	6369.95
921.593	6351.64
921.903	6312.09
922.214	6238.42
922.525	6269.84
922.835	6231.87
923.146	6162.27
923.456	6183.74
923.767	6139.67
924.077	6123.85
924.387	6084.76
924.697	6025.77
925.008	6050.63
925.318	6015.83
925.628	5990.07
925.938	5965.89
926.248	5923.4
926.558	5868.49
926.867	5889.96
927.177	5889.96
927.487	5837.3
927.796	5771.09
928.106	5770.19
928.416	5779
928.725	5731.77
929.034	5715.95
929.344	5723.63
929.653	5691.77
929.962	5633.92
930.271	5639.34
930.581	5606.58
930.89	5524.77
931.199	5553.7
931.508	5550.08
931.817	5504.88
932.125	5453.13
932.434	5410.42
932.743	5416.07
933.051	5399.8
933.36	5331.33
933.669	5367.49
933.977	5323.19
934.286	5331.33
934.594	5326.36
934.902	5229.64
935.21	5254.95
935.519	5230.54
935.827	5217.89
936.135	5185.57
936.443	5153.03
936.751	5102.86
937.059	5099.7
937.367	5078
937.674	5098.34
937.982	5046.82
938.29	5033.94
938.597	5038.46
938.905	4947.38
939.213	4979.25
939.52	4953.26
939.827	4934.05
940.135	4915.52
940.442	4880.95
940.749	4845.69
941.056	4839.14
941.363	4812.47
941.67	4829.65
941.977	4741.06
942.284	4723.44
942.591	4743.77
942.898	4665.36
943.205	4688.86
943.511	4677.56
943.818	4669.65
944.125	4611.8
944.431	4552.59
944.738	4610.9
945.044	4622.87
945.35	4532.03
945.657	4526.83
945.963	4513.27
946.269	4490.45
946.575	4524.8
946.881	4484.35
947.187	4444.57
947.493	4447.06
947.799	4411.58
948.105	4362.99
948.41	4331.81
948.716	4413.84
949.022	4349.66
949.327	4345.59
949.633	4300.62
949.938	4270.79
950.244	4258.59
950.549	4230.11
950.854	4200.74
951.16	4210.23
951.465	4192.38
951.77	4160.51
952.075	4168.2
952.38	4129.1
952.685	4106.73
952.99	4094.75
953.294	4085.94
953.599	4100.63
953.904	3995.09
954.209	4021.08
954.513	4011.59
954.818	3995.54
955.122	3952.83
955.426	3949.67
955.731	3925.04
956.035	3910.58
956.339	3876.23
956.643	3845.94
956.948	3842.33
957.252	3856.57
957.556	3840.75
957.86	3833.97
958.163	3828.32
958.467	3770.69
958.771	3770.24
959.075	3734.99
959.378	3710.13
959.682	3696.34
959.985	3710.35
960.289	3702.22
960.592	3660.19
960.896	3639.4
961.199	3615.67
961.502	3626.51
961.805	3609.34
962.108	3607.98
962.411	3519.85
962.714	3541.77
963.017	3535.44
963.32	3549.68
963.623	3529.34
963.926	3523.24
964.228	3487.99
964.531	3463.58
964.833	3447.76
965.136	3413.19
965.438	3393.75
965.741	3364.6
966.043	3393.75
966.345	3392.62
966.648	3343.36
966.95	3353.75
967.252	3317.82
967.554	3312.85
967.856	3317.6
968.158	3252.97
968.46	3282.8
968.761	3276.24
969.063	3297.94
969.365	3201.89
969.666	3228.11
969.968	3169.58
970.269	3214.55
970.571	3184.94
970.872	3182.46
971.174	3151.27
971.475	3113.08
971.776	3110.6
972.077	3121.44
972.378	3122.57
972.679	3077.38
972.98	3093.42
973.281	3093.2
973.582	3040.09
973.883	3048.22
974.183	3013.88
974.484	3013.2
974.785	3009.36
975.085	3007.1
975.386	2981.33
975.686	2957.83
975.986	2939.98
976.287	2951.05
976.587	2900.21
976.887	2920.54
977.187	2885.97
977.487	2863.37
977.787	2855.91
978.087	2866.31
978.387	2851.39
978.687	2837.38
978.987	2861.34
979.286	2806.88
979.586	2752.87
979.885	2793.09
980.185	2730.95
980.484	2770.94
980.784	2763.94
981.083	2755.8
981.382	2704.96
981.682	2716.26
981.981	2711.96
982.28	2696.82
982.579	2647.78
982.878	2694.56
983.177	2676.26
983.475	2666.54
983.774	2639.87
984.073	2600.33
984.372	2599.65
984.67	2629.25
984.969	2561.01
985.267	2554.45
985.566	2592.42
985.864	2575.47
986.162	2523.72
986.461	2507.9
986.759	2533.21
987.057	2486.66
987.355	2489.6
987.653	2499.31
987.951	2479.88
988.249	2476.94
988.547	2460.9
988.844	2406.66
989.142	2405.08
989.44	2425.87
989.737	2409.6
990.035	2404.17
990.332	2384.51
990.63	2329.37
990.927	2354.23
991.224	2319.66
991.521	2350.16
991.819	2335.7
992.116	2329.15
992.413	2317.62
992.71	2303.16
993.006	2302.26
993.303	2270.39
993.6	2244.86
993.897	2268.58
994.193	2229.04
994.49	2257.96
994.787	2193.78
995.083	2224.07
995.379	2187
995.676	2165.76
995.972	2167.8
996.268	2208.02
996.565	2148.59
996.861	2149.72
997.157	2125.76
997.453	2106.33
997.749	2102.71
998.044	2105.65
998.34	2080.79
998.636	2075.37
998.932	2069.95
999.227	2074.01
999.523	2046.67
999.818	2023.17
1000.114	2023.85
1000.409	2014.58
1000.704	2009.16
1001	1983.17
1001.295	1993.34
1001.59	1982.72
1001.885	1959.21
1002.18	1970.06
1002.475	1978.87
1002.77	1933.23
1003.065	1907.24
1003.359	1921.25
1003.654	1890.06
1003.949	1888.48
1004.243	1901.36
1004.538	1866.79
1004.832	1852.78
1005.127	1855.49
1005.421	1840.35
1005.715	1820.91
1006.009	1824.75
1006.304	1815.71
1006.598	1795.15
1006.892	1812.33
1007.186	1791.08
1007.48	1768.48
1007.773	1762.61
1008.067	1760.58
1008.361	1754.02
1008.655	1714.02
1008.948	1723.51
1009.242	1701.37
1009.535	1709.28
1009.829	1686.45
1010.122	1679.67
1010.415	1659.79
1010.708	1655.49
1011.001	1656.62
1011.295	1662.72
1011.588	1632.67
1011.881	1651.2
1012.173	1644.42
1012.466	1626.57
1012.759	1624.53
1013.052	1592.22
1013.344	1568.94
1013.637	1579.79
1013.93	1566
1014.222	1545.67
1014.514	1591.09
1014.807	1540.24
1015.099	1546.8
1015.391	1495.05
1015.683	1529.62
1015.976	1510.19
1016.268	1523.97
1016.56	1472.45
1016.851	1446.91
1017.143	1452.33
1017.435	1471.54
1017.727	1429.74
1018.018	1465.89
1018.31	1443.97
1018.602	1427.02
1018.893	1418.44
1019.185	1415.5
1019.476	1417.99
1019.767	1392.22
1020.058	1395.16
1020.35	1355.84
1020.641	1358.33
1020.932	1382.51
1021.223	1338.67
1021.514	1334.37
1021.804	1316.29
1022.095	1308.16
1022.386	1320.59
1022.677	1286.69
1022.967	1312.23
1023.258	1269.06
1023.548	1267.48
1023.839	1260.02
1024.129	1260.93
1024.419	1254.15
1024.709	1254.6
1025	1227.03
1025.29	1229.74
1025.58	1218.89
1025.87	1238.33
1026.16	1225.22
1026.449	1189.97
1026.739	1203.3
1027.029	1191.78
1027.319	1192.68
1027.608	1191.32
1027.898	1173.25
1028.187	1146.35
1028.477	1170.31
1028.766	1159.46
1029.055	1118.78
1029.344	1149.74
1029.634	1122.17
1029.923	1114.26
1030.212	1106.58
1030.501	1102.74
1030.79	1106.58
1031.078	1085.11
1031.367	1056.64
1031.656	1069.75
1031.945	1056.64
1032.233	1063.42
1032.522	1063.42
1032.81	1027.71
1033.099	1023.87
1033.387	1045.79
1033.675	1033.14
1033.963	1018.9
1034.251	1023.19
1034.54	980.93
1034.828	976.87
1035.116	984.55
1035.403	1015.96
1035.691	963.31
1035.979	980.93
1036.267	974.38
1036.554	924.89
1036.842	958.11
1037.129	953.59
1037.417	951.56
1037.704	945.91
1037.992	941.61
1038.279	945.46
1038.566	919.24
1038.853	919.24
1039.14	919.24
