Data from hue_340_FLMS001491_28.txt Node
Date: Mon Feb 06 15:42:42 GMT 2017
User: dcchb
Spectrometer: FLMS00149
Trigger mode: 0
Integration Time (sec): 2.000000E-2
Scans to average: 10
Electric dark correction enabled: true
Nonlinearity correction enabled: false
Boxcar width: 0
XAxis mode: Wavelengths
Number of Pixels in Spectrum: 2048
>>>>>Begin Spectral Data<<<<<
341.393	4.55
341.776	4.55
342.16	4.55
342.543	-66.41
342.927	-80.87
343.31	-77.48
343.693	-77.71
344.077	-55.11
344.46	-55.11
344.843	-65.05
345.226	-32.51
345.61	-27.54
345.993	-11.5
346.376	10.88
346.759	-7.43
347.142	18.78
347.525	54.26
347.908	64.21
348.291	70.31
348.674	85.9
349.057	105.11
349.44	141.49
349.823	134.04
350.206	162.96
350.588	202.73
350.971	210.19
351.354	208.84
351.737	219.68
352.119	233.24
352.502	267.14
352.884	282.73
353.267	292.45
353.65	289.29
354.032	309.17
354.414	299.91
354.797	310.98
355.179	322.51
355.562	312.79
355.944	319.57
356.326	332.9
356.709	345.33
357.091	341.71
357.473	339.68
357.855	335.61
358.238	370.41
358.62	323.18
359.002	333.8
359.384	343.3
359.766	335.16
360.148	363.18
360.53	339.91
360.912	333.58
361.294	340.13
361.676	320.92
362.057	342.62
362.439	326.57
362.821	341.49
363.203	329.06
363.584	317.99
363.966	337.87
364.348	323.64
364.729	305.56
365.111	312.34
365.493	301.49
365.874	334.03
366.256	312.11
366.637	312.11
367.019	305.78
367.4	296.52
367.781	337.19
368.163	316.18
368.544	313.24
368.925	310.75
369.306	326.57
369.688	303.75
370.069	318.66
370.45	289.74
370.831	326.35
371.212	309.85
371.593	310.98
371.974	310.53
372.355	307.36
372.736	305.56
373.117	299.91
373.498	309.4
373.879	313.69
374.26	325.44
374.641	300.81
375.021	301.26
375.402	323.86
375.783	319.79
376.163	317.99
376.544	330.42
376.925	306.46
377.305	322.51
377.686	331.32
378.066	317.76
378.447	332.45
378.827	322.51
379.208	323.64
379.588	324.77
379.968	325.44
380.349	308.27
380.729	329.74
381.109	341.71
381.489	318.89
381.87	337.42
382.25	337.65
382.63	337.42
383.01	339.45
383.39	352.34
383.77	346.46
384.15	334.48
384.53	365.22
384.91	341.94
385.29	342.39
385.67	331.32
386.049	349.4
386.429	349.4
386.809	351.21
387.189	351.88
387.568	344.88
387.948	367.02
388.328	361.37
388.707	346.69
389.087	370.64
389.466	352.56
389.846	344.2
390.225	373.8
390.605	373.8
390.984	353.47
391.363	388.04
391.743	353.69
392.122	362.96
392.501	371.54
392.881	351.88
393.26	375.16
393.639	383.97
394.018	371.09
394.397	362.28
394.776	372.22
395.155	379.23
395.534	376.74
395.913	366.12
396.292	378.32
396.671	381.49
397.05	374.71
397.429	362.5
397.808	368.61
398.186	380.36
398.565	390.07
398.944	400.47
399.323	370.41
399.701	373.13
400.08	364.54
400.458	396.85
400.837	390.75
401.215	392.79
401.594	388.27
401.972	421.49
402.351	397.98
402.729	408.38
403.107	393.24
403.486	416.29
403.864	406.8
404.242	417.42
404.62	418.1
404.999	403.86
405.377	419.45
405.755	409.06
406.133	417.87
406.511	418.32
406.889	439.34
407.267	426.91
407.645	433.46
408.023	444.54
408.401	428.27
408.779	451.77
409.156	433.92
409.534	445.44
409.912	445.67
410.29	465.1
410.667	467.13
411.045	457.19
411.422	456.29
411.8	469.39
412.178	468.04
412.555	484.76
412.933	475.95
413.31	467.59
413.687	491.09
414.065	504.42
414.442	492.22
414.819	485.67
415.197	488.15
415.574	499
415.951	511.43
416.328	537.19
416.705	512.11
417.082	536.29
417.46	534.03
417.837	513.01
418.214	539.45
418.591	545.1
418.967	539.22
419.344	557.98
419.721	572.44
420.098	546
420.475	568.6
420.852	548.26
421.228	556.62
421.605	573.57
421.982	551.88
422.358	563.63
422.735	581.48
423.111	582.16
423.488	604.76
423.864	619.67
424.241	606.11
424.617	596.85
424.994	593.01
425.37	611.54
425.746	609.28
426.123	587.58
426.499	635.04
426.875	606.79
427.251	630.97
427.627	648.6
428.003	634.36
428.379	647.69
428.756	640.24
429.132	674.13
429.507	641.14
429.883	670.29
430.259	694.25
430.635	690.86
431.011	679.11
431.387	676.62
431.763	686.56
432.138	703.06
432.514	707.81
432.89	715.72
433.265	729.5
433.641	743.06
434.016	722.5
434.392	735.83
434.767	769.27
435.143	774.47
435.518	780.12
435.894	767.92
436.269	764.75
436.644	800.91
437.02	770.86
437.395	799.56
437.77	795.71
438.145	795.26
438.52	801.14
438.895	819.89
439.271	822.83
439.646	823.06
440.021	830.97
440.395	832.55
440.77	821.7
441.145	842.72
441.52	825.54
441.895	865.09
442.27	880.46
442.645	870.97
443.019	877.29
443.394	876.39
443.769	885.43
444.143	885.88
444.518	903.28
444.892	890.4
445.267	891.53
445.641	890.85
446.016	898.76
446.39	919.78
446.764	905.99
447.139	932.66
447.513	913.45
447.887	923.62
448.262	928.59
448.636	927.24
449.01	948.25
449.384	956.84
449.758	945.77
450.132	945.99
450.506	937.63
450.88	972.88
451.254	959.55
451.628	965.88
452.002	976.27
452.376	989.83
452.75	983.28
453.123	991.64
453.497	1004.97
453.871	1018.98
454.244	1037.06
454.618	1002.71
454.992	1041.58
455.365	1048.14
455.739	1028.25
456.112	1066.21
456.486	1044.52
456.859	1042.49
457.232	1099.89
457.606	1111.19
457.979	1111.41
458.352	1127.68
458.725	1116.16
459.099	1141.69
459.472	1126.33
459.845	1123.84
460.218	1143.73
460.591	1167
460.964	1141.92
461.337	1167.46
461.71	1194.8
462.083	1214.91
462.456	1212.43
462.829	1218.08
463.201	1226.21
463.574	1218.75
463.947	1242.71
464.32	1296.04
464.692	1256.49
465.065	1279.32
465.438	1301.01
465.81	1273.44
466.183	1312.31
466.555	1338.98
466.928	1333.33
467.3	1366.32
467.672	1382.59
468.045	1378.98
468.417	1378.75
468.789	1411.97
469.161	1409.71
469.534	1431.63
469.906	1423.49
470.278	1446.09
470.65	1464.17
471.022	1474.11
471.394	1505.98
471.766	1528.12
472.138	1560.44
472.51	1566.31
472.882	1603.83
473.253	1625.3
473.625	1617.16
473.997	1635.01
474.369	1665.07
474.74	1673.66
475.112	1668.46
475.484	1721.79
475.855	1748.91
476.227	1769.93
476.598	1757.95
476.97	1830.49
477.341	1839.08
477.713	1890.15
478.084	1891.28
478.455	1936.02
478.827	1953.42
479.198	2013.08
479.569	1989.35
479.94	2070.71
480.311	2080.43
480.682	2104.61
481.053	2138.96
481.424	2154.77
481.795	2193.64
482.166	2222.79
482.537	2250.36
482.908	2259.4
483.279	2324.94
483.65	2319.74
484.021	2415.11
484.391	2396.12
484.762	2431.6
485.133	2435.9
485.503	2462.34
485.874	2508.66
486.244	2567.87
486.615	2535.33
486.985	2630.02
487.356	2651.48
487.726	2658.04
488.097	2706.62
488.467	2738.49
488.837	2746.17
489.207	2813.51
489.578	2865.26
489.948	2829.78
490.318	2889.67
490.688	2868.88
491.058	2926.28
491.428	2951.82
491.798	3018.93
492.168	3080.85
492.538	3059.16
492.908	3092.15
493.278	3140.28
493.648	3139.15
494.017	3180.74
494.387	3211.24
494.757	3234.97
495.126	3293.73
495.496	3290.79
495.866	3297.34
496.235	3319.49
496.605	3335.31
496.974	3354.97
497.344	3423.44
497.713	3423.44
498.082	3459.82
498.452	3450.11
498.821	3474.74
499.19	3484.91
499.559	3509.31
499.928	3547.96
500.298	3593.15
500.667	3572.14
501.036	3620.72
501.405	3615.07
501.774	3601.29
502.143	3685.81
502.512	3680.38
502.88	3750.89
503.249	3689.42
503.618	3719.7
503.987	3750.89
504.356	3718.8
504.724	3756.09
505.093	3741.62
505.462	3815.52
505.83	3846.71
506.199	3858.46
506.567	3876.99
506.936	3912.47
507.304	3879.02
507.672	3900.49
508.041	3934.39
508.409	3924.22
508.777	3966.03
509.145	3980.94
509.514	4029.07
509.882	4014.61
510.25	4072.24
510.618	4050.77
510.986	4042.86
511.354	4096.19
511.722	4124.67
512.09	4141.84
512.458	4107.94
512.826	4139.35
513.193	4128.06
513.561	4153.14
513.929	4204.89
514.297	4199.47
514.664	4241.72
515.032	4237.88
515.4	4265.9
515.767	4290.99
516.135	4311.55
516.502	4279.69
516.869	4322.63
517.237	4267.03
517.604	4302.29
517.972	4349.52
518.339	4370.53
518.706	4337.54
519.073	4387.03
519.44	4455.96
519.808	4392.46
520.175	4450.98
520.542	4500.7
520.909	4481.04
521.276	4511.77
521.643	4486.24
522.009	4566.69
522.376	4560.81
522.743	4612.79
523.11	4645.33
523.477	4626.8
523.843	4654.37
524.21	4709.06
524.577	4699.79
524.943	4730.75
525.31	4759
525.676	4734.82
526.043	4772.11
526.409	4772.78
526.776	4872.67
527.142	4846
527.508	4883.97
527.874	4935.72
528.241	4894.59
528.607	4963.51
528.973	4982.95
529.339	5003.06
529.705	5022.27
530.071	5055.04
530.437	5060.46
530.803	5115.37
531.169	5096.39
531.535	5128.03
531.901	5194.92
532.267	5189.5
532.632	5222.26
532.998	5225.2
533.364	5209.16
533.73	5289.15
534.095	5280.12
534.461	5328.02
534.826	5300.68
535.192	5338.42
535.557	5427.23
535.923	5414.8
536.288	5446.89
536.653	5481.47
537.019	5445.53
537.384	5448.92
537.749	5500.45
538.114	5506.55
538.479	5580.45
538.845	5566.89
539.21	5534.57
539.575	5569.83
539.94	5641.46
540.305	5665.42
540.67	5591.97
541.034	5633.78
541.399	5698.64
541.764	5687.56
542.129	5780.44
542.494	5763.04
542.858	5808.01
543.223	5810.5
543.587	5883.94
543.952	5819.76
544.316	5896.37
544.681	5889.14
545.045	5950.61
545.41	5969.81
545.774	5988.12
546.138	5932.08
546.503	6004.39
546.867	6002.13
547.231	6089.36
547.595	6095.91
547.959	6133.2
548.324	6113.09
548.688	6140.88
549.052	6176.59
549.416	6189.47
549.779	6201.22
550.143	6188.57
550.507	6236.93
550.871	6291.61
551.235	6257.72
551.599	6343.14
551.962	6331.16
552.326	6324.38
552.689	6401.89
553.053	6373.87
553.417	6382.01
553.78	6461.33
554.143	6410.71
554.507	6443.93
554.87	6510.14
555.234	6497.03
555.597	6539.29
555.96	6553.53
556.323	6532.96
556.686	6561.44
557.05	6599.63
557.413	6608.22
557.776	6657.71
558.139	6668.55
558.502	6699.06
558.865	6742.9
559.228	6753.75
559.59	6798.04
559.953	6775.67
560.316	6866.97
560.679	6850.02
561.041	6896.8
561.404	6831.26
561.767	6927.08
562.129	6923.91
562.492	6958.04
562.854	6986.06
563.217	6986.51
563.579	7036.68
563.941	7041.65
564.304	7092.95
564.666	7117.58
565.028	7117.58
565.39	7131.37
565.753	7115.77
566.115	7179.73
566.477	7208.43
566.839	7200.97
567.201	7268.31
567.563	7287.07
567.925	7356.44
568.287	7374.52
568.648	7377.01
569.01	7391.02
569.372	7461.98
569.734	7385.82
570.095	7552.82
570.457	7555.31
570.819	7513.28
571.18	7597.34
571.542	7564.12
571.903	7614.29
572.265	7720.73
572.626	7705.14
572.987	7792.82
573.349	7805.92
573.71	7806.83
574.071	7910.1
574.432	7923.21
574.794	7967.95
575.155	8080.72
575.516	8059.93
575.877	8146.71
576.238	8234.84
576.599	8291.79
576.96	8318.68
577.32	8382.86
577.681	8437.09
578.042	8529.52
578.403	8576.75
578.763	8704.88
579.124	8785.56
579.485	8814.03
579.845	8964.09
580.206	9004.09
580.566	9129.28
580.927	9250.86
581.287	9333.34
581.648	9448.37
582.008	9596.39
582.368	9659.66
582.728	9806.1
583.089	9899.2
583.449	10058.29
583.809	10141.46
584.169	10388.91
584.529	10421
584.889	10698.73
585.249	10762.91
585.609	10971.72
585.969	11199.96
586.329	11315.89
586.688	11592.72
587.048	11771.7
587.408	11892.6
587.768	12120.16
588.127	12265.24
588.487	12493.49
588.846	12904.32
589.206	13001.04
589.565	13187.48
589.925	13437.64
590.284	13611.42
590.643	13915.37
591.003	14165.08
591.362	14571.4
591.721	14672.18
592.08	14943.59
592.44	15243.7
592.799	15420.64
593.158	15760.74
593.517	15943.79
593.876	16211.58
594.235	16542.19
594.593	16785.58
594.952	17214.94
595.311	17247.48
595.67	17688.6
596.029	18021.25
596.387	18306.67
596.746	18534.23
597.104	18724.06
597.463	18992.75
597.822	19316.13
598.18	19501.66
598.538	19809
598.897	20190.01
599.255	20337.12
599.613	20833.15
599.972	20862.08
600.33	21211.45
600.688	21389.75
601.046	21822.73
601.404	22093.01
601.762	22378.65
602.12	22649.83
602.478	22933.89
602.836	23115.8
603.194	23286.42
603.552	23569.58
603.91	23720.53
604.268	24099.96
604.625	24332.04
604.983	24584.69
605.341	24666.95
605.698	25106.26
606.056	25334.28
606.413	25543.76
606.771	25736.07
607.128	25976.07
607.485	26163.41
607.843	26384.87
608.2	26767.91
608.557	27087.9
608.914	26966.32
609.272	27327.9
609.629	27587.1
609.986	28015.56
610.343	27888.33
610.7	28395.67
611.057	28501.2
611.414	28605.6
611.771	28868.42
612.127	29093.5
612.484	29291.01
612.841	29529.2
613.198	29510.44
613.554	29740.26
613.911	30011.67
614.267	30217.54
614.624	30139.12
614.98	30429.06
615.337	30606.23
615.693	30688.71
616.05	30942.04
616.406	31084.63
616.762	31198.98
617.118	31399.43
617.475	31388.81
617.831	31672.64
618.187	31706.77
618.543	32085.96
618.899	32255.23
619.255	32307.88
619.611	32349.46
619.967	32672.84
620.323	32739.28
620.678	32701.54
621.034	32798.49
621.39	32916.68
621.746	32977.01
622.101	33377.91
622.457	33230.11
622.812	33414.06
623.168	33550.78
623.523	33597.79
623.879	33638.01
624.234	33599.37
624.589	33829.65
624.945	33988.29
625.3	34003.2
625.655	34094.05
626.01	34180.82
626.365	34249.3
626.72	34165.91
627.075	34315.06
627.43	34405
627.785	34429.41
628.14	34529.97
628.495	34534.26
628.85	34541.94
629.205	34458.11
629.559	34734.26
629.914	34663.07
630.269	34743.75
630.623	34739
630.978	34731.09
631.332	34925.89
631.687	34967.47
632.041	34851.32
632.396	35068.94
632.75	34851.99
633.104	34975.15
633.459	34866.91
633.813	34981.26
634.167	34983.74
634.521	35013.8
634.875	35087.02
635.229	34945.78
635.583	34880.92
635.937	34983.29
636.291	35045.43
636.645	34982.61
636.999	34945.55
637.352	35159.1
637.706	34868.72
638.06	35073.46
638.413	34938.09
638.767	34863.07
639.121	35012.89
639.474	34835.04
639.828	34944.65
640.181	35023.97
640.534	35033.91
640.888	34844.31
641.241	34724.09
641.594	34861.03
641.947	35020.58
642.301	34789.62
642.654	34963.63
643.007	34804.54
643.36	34791.43
643.713	34764.99
644.066	34945.32
644.419	34824.42
644.771	34475.28
645.124	34097.44
645.477	34249.98
645.83	34036.2
646.182	33911
646.535	33748.97
646.888	33982.41
647.24	33687.73
647.593	33767.05
647.945	33783.77
648.298	33695.41
648.65	33722.08
649.002	33666.71
649.355	33754.85
649.707	33788.07
650.059	33722.98
650.411	34175.85
650.763	34162.29
651.115	34569.97
651.467	34487.48
651.819	34496.52
652.171	34427.15
652.523	34483.64
652.875	34438.44
653.227	34279.8
653.578	34496.97
653.93	34452.23
654.282	34216.3
654.633	34190.32
654.985	34314.15
655.337	34329.07
655.688	34402.97
656.039	34430.76
656.391	34230.77
656.742	34251.78
657.094	34284.1
657.445	34362.06
657.796	34160.71
658.147	34130.88
658.498	34177.66
658.849	34316.41
659.2	34310.31
659.551	34044.1
659.902	34235.96
660.253	34187.38
660.604	34295.4
660.955	34053.82
661.306	34184.21
661.656	34058.57
662.007	34123.2
662.358	34068.96
662.708	34195.06
663.059	34161.62
663.409	33979.47
663.76	34171.79
664.11	34131.33
664.461	34230.77
664.811	34182.41
665.161	34146.7
665.511	34019.25
665.862	34136.08
666.212	34192.12
666.562	34135.85
666.912	34004.56
667.262	34148.51
667.612	34146.93
667.962	34148.73
668.312	34065.12
668.662	34214.72
669.011	34184.89
669.361	34118
669.711	34014.73
670.06	34044.33
670.41	34006.82
670.76	33888.85
671.109	34092.69
671.459	33932.47
671.808	33842.75
672.157	33941.73
672.507	33685.7
672.856	33685.47
673.205	33813.38
673.554	33865.13
673.904	33724.11
674.253	33865.8
674.602	33687.28
674.951	33350.34
675.3	33320.06
675.649	33773.6
675.998	33634.17
676.346	33770.89
676.695	33790.33
677.044	33563.44
677.393	33686.15
677.741	33750.1
678.09	33640.73
678.438	33570.9
678.787	33564.8
679.135	33612.93
679.484	33417
679.832	33548.52
680.181	33444.57
680.529	33350.11
680.877	33417.91
681.225	33431.92
681.573	33559.6
681.922	33336.1
682.27	33235.54
682.618	33208.19
682.966	33112.15
683.314	33254.3
683.661	33050.91
684.009	33036.22
684.357	32895.43
684.705	32816.11
685.053	32997.8
685.4	32775.21
685.748	32711.03
686.095	32639.17
686.443	32457.03
686.79	32555.33
687.138	32614.99
687.485	32583.58
687.832	32446.41
688.18	32415
688.527	32203.48
688.874	32203.93
689.221	32151.73
689.568	32168.67
689.915	32059.98
690.262	32109.69
690.609	32051.84
690.956	31867.44
691.303	31889.81
691.65	31690.95
691.997	31689.59
692.344	31501.35
692.69	31484.85
693.037	31590.61
693.383	31229.26
693.73	31367.11
694.077	31203.73
694.423	31247.34
694.769	31173.22
695.116	31069.04
695.462	30984.52
695.808	30927.8
696.155	30998.08
696.501	30608.26
696.847	30780.91
697.193	30462.05
697.539	30548.6
697.885	30321.04
698.231	30317.65
698.577	30274.03
698.923	30243.07
699.269	30123.3
699.614	29885.12
699.96	29925.34
700.306	29926.47
700.651	29747.04
700.997	29743.88
701.342	29729.19
701.688	29686.93
702.033	29559.93
702.379	29455.98
702.724	29421.18
703.069	29459.37
703.415	29156.32
703.76	29229.54
704.105	29175.98
704.45	29096.66
704.795	28927.18
705.14	28838.14
705.485	28874.98
705.83	28679.27
706.175	28853.73
706.52	28697.8
706.865	28603.57
707.209	28511.14
707.554	28362.22
707.899	28489
708.243	28451.94
708.588	28272.96
708.932	28065.96
709.277	28140.31
709.621	28050.82
709.966	28002.68
710.31	28021.44
710.654	27783.48
710.998	27709.13
711.342	27761.11
711.687	27690.6
712.031	27635.01
712.375	27536.03
712.719	27445.41
713.063	27437.72
713.407	27626.19
713.75	27429.59
714.094	27324.51
714.438	27297.62
714.782	27257.62
715.125	27144.4
715.469	27204.51
715.812	27094.46
716.156	26928.81
716.499	26917.74
716.843	26895.37
717.186	26912.99
717.53	26964.29
717.873	26956.16
718.216	26974.91
718.559	26747.12
718.902	26613.57
719.246	26547.35
719.589	26538.54
719.932	26476.62
720.275	26381.48
720.617	26384.65
720.96	26296.51
721.303	26361.37
721.646	26318.66
721.989	26197.76
722.331	26221.94
722.674	26108.04
723.016	26106.91
723.359	26169.74
723.701	25983.98
724.044	25933.13
724.386	25830.54
724.729	25840.25
725.071	25700.6
725.413	25709.41
725.755	25743.08
726.097	25725.23
726.439	25532.01
726.782	25605.68
727.124	25708.05
727.465	25548.74
727.807	25539.24
728.149	25402.98
728.491	25358.23
728.833	25457.66
729.175	25298.8
729.516	25254.28
729.858	25331.11
730.199	25246.82
730.541	25213.38
730.882	25243.43
731.224	25219.03
731.565	25077.11
731.906	25087.5
732.248	25163.66
732.589	24898.13
732.93	24901.52
733.271	24896.1
733.612	25003.44
733.953	24991.69
734.294	24832.82
734.635	24704.01
734.976	24682.77
735.317	24624.92
735.658	24561.19
735.999	24659.94
736.339	24519.38
736.68	24612.94
737.021	24575.2
737.361	24427.86
737.702	24633.5
738.042	24512.15
738.383	24416.11
738.723	24453.85
739.063	24380.63
739.404	24399.39
739.744	24282.1
740.084	24146.29
740.424	24289.33
740.764	24140.86
741.104	24251.14
741.444	24096.34
741.784	23976.35
742.124	23955.33
742.464	24052.05
742.804	24092.5
743.143	24034.65
743.483	23994.2
743.823	23886.63
744.162	23762.34
744.502	23857.25
744.841	23848.67
745.181	23847.31
745.52	23742.91
745.86	23767.54
746.199	23751.04
746.538	23702.46
746.877	23636.92
747.216	23693.42
747.556	23533.65
747.895	23533.65
748.234	23610.03
748.573	23482.35
748.911	23449.36
749.25	23439.41
749.589	23361.9
749.928	23232.41
750.267	23325.97
750.605	23311.73
750.944	23226.99
751.283	23198.29
751.621	23185.18
751.96	23025.86
752.298	23085.52
752.636	22949.93
752.975	22922.82
753.313	22848.02
753.651	22887.11
753.989	22822.7
754.327	22838.3
754.666	22760.33
755.004	22761.24
755.342	22702.48
755.679	22670.84
756.017	22442.6
756.355	22588.13
756.693	22500.45
757.031	22561.02
757.368	22393.11
757.706	22309.05
758.044	22304.98
758.381	22198.31
758.719	22163.74
759.056	22204.64
759.394	22110.18
759.731	21993.35
760.068	21919.23
760.405	21852.56
760.743	21737.54
761.08	21822.28
761.417	21659.35
761.754	21675.16
762.091	21597.88
762.428	21565.11
762.765	21441.05
763.102	21462.97
763.438	21308.39
763.775	21301.16
764.112	21298
764.449	21227.04
764.785	21161.28
765.122	21107.95
765.458	20963.32
765.795	20998.35
766.131	20852.14
766.467	20851.91
766.804	20650.78
767.14	20630.45
767.476	20651.91
767.812	20424.35
768.148	20557.68
768.485	20412.37
768.821	20345.03
769.157	20215.99
769.492	20260.96
769.828	20120.4
770.164	19994.53
770.5	19984.81
770.836	19959.28
771.171	19823.01
771.507	19887.41
771.842	19664.14
772.178	19690.13
772.513	19517.03
772.849	19521.55
773.184	19465.96
773.519	19561.1
773.855	19406.75
774.19	19364.04
774.525	19207.88
774.86	19187.09
775.195	19280.88
775.53	19055.35
775.865	18966.31
776.2	18777.16
776.535	18731.74
776.87	18750.72
777.205	18729.93
777.539	18504.4
777.874	18547.79
778.209	18355.93
778.543	18457.17
778.878	18268.25
779.212	18320.9
779.547	18159.1
779.881	18181.02
780.215	18105.54
780.55	18150.51
780.884	18030.97
781.218	17854.02
781.552	17997.07
781.886	17870.97
782.22	17803.4
782.554	17708.04
782.888	17583.07
783.222	17403.19
783.556	17412.23
783.889	17308.5
784.223	17250.2
784.557	17272.12
784.89	17176.98
785.224	17092.91
785.557	16988.28
785.891	16970.2
786.224	16949.87
786.558	16970.2
786.891	16704
787.224	16668.52
787.557	16742.86
787.891	16586.26
788.224	16711
788.557	16615.41
788.89	16583.77
789.223	16504.91
789.556	16348.07
789.888	16268.75
790.221	16329.99
790.554	16192.37
790.887	16147.17
791.219	16017.46
791.552	16021.08
791.884	15998.25
792.217	15970.68
792.549	15903.79
792.882	15731.14
793.214	15725.04
793.546	15701.99
793.879	15609.11
794.211	15526.4
794.543	15670.8
794.875	15488.89
795.207	15538.83
795.539	15426.97
795.871	15469.9
796.203	15330.47
796.535	15156.69
796.867	15223.36
797.198	15096.58
797.53	15128.67
797.862	14977.49
798.193	15013.87
798.525	14870.82
798.856	14958.28
799.188	14755.57
799.519	14746.08
799.85	14685.07
800.182	14612.98
800.513	14676.48
800.844	14585.18
801.175	14550.61
801.506	14572.98
801.837	14523.94
802.168	14449.82
802.499	14340.67
802.83	14279.2
803.161	14289.82
803.491	14208.47
803.822	14283.95
804.153	14177.06
804.483	14149.94
804.814	14037.17
805.145	14043.95
805.475	13998.76
805.805	13945.65
806.136	13928.02
806.466	13923.05
806.796	13880.79
807.126	13767.12
807.457	13825.43
807.787	13749.72
808.117	13656.62
808.447	13598.77
808.777	13674.7
809.107	13570.52
809.436	13577.98
809.766	13561.25
810.096	13420.47
810.426	13454.59
810.755	13453.01
811.085	13423.18
811.414	13470.63
811.744	13221.15
812.073	13214.14
812.403	13184.09
812.732	13200.81
813.061	13171.43
813.39	13100.93
813.719	13100.93
814.049	13126.24
814.378	13003.53
814.707	12976.86
815.036	12963.76
815.365	12894.83
815.693	12770.54
816.022	12853.93
816.351	12796.3
816.68	12698
817.008	12749.98
817.337	12594.95
817.665	12626.59
817.994	12617.32
818.322	12638.79
818.651	12591.11
818.979	12533.03
819.307	12578.91
819.636	12465.69
819.964	12444.45
820.292	12468.63
820.62	12410.1
820.948	12425.92
821.276	12424.11
821.604	12403.54
821.932	12421.17
822.259	12416.65
822.587	12416.65
822.915	12396.31
823.243	12393.37
823.57	12308.41
823.898	12352.92
824.225	12332.36
824.553	12270.21
824.88	12342.3
825.207	12350.66
825.535	12281.74
825.862	12339.82
826.189	12295.07
826.516	12417.55
826.843	12383.66
827.17	12387.95
827.497	12345.47
827.824	12320.61
828.151	12316.54
828.478	12319.93
828.805	12343.43
829.131	12258.91
829.458	12234.96
829.785	12198.58
830.111	12261.4
830.438	12280.16
830.764	12310.89
831.09	12257.33
831.417	12217.11
831.743	12240.84
832.069	12216.88
832.395	12146.38
832.722	12172.59
833.048	12192.48
833.374	12223.44
833.7	12173.49
834.026	12091.01
834.351	12205.58
834.677	12151.8
835.003	12088.98
835.329	12144.79
835.654	12122.87
835.98	12046.49
836.306	12074.51
836.631	12099.6
836.956	12060.95
837.282	12072.71
837.607	11993.84
837.932	12038.81
838.258	11948.19
838.583	11957
838.908	11886.72
839.233	11900.51
839.558	11884.69
839.883	11811.24
840.208	11833.84
840.533	11848.08
840.858	11876.33
841.182	11812.82
841.507	11734.18
841.832	11697.35
842.156	11717.01
842.481	11726.95
842.805	11557.24
843.13	11592.49
843.454	11641.98
843.778	11576
844.103	11553.17
844.427	11490.8
844.751	11522.44
845.075	11498.48
845.399	11443.57
845.723	11337.36
846.047	11430.01
846.371	11248.77
846.695	11230.92
847.019	11216.46
847.343	11135.33
847.666	11081.77
847.99	11019.85
848.313	11063.01
848.637	10970.59
848.96	10937.14
849.284	10879.29
849.607	10864.83
849.931	10884.71
850.254	10770.14
850.577	10761.78
850.9	10636.36
851.223	10604.95
851.546	10539.64
851.869	10570.82
852.192	10504.16
852.515	10495.8
852.838	10407.66
853.161	10386.87
853.483	10388
853.806	10275.69
854.129	10321.79
854.451	10191.4
854.774	10197.73
855.096	10153.89
855.419	10147.56
855.741	10093.32
856.063	10042.25
856.385	10043.83
856.708	10026.88
857.03	9993.44
857.352	10036.15
857.674	9876.38
857.996	9817.85
858.318	9822.37
858.64	9818.3
858.961	9852.88
859.283	9807.23
859.605	9734.01
859.926	9766.1
860.248	9734.69
860.57	9662.37
860.891	9720.45
861.212	9656.72
861.534	9564.52
861.855	9603.17
862.176	9663.28
862.498	9597.06
862.819	9602.49
863.14	9488.59
863.461	9510.06
863.782	9403.62
864.103	9466.45
864.424	9458.31
864.745	9445.66
865.065	9411.98
865.386	9388.26
865.707	9383.06
866.027	9383.06
866.348	9311.2
866.668	9370.4
866.989	9371.53
867.309	9263.29
867.63	9276.39
867.95	9279.33
868.27	9228.49
868.59	9209.96
868.91	9207.24
869.23	9222.16
869.55	9203.4
869.87	9216.28
870.19	9157.08
870.51	9112.78
870.83	9175.83
871.15	9080.02
871.469	9106.91
871.789	9115.27
872.109	9111.88
872.428	9101.71
872.748	9101.03
873.067	9035.72
873.386	9001.6
873.706	9020.81
874.025	8898.1
874.344	8976.06
874.663	9020.81
874.982	8994.14
875.301	8939.45
875.62	8903.75
875.939	8838.44
876.258	8893.35
876.577	8845.67
876.896	8818.33
877.214	8776.29
877.533	8868.27
877.852	8842.96
878.17	8798.67
878.489	8772.23
878.807	8809.29
879.125	8791.44
879.444	8754.83
879.762	8762.96
880.08	8754.37
880.398	8681.61
880.716	8649.97
881.034	8657.2
881.352	8669.86
881.67	8608.62
881.988	8652.23
882.306	8625.34
882.624	8618.56
882.941	8606.13
883.259	8540.82
883.577	8452.46
883.894	8473.25
884.212	8468.51
884.529	8468.96
884.846	8417.21
885.164	8409.52
885.481	8371.56
885.798	8401.84
886.115	8300.83
886.432	8322.3
886.75	8309.19
887.067	8241.62
887.383	8238
887.7	8281.39
888.017	8287.72
888.334	8200.94
888.651	8196.2
888.967	8232.13
889.284	8112.13
889.6	8107.84
889.917	8024.22
890.233	8014.28
890.55	8115.75
890.866	8011.12
891.182	8024.22
891.498	7953.94
891.815	7965.92
892.131	8010.89
892.447	7961.17
892.763	7906.71
893.079	7835.53
893.395	7829.88
893.71	7755.76
894.026	7811.8
894.342	7788.98
894.657	7746.49
894.973	7773.84
895.289	7701.97
895.604	7730.22
895.92	7581.75
896.235	7630.79
896.55	7672.37
896.865	7612.03
897.181	7545.82
897.496	7502.43
897.811	7459.72
898.126	7417.23
898.441	7482.32
898.756	7441.64
899.071	7400.29
899.386	7386.05
899.7	7314.64
900.015	7283.45
900.33	7242.55
900.644	7245.49
900.959	7262.44
901.273	7216.34
901.588	7242.1
901.902	7166.39
902.216	7119.16
902.531	7051.59
902.845	7077.81
903.159	7098.37
903.473	7066.96
903.787	7020.41
904.101	7014.99
904.415	6934.54
904.729	6927.76
905.042	6887.3
905.356	6839.85
905.67	6823.35
905.984	6876.91
906.297	6859.96
906.611	6784.48
906.924	6733.18
907.237	6739.96
907.551	6746.97
907.864	6663.58
908.177	6656.58
908.491	6679.85
908.804	6619.29
909.117	6586.97
909.43	6580.87
909.743	6565.28
910.056	6516.02
910.368	6492.51
910.681	6406.64
910.994	6413.19
911.307	6404.38
911.619	6319.41
911.932	6412.74
912.244	6317.83
912.557	6307.66
912.869	6235.8
913.181	6263.14
913.494	6243.03
913.806	6189.24
914.118	6133.43
914.43	6136.36
914.742	6107.89
915.054	6072.86
915.366	6129.81
915.678	6017.05
915.99	6044.62
916.302	6001.68
916.613	5876.71
916.925	5968.68
917.236	5965.3
917.548	5921.23
917.859	5894.79
918.171	5808.69
918.482	5829.03
918.794	5782.93
919.105	5800.33
919.416	5734.11
919.727	5759.2
920.038	5767.11
920.349	5728.69
920.66	5636.94
920.971	5645.98
921.282	5624.74
921.593	5538.87
921.903	5549.26
922.214	5541.35
922.525	5511.3
922.835	5473.56
923.146	5450.05
923.456	5455.93
923.767	5491.86
924.077	5401.69
924.387	5433.33
924.697	5397.63
925.008	5363.73
925.318	5322.37
925.628	5274.69
925.938	5277.86
926.248	5254.58
926.558	5257.52
926.867	5230.4
927.177	5199.44
927.487	5139.55
927.796	5133
928.106	5123.06
928.416	5162.83
928.725	5091.42
929.034	5088.03
929.344	5086
929.653	5050.97
929.962	4965.32
930.271	5009.84
930.581	4980.46
930.89	4945.89
931.199	4912.44
931.508	4876.06
931.817	4926
932.125	4851.2
932.434	4803.52
932.743	4741.15
933.051	4768.72
933.36	4742.95
933.669	4730.3
933.977	4711.77
934.286	4692.33
934.594	4710.19
934.902	4672
935.21	4655.05
935.519	4675.16
935.827	4597.2
936.135	4599.68
936.443	4586.35
936.751	4559.68
937.059	4539.34
937.367	4499.34
937.674	4514.71
937.982	4495.96
938.29	4443.3
938.597	4459.12
938.905	4414.15
939.213	4382.51
939.52	4376.86
939.827	4400.59
940.135	4352.91
940.442	4330.31
940.749	4295.06
941.056	4365.11
941.363	4244.66
941.67	4265.23
941.977	4265.9
942.284	4204.89
942.591	4219.8
942.898	4164.66
943.205	4211.67
943.511	4157.66
943.818	4134.83
944.125	4105.91
944.431	4059.81
944.738	4081.73
945.044	4013.93
945.35	4000.38
945.657	4027.04
945.963	4025.91
946.269	3985.91
946.575	4008.96
946.881	3947.27
947.187	3959.7
947.493	3885.8
947.799	3913.15
948.105	3886.25
948.41	3884.67
948.716	3866.82
949.022	3887.38
949.327	3811.23
949.633	3796.99
949.938	3803.32
950.244	3769.19
950.549	3717.44
950.854	3734.62
951.16	3726.71
951.465	3710.89
951.77	3685.58
952.075	3672.93
952.38	3674.51
952.685	3634.06
952.99	3632.02
953.294	3627.05
953.599	3598.13
953.904	3599.48
954.209	3623.21
954.513	3577.11
954.818	3551.8
955.122	3517.45
955.426	3491.24
955.731	3487.17
956.035	3504.79
956.339	3467.28
956.643	3459.37
956.948	3436.32
957.252	3430.9
957.556	3368.98
957.86	3359.04
958.163	3393.61
958.467	3398.58
958.771	3380.73
959.075	3358.81
959.378	3305.7
959.682	3309.09
959.985	3299.38
960.289	3300.51
960.592	3264.58
960.896	3267.51
961.199	3278.81
961.502	3217.8
961.805	3211.7
962.108	3229.77
962.411	3204.01
962.714	3149.78
963.017	3166.05
963.32	3142.32
963.623	3130.12
963.926	3127.86
964.228	3101.87
964.531	3071.13
964.833	3064.13
965.136	3043.34
965.438	3070.68
965.741	3051.25
966.043	3041.98
966.345	3015.32
966.648	2973.28
966.95	2968.31
967.252	2972.38
967.554	2953.4
967.856	2980.74
968.158	2886.51
968.46	2915.43
968.761	2929.44
969.063	2887.86
969.365	2890.8
969.666	2849.22
969.968	2881.08
970.269	2852.16
970.571	2801.99
970.872	2824.59
971.174	2799.73
971.475	2761.99
971.776	2766.28
972.077	2776.45
972.378	2783.01
972.679	2752.5
972.98	2729.67
973.281	2732.84
973.582	2734.42
973.883	2690.58
974.183	2708.21
974.484	2688.55
974.785	2695.55
975.085	2670.69
975.386	2657.36
975.686	2602.9
975.986	2602.67
976.287	2580.98
976.587	2620.98
976.887	2584.59
977.187	2555.22
977.487	2597.93
977.787	2535.55
978.087	2538.49
978.387	2543.69
978.687	2539.4
978.987	2530.81
979.286	2506.4
979.586	2500.53
979.885	2498.04
980.185	2498.04
980.484	2474.77
980.784	2442.22
981.083	2463.47
981.382	2441.09
981.682	2437.48
981.981	2427.99
982.28	2419.4
982.579	2377.59
982.878	2370.14
983.177	2385.5
983.475	2362.45
983.774	2358.84
984.073	2323.58
984.372	2312.51
984.67	2317.71
984.969	2304.15
985.267	2293.53
985.566	2286.52
985.864	2289.46
986.162	2263.92
986.461	2243.36
986.759	2242
987.057	2219.18
987.355	2209.01
987.653	2245.62
987.951	2200.42
988.249	2171.95
988.547	2196.35
988.844	2156.81
989.142	2185.96
989.44	2159.97
989.737	2158.16
990.035	2162.46
990.332	2165.4
990.63	2127.43
990.927	2135.79
991.224	2122.01
991.521	2093.98
991.819	2053.76
992.116	2103.02
992.413	2082.46
992.71	2059.86
993.006	2051.73
993.303	2033.42
993.6	2052.86
993.897	2002.69
994.193	1998.62
994.49	2025.51
994.787	1997.72
995.083	1996.81
995.379	1988.45
995.676	1997.26
995.972	1939.64
996.268	1955.23
996.565	1962.01
996.861	1924.05
997.157	1884.72
997.453	1892.41
997.749	1910.49
998.044	1900.09
998.34	1882.69
998.636	1854.89
998.932	1872.3
999.227	1829.36
999.523	1817.16
999.818	1815.35
1000.114	1808.12
1000.409	1815.8
1000.704	1782.58
1001	1790.49
1001.295	1792.52
1001.59	1760.89
1001.885	1773.54
1002.18	1762.69
1002.475	1772.41
1002.77	1741.68
1003.065	1725.63
1003.359	1722.69
1003.654	1725.18
1003.949	1696.25
1004.243	1711.62
1004.538	1663.26
1004.832	1710.04
1005.127	1662.36
1005.421	1649.93
1005.715	1650.61
1006.009	1651.28
1006.304	1642.92
1006.598	1611.29
1006.892	1610.83
1007.186	1618.29
1007.48	1581.46
1007.773	1595.69
1008.067	1589.59
1008.361	1544.62
1008.655	1562.02
1008.948	1576.26
1009.242	1563.6
1009.535	1527.67
1009.829	1506.88
1010.122	1531.51
1010.415	1533.55
1010.708	1554.11
1011.001	1477.96
1011.295	1484.96
1011.588	1487.9
1011.881	1472.31
1012.173	1479.99
1012.466	1458.29
1012.759	1450.61
1013.052	1440.44
1013.344	1457.84
1013.637	1453.78
1013.93	1436.83
1014.222	1425.75
1014.514	1410.39
1014.807	1393.66
1015.099	1385.98
1015.391	1379.65
1015.683	1383.04
1015.976	1377.62
1016.268	1347.11
1016.56	1355.47
1016.851	1332.42
1017.143	1331.74
1017.435	1316.83
1017.727	1331.29
1018.018	1348.92
1018.31	1312.31
1018.602	1324.74
1018.893	1301.01
1019.185	1291.75
1019.476	1272.09
1019.767	1253.78
1020.058	1261.92
1020.35	1257.85
1020.641	1239.32
1020.932	1214.01
1021.223	1218.75
1021.514	1229.83
1021.804	1195.48
1022.095	1211.52
1022.386	1218.75
1022.677	1198.64
1022.967	1175.14
1023.258	1179.66
1023.548	1190.51
1023.839	1151.41
1024.129	1179.43
1024.419	1195.03
1024.709	1125.87
1025	1157.29
1025.29	1129.49
1025.58	1123.84
1025.87	1087.68
1026.16	1120.22
1026.449	1110.51
1026.739	1112.99
1027.029	1098.76
1027.319	1077.06
1027.608	1066.89
1027.898	1067.57
1028.187	1045.42
1028.477	1065.76
1028.766	1054.24
1029.055	1013.33
1029.344	1044.29
1029.634	1016.72
1029.923	1004.75
1030.212	1018.53
1030.501	1024.41
1030.79	997.06
1031.078	1006.78
1031.367	991.19
1031.656	969.49
1031.945	977.86
1032.233	953.68
1032.522	969.72
1032.81	952.55
1033.099	960
1033.387	967.46
1033.675	948.25
1033.963	928.82
1034.251	923.85
1034.54	927.46
1034.828	921.81
1035.116	935.82
1035.403	896.28
1035.691	896.95
1035.979	902.15
1036.267	891.76
1036.554	865.54
1036.842	900.34
1037.129	863.73
1037.417	869.61
1037.704	888.82
1037.992	890.4
1038.279	821.25
1038.566	839.78
1038.853	839.78
1039.14	839.78
