Data from hue_90_FLMS001491_89.txt Node
Date: Mon Feb 06 15:25:48 GMT 2017
User: dcchb
Spectrometer: FLMS00149
Trigger mode: 0
Integration Time (sec): 2.000000E-2
Scans to average: 10
Electric dark correction enabled: true
Nonlinearity correction enabled: false
Boxcar width: 0
XAxis mode: Wavelengths
Number of Pixels in Spectrum: 2048
>>>>>Begin Spectral Data<<<<<
341.393	-23.69
341.776	-23.69
342.16	-23.69
342.543	-53.52
342.927	-64.14
343.31	-52.84
343.693	-72.95
344.077	-74.98
344.46	-65.72
344.843	-52.84
345.226	-42.67
345.61	-39.5
345.993	-9.22
346.376	-0.64
346.759	6.37
347.142	33.71
347.525	45.69
347.908	50.89
348.291	71.9
348.674	83.66
349.057	119.14
349.44	137.21
349.823	135.63
350.206	155.52
350.588	179.25
350.971	210.88
351.354	208.17
351.737	228.51
352.119	256.98
352.502	256.53
352.884	252.69
353.267	285.68
353.65	285.23
354.032	288.62
354.414	302.41
354.797	322.52
355.179	308.73
355.562	324.78
355.944	318.23
356.326	328.17
356.709	337.66
357.091	348.28
357.473	336.08
357.855	324.55
358.238	341.5
358.62	344.44
359.002	344.21
359.384	334.04
359.766	351.22
360.148	324.78
360.53	335.63
360.912	319.81
361.294	334.95
361.676	324.1
362.057	332.69
362.439	326.36
362.821	326.14
363.203	327.27
363.584	315.51
363.966	326.81
364.348	338.11
364.729	323.88
365.111	332.24
365.493	322.75
365.874	317.77
366.256	302.63
366.637	313.48
367.019	321.84
367.4	302.41
367.781	308.28
368.163	286.36
368.544	324.33
368.925	310.54
369.306	339.47
369.688	321.84
370.069	295.63
370.45	311.45
370.831	325.68
371.212	320.94
371.593	315.74
371.974	304.89
372.355	317.32
372.736	320.26
373.117	328.17
373.498	325.23
373.879	330.66
374.26	316.42
374.641	332.69
375.021	324.1
375.402	323.88
375.783	346.25
376.163	321.84
376.544	320.49
376.925	327.72
377.305	334.72
377.686	326.81
378.066	329.07
378.447	310.77
378.827	342.86
379.208	342.18
379.588	319.36
379.968	353.03
380.349	344.21
380.729	359.58
381.109	343.76
381.489	352.12
381.87	350.32
382.25	351.9
382.63	333.37
383.01	347.6
383.39	362.07
383.77	340.82
384.15	347.83
384.53	353.25
384.91	343.99
385.29	343.76
385.67	350.77
386.049	346.93
386.429	363.65
386.809	358.68
387.189	364.78
387.568	352.8
387.948	366.36
388.328	365.68
388.707	362.07
389.087	370.43
389.466	362.52
389.846	391.44
390.225	366.59
390.605	351.45
390.984	376.98
391.363	367.72
391.743	365.23
392.122	368.85
392.501	363.87
392.881	394.61
393.26	376.76
393.639	384.89
394.018	394.16
394.397	386.92
394.776	404.33
395.155	390.54
395.534	386.92
395.913	378.11
396.292	406.59
396.671	408.39
397.05	400.03
397.429	403.87
397.808	390.31
398.186	409.3
398.565	416.75
398.944	413.14
399.323	426.02
399.701	396.42
400.08	405.91
400.458	418.79
400.837	414.49
401.215	419.69
401.594	424.44
401.972	420.37
402.351	402.52
402.729	428.05
403.107	446.36
403.486	418.34
403.864	431.44
404.242	427.83
404.62	442.52
404.999	442.97
405.377	455.62
405.755	445
406.133	432.35
406.511	445.23
406.889	452.91
407.267	459.69
407.645	468.05
408.023	459.01
408.401	449.07
408.779	473.02
409.156	467.15
409.534	457.43
409.912	473.25
410.29	470.76
410.667	467.15
411.045	492.01
411.422	470.99
411.8	472.12
412.178	497.2
412.555	497.43
412.933	500.82
413.31	490.88
413.687	514.38
414.065	515.74
414.442	502.63
414.819	492.46
415.197	525.68
415.574	527.49
415.951	505.79
416.328	523.42
416.705	512.57
417.082	498.33
417.46	534.04
417.837	526.13
418.214	530.65
418.591	534.49
418.967	523.42
419.344	560.93
419.721	567.71
420.098	555.28
420.475	539.24
420.852	563.19
421.228	591.21
421.605	562.97
421.982	549.63
422.358	552.57
422.735	561.16
423.111	555.96
423.488	586.47
423.864	577.88
424.241	608.84
424.617	583.76
424.994	621.72
425.37	597.09
425.746	619.69
426.123	619.91
426.499	609.74
426.875	615.39
427.251	632.57
427.627	628.05
428.003	644.09
428.379	654.49
428.756	649.74
429.132	660.59
429.507	640.48
429.883	654.49
430.259	661.04
430.635	677.09
431.011	678.67
431.387	684.54
431.763	717.54
432.138	706.24
432.514	713.92
432.89	727.48
433.265	716.63
433.641	735.62
434.016	720.02
434.392	728.84
434.767	743.3
435.143	758.89
435.518	767.25
435.894	775.62
436.269	782.85
436.644	783.75
437.02	788.04
437.395	781.04
437.77	808.83
438.145	795.05
438.52	818.78
438.895	839.57
439.271	822.17
439.646	840.02
440.021	828.95
440.395	840.47
440.77	831.88
441.145	848.61
441.52	832.34
441.895	830.98
442.27	861.04
442.645	858.1
443.019	892
443.394	874.37
443.769	884.76
444.143	889.51
444.518	896.06
444.892	898.55
445.267	899.91
445.641	922.28
446.016	903.52
446.39	907.14
446.764	916.63
447.139	907.82
447.513	926.8
447.887	943.97
448.262	949.62
448.636	948.27
449.01	962.95
449.384	961.37
449.758	961.15
450.132	984.2
450.506	984.88
450.88	974.71
451.254	988.72
451.628	1002.05
452.002	1023.07
452.376	1045.44
452.75	1041.6
453.123	1063.97
453.497	1045.66
453.871	1102.16
454.244	1090.41
454.618	1099.45
454.992	1104.19
455.365	1088.83
455.739	1148.94
456.112	1143.52
456.486	1151.2
456.859	1162.05
457.232	1174.93
457.606	1203.4
457.979	1193.23
458.352	1220.58
458.725	1239.56
459.099	1236.85
459.472	1282.49
459.845	1285.21
460.218	1281.59
460.591	1280.46
460.964	1318.88
461.337	1344.64
461.71	1373.57
462.083	1379.22
462.456	1373.11
462.829	1389.61
463.201	1445.43
463.574	1421.93
463.947	1428.71
464.32	1467.35
464.692	1483.62
465.065	1477.29
465.438	1528.14
465.81	1549.38
466.183	1559.55
466.555	1592.99
466.928	1641.36
467.3	1607.23
467.672	1667.57
468.045	1704.63
468.417	1718.64
468.789	1715.25
469.161	1737.85
469.534	1776.27
469.906	1808.58
470.278	1805.64
470.65	1847.9
471.022	1894.23
471.394	1932.65
471.766	1995.24
472.138	2018.52
472.51	2081.34
472.882	2105.75
473.253	2133.77
473.625	2180.78
473.997	2222.81
474.369	2245.63
474.74	2283.37
475.112	2342.13
475.484	2418.96
475.855	2463.93
476.227	2520.88
476.598	2569.47
476.97	2614.66
477.341	2674.77
477.713	2713.19
478.084	2757.48
478.455	2872.96
478.827	2921.55
479.198	3008.32
479.569	3050.13
479.94	3191.14
480.311	3239.05
480.682	3346.17
481.053	3463
481.424	3508.42
481.795	3575.77
482.166	3648.08
482.537	3766.27
482.908	3844.24
483.279	3939.6
483.65	4054.63
484.021	4159.93
484.391	4297.78
484.762	4365.35
485.133	4450.55
485.503	4512.92
485.874	4706.59
486.244	4720.6
486.615	4874.49
486.985	4998.56
487.356	5123.75
487.726	5272.45
488.097	5453.46
488.467	5471.54
488.837	5679.22
489.207	5811.41
489.578	5916.5
489.948	6013.22
490.318	6088.02
490.688	6234
491.058	6401.46
491.428	6523.03
491.798	6637.83
492.168	6795.34
492.538	6855
492.908	7033.98
493.278	7164.83
493.648	7255.22
494.017	7405.72
494.387	7563.23
494.757	7609.56
495.126	7819.27
495.496	7843.23
495.866	8052.71
496.235	8147.62
496.605	8238.02
496.974	8384.68
497.344	8518.46
497.713	8684.11
498.082	8693.83
498.452	8849.75
498.821	8942.63
499.19	9023.31
499.559	9094.49
499.928	9194.38
500.298	9336.29
500.667	9481.37
501.036	9531.54
501.405	9683.86
501.774	9717.3
502.143	9798.65
502.512	9918.43
502.88	10009.95
503.249	10041.59
503.618	10156.16
503.987	10286.33
504.356	10327.91
504.724	10391.18
505.093	10448.13
505.462	10543.49
505.83	10627.33
506.199	10741.23
506.567	10885.41
506.936	10891.73
507.304	11011.05
507.672	11003.14
508.041	11130.82
508.409	11282.01
508.777	11327.88
509.145	11449.91
509.514	11450.81
509.882	11491.04
510.25	11572.85
510.618	11631.6
510.986	11650.81
511.354	11762.9
511.722	11840.86
512.09	11955.43
512.458	12034.53
512.826	12026.62
513.193	12095.32
513.561	12093.06
513.929	12119.05
514.297	12274.52
514.664	12346.84
515.032	12352.03
515.4	12418.92
515.767	12554.29
516.135	12536.89
516.502	12429.55
516.869	12652.37
517.237	12624.12
517.604	12714.74
517.972	12777.79
518.339	12813.49
518.706	12820.27
519.073	12940.27
519.44	12900.49
519.808	13086.03
520.175	12942.75
520.542	13140.71
520.909	13279.02
521.276	13148.17
521.643	13232.69
522.009	13288.28
522.376	13352.46
522.743	13367.83
523.11	13475.39
523.477	13509.29
523.843	13712.9
524.21	13651.43
524.577	13692.79
524.943	13782.05
525.31	13687.59
525.676	13790.19
526.043	13779.57
526.409	13863.86
526.776	13969.84
527.142	13909.28
527.508	13958.09
527.874	14097.07
528.241	14051.2
528.607	14006
528.973	14158.09
529.339	14147.02
529.705	14223.4
530.071	14227.01
530.437	14262.94
530.803	14256.16
531.169	14326.67
531.535	14239.89
531.901	14271.76
532.267	14256.39
532.632	14262.04
532.998	14303.62
533.364	14369.61
533.73	14321.47
534.095	14396.5
534.461	14414.8
534.826	14332.32
535.192	14464.07
535.557	14412.32
535.923	14324.19
536.288	14392.21
536.653	14350.63
537.019	14216.39
537.384	14379.55
537.749	14219.1
538.114	14319.67
538.479	14256.84
538.845	14243.74
539.21	14191.31
539.575	14225.88
539.94	14170.07
540.305	14210.74
540.67	14186.11
541.034	14243.28
541.399	14199.44
541.764	14227.92
542.129	14169.16
542.494	14169.39
542.858	14162.61
543.223	14022.27
543.587	14175.04
543.952	14013.01
544.316	14026.11
544.681	13983.86
545.045	13970.75
545.41	14029.73
545.774	13956.51
546.138	13899.34
546.503	13917.87
546.867	13928.26
547.231	13984.08
547.595	13909.73
547.959	13902.28
548.324	13802.84
548.688	13848.94
549.052	13900.47
549.416	13839.9
549.779	13870.41
550.143	13725.11
550.507	13761.94
550.871	13799.91
551.235	13648.72
551.599	13762.39
551.962	13759
552.326	13631.77
552.689	13760.36
553.053	13668.38
553.417	13588.16
553.78	13826.12
554.143	13670.42
554.507	13696.41
554.87	13614.6
555.234	13786.8
555.597	13616.63
555.96	13592.45
556.323	13592.68
556.686	13550.87
557.05	13632.9
557.413	13629.29
557.776	13664.77
558.139	13760.81
558.502	13565.79
558.865	13690.76
559.228	13642.85
559.59	13745.44
559.953	13621.83
560.316	13707.7
560.679	13714.48
561.041	13732.11
561.404	13745.22
561.767	13864.54
562.129	13692.34
562.492	13812.56
562.854	13752.68
563.217	13753.81
563.579	13776.4
563.941	13906.34
564.304	13903.41
564.666	13892.56
565.028	13895.72
565.39	13866.12
565.753	13923.07
566.115	14013.01
566.477	13882.16
566.839	13992.44
567.201	14041.48
567.563	14020.92
567.925	14053.01
568.287	14071.99
568.648	14086.45
569.01	14107.47
569.372	14149.05
569.734	14111.54
570.095	14165.32
570.457	14135.04
570.819	14158.77
571.18	14163.96
571.542	14263.4
571.903	14201.93
572.265	14276.96
572.626	14360.57
572.987	14307.01
573.349	14379.33
573.71	14403.73
574.071	14349.04
574.432	14397.4
574.794	14493.22
575.155	14460.91
575.516	14504.29
575.877	14450.06
576.238	14468.36
576.599	14548.59
576.96	14470.62
577.32	14408.25
577.681	14523.95
578.042	14468.59
578.403	14507.46
578.763	14553.78
579.124	14512.88
579.485	14526.89
579.845	14566.44
580.206	14571.64
580.566	14545.42
580.927	14605.31
581.287	14685.76
581.648	14532.99
582.008	14613.67
582.368	14570.73
582.728	14597.85
583.089	14540.23
583.449	14546.1
583.809	14603.5
584.169	14535.25
584.529	14527.8
584.889	14589.49
585.249	14429.72
585.609	14468.81
585.969	14538.87
586.329	14554.69
586.688	14455.03
587.048	14445.54
587.408	14451.41
587.768	14433.34
588.127	14460
588.487	14411.64
588.846	14484.41
589.206	14394.69
589.565	14438.98
589.925	14512.2
590.284	14368.03
590.643	14398.76
591.003	14420
591.362	14488.25
591.721	14379.33
592.08	14372.77
592.44	14494.12
592.799	14478.53
593.158	14354.02
593.517	14448.48
593.876	14370.06
594.235	14357.18
594.593	14368.03
594.952	14374.35
595.311	14300.23
595.67	14401.7
596.029	14413.45
596.387	14385.88
596.746	14372.32
597.104	14367.57
597.463	14317.86
597.822	14308.37
598.18	14291.87
598.538	14348.82
598.897	14403.96
599.255	14234.02
599.613	14551.75
599.972	14419.55
600.33	14401.25
600.688	14315.15
601.046	14430.85
601.404	14409.38
601.762	14318.08
602.12	14433.79
602.478	14471.3
602.836	14434.47
603.194	14308.14
603.552	14463.39
603.91	14320.12
604.268	14328.71
604.625	14346.56
604.983	14446.67
605.341	14358.53
605.698	14368.48
606.056	14357.63
606.413	14305.2
606.771	14396.95
607.128	14382.26
607.485	14344.75
607.843	14292.1
608.2	14403.05
608.557	14495.48
608.914	14324.86
609.272	14463.16
609.629	14390.62
609.986	14472.88
610.343	14463.62
610.7	14497.74
611.057	14485.31
611.414	14459.32
611.771	14534.12
612.127	14624.74
612.484	14561.92
612.841	14611.41
613.198	14553.11
613.554	14535.71
613.911	14709.49
614.267	14632.65
614.624	14685.53
614.98	14633.78
615.337	14743.16
615.693	14657.51
616.05	14657.51
616.406	14786.09
616.762	14626.55
617.118	14699.54
617.475	14693.22
617.831	14700.67
618.187	14675.14
618.543	14811.63
618.899	14785.64
619.255	14816.83
619.611	14780.22
619.967	14805.08
620.323	14853.21
620.678	14726.21
621.034	14770.28
621.39	14753.33
621.746	14832.87
622.101	14959.88
622.457	14839.43
622.812	14780.22
623.168	14845.75
623.523	14882.14
623.879	14845.75
624.234	14765.98
624.589	14852.99
624.945	14720.79
625.3	14731.41
625.655	14827
626.01	14822.03
626.365	14817.96
626.72	14740.67
627.075	14784.74
627.43	14785.64
627.785	14738.41
628.14	14783.83
628.495	14822.7
628.85	14839.2
629.205	14672.42
629.559	14799.88
629.914	14731.41
630.269	14801.01
630.623	14716.04
630.978	14654.12
631.332	14701.12
631.687	14667
632.041	14605.76
632.396	14661.35
632.75	14626.1
633.104	14609.38
633.459	14577.74
633.813	14533.67
634.167	14583.61
634.521	14551.75
634.875	14577.29
635.229	14531.64
635.583	14431.08
635.937	14454.13
636.291	14472.66
636.645	14499.32
636.999	14434.92
637.352	14386.56
637.706	14386.1
638.06	14362.6
638.413	14444.41
638.767	14318.08
639.121	14409.38
639.474	14352.21
639.828	14278.76
640.181	14242.15
640.534	14240.57
640.888	14248.93
641.241	14225.88
641.594	14301.14
641.947	14295.94
642.301	14198.09
642.654	14246
643.007	14204.19
643.36	14143.63
643.713	14127.13
644.066	14188.6
644.419	14079.9
644.771	14036.74
645.124	13935.95
645.477	13908.83
645.83	13754.93
646.182	13730.08
646.535	13606.01
646.888	13689.17
647.24	13599.01
647.593	13717.42
647.945	13726.01
648.298	13628.84
648.65	13576.41
649.002	13589.52
649.355	13711.09
649.707	13655.05
650.059	13681.04
650.411	13863.41
650.763	13919
651.115	14016.4
651.467	13971.43
651.819	13977.53
652.171	13941.14
652.523	13920.35
652.875	13944.76
653.227	13855.5
653.578	13894.37
653.93	13969.84
654.282	13864.76
654.633	13855.95
654.985	13918.09
655.337	13879.45
655.688	13836.06
656.039	13984.08
656.391	13772.56
656.742	13864.76
657.094	13937.98
657.445	13887.36
657.796	13874.93
658.147	13876.51
658.498	13941.6
658.849	13909.96
659.2	13896.4
659.551	13940.92
659.902	13969.39
660.253	13924.42
660.604	13921.03
660.955	13907.02
661.306	13877.19
661.656	13920.58
662.007	13831.09
662.358	13925.33
662.708	13980.69
663.059	13886.68
663.409	13897.3
663.76	13987.7
664.11	13917.42
664.461	13992.44
664.811	13947.02
665.161	13990.41
665.511	13949.51
665.862	13942.95
666.212	14023.4
666.562	14025.44
666.912	13956.51
667.262	13953.12
667.612	13946.34
667.962	13957.87
668.312	13999.45
668.662	14066.79
669.011	14005.55
669.361	13964.65
669.711	13900.47
670.06	13883.97
670.41	13851.66
670.76	13820.47
671.109	13868.38
671.459	13893.91
671.808	13837.19
672.157	13820.24
672.507	13805.1
672.856	13782.28
673.205	13774.82
673.554	13871.09
673.904	13805.1
674.253	13893.69
674.602	13732.79
674.951	13566.24
675.3	13505
675.649	13701.6
675.998	13730.3
676.346	13777.76
676.695	13757.42
677.044	13628.84
677.393	13678.1
677.741	13662.28
678.09	13711.55
678.438	13616.63
678.787	13656.63
679.135	13751.55
679.484	13537.09
679.832	13615.05
680.181	13441.95
680.529	13478.11
680.877	13515.62
681.225	13535.28
681.573	13560.82
681.922	13389.75
682.27	13455.28
682.618	13358.34
682.966	13399.24
683.314	13448.5
683.661	13399.69
684.009	13239.92
684.357	13251.67
684.705	13155.85
685.053	13186.14
685.4	13264.33
685.748	13142.97
686.095	13117.21
686.443	13075.86
686.79	13068.63
687.138	13100.94
687.485	13070.66
687.832	13036.76
688.18	13077.66
688.527	12871.79
688.874	12901.4
689.221	12880.83
689.568	12796.54
689.915	12776.43
690.262	12774.62
690.609	12736.2
690.956	12622.76
691.303	12567.4
691.65	12566.94
691.997	12645.59
692.344	12519.04
692.69	12609.65
693.037	12478.58
693.383	12392.03
693.73	12343.67
694.077	12310.45
694.423	12350.9
694.769	12230.46
695.116	12202.66
695.462	12188.65
695.808	12049.44
696.155	12169.89
696.501	12044.02
696.847	12080.18
697.193	11955.89
697.539	11956.79
697.885	11830.92
698.231	11834.31
698.577	11777.59
698.923	11832.95
699.269	11728.1
699.614	11671.6
699.96	11717.93
700.306	11687.87
700.651	11587.99
700.997	11610.36
701.342	11488.1
701.688	11534.43
702.033	11457.59
702.379	11423.92
702.724	11407.2
703.069	11450.36
703.415	11229.58
703.76	11260.76
704.105	11264.6
704.45	11162.91
704.795	11221.89
705.14	11097.83
705.485	11050.15
705.83	11109.58
706.175	11075.46
706.52	10966.99
706.865	10913.43
707.209	10937.16
707.554	10874.78
707.899	10840.21
708.243	10846.99
708.588	10848.8
708.932	10695.13
709.277	10741
709.621	10702.36
709.966	10648.58
710.31	10708.91
710.654	10531.52
710.998	10581.69
711.342	10582.59
711.687	10551.86
712.031	10457.17
712.375	10476.83
712.719	10447.9
713.063	10461.69
713.407	10495.59
713.75	10408.36
714.094	10471.86
714.438	10355.7
714.782	10403.16
715.125	10316.83
715.469	10293.78
715.812	10303.95
716.156	10252.88
716.499	10224.18
716.843	10262.82
717.186	10196.16
717.53	10215.59
717.873	10253.11
718.216	10181.7
718.559	10164.97
718.902	10072.09
719.246	10153.67
719.589	10049.04
719.932	10135.14
720.275	10090.4
720.617	10072.32
720.96	10082.94
721.303	10041.36
721.646	9919.78
721.989	9956.84
722.331	10016.95
722.674	10015.37
723.016	10027.12
723.359	9954.58
723.701	9943.28
724.044	9907.8
724.386	9842.27
724.729	9900.8
725.071	9868.48
725.413	9852.89
725.755	9858.54
726.097	9835.94
726.439	9757.98
726.782	9816.96
727.124	9818.54
727.465	9819.9
727.807	9806.56
728.149	9786
728.491	9754.81
728.833	9731.31
729.175	9701.48
729.516	9802.04
729.858	9683.63
730.199	9786.45
730.541	9785.55
730.882	9735.15
731.224	9775.15
731.565	9668.71
731.906	9702.84
732.248	9716.17
732.589	9691.76
732.93	9647.25
733.271	9705.55
733.612	9699
733.953	9740.58
734.294	9651.54
734.635	9691.54
734.976	9716.17
735.317	9691.31
735.658	9682.27
735.999	9635.72
736.339	9666.23
736.68	9712.1
737.021	9653.12
737.361	9611.54
737.702	9678.21
738.042	9682.95
738.383	9615.38
738.723	9711.2
739.063	9674.82
739.404	9652.67
739.744	9636.85
740.084	9713.91
740.424	9776.28
740.764	9651.77
741.104	9713.46
741.444	9686.12
741.784	9664.42
742.124	9715.49
742.464	9744.64
742.804	9726.11
743.143	9798.2
743.483	9759.11
743.823	9771.54
744.162	9748.26
744.502	9855.15
744.841	9780.8
745.181	9887.47
745.52	9892.89
745.86	10015.6
746.199	9949.84
746.538	9990.51
746.877	10077.52
747.216	10058.99
747.556	10055.37
747.895	10088.82
748.234	10153.22
748.573	10242.26
748.911	10279.09
749.25	10279.77
749.589	10313.44
749.928	10463.5
750.267	10451.29
750.605	10515.7
750.944	10651.74
751.283	10556.6
751.621	10730.16
751.96	10733.77
752.298	10877.5
752.636	10922.92
752.975	10929.02
753.313	11004.95
753.651	11144.83
753.989	11178.73
754.327	11288.11
754.666	11369.23
755.004	11502.56
755.342	11611.26
755.679	11743.46
756.017	11797.7
756.355	11964.7
756.693	12004.47
757.031	12168.31
757.368	12221.87
757.706	12346.38
758.044	12463.44
758.381	12597.23
758.719	12776.43
759.056	12867.5
759.394	13085.8
759.731	13067.95
760.068	13274.27
760.405	13413.7
760.743	13484.66
761.08	13651.43
761.417	13709.06
761.754	13816.63
762.091	13976.17
762.428	14138.43
762.765	14238.09
763.102	14379.1
763.438	14473.11
763.775	14549.04
764.112	14776.15
764.449	14902.48
764.785	14997.84
765.122	15040.55
765.458	15099.08
765.795	15266.99
766.131	15514.66
766.467	15508.11
766.804	15529.35
767.14	15615.23
767.476	15831.72
767.812	15924.6
768.148	16038.26
768.485	16035.33
768.821	16192.61
769.157	16283
769.492	16479.16
769.828	16489.78
770.164	16357.13
770.5	16537.01
770.836	16753.5
771.171	16737.46
771.507	16833.95
771.842	16784.91
772.178	16883.89
772.513	16964.34
772.849	17139.25
773.184	17058.12
773.519	17209.31
773.855	17104.9
774.19	17139.93
774.525	17167.95
774.86	17361.62
775.195	17435.52
775.53	17387.83
775.865	17381.73
776.2	17376.53
776.535	17383.09
776.87	17437.55
777.205	17403.88
777.539	17414.95
777.874	17502.18
778.209	17455.85
778.543	17485.68
778.878	17391.45
779.212	17522.29
779.547	17452.46
779.881	17568.85
780.215	17383.31
780.55	17568.85
780.884	17437.55
781.218	17454.27
781.552	17497.66
781.886	17501.5
782.22	17457.44
782.554	17402.75
782.888	17264.67
783.222	17322.52
783.556	17287.27
783.889	17307.61
784.223	17254.28
784.557	17219.02
784.89	17237.1
785.224	17343.54
785.557	17294.28
785.891	17178.8
786.224	17161.4
786.558	17212.92
786.891	17103.32
787.224	17101.97
787.557	17059.03
787.891	17075.75
788.224	17071.23
788.557	17049.31
788.89	16934.74
789.223	16971.35
789.556	16919.6
789.888	16857.23
790.221	16792.6
790.554	16823.55
790.887	16809.09
791.219	16801.18
791.552	16724.8
791.884	16632.15
792.217	16649.32
792.549	16619.72
792.882	16540.62
793.214	16475.77
793.546	16490.23
793.879	16414.3
794.211	16318.94
794.543	16349.44
794.875	16316.9
795.207	16435.09
795.539	16214.08
795.871	16246.85
796.203	16218.6
796.535	16089.34
796.867	16034.2
797.198	16072.39
797.53	16043.01
797.862	16048.89
798.193	16021.32
798.525	15998.94
798.856	15944.03
799.188	15855.44
799.519	15796.01
799.85	15706.3
800.182	15745.17
800.513	15706.07
800.844	15530.48
801.175	15649.8
801.506	15525.74
801.837	15536.36
802.168	15512.4
802.499	15447.09
802.83	15397.15
803.161	15361.22
803.491	15375.23
803.822	15450.26
804.153	15288.23
804.483	15172.52
804.814	15249.81
805.145	15109.7
805.475	15149.25
805.805	15041.91
806.136	15091.4
806.466	15146.08
806.796	15058.86
807.126	14901.57
807.457	14860.89
807.787	14964.85
808.117	14831.06
808.447	14851.4
808.777	14896.6
809.107	14752.42
809.436	14681.46
809.766	14709.94
810.096	14708.13
810.426	14657.28
810.755	14547.68
811.085	14640.56
811.414	14577.74
811.744	14445.76
812.073	14450.28
812.403	14464.07
812.732	14320.57
813.061	14351.98
813.39	14350.85
813.719	14308.59
814.049	14309.72
814.378	14263.85
814.707	14227.24
815.036	14256.62
815.365	14124.19
815.693	14074.93
816.022	14019.33
816.351	14049.16
816.68	13910.41
817.008	13959.22
817.337	13828.61
817.665	13766.01
817.994	13874.71
818.322	13923.74
818.651	13809.17
818.979	13750.64
819.307	13836.29
819.636	13745.67
819.964	13641.04
820.292	13732.11
820.62	13665.67
820.948	13641.27
821.276	13712.22
821.604	13623.64
821.932	13599.91
822.259	13671.55
822.587	13665.9
822.915	13641.04
823.243	13678.55
823.57	13673.58
823.898	13723.75
824.225	13580.48
824.553	13587.71
824.88	13587.93
825.207	13699.34
825.535	13660.7
825.862	13663.86
826.189	13662.96
826.516	13736.63
826.843	13699.57
827.17	13670.19
827.497	13667.93
827.824	13676.74
828.151	13766.46
828.478	13657.31
828.805	13771.66
829.131	13703.18
829.458	13631.55
829.785	13559.46
830.111	13645.56
830.438	13678.33
830.764	13618.44
831.09	13662.73
831.417	13689.85
831.743	13653.69
832.069	13651.66
832.395	13542.51
832.722	13619.57
833.048	13609.4
833.374	13559.91
833.7	13563.75
834.026	13579.57
834.351	13566.92
834.677	13573.24
835.003	13537.77
835.329	13480.14
835.654	13432.91
835.98	13479.69
836.306	13471.55
836.631	13434.49
836.956	13431.1
837.282	13491.67
837.607	13363.76
837.932	13412.12
838.258	13377.09
838.583	13394.04
838.908	13325.12
839.233	13341.16
839.558	13307.94
839.883	13243.54
840.208	13260.26
840.533	13205.12
840.858	13214.61
841.182	13178.23
841.507	13154.95
841.832	13103.65
842.156	13128.28
842.481	13059.81
842.805	13063.65
843.13	13039.7
843.454	12985.69
843.778	12920.83
844.103	12889.65
844.427	12882.42
844.751	12848.97
845.075	12887.16
845.399	12759.03
845.723	12768.29
846.047	12821.4
846.371	12628.41
846.695	12706.6
847.019	12428.64
847.343	12512.03
847.666	12464.8
847.99	12428.42
848.313	12332.83
848.637	12286.95
848.96	12270.45
849.284	12243.79
849.607	12116.79
849.931	12087.41
850.254	12055.09
850.577	11963.34
850.9	11917.24
851.223	11910.01
851.546	11809.9
851.869	11780.3
852.192	11812.61
852.515	11680.41
852.838	11710.02
853.161	11684.25
853.483	11576.91
853.806	11556.8
854.129	11520.87
854.451	11547.76
854.774	11477.93
855.096	11418.95
855.419	11410.82
855.741	11353.42
856.063	11252.63
856.385	11345.05
856.708	11207.43
857.03	11198.62
857.352	11188
857.674	11143.7
857.996	11093.08
858.318	11071.16
858.64	11050.15
858.961	11009.7
859.283	10927.66
859.605	10855.8
859.926	10922.24
860.248	10803.6
860.57	10866.42
860.891	10828.01
861.212	10786.2
861.534	10706.65
861.855	10773.09
862.176	10724.28
862.498	10734
862.819	10671.85
863.14	10658.97
863.461	10580.1
863.782	10605.64
864.103	10601.8
864.424	10578.3
864.745	10586.2
865.065	10505.08
865.386	10552.08
865.707	10517.51
866.027	10427.79
866.348	10454
866.668	10447.45
866.989	10449.03
867.309	10394.35
867.63	10408.81
867.95	10384.85
868.27	10351.86
868.59	10325.65
868.91	10296.72
869.23	10327.23
869.55	10209.49
869.87	10365.19
870.19	10331.52
870.51	10269.15
870.83	10267.34
871.15	10178.31
871.469	10247.23
871.789	10289.26
872.109	10225.99
872.428	10150.06
872.748	10171.3
873.067	10089.95
873.386	10132.88
873.706	10056.95
874.025	10119.78
874.344	10048.37
874.663	10029.61
874.982	10051.98
875.301	10018.54
875.62	9980.12
875.939	9977.41
876.258	9941.02
876.577	9944.87
876.896	9906.67
877.214	9913.45
877.533	9902.83
877.852	9856.96
878.17	9854.47
878.489	9888.14
878.807	9867.81
879.125	9801.82
879.444	9815.15
879.762	9769.95
880.08	9739.22
880.398	9746.45
880.716	9819.22
881.034	9666
881.352	9710.75
881.67	9628.26
881.988	9651.09
882.306	9552.56
882.624	9595.72
882.941	9574.71
883.259	9574.48
883.577	9551.66
883.894	9513.46
884.212	9528.61
884.529	9502.84
884.846	9469.4
885.164	9419.91
885.481	9398.21
885.798	9426.91
886.115	9353.47
886.432	9437.99
886.75	9337.65
887.067	9366.58
887.383	9259.69
887.7	9245.22
888.017	9241.16
888.334	9206.35
888.651	9140.14
888.967	9191.89
889.284	9078.9
889.6	9021.5
889.917	9031.9
890.233	9079.13
890.55	9050.65
890.866	9023.99
891.182	8963.42
891.498	8922.07
891.815	8960.26
892.131	8927.72
892.447	8845.91
892.763	8830.32
893.079	8821.73
893.395	8763.43
893.71	8727.04
894.026	8771.11
894.342	8729.3
894.657	8626.26
894.973	8674.16
895.289	8645.01
895.604	8637.56
895.92	8530.21
896.235	8508.97
896.55	8540.38
896.865	8459.71
897.181	8443.66
897.496	8457.22
897.811	8453.15
898.126	8385.13
898.441	8344.23
898.756	8328.64
899.071	8241.41
899.386	8238.02
899.7	8169.77
900.015	8226.27
900.33	8114.18
900.644	8131.35
900.959	8136.1
901.273	8125.03
901.588	8047.97
901.902	8022.43
902.216	8001.19
902.531	8028.98
902.845	7951.92
903.159	7904.24
903.473	7911.02
903.787	7877.12
904.101	7799.16
904.415	7796.22
904.729	7769.33
905.042	7706.96
905.356	7718.94
905.67	7718.26
905.984	7645.27
906.297	7590.58
906.611	7642.78
906.924	7581.31
907.237	7511.48
907.551	7510.13
907.864	7457.93
908.177	7473.07
908.491	7392.39
908.804	7349.45
909.117	7299.06
909.43	7304.48
909.743	7310.81
910.056	7286.18
910.368	7222.68
910.681	7187.65
910.994	7153.75
911.307	7132.74
911.619	7131.61
911.932	7101.1
912.244	7029.69
912.557	6972.29
912.869	6976.13
913.181	6970.03
913.494	6956.47
913.806	6873.08
914.118	6846.64
914.43	6827.89
914.742	6796.93
915.054	6738.17
915.366	6740.66
915.678	6709.24
915.99	6719.64
916.302	6671.96
916.613	6667.89
916.925	6636.25
917.236	6592.64
917.548	6551.73
917.859	6570.04
918.171	6499.08
918.482	6514
918.794	6408.91
919.105	6453.88
919.416	6412.98
919.727	6394
920.038	6358.52
920.349	6331.85
920.66	6311.51
920.971	6309.71
921.282	6276.94
921.593	6256.15
921.903	6227.9
922.214	6166.43
922.525	6183.61
922.835	6139.32
923.146	6111.29
923.456	6107.45
923.767	6066.32
924.077	6041.47
924.387	6038.53
924.697	5972.31
925.008	5999.66
925.318	5972.77
925.628	5965.54
925.938	5909.27
926.248	5829.04
926.558	5861.36
926.867	5834.69
927.177	5820
927.487	5825.88
927.796	5717.63
928.106	5791.98
928.416	5705.66
928.725	5680.12
929.034	5679.89
929.344	5658.2
929.653	5611.87
929.962	5587.01
930.271	5591.31
930.581	5533.46
930.89	5515.83
931.199	5520.8
931.508	5483.06
931.817	5458.88
932.125	5437.64
932.434	5391.31
932.743	5388.6
933.051	5341.6
933.36	5301.6
933.669	5301.37
933.977	5280.58
934.286	5278.55
934.594	5219.11
934.902	5247.14
935.21	5181.15
935.519	5188.83
935.827	5139.12
936.135	5130.53
936.443	5112.45
936.751	5052.11
937.059	5063.64
937.367	5030.42
937.674	5061.6
937.982	4994.04
938.29	4987.03
938.597	5040.14
938.905	4940.7
939.213	4905.9
939.52	4884.43
939.827	4899.8
940.135	4869.07
940.442	4871.55
940.749	4814.15
941.056	4794.27
941.363	4774.38
941.67	4746.36
941.977	4721.73
942.284	4694.38
942.591	4710.65
942.898	4663.65
943.205	4669.52
943.511	4645.34
943.818	4650.09
944.125	4549.08
944.431	4578.23
944.738	4557.44
945.044	4573.71
945.35	4527.83
945.657	4521.28
945.963	4495.74
946.269	4488.06
946.575	4463.65
946.881	4439.25
947.187	4402.64
947.493	4418.91
947.799	4392.24
948.105	4355.86
948.41	4340.04
948.716	4308.18
949.022	4329.65
949.327	4296.2
949.633	4258.91
949.938	4208.07
950.244	4248.97
950.549	4236.09
950.854	4174.4
951.16	4172.14
951.465	4134.4
951.77	4119.71
952.075	4109.76
952.38	4139.37
952.685	4091.69
952.99	4061.18
953.294	4082.19
953.599	4065.25
953.904	4002.87
954.209	4005.13
954.513	4003.33
954.818	4013.04
955.122	3943.89
955.426	3921.52
955.731	3917.45
956.035	3892.14
956.339	3852.82
956.643	3865.48
956.948	3836.78
957.252	3821.86
957.556	3839.04
957.86	3814.41
958.163	3822.54
958.467	3815.31
958.771	3779.15
959.075	3744.8
959.378	3714.97
959.682	3723.79
959.985	3679.04
960.289	3664.58
960.592	3654.86
960.896	3629.78
961.199	3593.85
961.502	3591.81
961.805	3597.69
962.108	3586.16
962.411	3541.64
962.714	3561.53
963.017	3517.01
963.32	3561.3
963.623	3544.36
963.926	3505.49
964.228	3444.02
964.531	3431.36
964.833	3437.69
965.136	3395.21
965.438	3417.58
965.741	3386.85
966.043	3377.81
966.345	3353.17
966.648	3333.29
966.95	3364.93
967.252	3308.43
967.554	3298.26
967.856	3329.22
968.158	3291.26
968.46	3258.49
968.761	3274.31
969.063	3298.26
969.365	3251.26
969.666	3249.9
969.968	3188.21
970.269	3191.6
970.571	3176.91
970.872	3202.22
971.174	3148.21
971.475	3135.1
971.776	3081.32
972.077	3088.77
972.378	3088.77
972.679	3132.16
972.98	3076.12
973.281	3050.36
973.582	3077.48
973.883	3021.21
974.183	3032.28
974.484	3018.49
974.785	2972.85
975.085	2964.26
975.386	2983.01
975.686	2957.7
975.986	2974.2
976.287	2931.72
976.587	2880.87
976.887	2893.75
977.187	2905.73
977.487	2861.21
977.787	2859.4
978.087	2851.04
978.387	2827.99
978.687	2826.63
978.987	2793.19
979.286	2829.8
979.586	2792.96
979.885	2759.97
980.185	2766.3
980.484	2778.27
980.784	2722.91
981.083	2715.45
981.382	2722.91
981.682	2767.88
981.981	2681.1
982.28	2694.21
982.579	2672.74
982.878	2672.97
983.177	2658.28
983.475	2671.84
983.774	2658.96
984.073	2607.88
984.372	2602.23
984.67	2588.67
984.969	2612.86
985.267	2587.09
985.566	2551.61
985.864	2528.56
986.162	2567.66
986.461	2517.49
986.759	2522.91
987.057	2506.64
987.355	2475.23
987.653	2498.96
987.951	2444.72
988.249	2486.76
988.547	2459.86
988.844	2459.64
989.142	2415.35
989.44	2417.38
989.737	2417.61
990.035	2391.62
990.332	2385.74
990.63	2385.52
990.927	2347.33
991.224	2380.54
991.521	2332.41
991.819	2339.42
992.116	2316.14
992.413	2311.39
992.71	2292.64
993.006	2325.4
993.303	2284.28
993.6	2274.56
993.897	2222.81
994.193	2240.21
994.49	2230.72
994.787	2189.82
995.083	2220.1
995.379	2234.33
995.676	2171.06
995.972	2176.48
996.268	2139.87
996.565	2159.53
996.861	2128.12
997.157	2126.31
997.453	2125.86
997.749	2130.61
998.044	2083.15
998.34	2058.75
998.636	2091.29
998.932	2093.09
999.227	2041.57
999.523	2018.52
999.818	2058.07
1000.114	2007.9
1000.409	2023.27
1000.704	2016.71
1001	1959.99
1001.295	1991.63
1001.59	1957.96
1001.885	1980.33
1002.18	1973.32
1002.475	1971.52
1002.77	1915.7
1003.065	1910.05
1003.359	1916.15
1003.654	1933.32
1003.949	1915.47
1004.243	1876.6
1004.538	1883.83
1004.832	1882.03
1005.127	1847.45
1005.421	1859.65
1005.715	1822.14
1006.009	1835.7
1006.304	1821.46
1006.598	1807.45
1006.892	1788.92
1007.186	1750.05
1007.48	1764.29
1007.773	1747.57
1008.067	1750.73
1008.361	1757.06
1008.655	1743.73
1008.948	1724.52
1009.242	1697.85
1009.535	1698.3
1009.829	1725.65
1010.122	1685.2
1010.415	1693.33
1010.708	1653.78
1011.001	1665.08
1011.295	1643.16
1011.588	1642.49
1011.881	1648.81
1012.173	1636.61
1012.466	1604.75
1012.759	1598.64
1013.052	1571.53
1013.344	1592.77
1013.637	1578.08
1013.93	1591.86
1014.222	1566.1
1014.514	1534.92
1014.807	1554.13
1015.099	1512.32
1015.391	1521.13
1015.683	1526.1
1015.976	1492.43
1016.268	1467.12
1016.56	1479.55
1016.851	1480.46
1017.143	1465.99
1017.435	1472.55
1017.727	1448.37
1018.018	1417.63
1018.31	1446.56
1018.602	1439.1
1018.893	1422.38
1019.185	1395.94
1019.476	1418.08
1019.767	1391.64
1020.058	1390.74
1020.35	1344.41
1020.641	1365.2
1020.932	1349.16
1021.223	1340.57
1021.514	1359.33
1021.804	1301.7
1022.095	1324.08
1022.386	1321.36
1022.677	1292.66
1022.967	1306
1023.258	1281.82
1023.548	1267.35
1023.839	1252.44
1024.129	1270.29
1024.419	1225.55
1024.709	1231.2
1025	1220.35
1025.29	1247.92
1025.58	1214.25
1025.87	1192.78
1026.16	1207.92
1026.449	1201.82
1026.739	1186.23
1027.029	1187.36
1027.319	1169.05
1027.608	1187.81
1027.898	1170.86
1028.187	1140.13
1028.477	1157.98
1028.766	1157.75
1029.055	1148.71
1029.344	1124.76
1029.634	1086.57
1029.923	1114.36
1030.212	1106
1030.501	1096.51
1030.79	1081.6
1031.078	1079.11
1031.367	1092.44
1031.656	1085.66
1031.945	1051.31
1032.233	1065.1
1032.522	1031.43
1032.81	1045.89
1033.099	1030.07
1033.387	1028.72
1033.675	1009.73
1033.963	1024.65
1034.251	1012.45
1034.54	1007.7
1034.828	1006.34
1035.116	973.35
1035.403	993.69
1035.691	993.91
1035.979	976.74
1036.267	957.53
1036.554	969.96
1036.842	957.08
1037.129	974.03
1037.417	957.76
1037.704	911.43
1037.992	944.42
1038.279	912.11
1038.566	919.34
1038.853	919.34
1039.14	919.34
