Data from hue_210_FLMS001491_00017.txt Node
Date: Tue Feb 07 16:40:49 GMT 2017
User: dcchb
Spectrometer: FLMS00149
Trigger mode: 0
Integration Time (sec): 2.000000E-2
Scans to average: 10
Electric dark correction enabled: true
Nonlinearity correction enabled: false
Boxcar width: 0
XAxis mode: Wavelengths
Number of Pixels in Spectrum: 2048
>>>>>Begin Spectral Data<<<<<
341.393	-28.04
341.776	-28.04
342.16	-28.04
342.543	-40.47
342.927	-68.94
343.31	-66.91
343.693	-65.32
344.077	-60.8
344.46	-61.93
344.843	-49.28
345.226	-44.08
345.61	-41.82
345.993	-25.55
346.376	10.16
346.759	17.84
347.142	45.63
347.525	25.97
347.908	58.06
348.291	55.58
348.674	79.08
349.057	123.37
349.44	111.4
349.823	138.29
350.206	167.89
350.588	180.55
350.971	204.05
351.354	213.99
351.737	236.82
352.119	227.78
352.502	256.25
352.884	264.39
353.267	273.65
353.65	294.22
354.032	317.94
354.414	319.3
354.797	284.27
355.179	315.01
355.562	316.14
355.944	317.72
356.326	337.6
356.709	318.17
357.091	323.82
357.473	331.05
357.855	312.97
358.238	334.89
358.62	334.21
359.002	330.37
359.384	338.28
359.766	327.66
360.148	335.12
360.53	329.24
360.912	325.18
361.294	305.97
361.676	336.47
362.057	342.58
362.439	322.92
362.821	320.88
363.203	299.64
363.584	306.19
363.966	313.65
364.348	336.25
364.729	324.5
365.111	315.23
365.493	308.45
365.874	328.34
366.256	301.67
366.637	317.04
367.019	316.36
367.4	330.15
367.781	331.05
368.163	317.04
368.544	302.58
368.925	304.61
369.306	301.22
369.688	325.18
370.069	320.88
370.45	302.58
370.831	307.55
371.212	302.12
371.593	299.19
371.974	302.8
372.355	326.3
372.736	321.79
373.117	301.67
373.498	320.66
373.879	309.36
374.26	312.07
374.641	315.01
375.021	307.77
375.402	318.4
375.783	310.03
376.163	326.76
376.544	311.62
376.925	326.76
377.305	324.27
377.686	328.56
378.066	335.34
378.447	329.92
378.827	332.18
379.208	347.1
379.588	331.05
379.968	329.24
380.349	347.77
380.729	330.6
381.109	328.11
381.489	333.31
381.87	334.67
382.25	321.11
382.63	346.64
383.01	367.66
383.39	349.58
383.77	347.1
384.15	340.32
384.53	343.93
384.91	349.36
385.29	335.8
385.67	340.99
386.049	341.9
386.429	369.69
386.809	330.15
387.189	350.26
387.568	341.67
387.948	347.77
388.328	351.39
388.707	341.45
389.087	348.9
389.466	356.81
389.846	352.97
390.225	380.54
390.605	376.7
390.984	350.03
391.363	373.31
391.743	358.85
392.122	342.58
392.501	389.81
392.881	373.99
393.26	384.61
393.639	373.76
394.018	358.17
394.397	363.59
394.776	366.53
395.155	375.12
395.534	385.74
395.913	400.88
396.292	385.96
396.671	393.42
397.05	383.93
397.429	392.97
397.808	390.48
398.186	399.75
398.565	410.37
398.944	397.72
399.323	403.37
399.701	400.43
400.08	402.91
400.458	427.77
400.837	426.87
401.215	416.02
401.594	418.05
401.972	423.7
402.351	428.9
402.729	415.12
403.107	426.19
403.486	435
403.864	416.7
404.242	447.43
404.62	414.89
404.999	446.08
405.377	463.93
405.755	451.27
406.133	469.8
406.511	461.44
406.889	488.33
407.267	472.74
407.645	483.59
408.023	491.72
408.401	487.88
408.779	506.19
409.156	517.26
409.534	499.86
409.912	506.87
410.29	528.79
410.667	524.94
411.045	557.94
411.422	547.99
411.8	569.69
412.178	584.6
412.555	586.19
412.933	588.22
413.31	596.58
413.687	596.81
414.065	624.83
414.442	616.24
414.819	618.95
415.197	628.67
415.574	657.37
415.951	656.69
416.328	664.15
416.705	693.07
417.082	681.55
417.46	685.39
417.837	694.88
418.214	695.33
418.591	692.62
418.967	693.98
419.344	715
419.721	743.24
420.098	742.11
420.475	761.55
420.852	745.05
421.228	773.3
421.605	776.69
421.982	794.77
422.358	816.24
422.735	802.9
423.111	828.89
423.488	865.27
423.864	849.23
424.241	896.46
424.617	913.63
424.994	926.52
425.37	930.58
425.746	929.23
426.123	958.6
426.499	970.13
426.875	973.97
427.251	1012.39
427.627	1018.49
428.003	995.21
428.379	1031.15
428.756	1052.16
429.132	1075.21
429.507	1069.34
429.883	1094.42
430.259	1097.81
430.635	1123.12
431.011	1117.7
431.387	1161.76
431.763	1168.54
432.138	1159.5
432.514	1212.38
432.89	1224.36
433.265	1232.95
433.641	1254.42
434.016	1266.17
434.392	1268.65
434.767	1322.21
435.143	1336
435.518	1363.11
435.894	1385.71
436.269	1420.97
436.644	1422.1
437.02	1458.25
437.395	1462.09
437.77	1532.37
438.145	1556.78
438.52	1575.99
438.895	1573.73
439.271	1580.28
439.646	1669.77
440.021	1654.41
440.395	1665.7
440.77	1685.82
441.145	1712.71
441.52	1729.43
441.895	1752.71
442.27	1733.95
442.645	1754.52
443.019	1802.88
443.394	1828.86
443.769	1838.13
444.143	1853.72
444.518	1892.37
444.892	1865.47
445.267	1893.04
445.641	1922.2
446.016	1952.48
446.39	1952.93
446.764	1938.47
447.139	1977.56
447.513	2004.9
447.887	2033.6
448.262	1997
448.636	2028.86
449.01	2067.5
449.384	2074.51
449.758	2081.29
450.132	2098.91
450.506	2126.48
450.88	2135.3
451.254	2138.69
451.628	2186.14
452.002	2220.49
452.376	2218.46
452.75	2277.67
453.123	2253.71
453.497	2275.18
453.871	2301.39
454.244	2339.59
454.618	2362.18
454.992	2413.93
455.365	2389.3
455.739	2427.04
456.112	2500.03
456.486	2485.34
456.859	2531.9
457.232	2546.36
457.606	2538
457.979	2609.63
458.352	2631.56
458.725	2672.91
459.099	2712.46
459.472	2742.06
459.845	2729.41
460.218	2770.31
460.591	2790.19
460.964	2815.51
461.337	2876.52
461.71	2896.86
462.083	2909.51
462.456	2940.93
462.829	2957.87
463.201	2996.97
463.574	3049.85
463.947	3072.22
464.32	3143.18
464.692	3130.98
465.065	3200.35
465.438	3253.01
465.81	3277.41
466.183	3306.57
466.555	3379.11
466.928	3366
467.3	3387.24
467.672	3448.26
468.045	3504.07
468.417	3499.1
468.789	3593.79
469.161	3588.37
469.534	3672.66
469.906	3702.94
470.278	3747.68
470.65	3805.31
471.022	3844.86
471.394	3879.88
471.766	3923.95
472.138	4007.56
472.51	4031.74
472.882	4123.49
473.253	4123.04
473.625	4200.1
473.997	4286.43
474.369	4276.94
474.74	4334.34
475.112	4391.28
475.484	4443.94
475.855	4539.08
476.227	4563.26
476.598	4669.02
476.97	4738.39
477.341	4800.09
477.713	4855
478.084	4916.24
478.455	4991.27
478.827	5042.79
479.198	5184.48
479.569	5170.25
479.94	5305.84
480.311	5362.56
480.682	5449.79
481.053	5494.76
481.424	5643
481.795	5680.51
482.166	5751.93
482.537	5811.58
482.908	5902.66
483.279	5946.04
483.65	6057
484.021	6153.5
484.391	6226.94
484.762	6264.23
485.133	6273.27
485.503	6394.85
485.874	6527.05
486.244	6527.5
486.615	6699.92
486.985	6712.8
487.356	6845.23
487.726	6904.21
488.097	6953.93
488.467	7060.59
488.837	7182.4
489.207	7138.33
489.578	7316.18
489.948	7336.06
490.318	7432.56
490.688	7414.48
491.058	7570.63
491.428	7623.51
491.798	7718.2
492.168	7818.54
492.538	7837.29
492.908	7963.39
493.278	8027.35
493.648	7985.99
494.017	8087.68
494.387	8172.2
494.757	8182.82
495.126	8241.58
495.496	8223.5
495.866	8329.71
496.235	8407.67
496.605	8452.42
496.974	8489.93
497.344	8573.32
497.713	8522.02
498.082	8741
498.452	8719.76
498.821	8664.84
499.19	8756.37
499.559	8770.15
499.928	8829.13
500.298	8923.82
500.667	8943.48
501.036	8832.52
501.405	8968.34
501.774	8976.47
502.143	9011.73
502.512	9037.26
502.88	9068.9
503.249	9131.27
503.618	9131.72
503.987	9141.89
504.356	9212.62
504.724	9218.5
505.093	9236.58
505.462	9246.07
505.83	9315.9
506.199	9334.2
506.567	9471.38
506.936	9366.07
507.304	9483.58
507.672	9472.05
508.041	9460.3
508.409	9584.59
508.777	9566.51
509.145	9609.9
509.514	9568.32
509.882	9639.05
510.25	9590.47
510.618	9622.11
510.986	9617.59
511.354	9745.49
511.722	9697.81
512.09	9852.16
512.458	9759.28
512.826	9807.19
513.193	9834.98
513.561	9806.28
513.929	9844.92
514.297	9903.91
514.664	9921.76
515.032	9900.74
515.4	9962.44
515.767	9925.83
516.135	9937.13
516.502	9884.7
516.869	10001.98
517.237	9965.83
517.604	9938.26
517.972	9975.09
518.339	9954.98
518.706	10021.42
519.073	10024.81
519.44	10068.42
519.808	10078.59
520.175	10020.97
520.542	10145.03
520.909	10110.45
521.276	10079.27
521.643	10105.48
522.009	10122.43
522.376	10217.34
522.743	10198.81
523.11	10172.6
523.477	10299.15
523.843	10287.17
524.21	10324.46
524.577	10335.53
524.943	10279.72
525.31	10333.5
525.676	10346.61
526.043	10343.89
526.409	10368.07
526.776	10395.64
527.142	10317
527.508	10303.44
527.874	10385.02
528.241	10363.78
528.607	10379.6
528.973	10349.77
529.339	10358.13
529.705	10413.5
530.071	10383.67
530.437	10426.6
530.803	10394.06
531.169	10345.02
531.535	10318.81
531.901	10286.04
532.267	10334.18
532.632	10314.06
532.998	10328.53
533.364	10342.76
533.73	10258.93
534.095	10312.94
534.461	10346.15
534.826	10268.87
535.192	10240.39
535.557	10214.86
535.923	10271.13
536.288	10161.75
536.653	10155.43
537.019	10076.11
537.384	10129.21
537.749	10100.96
538.114	10103.22
538.479	10053.28
538.845	9991.14
539.21	9921.31
539.575	9940.29
539.94	9911.59
540.305	9918.82
540.67	9835.89
541.034	9860.52
541.399	9871.82
541.764	9811.25
542.129	9785.72
542.494	9782.1
542.858	9734.42
543.223	9635.21
543.587	9676.79
543.952	9758.37
544.316	9663.46
544.681	9642.44
545.045	9495.56
545.41	9541.88
545.774	9574.2
546.138	9497.59
546.503	9465.5
546.867	9460.53
547.231	9369.91
547.595	9347.08
547.959	9363.36
548.324	9335.56
548.688	9366.97
549.052	9336.69
549.416	9258.95
549.779	9274.09
550.143	9240.19
550.507	9232.51
550.871	9211.5
551.235	9083.14
551.599	9083.14
551.962	9105.28
552.326	9120.42
552.689	9065.96
553.053	9006.53
553.417	9009.92
553.78	9042.01
554.143	9003.36
554.507	9005.85
554.87	8968.56
555.234	8964.95
555.597	8848.11
555.96	8969.24
556.323	8932.63
556.686	8877.49
557.05	8938.06
557.413	8854.67
557.776	8814.44
558.139	8895.35
558.502	8840.66
558.865	8781
559.228	8820.32
559.59	8836.14
559.953	8769.47
560.316	8820.77
560.679	8772.64
561.041	8845.18
561.404	8880.88
561.767	8832.3
562.129	8811.05
562.492	8824.61
562.854	8821.67
563.217	8808.34
563.579	8786.2
563.941	8867.32
564.304	8810.38
564.666	8806.08
565.028	8888.34
565.39	8865.97
565.753	8856.02
566.115	8772.86
566.477	8850.37
566.839	8866.19
567.201	8881.56
567.563	8849.92
567.925	8881.33
568.287	8921.33
568.648	8960.43
569.01	8911.16
569.372	8915.46
569.734	8916.81
570.095	8949.58
570.457	8966.3
570.819	9001.56
571.18	9003.59
571.542	9027.55
571.903	8978.28
572.265	9036.36
572.626	9057.83
572.987	9044.04
573.349	9021.22
573.71	9049.47
574.071	9044.04
574.432	9099.63
574.794	9139.41
575.155	9122.23
575.516	9097.6
575.877	9093.31
576.238	9145.96
576.599	9089.69
576.96	9098.5
577.32	9209.69
577.681	9223.47
578.042	9225.05
578.403	9162.91
578.763	9139.86
579.124	9209.46
579.485	9241.1
579.845	9252.85
580.206	9242.45
580.566	9219.18
580.927	9250.14
581.287	9321.1
581.648	9176.02
582.008	9285.17
582.368	9260.99
582.728	9301.44
583.089	9272.51
583.449	9293.98
583.809	9284.71
584.169	9271.83
584.529	9267.31
584.889	9295.79
585.249	9334.88
585.609	9322.68
585.969	9294.2
586.329	9326.52
586.688	9329.01
587.048	9331.94
587.408	9303.24
587.768	9343.02
588.127	9352.51
588.487	9315.22
588.846	9352.96
589.206	9290.59
589.565	9315.22
589.925	9391.15
590.284	9375.56
590.643	9338.27
591.003	9389.12
591.362	9428.89
591.721	9300.98
592.08	9342.79
592.44	9472.28
592.799	9379.85
593.158	9330.14
593.517	9411.04
593.876	9383.02
594.235	9322
594.593	9420.76
594.952	9424.14
595.311	9401.09
595.67	9397.25
596.029	9456.23
596.387	9477.02
596.746	9488.1
597.104	9403.13
597.463	9432.05
597.822	9481.09
598.18	9423.47
598.538	9416.69
598.897	9492.84
599.255	9416.24
599.613	9514.09
599.972	9422.79
600.33	9493.97
600.688	9475.22
601.046	9474.99
601.404	9425.05
601.762	9414.88
602.12	9499.85
602.478	9508.21
602.836	9506.63
603.194	9425.27
603.552	9487.65
603.91	9442
604.268	9440.64
604.625	9460.08
604.983	9510.02
605.341	9359.06
605.698	9486.97
606.056	9536.01
606.413	9454.2
606.771	9502.56
607.128	9538.27
607.485	9475.22
607.843	9508.89
608.2	9522.45
608.557	9567.64
608.914	9582.33
609.272	9554.76
609.629	9579.62
609.986	9614.65
610.343	9524.26
610.7	9627.76
611.057	9594.76
611.414	9553.86
611.771	9599.73
612.127	9624.59
612.484	9608.77
612.841	9715.21
613.198	9552.05
613.554	9613.97
613.911	9646.96
614.267	9694.87
614.624	9672.27
614.98	9612.84
615.337	9639.73
615.693	9658.04
616.05	9673.86
616.406	9736.45
616.762	9639.28
617.118	9749.11
617.475	9651.03
617.831	9786.17
618.187	9719.73
618.543	9744.14
618.899	9723.57
619.255	9689
619.611	9769.67
619.967	9672.05
620.323	9810.58
620.678	9746.85
621.034	9765.83
621.39	9764.93
621.746	9769.22
622.101	9760.63
622.457	9729.9
622.812	9787.98
623.168	9879.5
623.523	9772.16
623.879	9847.86
624.234	9708.66
624.589	9761.76
624.945	9779.39
625.3	9844.25
625.655	9757.47
626.01	9815.32
626.365	9714.98
626.72	9728.77
627.075	9786.85
627.43	9741.88
627.785	9803.12
628.14	9757.47
628.495	9709.34
628.85	9679.51
629.205	9731.71
629.559	9751.82
629.914	9694.42
630.269	9712.5
630.623	9678.6
630.978	9657.13
631.332	9717.47
631.687	9666.85
632.041	9647.19
632.396	9716.34
632.75	9642.44
633.104	9671.14
633.459	9677.7
633.813	9569.23
634.167	9636.34
634.521	9575.55
634.875	9574.42
635.229	9598.15
635.583	9566.51
635.937	9513.86
636.291	9481.77
636.645	9475.22
636.999	9475.44
637.352	9507.08
637.706	9460.53
638.06	9456.69
638.413	9467.31
638.767	9482.9
639.121	9459.62
639.474	9428.44
639.828	9427.99
640.181	9349.12
640.534	9429.34
640.888	9355.22
641.241	9333.75
641.594	9363.81
641.947	9377.82
642.301	9347.99
642.654	9322.9
643.007	9384.37
643.36	9306.86
643.713	9333.07
644.066	9317.48
644.419	9319.06
644.771	9228.67
645.124	9177.15
645.477	9113.19
645.83	9116.81
646.182	9056.92
646.535	9056.24
646.888	9102.8
647.24	8942.12
647.593	9056.24
647.945	9041.33
648.298	9019.86
648.65	8943.93
649.002	8942.12
649.355	8953.42
649.707	8990.03
650.059	9014.66
650.411	9194.09
650.763	9176.92
651.115	9206.07
651.467	9228.9
651.819	9158.62
652.171	9260.76
652.523	9142.34
652.875	9177.82
653.227	9126.3
653.578	9223.47
653.93	9187.99
654.282	9156.36
654.633	9174.89
654.985	9173.53
655.337	9174.89
655.688	9160.42
656.039	9194.77
656.391	9158.39
656.742	9205.39
657.094	9184.38
657.445	9221.89
657.796	9230.7
658.147	9204.49
658.498	9191.83
658.849	9198.61
659.2	9214.66
659.551	9137.15
659.902	9244.04
660.253	9185.06
660.604	9263.7
660.955	9198.61
661.306	9249.23
661.656	9271.38
662.007	9214.43
662.358	9249.69
662.708	9226.86
663.059	9245.39
663.409	9177.15
663.76	9252.62
664.11	9242
664.461	9237.48
664.811	9284.26
665.161	9230.25
665.511	9236.35
665.862	9291.27
666.212	9300.76
666.562	9236.35
666.912	9243.81
667.262	9289.23
667.612	9190.93
667.962	9228.44
668.312	9178.95
668.662	9271.83
669.011	9294.66
669.361	9244.49
669.711	9239.52
670.06	9237.71
670.41	9205.85
670.76	9182.8
671.109	9276.35
671.459	9172.63
671.808	9155.68
672.157	9265.5
672.507	9155.45
672.856	9148.67
673.205	9197.26
673.554	9275.45
673.904	9164.04
674.253	9185.73
674.602	9152.74
674.951	9051.73
675.3	8987.55
675.649	9163.13
675.998	9014.89
676.346	9052.4
676.695	9091.95
677.044	9098.5
677.393	9078.39
677.741	9088.56
678.09	9062.57
678.438	8999.3
678.787	9013.76
679.135	9011.5
679.484	8994.1
679.832	8996.81
680.181	8905.06
680.529	8927.43
680.877	8877.94
681.225	8940.09
681.573	8987.77
681.922	8871.39
682.27	8857.83
682.618	8866.42
682.966	8815.35
683.314	8879.3
683.661	8788.23
684.009	8770.6
684.357	8795.91
684.705	8751.85
685.053	8767.44
685.4	8771.51
685.748	8679.31
686.095	8715.24
686.443	8644.96
686.79	8661
687.138	8624.62
687.485	8627.33
687.832	8639.08
688.18	8572.64
688.527	8576.48
688.874	8602.92
689.221	8518.41
689.568	8462.36
689.915	8499.2
690.262	8456.94
690.609	8450.84
690.956	8376.04
691.303	8344.17
691.65	8328.81
691.997	8322.25
692.344	8316.83
692.69	8276.83
693.037	8270.05
693.383	8197.06
693.73	8251.75
694.077	8125.42
694.423	8164.06
694.769	8079.55
695.116	8103.73
695.462	8104.86
695.808	8026.44
696.155	8032.09
696.501	7897.63
696.847	7994.8
697.193	7879.33
697.539	7919.55
697.885	7797.29
698.231	7807.46
698.577	7794.81
698.923	7825.99
699.269	7756.62
699.614	7659.9
699.96	7628.94
700.306	7646.79
700.651	7665.1
700.997	7620.58
701.342	7600.46
701.688	7547.36
702.033	7552.78
702.379	7534.7
702.724	7457.42
703.069	7495.38
703.415	7391.2
703.76	7400.7
704.105	7434.14
704.45	7350.3
704.795	7341.71
705.14	7327.02
705.485	7283.41
705.83	7252.22
706.175	7244.54
706.52	7261.04
706.865	7173.36
707.209	7196.41
707.554	7146.01
707.899	7171.32
708.243	7150.31
708.588	7118.22
708.932	7103.3
709.277	7097.88
709.621	7094.49
709.966	7009.75
710.31	7092.68
710.654	6948.96
710.998	6931.1
711.342	6949.18
711.687	6903.08
712.031	6960.03
712.375	6913.48
712.719	6923.65
713.063	6909.63
713.407	6914.15
713.75	6871.9
714.094	6826.7
714.438	6838.45
714.782	6782.41
715.125	6788.73
715.469	6798.68
715.812	6721.62
716.156	6757.1
716.499	6783.31
716.843	6741.96
717.186	6745.8
717.53	6706.7
717.873	6733.14
718.216	6710.32
718.559	6657.44
718.902	6720.04
719.246	6654.95
719.589	6590.55
719.932	6635.74
720.275	6631
720.617	6585.35
720.96	6625.12
721.303	6602.07
721.646	6576.76
721.989	6582.64
722.331	6592.35
722.674	6632.13
723.016	6590.55
723.359	6549.19
723.701	6580.15
724.044	6505.13
724.386	6534.96
724.729	6558.46
725.071	6547.84
725.413	6559.59
725.755	6541.51
726.097	6426.03
726.439	6444.56
726.782	6442.98
727.124	6524.56
727.465	6491.79
727.807	6470.78
728.149	6459.7
728.491	6468.29
728.833	6501.51
729.175	6449.53
729.516	6462.64
729.858	6421.74
730.199	6468.74
730.541	6507.16
730.882	6450.21
731.224	6470.78
731.565	6437.78
731.906	6420.83
732.248	6464.45
732.589	6432.59
732.93	6387.39
733.271	6399.14
733.612	6454.28
733.953	6427.61
734.294	6478.91
734.635	6415.18
734.976	6453.38
735.317	6466.03
735.658	6461.51
735.999	6400.72
736.339	6411.12
736.68	6408.18
737.021	6453.83
737.361	6409.99
737.702	6432.13
738.042	6467.39
738.383	6418.35
738.723	6503.54
739.063	6498.57
739.404	6539.93
739.744	6484.79
740.084	6487.27
740.424	6512.81
740.764	6531.57
741.104	6581.06
741.444	6553.49
741.784	6513.49
742.124	6550.1
742.464	6591.45
742.804	6587.16
743.143	6619.7
743.483	6626.93
743.823	6621.51
744.162	6623.99
744.502	6695.18
744.841	6687.95
745.181	6810.2
745.52	6722.52
745.86	6800.49
746.199	6822.41
746.538	6842.29
746.877	6927.26
747.216	6920.26
747.556	6952.57
747.895	7026.69
748.234	7073.92
748.573	7109.18
748.911	7191.21
749.25	7220.59
749.589	7242.51
749.928	7323.64
750.267	7371.54
750.605	7456.51
750.944	7518.66
751.283	7550.97
751.621	7667.35
751.96	7772.44
752.298	7815.37
752.636	7936.5
752.975	8015.82
753.313	8029.61
753.651	8197.74
753.989	8257.4
754.327	8390.05
754.666	8408.13
755.004	8604.05
755.342	8747.33
755.679	8827.78
756.017	8912.97
756.355	9045.17
756.693	9192.29
757.031	9329.91
757.368	9441.55
757.706	9639.96
758.044	9724.25
758.381	9950.68
758.719	10056.67
759.056	10240.85
759.394	10324.91
759.731	10450.78
760.068	10608.75
760.405	10812.13
760.743	10965.12
761.08	11071.33
761.417	11262.29
761.754	11433.58
762.091	11607.14
762.428	11781.82
762.765	11843.97
763.102	12129.16
763.438	12317.18
763.775	12406.44
764.112	12648.92
764.449	12854.11
764.785	12935.69
765.122	13139.3
765.458	13224.27
765.795	13413.19
766.131	13558.95
766.467	13790.81
766.804	13889.34
767.14	14052.95
767.476	14167.3
767.812	14301.53
768.148	14422.66
768.485	14667.4
768.821	14698.81
769.157	14785.81
769.492	15024.45
769.828	15117.55
770.164	15155.75
770.5	15348.73
770.836	15565
771.171	15474.16
771.507	15641.16
771.842	15688.61
772.178	15801.6
772.513	16001.37
772.849	16094.93
773.184	16147.58
773.519	16280.46
773.855	16283.17
774.19	16363.17
774.525	16455.6
774.86	16552.77
775.195	16643.62
775.53	16768.81
775.865	16769.94
776.2	16837.96
776.535	16800.22
776.87	16884.97
777.205	17010.84
777.539	16974.23
777.874	17051.06
778.209	17082.02
778.543	17027.56
778.878	17005.19
779.212	17165.41
779.547	17180.33
779.881	17214.45
780.215	17260.55
780.55	17299.64
780.884	17301.45
781.218	17313.65
781.552	17465.74
781.886	17446.98
782.22	17305.07
782.554	17343.48
782.888	17218.52
783.222	17211.51
783.556	17354.56
783.889	17333.99
784.223	17311.4
784.557	17310.04
784.89	17412.41
785.224	17294.67
785.557	17218.74
785.891	17336.48
786.224	17411.73
786.558	17296.48
786.891	17193.21
787.224	17187.78
787.557	17195.69
787.891	17188.23
788.224	17188.91
788.557	17241.79
788.89	17203.38
789.223	17258.74
789.556	17218.06
789.888	17092.64
790.221	17105.3
790.554	16990.27
790.887	17023.95
791.219	16981.01
791.552	16828.02
791.884	16873.44
792.217	16942.59
792.549	16964.51
792.882	16835.7
793.214	16751.64
793.546	16894.91
793.879	16812.65
794.211	16624.18
794.543	16843.16
794.875	16689.72
795.207	16799.09
795.539	16607.68
795.871	16683.39
796.203	16497.41
796.535	16473
796.867	16537.63
797.198	16498.54
797.53	16479.33
797.862	16410.4
798.193	16513
798.525	16348.48
798.856	16330.4
799.188	16201.14
799.519	16203.4
799.85	16127.47
800.182	16226.23
800.513	16055.83
800.844	16047.47
801.175	16232.33
801.506	16162.27
801.837	16026.01
802.168	16008.6
802.499	15861.26
802.83	15838.67
803.161	15857.65
803.491	15816.75
803.822	15797.99
804.153	15707.37
804.483	15639.12
804.814	15644.32
805.145	15601.61
805.475	15650.65
805.805	15513.93
806.136	15588.73
806.466	15487.49
806.796	15492.01
807.126	15354.61
807.457	15390.54
807.787	15426.7
808.117	15372.24
808.447	15266.25
808.777	15304.67
809.107	15267.61
809.436	15228.06
809.766	15208.63
810.096	15129.76
810.426	15175.63
810.755	15175.86
811.085	15126.82
811.414	15060.61
811.744	14935.64
812.073	14963.66
812.403	15018.8
812.732	14901.06
813.061	14801.18
813.39	14799.82
813.719	14777
814.049	14923.66
814.378	14820.84
814.707	14752.37
815.036	14713.5
815.365	14603.44
815.693	14509.43
816.022	14610.22
816.351	14467.63
816.68	14548.98
817.008	14580.17
817.337	14395.09
817.665	14495.88
817.994	14502.43
818.322	14390.34
818.651	14423.34
818.979	14365.48
819.307	14413.17
819.636	14354.64
819.964	14276.9
820.292	14284.58
820.62	14319.38
820.948	14283.68
821.276	14315.09
821.604	14205.49
821.932	14294.07
822.259	14347.63
822.587	14273.96
822.915	14176.11
823.243	14258.37
823.57	14292.27
823.898	14201.87
824.225	14202.78
824.553	14250.68
824.88	14181.08
825.207	14365.26
825.535	14254.75
825.862	14318.48
826.189	14231.02
826.516	14310.34
826.843	14346.73
827.17	14334.98
827.497	14300.4
827.824	14254.07
828.151	14428.08
828.478	14294.07
828.805	14336.33
829.131	14332.26
829.458	14266.28
829.785	14220.85
830.111	14298.82
830.438	14322.55
830.764	14283.23
831.09	14353.05
831.417	14193.51
831.743	14271.7
832.069	14337.69
832.395	14223.57
832.722	14169.56
833.048	14229.67
833.374	14288.88
833.7	14193.06
834.026	14210.91
834.351	14213.85
834.677	14184.02
835.003	14212.49
835.329	14154.64
835.654	14200.74
835.98	14055.21
836.306	14153.74
836.631	14056.34
836.956	14106.06
837.282	14103.12
837.607	14120.52
837.932	13988.32
838.258	14020.41
838.583	14012.05
838.908	13946.96
839.233	13934.53
839.558	13880.52
839.883	13859.51
840.208	13803.46
840.533	13870.13
840.858	13822.9
841.182	13828.55
841.507	13762.79
841.832	13790.36
842.156	13713.3
842.481	13745.61
842.805	13656.12
843.13	13660.64
843.454	13626.75
843.778	13594.88
844.103	13545.62
844.427	13520.53
844.751	13485.73
845.075	13487.77
845.399	13432.4
845.723	13373.19
846.047	13332.29
846.371	13199.64
846.695	13215.01
847.019	13158.28
847.343	13053.65
847.666	12997.16
847.99	12957.39
848.313	12987.44
848.637	12923.71
848.96	12846.65
849.284	12914.9
849.607	12835.35
849.931	12642.82
850.254	12647.11
850.577	12636.94
850.9	12516.04
851.223	12493.89
851.546	12529.37
851.869	12351.07
852.192	12420.9
852.515	12265.88
852.838	12257.29
853.161	12278.08
853.483	12100.01
853.806	12206.22
854.129	12122.15
854.451	12049.39
854.774	12078.31
855.096	12002.61
855.419	11977.75
855.741	11973.23
856.063	11849.17
856.385	11789.28
856.708	11770.3
857.03	11708.6
857.352	11796.06
857.674	11667.48
857.996	11673.13
858.318	11579.79
858.64	11621.83
858.961	11559
859.283	11533.02
859.605	11446.92
859.926	11477.88
860.248	11423.87
860.57	11446.01
860.891	11427.93
861.212	11387.26
861.534	11381.83
861.855	11276.07
862.176	11315.62
862.498	11309.29
862.819	11322.85
863.14	11201.27
863.461	11165.79
863.782	11133.25
864.103	11196.98
864.424	11138.22
864.745	11154.27
865.065	11082.86
865.386	11016.42
865.707	11080.82
866.027	11095.97
866.348	11090.09
866.668	10979.58
866.989	11009.64
867.309	10869.53
867.63	11007.15
867.95	10907.5
868.27	10831.79
868.59	10913.15
868.91	10836.31
869.23	10809.87
869.55	10785.46
869.87	10852.81
870.19	10796.09
870.51	10794.96
870.83	10800.38
871.15	10709.99
871.469	10674.06
871.789	10753.83
872.109	10669.31
872.428	10568.97
872.748	10611.01
873.067	10594.51
873.386	10630.21
873.706	10601.74
874.025	10604.45
874.344	10572.36
874.663	10537.56
874.982	10519.94
875.301	10587.05
875.62	10518.13
875.939	10505.25
876.258	10495.76
876.577	10378.24
876.896	10493.95
877.214	10375.08
877.533	10387.96
877.852	10351.35
878.17	10454.17
878.489	10390.45
878.807	10405.59
879.125	10373.5
879.444	10372.82
879.762	10301.64
880.08	10320.84
880.398	10231.36
880.716	10248.53
881.034	10161.53
881.352	10235.2
881.67	10194.07
881.988	10120.4
882.306	10132.37
882.624	10108.19
882.941	10086.73
883.259	10067.97
883.577	10030.23
883.894	9983.9
884.212	9979.84
884.529	9972.83
884.846	9910.46
885.164	9967.18
885.481	9919.5
885.798	9783.23
886.115	9816.45
886.432	9793.17
886.75	9795.89
887.067	9811.48
887.383	9729
887.7	9753.18
888.017	9766.28
888.334	9740.52
888.651	9670.47
888.967	9624.59
889.284	9572.84
889.6	9583.46
889.917	9500.08
890.233	9571.49
890.55	9534.88
890.866	9477.93
891.182	9485.39
891.498	9413.52
891.815	9366.29
892.131	9358.84
892.447	9351.15
892.763	9328.33
893.079	9250.59
893.395	9232.51
893.71	9268.44
894.026	9193.42
894.342	9236.35
894.657	9156.58
894.973	9124.72
895.289	9115
895.604	9098.5
895.92	9022.8
896.235	9020.31
896.55	8997.04
896.865	8973.99
897.181	8935.34
897.496	8914.33
897.811	8857.61
898.126	8816.7
898.441	8765.18
898.756	8740.1
899.071	8674.56
899.386	8646.54
899.7	8610.38
900.015	8631.85
900.33	8509.82
900.644	8517.95
900.959	8520.67
901.273	8470.5
901.588	8479.99
901.902	8434.11
902.216	8402.25
902.531	8417.62
902.845	8384.62
903.159	8331.74
903.473	8280.67
903.787	8246.55
904.101	8228.47
904.415	8163.39
904.729	8123.39
905.042	8070.06
905.356	8019.66
905.67	8050.85
905.984	8054.24
906.297	8045.65
906.611	7984.41
906.924	7936.27
907.237	7952.09
907.551	7842.27
907.864	7862.83
908.177	7809.5
908.491	7780.12
908.804	7736.51
909.117	7638.2
909.43	7662.16
909.743	7634.81
910.056	7564.98
910.368	7601.59
910.681	7546.23
910.994	7506
911.307	7467.59
911.619	7445.89
911.932	7493.8
912.244	7343.52
912.557	7387.59
912.869	7324.54
913.181	7367.7
913.494	7299.68
913.806	7277.99
914.118	7164.54
914.43	7144.43
914.742	7157.09
915.054	7115.05
915.366	7135.39
915.678	7106.47
915.99	7008.62
916.302	6985.56
916.613	6929.07
916.925	6907.83
917.236	6965.23
917.548	6893.36
917.859	6892.69
918.171	6806.81
918.482	6826.93
918.794	6726.14
919.105	6772.46
919.416	6725.23
919.727	6759.36
920.038	6614.28
920.349	6659.47
920.66	6653.37
920.971	6628.29
921.282	6539.7
921.593	6580.38
921.903	6475.07
922.214	6517.78
922.525	6457.67
922.835	6442.53
923.146	6357.56
923.456	6365.69
923.767	6407.5
924.077	6365.02
924.387	6328.86
924.697	6216.09
925.008	6211.12
925.318	6273.27
925.628	6228.75
925.938	6207.28
926.248	6115.08
926.558	6148.3
926.867	6134.06
927.177	6060.62
927.487	6022.65
927.796	6033.73
928.106	6013.39
928.416	5912.37
928.725	5960.96
929.034	5918.7
929.344	5962.09
929.653	5873.73
929.962	5832.83
930.271	5788.99
930.581	5813.84
930.89	5793.05
931.199	5728.42
931.508	5748.31
931.817	5762.77
932.125	5717.35
932.434	5690.23
932.743	5682.77
933.051	5643.23
933.36	5624.24
933.669	5530.69
933.977	5585.6
934.286	5580.4
934.594	5532.5
934.902	5471.25
935.21	5469.67
935.519	5445.72
935.827	5393.97
936.135	5393.74
936.443	5315.55
936.751	5335.44
937.059	5355.78
937.367	5354.2
937.674	5330.02
937.982	5271.71
938.29	5255.89
938.597	5244.59
938.905	5172.51
939.213	5163.92
939.52	5118.95
939.827	5174.99
940.135	5092.73
940.442	5056.8
940.749	5059.51
941.056	5079.17
941.363	5001.44
941.67	4990.14
941.977	4952.17
942.284	4969.8
942.591	4956.69
942.898	4879.86
943.205	4906.98
943.511	4844.83
943.818	4858.16
944.125	4820.88
944.431	4765.06
944.738	4813.42
945.044	4778.84
945.35	4738.84
945.657	4688
945.963	4696.13
946.269	4709.01
946.575	4671.28
946.881	4642.8
947.187	4641.45
947.493	4615.23
947.799	4605.97
948.105	4552.41
948.41	4512.18
948.716	4533.2
949.022	4533.2
949.327	4534.56
949.633	4412.98
949.938	4447.33
950.244	4470.15
950.549	4403.49
950.854	4371.62
951.16	4363.03
951.465	4385.86
951.77	4334.79
952.075	4294.11
952.38	4334.56
952.685	4320.78
952.99	4266.99
953.294	4185.64
953.599	4221.8
953.904	4225.64
954.209	4168.92
954.513	4183.15
954.818	4134.57
955.122	4088.47
955.426	4159.42
955.731	4096.38
956.035	4077.84
956.339	4090.73
956.643	4072.2
956.948	4024.51
957.252	4064.06
957.556	3997.85
957.86	3937.96
958.163	3982.71
958.467	3946.77
958.771	3960.33
959.075	3909.71
959.378	3888.7
959.682	3892.76
959.985	3887.12
960.289	3882.82
960.592	3817.51
960.896	3845.31
961.199	3800.79
961.502	3773.67
961.805	3760.34
962.108	3753.33
962.411	3713.11
962.714	3698.65
963.017	3687.57
963.32	3706.33
963.623	3682.15
963.926	3668.14
964.228	3609.61
964.531	3634.47
964.833	3623.39
965.136	3574.58
965.438	3562.6
965.741	3549.5
966.043	3572.55
966.345	3516.96
966.648	3519.89
966.95	3542.49
967.252	3493
967.554	3493.45
967.856	3458.65
968.158	3418.2
968.46	3399.67
968.761	3372.55
969.063	3399.67
969.365	3383.17
969.666	3414.36
969.968	3354.47
970.269	3335.72
970.571	3329.62
970.872	3322.38
971.174	3284.19
971.475	3272.67
971.776	3288.26
972.077	3226.12
972.378	3242.61
972.679	3249.39
972.98	3220.69
973.281	3206.91
973.582	3185.66
973.883	3187.7
974.183	3149.06
974.484	3150.86
974.785	3137.76
975.085	3126.46
975.386	3106.57
975.686	3117.19
975.986	3078.55
976.287	3076.74
976.587	3093.69
976.887	3012.79
977.187	3008.04
977.487	3034.93
977.787	2984.31
978.087	2977.53
978.387	2947.93
978.687	2966.46
978.987	2954.26
979.286	2922.85
979.586	2887.59
979.885	2870.87
980.185	2869.51
980.484	2870.42
980.784	2877.2
981.083	2847.37
981.382	2851.66
981.682	2817.09
981.981	2837.43
982.28	2773.02
982.579	2772.34
982.878	2774.6
983.177	2777.77
983.475	2770.31
983.774	2749.74
984.073	2695.06
984.372	2709.97
984.67	2697.09
984.969	2703.87
985.267	2684.44
985.566	2698.45
985.864	2648.73
986.162	2633.36
986.461	2614.38
986.759	2623.65
987.057	2622.29
987.355	2631.78
987.653	2570.77
987.951	2585.45
988.249	2582.52
988.547	2560.82
988.844	2531.9
989.142	2520.6
989.44	2512.46
989.737	2477.89
990.035	2490.09
990.332	2469.07
990.63	2482.18
990.927	2493.71
991.224	2436.76
991.521	2452.12
991.819	2428.62
992.116	2432.46
992.413	2440.15
992.71	2391.79
993.006	2371
993.303	2375.29
993.6	2368.96
993.897	2319.7
994.193	2371.45
994.49	2326.03
994.787	2300.04
995.083	2313.6
995.379	2292.58
995.676	2292.35
995.972	2277.44
996.268	2296.2
996.565	2223.88
996.861	2255.29
997.157	2218.01
997.453	2213.71
997.749	2202.64
998.044	2172.81
998.34	2164.45
998.636	2139.36
998.932	2135.75
999.227	2145.69
999.523	2150.44
999.818	2121.29
1000.114	2117.22
1000.409	2093.72
1000.704	2079.25
1001	2086.26
1001.295	2102.76
1001.59	2074.96
1001.885	2089.42
1002.18	2011.23
1002.475	2006.71
1002.77	2043.32
1003.065	2027.28
1003.359	1983.66
1003.654	1976.88
1003.949	1991.57
1004.243	1933.72
1004.538	1925.81
1004.832	1942.99
1005.127	1924.91
1005.421	1921.74
1005.715	1894.4
1006.009	1914.29
1006.304	1867.06
1006.598	1900.5
1006.892	1845.14
1007.186	1846.72
1007.48	1854.63
1007.773	1840.84
1008.067	1836.1
1008.361	1822.76
1008.655	1812.59
1008.948	1795.64
1009.242	1747.28
1009.535	1778.7
1009.829	1758.58
1010.122	1781.63
1010.415	1751.35
1010.708	1725.36
1011.001	1707.51
1011.295	1703.22
1011.588	1714.07
1011.881	1695.76
1012.173	1696.44
1012.466	1684.24
1012.759	1665.03
1013.052	1679.72
1013.344	1630.68
1013.637	1647.85
1013.93	1626.84
1014.222	1610.11
1014.514	1623.22
1014.807	1598.81
1015.099	1597.91
1015.391	1564.46
1015.683	1558.36
1015.976	1532.6
1016.268	1541.19
1016.56	1509.1
1016.851	1548.65
1017.143	1518.36
1017.435	1531.7
1017.727	1469.55
1018.018	1499.16
1018.31	1453.51
1018.602	1471.13
1018.893	1453.51
1019.185	1459.83
1019.476	1417.8
1019.767	1426.62
1020.058	1438.59
1020.35	1430
1020.641	1394.07
1020.932	1406.73
1021.223	1405.15
1021.514	1429.55
1021.804	1353.62
1022.095	1347.97
1022.386	1358.37
1022.677	1328.99
1022.967	1334.64
1023.258	1318.6
1023.548	1312.27
1023.839	1305.26
1024.129	1309.33
1024.419	1287.41
1024.709	1284.92
1025	1251.7
1025.29	1285.38
1025.58	1267.3
1025.87	1248.77
1026.16	1224.59
1026.449	1262.33
1026.739	1232.95
1027.029	1228.43
1027.319	1192.5
1027.608	1207.19
1027.898	1205.6
1028.187	1183.01
1028.477	1222.78
1028.766	1170.35
1029.055	1177.13
1029.344	1150.46
1029.634	1134.42
1029.923	1133.06
1030.212	1151.59
1030.501	1132.84
1030.79	1106.85
1031.078	1116.34
1031.367	1080.41
1031.656	1107.08
1031.945	1105.04
1032.233	1093.52
1032.522	1081.77
1032.81	1079.73
1033.099	1074.31
1033.387	1074.08
1033.675	1046.96
1033.963	1048.55
1034.251	1043.35
1034.54	1014.2
1034.828	1004.48
1035.116	990.69
1035.403	1016.91
1035.691	1017.81
1035.979	1000.41
1036.267	989.11
1036.554	990.02
1036.842	974.2
1037.129	973.07
1037.417	972.16
1037.704	955.89
1037.992	970.13
1038.279	909.34
1038.566	943.24
1038.853	943.24
1039.14	943.24
