Data from hue_170_FLMS001491_00015.txt Node
Date: Tue Feb 07 16:48:19 GMT 2017
User: dcchb
Spectrometer: FLMS00149
Trigger mode: 0
Integration Time (sec): 2.000000E-2
Scans to average: 10
Electric dark correction enabled: true
Nonlinearity correction enabled: false
Boxcar width: 0
XAxis mode: Wavelengths
Number of Pixels in Spectrum: 2048
>>>>>Begin Spectral Data<<<<<
341.393	7.54
341.776	7.54
342.16	7.54
342.543	-73.13
342.927	-77.2
343.31	-59.57
343.693	-80.14
344.077	-63.87
344.46	-77.65
344.843	-55.51
345.226	-39.01
345.61	-28.39
345.993	-27.94
346.376	-15.06
346.759	17.94
347.142	29.46
347.525	39.18
347.908	71.72
348.291	72.63
348.674	94.09
349.057	122.12
349.44	140.87
349.823	112.85
350.206	160.31
350.588	190.59
350.971	210.47
351.354	229.01
351.737	248.44
352.119	265.16
352.502	254.32
352.884	274.88
353.267	309
353.65	301.55
354.032	297.03
354.414	307.87
354.797	303.81
355.179	330.7
355.562	331.38
355.944	340.41
356.326	325.5
356.709	345.61
357.091	334.31
357.473	347.42
357.855	372.5
358.238	362.79
358.62	362.79
359.002	331.38
359.384	344.93
359.766	354.88
360.148	358.95
360.53	336.35
360.912	349.45
361.294	353.75
361.676	330.02
362.057	326.18
362.439	353.52
362.821	339.28
363.203	344.93
363.584	346.97
363.966	334.09
364.348	338.61
364.729	351.49
365.111	316.69
365.493	321.66
365.874	336.57
366.256	318.04
366.637	311.49
367.019	308.78
367.4	332.73
367.781	317.59
368.163	320.3
368.544	318.27
368.925	297.48
369.306	353.97
369.688	349.23
370.069	324.14
370.45	309.46
370.831	295.9
371.212	326.18
371.593	311.26
371.974	297.7
372.355	313.52
372.736	314.65
373.117	313.3
373.498	326.63
373.879	329.79
374.26	308.78
374.641	311.04
375.021	309.46
375.402	347.87
375.783	335.67
376.163	331.6
376.544	359.17
376.925	355.33
377.305	335.22
377.686	331.6
378.066	326.18
378.447	326.4
378.827	335.22
379.208	334.99
379.588	341.54
379.968	337.7
380.349	338.15
380.729	322.79
381.109	323.01
381.489	348.32
381.87	325.5
382.25	333.41
382.63	334.54
383.01	347.42
383.39	358.95
383.77	351.94
384.15	345.16
384.53	349
384.91	355.78
385.29	357.82
385.67	357.59
386.049	339.06
386.429	352.84
386.809	361.88
387.189	341.77
387.568	356.46
387.948	366.85
388.328	365.05
388.707	360.3
389.087	361.88
389.466	363.24
389.846	370.92
390.225	351.71
390.605	373.86
390.984	364.14
391.363	379.51
391.743	376.8
392.122	374.54
392.501	380.19
392.881	378.38
393.26	370.47
393.639	385.61
394.018	388.32
394.397	386.97
394.776	370.7
395.155	374.09
395.534	394.2
395.913	396.91
396.292	401.43
396.671	399.85
397.05	409.79
397.429	398.72
397.808	409.11
398.186	412.5
398.565	396.23
398.944	411.6
399.323	400.53
399.701	431.94
400.08	392.62
400.458	396.01
400.837	417.47
401.215	416.12
401.594	435.78
401.972	419.06
402.351	393.75
402.729	415.67
403.107	402.79
403.486	434.2
403.864	428.55
404.242	428.1
404.62	416.12
404.999	437.81
405.377	427.42
405.755	428.55
406.133	440.53
406.511	458.38
406.889	460.41
407.267	449.56
407.645	473.07
408.023	461.99
408.401	473.29
408.779	495.44
409.156	490.47
409.534	485.5
409.912	493.18
410.29	479.85
410.667	524.59
411.045	501.09
411.422	501.31
411.8	514.2
412.178	512.39
412.555	515.33
412.933	533.86
413.31	525.49
413.687	531.37
414.065	557.58
414.442	586.28
414.819	556.23
415.197	564.82
415.574	566.85
415.951	562.1
416.328	591.03
416.705	541.31
417.082	548.09
417.46	591.71
417.837	593.06
418.214	591.71
418.591	588.77
418.967	597.36
419.344	606.4
419.721	602.33
420.098	629.22
420.475	617.47
420.852	654.98
421.228	632.61
421.605	668.54
421.982	650.69
422.358	659.28
422.735	665.6
423.111	690.24
423.488	692.5
423.864	688.88
424.241	703.34
424.617	690.24
424.994	694.53
425.37	697.47
425.746	714.87
426.123	739.73
426.499	743.34
426.875	737.01
427.251	760.52
427.627	770.91
428.003	757.58
428.379	790.35
428.756	785.37
429.132	798.93
429.507	791.7
429.883	795.09
430.259	815.66
430.635	825.37
431.011	819.27
431.387	823.34
431.763	846.84
432.138	856.33
432.514	861.98
432.89	859.72
433.265	897.01
433.641	922.55
434.016	915.99
434.392	927.07
434.767	918.7
435.143	948.31
435.518	951.47
435.894	945.14
436.269	998.7
436.644	977.69
437.02	1012.94
437.395	1018.59
437.77	1017.01
438.145	1034.41
438.52	1059.04
438.895	1068.31
439.271	1060.62
439.646	1110.56
440.021	1094.97
440.395	1105.14
440.77	1089.1
441.145	1137
441.52	1132.26
441.895	1148.98
442.27	1140.17
442.645	1174.52
443.019	1113.95
443.394	1183.1
443.769	1171.58
444.143	1185.36
444.518	1225.59
444.892	1211.35
445.267	1208.64
445.641	1217.23
446.016	1248.41
446.39	1257.23
446.764	1252.71
447.139	1269.88
447.513	1275.53
447.887	1278.24
448.262	1286.38
448.636	1281.63
449.01	1310.56
449.384	1357.34
449.758	1326.15
450.132	1357.11
450.506	1372.25
450.88	1361.18
451.254	1409.99
451.628	1415.19
452.002	1420.39
452.376	1412.93
452.75	1442.31
453.123	1440.95
453.497	1451.12
453.871	1455.19
454.244	1513.72
454.618	1528.41
454.992	1536.99
455.365	1549.65
455.739	1583.09
456.112	1616.99
456.486	1622.41
456.859	1650.44
457.232	1676.2
457.606	1657.89
457.979	1686.14
458.352	1736.08
458.725	1729.76
459.099	1762.52
459.472	1789.42
459.845	1800.26
460.218	1802.52
460.591	1836.19
460.964	1871.67
461.337	1917.55
461.71	1956.42
462.083	1969.07
462.456	1966.59
462.829	1974.27
463.201	2011.78
463.574	2020.14
463.947	2035.74
464.32	2104.44
464.692	2118.9
465.065	2153.25
465.438	2170.88
465.81	2230.31
466.183	2245.45
466.555	2290.87
466.928	2334.49
467.3	2346.69
467.672	2372
468.045	2442.96
468.417	2454.03
468.789	2477.99
469.161	2546.01
469.534	2562.5
469.906	2647.7
470.278	2652.9
470.65	2675.49
471.022	2756.85
471.394	2808.37
471.766	2847.69
472.138	2913.91
472.51	2985.32
472.882	3003.62
473.253	3042.26
473.625	3127.23
473.997	3196.16
474.369	3238.42
474.74	3268.02
475.112	3366.1
475.484	3426.44
475.855	3484.06
476.227	3548.01
476.598	3672.53
476.97	3726.77
477.341	3812.41
477.713	3921.34
478.084	3986.19
478.455	4121.78
478.827	4172.18
479.198	4270.93
479.569	4286.07
479.94	4461.44
480.311	4552.06
480.682	4671.37
481.053	4789.56
481.424	4911.14
481.795	4915.21
482.166	5104.13
482.537	5213.06
482.908	5336.67
483.279	5415.99
483.65	5548.87
484.021	5675.87
484.391	5777.33
484.762	5911.57
485.133	5999.48
485.503	6109.75
485.874	6330.09
486.244	6364.21
486.615	6489.18
486.985	6652.11
487.356	6763.75
487.726	6878.32
488.097	7068.37
488.467	7187.24
488.837	7319.89
489.207	7393.34
489.578	7628.58
489.948	7706.32
490.318	7885.53
490.688	7956.03
491.058	8105.86
491.428	8294.56
491.798	8345.18
492.168	8589.01
492.538	8629.69
492.908	8807.76
493.278	8952.17
493.648	8910.81
494.017	9072.84
494.387	9218.83
494.757	9400.29
495.126	9499.27
495.496	9566.39
495.866	9616.56
496.235	9842.54
496.605	9904.46
496.974	9987.17
497.344	10084.34
497.713	10209.31
498.082	10203.66
498.452	10408.4
498.821	10483.65
499.19	10439.13
499.559	10669.18
499.928	10711.67
500.298	10827.82
500.667	10918.44
501.036	10935.16
501.405	11079.79
501.774	11113.01
502.143	11173.35
502.512	11243.63
502.88	11365.21
503.249	11418.77
503.618	11471.87
503.987	11469.39
504.356	11575.15
504.724	11614.24
505.093	11669.83
505.462	11768.81
505.83	11844.52
506.199	11926.1
506.567	12124.06
506.936	12054.46
507.304	12205.87
507.672	12197.73
508.041	12246.77
508.409	12382.13
508.777	12390.04
509.145	12398.63
509.514	12403.15
509.882	12487.67
510.25	12530.38
510.618	12574.44
510.986	12666.42
511.354	12721.11
511.722	12751.39
512.09	12828.45
512.458	12838.17
512.826	12929.91
513.193	12926.52
513.561	12971.27
513.929	13004.26
514.297	13156.35
514.664	13179.85
515.032	13133.98
515.4	13328.55
515.767	13219.17
516.135	13342.78
516.502	13183.47
516.869	13395.21
517.237	13333.07
517.604	13314.76
517.972	13410.35
518.339	13462.1
518.706	13451.93
519.073	13538.94
519.44	13568.09
519.808	13618.48
520.175	13510.46
520.542	13674.3
520.909	13733.96
521.276	13624.59
521.643	13787.52
522.009	13818.7
522.376	13815.99
522.743	13833.17
523.11	13884.92
523.477	13924.69
523.843	13925.14
524.21	14046.72
524.577	14057.57
524.943	14163.1
525.31	14161.29
525.676	14164.01
526.043	14210.11
526.409	14124.23
526.776	14250.33
527.142	14225.93
527.508	14259.37
527.874	14309.99
528.241	14386.6
528.607	14298.47
528.973	14284.23
529.339	14265.7
529.705	14379.14
530.071	14309.54
530.437	14344.34
530.803	14382.08
531.169	14395.41
531.535	14371.46
531.901	14306.38
532.267	14282.65
532.632	14401.06
532.998	14306.83
533.364	14306.38
533.73	14281.07
534.095	14412.36
534.461	14301.18
534.826	14309.76
535.192	14209.88
535.557	14351.35
535.923	14181.86
536.288	14102.54
536.653	14202.88
537.019	14108.19
537.384	14061.41
537.749	14163.55
538.114	14051.24
538.479	14025.03
538.845	13961.98
539.21	13981.19
539.575	13913.84
539.94	13938.93
540.305	13967.4
540.67	13852.6
541.034	13837.91
541.399	13804.69
541.764	13702.55
542.129	13670.91
542.494	13724.7
542.858	13721.98
543.223	13650.35
543.587	13589.33
543.952	13487.64
544.316	13536.23
544.681	13559.28
545.045	13477.24
545.41	13513.4
545.774	13395.89
546.138	13337.59
546.503	13398.83
546.867	13245.39
547.231	13292.39
547.595	13208.78
547.959	13139.63
548.324	13145.28
548.688	13182.79
549.052	13089.68
549.416	13102.11
549.779	12945.73
550.143	12982.12
550.507	13008.56
550.871	13005.84
551.235	12893.08
551.599	12965.85
551.962	12876.36
552.326	12837.04
552.689	12842.01
553.053	12743.7
553.417	12740.31
553.78	12743.48
554.143	12659.19
554.507	12719.98
554.87	12671.39
555.234	12815.12
555.597	12654.44
555.96	12583.71
556.323	12539.19
556.686	12504.84
557.05	12635.91
557.413	12591.62
557.776	12548.68
558.139	12539.42
558.502	12594.56
558.865	12537.16
559.228	12569.7
559.59	12447.89
559.953	12495.8
560.316	12571.96
560.679	12509.59
561.041	12500.77
561.404	12501.9
561.767	12524.5
562.129	12452.64
562.492	12581.45
562.854	12486.31
563.217	12437.27
563.579	12434.56
563.941	12540.77
564.304	12458.74
564.666	12520.43
565.028	12532.41
565.39	12544.39
565.753	12577.38
566.115	12601.11
566.477	12549.59
566.839	12573.54
567.201	12678.17
567.563	12495.35
567.925	12653.54
568.287	12672.29
568.648	12653.99
569.01	12682.24
569.372	12745.96
569.734	12585.06
570.095	12635.46
570.457	12693.54
570.819	12698.28
571.18	12672.29
571.542	12769.47
571.903	12764.27
572.265	12789.13
572.626	12791.16
572.987	12768.34
573.349	12691.5
573.71	12752.29
574.071	12728.34
574.432	12760.2
574.794	12738.05
575.155	12838.39
575.516	12741.9
575.877	12775.34
576.238	12853.53
576.599	12820.99
576.96	12864.15
577.32	12819.63
577.681	12819.86
578.042	12809.92
578.403	12787.09
578.763	12806.75
579.124	12863.25
579.485	12839.52
579.845	12891.05
580.206	12828.9
580.566	12858.5
580.927	12839.07
581.287	12841.33
581.648	12823.7
582.008	12854.21
582.368	12827.77
582.728	12787.77
583.089	12807.21
583.449	12828
583.809	12809.92
584.169	12804.49
584.529	12731.95
584.889	12898.5
585.249	12713.42
585.609	12691.95
585.969	12683.14
586.329	12760.43
586.688	12771.73
587.048	12728.79
587.408	12724.72
587.768	12605.63
588.127	12625.29
588.487	12595.46
588.846	12648.79
589.206	12654.89
589.565	12623.93
589.925	12640.43
590.284	12567.44
590.643	12635.91
591.003	12697.6
591.362	12666.64
591.721	12583.26
592.08	12622.13
592.44	12572.18
592.799	12646.98
593.158	12562.24
593.517	12531.51
593.876	12591.62
594.235	12505.97
594.593	12550.49
594.952	12598.17
595.311	12563.37
595.67	12546.87
596.029	12641.56
596.387	12528.57
596.746	12528.34
597.104	12519.76
597.463	12496.03
597.822	12550.04
598.18	12454.67
598.538	12469.59
598.897	12498.06
599.255	12429.36
599.613	12620.54
599.972	12382.13
600.33	12479.76
600.688	12534.9
601.046	12508.46
601.404	12540.32
601.762	12508.91
602.12	12578.96
602.478	12489.7
602.836	12400.44
603.194	12432.3
603.552	12377.61
603.91	12358.63
604.268	12561.56
604.625	12490.6
604.983	12462.81
605.341	12493.32
605.698	12460.32
606.056	12420.55
606.413	12418.06
606.771	12554.78
607.128	12528.12
607.485	12495.58
607.843	12519.3
608.2	12503.94
608.557	12586.65
608.914	12584.84
609.272	12576.03
609.629	12617.83
609.986	12578.74
610.343	12604.05
610.7	12569.7
611.057	12568.12
611.414	12535.35
611.771	12674.33
612.127	12665.06
612.484	12635.68
612.841	12703.71
613.198	12590.94
613.554	12637.49
613.911	12651.73
614.267	12687.43
614.624	12742.8
614.98	12718.85
615.337	12786.42
615.693	12713.2
616.05	12691.05
616.406	12724.04
616.762	12739.64
617.118	12747.09
617.475	12728.79
617.831	12773.31
618.187	12760.88
618.543	12779.18
618.899	12852.4
619.255	12776.25
619.611	12788.68
619.967	12817.15
620.323	12811.05
620.678	12749.13
621.034	12790.71
621.39	12811.95
621.746	12718.85
622.101	12869.58
622.457	12874.32
622.812	12846.07
623.168	12808.79
623.523	12781.44
623.879	12820.76
624.234	12865.74
624.589	12829.35
624.945	12828.67
625.3	12855.11
625.655	12837.49
626.01	12857.37
626.365	12888.56
626.72	12799.3
627.075	12844.94
627.43	12812.4
627.785	12799.75
628.14	12831.39
628.495	12806.75
628.85	12842.46
629.205	12798.39
629.559	12775.79
629.914	12737.6
630.269	12746.42
630.623	12697.38
630.978	12733.54
631.332	12801.78
631.687	12842.23
632.041	12703.48
632.396	12750.03
632.75	12705.06
633.104	12677.94
633.459	12596.82
633.813	12581.22
634.167	12594.1
634.521	12587.1
634.875	12596.14
635.229	12504.39
635.583	12522.24
635.937	12459.87
636.291	12501.68
636.645	12488.12
636.999	12409.25
637.352	12503.94
637.706	12417.84
638.06	12487.44
638.413	12420.78
638.767	12455.35
639.121	12418.06
639.474	12354.34
639.828	12380.55
640.181	12338.07
640.534	12423.49
640.888	12384.17
641.241	12260.55
641.594	12380.78
641.947	12330.83
642.301	12308.69
642.654	12362.7
643.007	12290.61
643.36	12315.02
643.713	12259.88
644.066	12266.88
644.419	12198.86
644.771	12176.04
645.124	12089.26
645.477	11981.92
645.83	11975.82
646.182	11907.12
646.535	11841.13
646.888	11807.46
647.24	11768.36
647.593	11898.3
647.945	11836.61
648.298	11724.07
648.65	11818.98
649.002	11712.55
649.355	11752.77
649.707	11803.16
650.059	11895.59
650.411	11983.95
650.763	11999.77
651.115	12162.48
651.467	12129.26
651.819	12178.07
652.171	12066.66
652.523	12082.25
652.875	12118.18
653.227	12046.32
653.578	12076.6
653.93	11991.63
654.282	12032.54
654.633	12035.7
654.985	12035.93
655.337	12117.05
655.688	12094
656.039	12186.43
656.391	12002.26
656.742	12000.45
657.094	12086.77
657.445	12062.14
657.796	12137.62
658.147	12107.56
658.498	12078.86
658.849	12116.6
659.2	12069.15
659.551	12105.76
659.902	12137.62
660.253	12049.49
660.604	12086.77
660.955	12044.51
661.306	12175.81
661.656	12102.37
662.007	12196.15
662.358	12170.39
662.708	12137.62
663.059	12183.72
663.409	12105.53
663.76	12162.93
664.11	12180.1
664.461	12127.68
664.811	12145.98
665.161	12158.64
665.511	12146.88
665.862	12189.59
666.212	12175.58
666.562	12187.56
666.912	12166.54
667.262	12163.61
667.612	12205.64
667.962	12200.67
668.312	12187.33
668.662	12156.6
669.011	12117.05
669.361	12221.01
669.711	12122.93
670.06	12091.07
670.41	12147.56
670.76	12116.6
671.109	12152.76
671.459	12066.66
671.808	12073.89
672.157	12133.1
672.507	12034.8
672.856	12084.51
673.205	12140.56
673.554	12145.53
673.904	12052.88
674.253	12146.21
674.602	12043.61
674.951	11898.75
675.3	11811.75
675.649	11983.72
675.998	11962.93
676.346	11931.3
676.695	12059.88
677.044	11881.13
677.393	11996.83
677.741	12027.57
678.09	11960.22
678.438	11916.61
678.787	11857.63
679.135	11887.23
679.484	11797.51
679.832	11877.96
680.181	11711.19
680.529	11770.85
680.877	11793
681.225	11733.11
681.573	11804.97
681.922	11753.67
682.27	11736.5
682.618	11653.56
682.966	11660.8
683.314	11680.46
683.661	11656.73
684.009	11540.8
684.357	11491.53
684.705	11551.42
685.053	11586.67
685.4	11498.31
685.748	11450.63
686.095	11402.5
686.443	11418.54
686.79	11389.39
687.138	11483.85
687.485	11413.57
687.832	11361.82
688.18	11355.27
688.527	11265.33
688.874	11266.46
689.221	11208.6
689.568	11254.03
689.915	11103.3
690.262	11174.03
690.609	11058.55
690.956	11037.99
691.303	11008.16
691.65	11003.86
691.997	10993.24
692.344	10911.89
692.69	10917.54
693.037	10880.7
693.383	10793.02
693.73	10833.02
694.077	10790.54
694.423	10737.2
694.769	10790.76
695.116	10638
695.462	10683.65
695.808	10559.13
696.155	10605
696.501	10524.55
696.847	10453.82
697.193	10394.39
697.539	10440.04
697.885	10378.34
698.231	10346.25
698.577	10296.54
698.923	10274.62
699.269	10233.94
699.614	10159.82
699.96	10160.27
700.306	10084.79
700.651	10071.68
700.997	10061.74
701.342	10017
701.688	9987.39
702.033	9916.89
702.379	9962.99
702.724	9914.17
703.069	9965.25
703.415	9744.69
703.76	9814.06
704.105	9759.38
704.45	9718.7
704.795	9690.23
705.14	9665.37
705.485	9633.28
705.83	9514.18
706.175	9569.78
706.52	9523.68
706.865	9544.92
707.209	9442.32
707.554	9459.72
707.899	9384.24
708.243	9378.37
708.588	9352.16
708.932	9280.29
709.277	9290.91
709.621	9281.42
709.966	9256.56
710.31	9236
710.654	9174.53
710.998	9205.27
711.342	9175.21
711.687	9142.22
712.031	9092.5
712.375	9041.2
712.719	9117.13
713.063	9069.68
713.407	9083.01
713.75	9039.62
714.094	9004.82
714.438	8978.38
714.782	9006.85
715.125	8930.7
715.469	8919.4
715.812	8898.16
716.156	8864.94
716.499	8914.65
716.843	8909
717.186	8788.33
717.53	8805.95
717.873	8837.14
718.216	8802.79
718.559	8835.33
718.902	8707.88
719.246	8777.93
719.589	8757.14
719.932	8689.35
720.275	8762.11
720.617	8725.05
720.96	8661.33
721.303	8675.79
721.646	8661.33
721.989	8602.57
722.331	8703.36
722.674	8574.32
723.016	8648.67
723.359	8603.93
723.701	8568.22
724.044	8581.33
724.386	8519.18
724.729	8559.18
725.071	8528.9
725.413	8590.59
725.755	8574.32
726.097	8484.83
726.439	8444.61
726.782	8503.36
727.124	8525.51
727.465	8516.02
727.807	8468.11
728.149	8468.11
728.491	8443.25
728.833	8466.3
729.175	8515.57
729.516	8454.1
729.858	8423.37
730.199	8500.88
730.541	8473.99
730.882	8435.57
731.224	8471.05
731.565	8460.88
731.906	8430.82
732.248	8428.34
732.589	8385.4
732.93	8416.59
733.271	8378.85
733.612	8404.61
733.953	8438.28
734.294	8371.84
734.635	8398.51
734.976	8477.15
735.317	8423.82
735.658	8446.42
735.999	8455
736.339	8399.86
736.68	8516.02
737.021	8488.45
737.361	8486.64
737.702	8487.77
738.042	8496.58
738.383	8377.72
738.723	8473.53
739.063	8528.22
739.404	8475.12
739.744	8462.01
740.084	8528.22
740.424	8559.18
740.764	8532.06
741.104	8587.2
741.444	8599.63
741.784	8543.36
742.124	8537.04
742.464	8603.7
742.804	8605.96
743.143	8628.11
743.483	8633.08
743.823	8678.73
744.162	8698.61
744.502	8737.48
744.841	8771.38
745.181	8844.37
745.52	8782.68
745.86	8847.76
746.199	8846.63
746.538	8969.34
746.877	8994.88
747.216	9091.6
747.556	9020.86
747.895	9064.25
748.234	9136.57
748.573	9162.1
748.911	9221.76
749.25	9254.08
749.589	9350.8
749.928	9448.88
750.267	9516.44
750.605	9637.12
750.944	9599.38
751.283	9697.46
751.621	9791.92
751.96	9844.8
752.298	10073.94
752.636	10000.5
752.975	10107.84
753.313	10197.78
753.651	10355.07
753.989	10420.15
754.327	10569.52
754.666	10663.76
755.004	10862.62
755.342	10913.47
755.679	11078.44
756.017	11115.95
756.355	11324.31
756.693	11430.29
757.031	11600.01
757.368	11720.23
757.706	11827.8
758.044	12030.73
758.381	12302.59
758.719	12325.86
759.056	12608.34
759.394	12674.55
759.731	12819.63
760.068	13029.12
760.405	13122
760.743	13197.93
761.08	13509.56
761.417	13538.26
761.754	13739.61
762.091	13945.48
762.428	14103.22
762.765	14218.02
763.102	14419.37
763.438	14554.96
763.775	14660.04
764.112	14893.48
764.449	15163.53
764.785	15196.97
765.122	15315.16
765.458	15435.61
765.795	15571.43
766.131	15815.26
766.467	15959.89
766.804	16050.28
767.14	16220.9
767.476	16361.24
767.812	16501.35
768.148	16659.53
768.485	16765.75
768.821	16796.48
769.157	17005.06
769.492	17107.21
769.828	17244.83
770.164	17298.84
770.5	17323.7
770.836	17495.44
771.171	17545.39
771.507	17680.52
771.842	17730.92
772.178	17793.52
772.513	17915.55
772.849	18069.21
773.184	18038.25
773.519	18175.65
773.855	18233.73
774.19	18374.97
774.525	18381.75
774.86	18501.75
775.195	18648.18
775.53	18492.03
775.865	18601.18
776.2	18653.61
776.535	18578.81
776.87	18667.84
777.205	18825.35
777.539	18773.83
777.874	18891.34
778.209	18821.96
778.543	18847.72
778.878	18840.49
779.212	18945.12
779.547	18865.58
779.881	18996.2
780.215	18813.38
780.55	19048.85
780.884	18985.57
781.218	18833.94
781.552	19076.65
781.886	19063.99
782.22	18862.41
782.554	19067.83
782.888	18878.68
783.222	18896.31
783.556	18842.98
783.889	18883.66
784.223	18839.59
784.557	18792.36
784.89	18859.02
785.224	18864.45
785.557	18768.63
785.891	18846.82
786.224	18769.53
786.558	18728.86
786.891	18647.5
787.224	18612.7
787.557	18647.5
787.891	18634.4
788.224	18655.19
788.557	18766.37
788.89	18703.1
789.223	18721.17
789.556	18582.2
789.888	18552.59
790.221	18508.52
790.554	18399.15
790.887	18418.36
791.219	18415.42
791.552	18358.25
791.884	18464.68
792.217	18384.46
792.549	18262.66
792.882	18224.92
793.214	18218.81
793.546	18214.3
793.879	18080.97
794.211	18065.15
794.543	18081.87
794.875	18049.78
795.207	18148.76
795.539	18000.06
795.871	18043
796.203	17883.46
796.535	17902.89
796.867	17754.42
797.198	17856.79
797.53	17715.1
797.862	17607.31
798.193	17666.06
798.525	17607.31
798.856	17685.27
799.188	17424.94
799.519	17378.38
799.85	17350.36
800.182	17322.34
800.513	17330.93
800.844	17251.16
801.175	17314.66
801.506	17334.32
801.837	17263.36
802.168	17217.71
802.499	17140.43
802.83	17044.16
803.161	17032.41
803.491	17025.63
803.822	17145.4
804.153	16883.03
804.483	16832.64
804.814	16723.49
805.145	16806.65
805.475	16741.34
805.805	16688.23
806.136	16775.91
806.466	16701.34
806.796	16610.5
807.126	16541.12
807.457	16430.39
807.787	16490.05
808.117	16517.84
808.447	16496.83
808.777	16425.19
809.107	16458.41
809.436	16295.02
809.766	16303.84
810.096	16314.23
810.426	16158.76
810.755	16246.44
811.085	16288.02
811.414	16130.96
811.744	16044.41
812.073	16107.91
812.403	16004.18
812.732	15994.24
813.061	15980.68
813.39	15892.1
813.719	15790.63
814.049	15911.08
814.378	15895.94
814.707	15796.96
815.036	15775.72
815.365	15736.39
815.693	15590.18
816.022	15629.73
816.351	15630.18
816.68	15539.34
817.008	15563.74
817.337	15395.84
817.665	15404.2
817.994	15518.77
818.322	15465.44
818.651	15372.11
818.979	15271.1
819.307	15356.74
819.636	15360.36
819.964	15246.69
820.292	15294.82
820.62	15275.16
820.948	15274.03
821.276	15303.64
821.604	15228.84
821.932	15261.15
822.259	15181.38
822.587	15257.99
822.915	15183.19
823.243	15275.16
823.57	15199.69
823.898	15208.05
824.225	15183.41
824.553	15142.96
824.88	15204.2
825.207	15306.12
825.535	15243.98
825.862	15274.26
826.189	15244.88
826.516	15235.62
826.843	15264.32
827.17	15213.7
827.497	15215.05
827.824	15243.3
828.151	15284.88
828.478	15278.55
828.805	15288.95
829.131	15211.66
829.458	15223.87
829.785	15087.82
830.111	15239.68
830.438	15275.84
830.764	15273.36
831.09	15251.21
831.417	15308.16
831.743	15269.51
832.069	15255.95
832.395	15146.58
832.722	15146.13
833.048	15183.87
833.374	15240.14
833.7	15134.38
834.026	15116.07
834.351	15152.68
834.677	15061.61
835.003	15179.57
835.329	15112.23
835.654	15041.72
835.98	15009.86
836.306	15058.67
836.631	15029.75
836.956	15106.58
837.282	15008.96
837.607	14876.08
837.932	15072.46
838.258	14959.92
838.583	14977.54
838.908	14838.34
839.233	14891.67
839.558	14874.95
839.883	14817.77
840.208	14685.12
840.533	14724.22
840.858	14796.98
841.182	14731
841.507	14738
841.832	14580.49
842.156	14711.79
842.481	14626.82
842.805	14514.05
843.13	14566.71
843.454	14440.16
843.778	14446.94
844.103	14430.89
844.427	14366.26
844.751	14302.08
845.075	14328.97
845.399	14288.3
845.723	14187.96
846.047	14211.69
846.371	14097.79
846.695	14094.18
847.019	13954.75
847.343	13902.54
847.666	13903.67
847.99	13843.34
848.313	13823.68
848.637	13681.76
848.96	13750.23
849.284	13701.19
849.607	13554.98
849.931	13526.51
850.254	13493.52
850.577	13465.04
850.9	13271.37
851.223	13256.46
851.546	13271.83
851.869	13154.32
852.192	13190.47
852.515	13004.71
852.838	13067.99
853.161	13075.22
853.483	12932.4
853.806	12945.96
854.129	12961.78
854.451	12796.58
854.774	12790.93
855.096	12877.71
855.419	12828.45
855.741	12689.92
856.063	12626.65
856.385	12615.8
856.708	12504.39
857.03	12446.76
857.352	12499.42
857.674	12422.81
857.996	12432.53
858.318	12397.27
858.64	12371.96
858.961	12360.44
859.283	12244.73
859.605	12212.19
859.926	12285.41
860.248	12133.1
860.57	12166.09
860.891	12134
861.212	12090.61
861.534	12082.25
861.855	12004.74
862.176	12047.23
862.498	12055.59
862.819	11890.17
863.14	11959.32
863.461	11995.02
863.782	11860.34
864.103	11925.19
864.424	11864.41
864.745	11856.72
865.065	11727.01
865.386	11718.19
865.707	11726.1
866.027	11757.29
866.348	11745.09
866.668	11641.59
866.989	11689.27
867.309	11623.73
867.63	11597.07
867.95	11625.09
868.27	11623.73
868.59	11548.03
868.91	11494.92
869.23	11597.97
869.55	11470.97
869.87	11531.76
870.19	11505.09
870.51	11502.16
870.83	11449.73
871.15	11435.94
871.469	11377.41
871.789	11462.38
872.109	11456.73
872.428	11352.78
872.748	11445.66
873.067	11316.4
873.386	11398.43
873.706	11396.4
874.025	11285.89
874.344	11304.42
874.663	11210.41
874.982	11234.59
875.301	11122.05
875.62	11171.54
875.939	11206.12
876.258	11164.54
876.577	11068.95
876.896	11174.25
877.214	11101.94
877.533	11077.31
877.852	11056.74
878.17	11024.43
878.489	11066.46
878.807	11001.38
879.125	10985.56
879.444	10980.81
879.762	10943.07
880.08	10935.16
880.398	10925.45
880.716	10878.89
881.034	10908.95
881.352	10821.04
881.67	10856.07
881.988	10793.7
882.306	10762.06
882.624	10683.65
882.941	10629.41
883.259	10670.54
883.577	10720.25
883.894	10643.19
884.212	10622.86
884.529	10635.96
884.846	10576.98
885.164	10594.38
885.481	10539.02
885.798	10562.74
886.115	10360.94
886.432	10397.78
886.75	10460.83
887.067	10381.51
887.383	10362.07
887.7	10366.82
888.017	10310.77
888.334	10360.94
888.651	10229.65
888.967	10227.16
889.284	10241.4
889.6	10177.67
889.917	10105.81
890.233	10161.4
890.55	10095.64
890.866	10082.76
891.182	10132.47
891.498	9993.72
891.815	10062.42
892.131	9975.42
892.447	9960.73
892.763	9886.15
893.079	9855.42
893.395	9873.05
893.71	9826.95
894.026	9753.73
894.342	9861.52
894.657	9684.8
894.973	9609.1
895.289	9614.07
895.604	9625.82
895.92	9527.52
896.235	9522.77
896.55	9494.98
896.865	9455.88
897.181	9372.95
897.496	9492.94
897.811	9353.51
898.126	9406.39
898.441	9308.54
898.756	9267.64
899.071	9304.92
899.386	9254.08
899.7	9141.54
900.015	9098.83
900.33	9099.05
900.644	9043.01
900.959	9043.91
901.273	9002.11
901.588	9019.73
901.902	8919.17
902.216	8913.52
902.531	8909.46
902.845	8865.61
903.159	8777.26
903.473	8737.26
903.787	8755.33
904.101	8747.2
904.415	8720.53
904.729	8642.34
905.042	8676.47
905.356	8641.67
905.67	8573.42
905.984	8552.85
906.297	8527.54
906.611	8409.81
906.924	8479.41
907.237	8390.82
907.551	8393.99
907.864	8379.75
908.177	8303.82
908.491	8300.21
908.804	8245.74
909.117	8234.44
909.43	8149.02
909.743	8138.85
910.056	8151.51
910.368	8126.42
910.681	8094.79
910.994	8016.37
911.307	7963.27
911.619	7895.92
911.932	7965.3
912.244	7841.91
912.557	7866.32
912.869	7751.52
913.181	7761.46
913.494	7711.97
913.806	7692.76
914.118	7674.69
914.43	7619.32
914.742	7625.42
915.054	7609.6
915.366	7578.87
915.678	7551.75
915.99	7425.2
916.302	7411.19
916.613	7457.29
916.925	7378.2
917.236	7300.23
917.548	7293.68
917.859	7311.98
918.171	7317.86
918.482	7260.46
918.794	7242.83
919.105	7178.43
919.416	7141.82
919.727	7103.63
920.038	7112.21
920.349	7120.12
920.66	7073.8
920.971	7034.93
921.282	7002.39
921.593	6953.57
921.903	6906.12
922.214	6885.55
922.525	6888.04
922.835	6841.03
923.146	6775.05
923.456	6824.31
923.767	6716.74
924.077	6740.02
924.387	6714.48
924.697	6661.83
925.008	6596.52
925.318	6602.17
925.628	6572.12
925.938	6585.45
926.248	6536.64
926.558	6525.56
926.867	6517.65
927.177	6465
927.487	6455.96
927.796	6374.15
928.106	6409.63
928.416	6349.75
928.725	6342.52
929.034	6298.9
929.344	6281.05
929.653	6263.42
929.962	6180.49
930.271	6179.81
930.581	6161.73
930.89	6161.96
931.199	6094.39
931.508	6103.65
931.817	6088.74
932.125	6082.86
932.434	6005.12
932.743	5986.14
933.051	5934.39
933.36	5948.4
933.669	5870.66
933.977	5851.91
934.286	5853.04
934.594	5841.97
934.902	5832.02
935.21	5800.16
935.519	5768.97
935.827	5735.98
936.135	5764.9
936.443	5669.09
936.751	5644.23
937.059	5651.01
937.367	5622.99
937.674	5632.03
937.982	5513.61
938.29	5569.88
938.597	5557.45
938.905	5500.73
939.213	5488.75
939.52	5458.47
939.827	5485.36
940.135	5423.9
940.442	5353.39
940.749	5424.8
941.056	5377.12
941.363	5313.62
941.67	5316.1
941.977	5293.96
942.284	5220.96
942.591	5215.99
942.898	5214.41
943.205	5216.22
943.511	5158.82
943.818	5144.36
944.125	5110.01
944.431	5089.22
944.738	5014.64
945.044	5054.64
945.35	5007.86
945.657	4986.85
945.963	4973.74
946.269	4983.91
946.575	4971.25
946.881	4946.62
947.187	4939.39
947.493	4900.29
947.799	4897.36
948.105	4879.96
948.41	4806.51
948.716	4786.85
949.022	4750.69
949.327	4771.26
949.633	4766.51
949.938	4723.35
950.244	4725.61
950.549	4668.44
950.854	4654.43
951.16	4668.89
951.465	4599.74
951.77	4595.44
952.075	4596.12
952.38	4541.66
952.685	4547.76
952.99	4519.29
953.294	4519.97
953.599	4531.04
953.904	4453.08
954.209	4409.91
954.513	4410.82
954.818	4442.23
955.122	4421.89
955.426	4378.5
955.731	4366.52
956.035	4345.28
956.339	4293.31
956.643	4358.16
956.948	4267.54
957.252	4255.34
957.556	4254.21
957.86	4234.78
958.163	4223.7
958.467	4208.56
958.771	4190.71
959.075	4148.9
959.378	4105.06
959.682	4117.04
959.985	4086.3
960.289	4082.24
960.592	4106.42
960.896	4007.44
961.199	4061.45
961.502	3986.87
961.805	3971.73
962.108	4026.42
962.411	3955.91
962.714	3904.84
963.017	3918.4
963.32	3910.72
963.623	3889.7
963.926	3873.43
964.228	3848.57
964.531	3870.94
964.833	3848.57
965.136	3788.46
965.438	3805.41
965.741	3762.92
966.043	3749.59
966.345	3752.75
966.648	3702.36
966.95	3728.57
967.252	3665.75
967.554	3654.9
967.856	3696.71
968.158	3598.41
968.46	3600.89
968.761	3573.55
969.063	3563.61
969.365	3571.97
969.666	3556.15
969.968	3542.14
970.269	3521.12
970.571	3572.65
970.872	3475.47
971.174	3467.79
971.475	3488.81
971.776	3481.58
972.077	3425.53
972.378	3378.3
972.679	3401.13
972.98	3409.03
973.281	3366.32
973.582	3348.92
973.883	3334.91
974.183	3364.06
974.484	3324.97
974.785	3321.58
975.085	3270.28
975.386	3340.34
975.686	3247.46
975.986	3225.31
976.287	3285.2
976.587	3212.43
976.887	3224.18
977.187	3194.35
977.487	3215.59
977.787	3188.25
978.087	3166.78
978.387	3139.66
978.687	3148.25
978.987	3088.14
979.286	3089.27
979.586	3060.57
979.885	3081.36
980.185	3068.25
980.484	3043.62
980.784	3009.27
981.083	3035.49
981.382	2992.77
981.682	3017.63
981.981	2954.13
982.28	2964.07
982.579	2972.89
982.878	2981.25
983.177	2941.7
983.475	2927.69
983.774	2899.44
984.073	2906.67
984.372	2868.94
984.67	2879.11
984.969	2875.04
985.267	2830.07
985.566	2825.77
985.864	2774.48
986.162	2767.47
986.461	2767.92
986.759	2746.45
987.057	2746.91
987.355	2709.39
987.653	2718.43
987.951	2726.57
988.249	2739.22
988.547	2690.64
988.844	2661.94
989.142	2688.83
989.44	2644.99
989.737	2628.04
990.035	2665.78
990.332	2623.74
990.63	2590.53
990.927	2605.67
991.224	2602.05
991.521	2588.04
991.819	2559.11
992.116	2536.06
992.413	2524.99
992.71	2561.15
993.006	2484.99
993.303	2500.36
993.6	2481.15
993.897	2442.73
994.193	2464.2
994.49	2459.68
994.787	2409.06
995.083	2410.19
995.379	2407.71
995.676	2423.3
995.972	2373.81
996.268	2395.95
996.565	2365.22
996.861	2321.38
997.157	2322.28
997.453	2327.26
997.749	2321.38
998.044	2313.47
998.34	2297.43
998.636	2309.63
998.932	2288.16
999.227	2253.81
999.523	2227.82
999.818	2242.51
1000.114	2248.61
1000.409	2209.52
1000.704	2182.17
1001	2209.52
1001.295	2172.46
1001.59	2164.32
1001.885	2146.47
1002.18	2132.68
1002.475	2132.68
1002.77	2123.42
1003.065	2125.9
1003.359	2128.84
1003.654	2089.97
1003.949	2045.68
1004.243	2069.18
1004.538	2044.1
1004.832	2062.86
1005.127	2025.34
1005.421	2016.75
1005.715	2026.92
1006.009	1995.06
1006.304	1981.95
1006.598	1933.37
1006.892	1969.52
1007.186	1945.12
1007.48	1944.67
1007.773	1969.3
1008.067	1915.74
1008.361	1948.73
1008.655	1919.13
1008.948	1901.05
1009.242	1895.63
1009.535	1862.63
1009.829	1857.89
1010.122	1838.68
1010.415	1844.78
1010.708	1840.94
1011.001	1813.14
1011.295	1775.86
1011.588	1808.4
1011.881	1794.16
1012.173	1791.9
1012.466	1758.23
1012.759	1739.25
1013.052	1761.85
1013.344	1721.4
1013.637	1761.62
1013.93	1724.33
1014.222	1726.37
1014.514	1709.87
1014.807	1670.1
1015.099	1650.21
1015.391	1623.77
1015.683	1654.05
1015.976	1655.63
1016.268	1655.86
1016.56	1629.42
1016.851	1595.3
1017.143	1607.05
1017.435	1610.21
1017.727	1581.74
1018.018	1576.54
1018.31	1553.04
1018.602	1541.97
1018.893	1569.76
1019.185	1540.16
1019.476	1515.3
1019.767	1517.56
1020.058	1525.69
1020.35	1480.27
1020.641	1497.9
1020.932	1475.07
1021.223	1477.11
1021.514	1470.55
1021.804	1458.35
1022.095	1436.21
1022.386	1421.52
1022.677	1437.79
1022.967	1419.93
1023.258	1403.21
1023.548	1394.85
1023.839	1410.9
1024.129	1379.94
1024.419	1373.38
1024.709	1360.73
1025	1341.07
1025.29	1318.02
1025.58	1336.77
1025.87	1298.58
1026.16	1323.67
1026.449	1309.43
1026.739	1312.37
1027.029	1266.72
1027.319	1278.24
1027.608	1269.66
1027.898	1273.5
1028.187	1250.67
1028.477	1254.97
1028.766	1238.7
1029.055	1237.79
1029.344	1231.69
1029.634	1194.86
1029.923	1229.43
1030.212	1179.26
1030.501	1198.47
1030.79	1171.35
1031.078	1167.06
1031.367	1194.63
1031.656	1168.19
1031.945	1151.24
1032.233	1125.03
1032.522	1137
1032.81	1141.52
1033.099	1132.03
1033.387	1113.73
1033.675	1078.47
1033.963	1078.25
1034.251	1117.34
1034.54	1075.76
1034.828	1078.7
1035.116	1059.94
1035.403	1061.07
1035.691	1085.03
1035.979	1054.97
1036.267	1053.39
1036.554	1027.85
1036.842	1030.57
1037.129	1048.42
1037.417	1044.13
1037.704	1024.01
1037.992	984.47
1038.279	993.5
1038.566	991.7
1038.853	991.7
1039.14	991.7
