Data from hue_300_FLMS001491_00011.txt Node
Date: Tue Feb 07 15:50:21 GMT 2017
User: dcchb
Spectrometer: FLMS00149
Trigger mode: 0
Integration Time (sec): 2.000000E-2
Scans to average: 10
Electric dark correction enabled: true
Nonlinearity correction enabled: false
Boxcar width: 0
XAxis mode: Wavelengths
Number of Pixels in Spectrum: 2048
>>>>>Begin Spectral Data<<<<<
341.393	4.96
341.776	4.96
342.16	4.96
342.543	-67.13
342.927	-75.04
343.31	-72.78
343.693	-58.09
344.077	-59.9
344.46	-64.65
344.843	-47.24
345.226	-62.61
345.61	-37.98
345.993	-2.73
346.376	5.86
346.759	36.6
347.142	13.77
347.525	26.43
347.908	28.23
348.291	72.3
348.674	115.69
349.057	107.1
349.44	110.94
349.823	140.1
350.206	168.34
350.588	178.51
350.971	197.27
351.354	228.23
351.737	231.84
352.119	256.25
352.502	258.28
352.884	270.71
353.267	271.62
353.65	276.59
354.032	293.76
354.414	313.88
354.797	303.03
355.179	334.44
355.562	313.42
355.944	308.45
356.326	333.31
356.709	334.21
357.091	323.82
357.473	335.12
357.855	345.51
358.238	336.7
358.62	345.97
359.002	343.25
359.384	343.71
359.766	341.9
360.148	333.99
360.53	331.05
360.912	331.95
361.294	334.89
361.676	317.72
362.057	340.54
362.439	347.55
362.821	320.66
363.203	306.19
363.584	312.29
363.966	306.87
364.348	338.51
364.729	312.52
365.111	335.8
365.493	318.17
365.874	314.1
366.256	294.22
366.637	326.08
367.019	312.75
367.4	320.43
367.781	306.64
368.163	309.58
368.544	321.56
368.925	292.86
369.306	324.95
369.688	299.64
370.069	303.93
370.45	307.77
370.831	305.06
371.212	325.63
371.593	308.68
371.974	316.36
372.355	317.04
372.736	301.22
373.117	317.04
373.498	301.9
373.879	312.29
374.26	316.59
374.641	304.61
375.021	323.82
375.402	322.24
375.783	332.18
376.163	330.82
376.544	325.85
376.925	318.85
377.305	332.86
377.686	335.34
378.066	328.79
378.447	322.92
378.827	317.72
379.208	326.3
379.588	333.54
379.968	343.48
380.349	334.44
380.729	348.45
381.109	319.75
381.489	338.28
381.87	332.41
382.25	324.27
382.63	326.3
383.01	343.03
383.39	345.06
383.77	336.02
384.15	344.84
384.53	359.52
384.91	344.84
385.29	346.42
385.67	341.9
386.049	311.39
386.429	337.15
386.809	339.86
387.189	320.43
387.568	351.39
387.948	373.54
388.328	362.01
388.707	350.26
389.087	329.47
389.466	339.19
389.846	380.31
390.225	367.66
390.605	370.6
390.984	369.02
391.363	369.47
391.743	363.37
392.122	384.83
392.501	351.62
392.881	368.79
393.26	364.5
393.639	388.9
394.018	373.76
394.397	372.86
394.776	383.03
395.155	389.81
395.534	376.93
395.913	382.12
396.292	364.5
396.671	385.51
397.05	383.93
397.429	391.16
397.808	383.93
398.186	396.59
398.565	397.49
398.944	380.31
399.323	373.31
399.701	421.67
400.08	404.5
400.458	422.12
400.837	397.04
401.215	417.6
401.594	398.62
401.972	415.57
402.351	410.37
402.729	411.95
403.107	400.43
403.486	425.06
403.864	418.96
404.242	413.53
404.62	434.32
404.999	440.2
405.377	427.55
405.755	410.82
406.133	424.16
406.511	444.27
406.889	472.29
407.267	474.55
407.645	432.29
408.023	469.8
408.401	463.02
408.779	479.52
409.156	466.19
409.534	491.72
409.912	472.29
410.29	470.03
410.667	495.79
411.045	505.96
411.422	508.22
411.8	518.16
412.178	499.63
412.555	525.17
412.933	510.48
413.31	531.05
413.687	552.29
414.065	556.36
414.442	542.12
414.819	560.42
415.197	575.79
415.574	562.46
415.951	610.37
416.328	591.83
416.705	636.58
417.082	612.63
417.46	643.13
417.837	613.53
418.214	643.58
418.591	644.71
418.967	667.09
419.344	665.96
419.721	667.31
420.098	698.05
420.475	686.52
420.852	703.92
421.228	686.97
421.605	696.69
421.982	729.01
422.358	717.93
422.735	734.66
423.111	746.18
423.488	757.48
423.864	765.16
424.241	778.95
424.617	785.28
424.994	762.9
425.37	800.42
425.746	799.29
426.123	820.76
426.499	790.7
426.875	819.17
427.251	812.85
427.627	837.7
428.003	865.05
428.379	861.21
428.756	845.84
429.132	866.86
429.507	874.77
429.883	899.17
430.259	892.39
430.635	902.79
431.011	942.79
431.387	944.14
431.763	953.41
432.138	958.38
432.514	999.51
432.89	984.14
433.265	1020.07
433.641	1003.12
434.016	1012.39
434.392	998.83
434.767	1042.44
435.143	1027.76
435.518	1029.34
435.894	1078.83
436.269	1045.61
436.644	1103.69
437.02	1100.07
437.395	1086.96
437.77	1120.41
438.145	1121.76
438.52	1128.32
438.895	1133.52
439.271	1168.99
439.646	1155.44
440.021	1168.77
440.395	1164.93
440.77	1200.18
441.145	1199.5
441.52	1191.14
441.895	1218.03
442.27	1205.15
442.645	1207.64
443.019	1215.32
443.394	1221.2
443.769	1230.01
444.143	1205.6
444.518	1236.34
444.892	1249.44
445.267	1250.57
445.641	1250.35
446.016	1232.95
446.39	1273.62
446.764	1287.41
447.139	1262.78
447.513	1256.22
447.887	1292.61
448.262	1274.53
448.636	1280.86
449.01	1288.99
449.384	1299.84
449.758	1328.76
450.132	1342.1
450.506	1339.84
450.88	1309.1
451.254	1298.93
451.628	1325.37
452.002	1359.72
452.376	1343.91
452.75	1362.44
453.123	1340.52
453.497	1388.65
453.871	1364.92
454.244	1378.25
454.618	1395.2
454.992	1410.12
455.365	1394.3
455.739	1414.86
456.112	1441.08
456.486	1442.21
456.859	1455.54
457.232	1459.83
457.606	1489.66
457.979	1494.18
458.352	1540.06
458.725	1485.82
459.099	1497.12
459.472	1537.8
459.845	1519.49
460.218	1531.7
460.591	1535.54
460.964	1561.07
461.337	1593.84
461.71	1580.51
462.083	1576.67
462.456	1585.25
462.829	1601.07
463.201	1617.57
463.574	1616.89
463.947	1634.07
464.32	1679.26
464.692	1636.1
465.065	1675.87
465.438	1698.25
465.81	1727.4
466.183	1701.86
466.555	1725.36
466.928	1779.15
467.3	1743.89
467.672	1780.73
468.045	1785.02
468.417	1774.18
468.789	1778.02
469.161	1798.81
469.534	1819.37
469.906	1856.89
470.278	1848.3
470.65	1872.03
471.022	1878.58
471.394	1907.51
471.766	1926.71
472.138	1931.69
472.51	1959.48
472.882	1953.15
473.253	1990.22
473.625	2021.63
473.997	2017.56
474.369	2052.59
474.74	2057.33
475.112	2068.86
475.484	2095.3
475.855	2108.63
476.227	2137.33
476.598	2209.65
476.97	2174.39
477.341	2193.15
477.713	2245.35
478.084	2223.88
478.455	2258.23
478.827	2295.29
479.198	2319.02
479.569	2327.61
479.94	2352.47
480.311	2392.92
480.682	2430.2
481.053	2464.78
481.424	2480.15
481.795	2472.01
482.166	2488.28
482.537	2518.34
482.908	2541.39
483.279	2555.17
483.65	2588.17
484.021	2612.12
484.391	2636.53
484.762	2645.79
485.133	2664.1
485.503	2699.35
485.874	2706.36
486.244	2721.95
486.615	2754.26
486.985	2755.85
487.356	2814.15
487.726	2826.35
488.097	2910.87
488.467	2855.73
488.837	2920.59
489.207	2884.2
489.578	2972.11
489.948	2994.48
490.318	2978.89
490.688	2981.38
491.058	3030.64
491.428	3053.01
491.798	3086.68
492.168	3076.74
492.538	3133.46
492.908	3157.19
493.278	3179.11
493.648	3157.87
494.017	3195.83
494.387	3249.17
494.757	3254.36
495.126	3250.3
495.496	3255.49
495.866	3276.96
496.235	3302.05
496.605	3310.18
496.974	3289.16
497.344	3360.35
497.713	3368.26
498.082	3370.52
498.452	3389.05
498.821	3417.07
499.19	3378.88
499.559	3432.21
499.928	3447.58
500.298	3419.56
500.667	3489.16
501.036	3499.55
501.405	3488.48
501.774	3485.54
502.143	3499.78
502.512	3493.68
502.88	3516.05
503.249	3537.29
503.618	3603.05
503.987	3594.92
504.356	3589.27
504.724	3570.51
505.093	3602.6
505.462	3597.18
505.83	3591.53
506.199	3631.08
506.567	3703.17
506.936	3625.2
507.304	3648.03
507.672	3674.24
508.041	3653
508.409	3677.63
508.777	3722.37
509.145	3738.64
509.514	3718.08
509.882	3731.87
510.25	3746.55
510.618	3764.18
510.986	3756.95
511.354	3782.03
511.722	3768.47
512.09	3836.04
512.458	3807.8
512.826	3819.55
513.193	3840.79
513.561	3845.08
513.929	3897.06
514.297	3890.51
514.664	3841.92
515.032	3883.95
515.4	3931.41
515.767	3889.15
516.135	3927.79
516.502	3896.15
516.869	3888.47
517.237	3923.27
517.604	3916.04
517.972	3945.19
518.339	3985.64
518.706	3976.38
519.073	4001.91
519.44	3998.75
519.808	4002.82
520.175	3965.53
520.542	4003.95
520.909	4029.26
521.276	4029.48
521.643	4029.94
522.009	4054.34
522.376	4099.31
522.743	4105.19
523.11	4101.57
523.477	4172.31
523.843	4172.31
524.21	4154
524.577	4210.5
524.943	4160.55
525.31	4194.23
525.676	4216.37
526.043	4278.52
526.409	4242.13
526.776	4278.97
527.142	4276.71
527.508	4306.31
527.874	4345.86
528.241	4372.07
528.607	4357.16
528.973	4414.56
529.339	4396.48
529.705	4423.15
530.071	4461.56
530.437	4491.39
530.803	4515.8
531.169	4537.04
531.535	4513.99
531.901	4478.29
532.267	4501.11
532.632	4563.26
532.998	4557.15
533.364	4636.25
533.73	4576.14
534.095	4666.53
534.461	4685.51
534.826	4686.19
535.192	4647.55
535.557	4704.04
535.923	4723.93
536.288	4718.96
536.653	4742.23
537.019	4753.31
537.384	4783.14
537.749	4815.68
538.114	4833.76
538.479	4843.25
538.845	4863.59
539.21	4824.27
539.575	4863.59
539.94	4902.46
540.305	4906.3
540.67	4904.72
541.034	4923.47
541.399	4960.76
541.764	4954.66
542.129	4959.86
542.494	5012.74
542.858	5053.64
543.223	5077.82
543.587	5114.43
543.952	5090.25
544.316	5103.13
544.681	5090.25
545.045	5126.18
545.41	5160.53
545.774	5175.67
546.138	5192.17
546.503	5220.64
546.867	5242.33
547.231	5304.71
547.595	5318.26
547.959	5314.65
548.324	5321.65
548.688	5315.55
549.052	5340.64
549.416	5397.13
549.779	5343.35
550.143	5392.61
550.507	5415.44
550.871	5477.36
551.235	5435.32
551.599	5480.97
551.962	5466.51
552.326	5502.21
552.689	5480.29
553.053	5466.73
553.417	5545.15
553.78	5609.78
554.143	5549.22
554.507	5582.21
554.87	5601.87
555.234	5602.55
555.597	5631.93
555.96	5636.45
556.323	5676.45
556.686	5631.48
557.05	5691.36
557.413	5683
557.776	5761.87
558.139	5745.37
558.502	5721.64
558.865	5732.49
559.228	5769.55
559.59	5806.84
559.953	5788.76
560.316	5942.43
560.679	5840.06
561.041	5906.95
561.404	5918.02
561.767	5956.21
562.129	5922.32
562.492	5992.6
562.854	5967.06
563.217	5960.96
563.579	5999.83
563.941	6038.47
564.304	6056.55
564.666	6048.19
565.028	6053.84
565.39	6072.37
565.753	6108.98
566.115	6134.74
566.477	6127.96
566.839	6176.09
567.201	6182.2
567.563	6228.75
567.925	6269.88
568.287	6228.3
568.648	6261.29
569.01	6315.98
569.372	6305.81
569.734	6307.62
570.095	6383.55
570.457	6407.95
570.819	6468.06
571.18	6469.19
571.542	6478.46
571.903	6521.4
572.265	6594.39
572.626	6566.14
572.987	6634.39
573.349	6695.4
573.71	6724.1
574.071	6710.32
574.432	6852.24
574.794	6853.82
575.155	6903.31
575.516	6912.8
575.877	6933.81
576.238	7063.75
576.599	7133.81
576.96	7138.33
577.32	7181.94
577.681	7290.42
578.042	7365.89
578.403	7458.32
578.763	7555.49
579.124	7630.75
579.485	7741.7
579.845	7807.69
580.206	7894.47
580.566	7986.22
580.927	8091.52
581.287	8250.39
581.648	8398.18
582.008	8522.25
582.368	8676.82
582.728	8898.28
583.089	8930.37
583.449	9140.99
583.809	9233.19
584.169	9488.1
584.529	9628.66
584.889	9849.9
585.249	9955.2
585.609	10138.7
585.969	10373.27
586.329	10547.28
586.688	10799.48
587.048	10989.98
587.408	11135.96
587.768	11449.63
588.127	11752.67
588.487	11860.01
588.846	12214.35
589.206	12376.38
589.565	12723.49
589.925	12954.22
590.284	13200.77
590.643	13455.68
591.003	13809.79
591.362	14121.65
591.721	14298.37
592.08	14595.31
592.44	14923.89
592.799	15202.07
593.158	15391.9
593.517	15753.92
593.876	16037.08
594.235	16357.07
594.593	16596.16
594.952	16965.64
595.311	17072.76
595.67	17519.3
596.029	17887.2
596.387	18258.04
596.746	18507.07
597.104	18787.29
597.463	18984.57
597.822	19380.72
598.18	19546.59
598.538	19901.84
598.897	20240.81
599.255	20388.38
599.613	20966.89
599.972	21194.46
600.33	21511.74
600.688	21756.48
601.046	22068.78
601.404	22444.82
601.762	22653.18
602.12	23064.92
602.478	23225.36
602.836	23556.65
603.194	23722.07
603.552	23896.53
603.91	24100.14
604.268	24562.73
604.625	24674.37
604.983	25049.04
605.341	25211.3
605.698	25652.19
606.056	25733.55
606.413	26009.92
606.771	26450.36
607.128	26543.69
607.485	26672.05
607.843	26987.3
608.2	27135.77
608.557	27687.85
608.914	27626.15
609.272	28007.16
609.629	28265.01
609.986	28443.98
610.343	28597.65
610.7	28899.56
611.057	29154.02
611.414	29154.02
611.771	29525.76
612.127	29723.5
612.484	29850.5
612.841	30257.5
613.198	30155.13
613.554	30516.92
613.911	30623.59
614.267	30906.29
614.624	31004.82
614.98	31230.58
615.337	31506.95
615.693	31633.05
616.05	31656.55
616.406	32050.44
616.762	31983.1
617.118	32115.75
617.475	32229.65
617.831	32485.23
618.187	32577.89
618.543	32775.17
618.899	32960.93
619.255	33042.28
619.611	33081.38
619.967	33323.4
620.323	33444.53
620.678	33412.89
621.034	33548.03
621.39	33538.31
621.746	33674.58
622.101	34209.71
622.457	34008.36
622.812	34210.16
623.168	34266.66
623.523	34341.23
623.879	34534.45
624.234	34405.18
624.589	34575.12
624.945	34732.63
625.3	34862.12
625.655	34815.79
626.01	34977.82
626.365	35015.11
626.72	35096.69
627.075	35063.7
627.43	35106.18
627.785	35233.41
628.14	35323.8
628.495	35443.35
628.85	35433.63
629.205	35378.72
629.559	35600.41
629.914	35454.87
630.269	35534.42
630.623	35439.05
630.978	35490.13
631.332	35678.82
631.687	35769.67
632.041	35728.54
632.396	35799.5
632.75	35636.79
633.104	35708.43
633.459	35770.57
633.813	35701.42
634.167	35744.81
634.521	35715.88
634.875	35817.8
635.229	35807.63
635.583	35723.57
635.937	35690.57
636.291	35740.06
636.645	35718.82
636.999	35709.56
637.352	35936.89
637.706	35605.38
638.06	35800.85
638.413	35717.46
638.767	35649.22
639.121	35881.3
639.474	35578.03
639.828	35737.58
640.181	35669.1
640.534	35866.16
640.888	35584.36
641.241	35508.66
641.594	35605.83
641.947	35696
642.301	35586.39
642.654	35770.12
643.007	35860.29
643.36	35788.88
643.713	35628.65
644.066	35740.29
644.419	35530.58
644.771	35397.02
645.124	35118.84
645.477	35058.5
645.83	34891.27
646.182	34736.93
646.535	34700.99
646.888	34703.25
647.24	34581
647.593	34787.09
647.945	34760.43
648.298	34552.52
648.65	34485.86
649.002	34619.64
649.355	34674.33
649.707	34580.77
650.059	34693.31
650.411	35164.94
650.763	35279.74
651.115	35465.27
651.467	35433.18
651.819	35494.87
652.171	35399.51
652.523	35413.52
652.875	35332.84
653.227	35225.05
653.578	35541.2
653.93	35384.82
654.282	35215.78
654.633	35273.18
654.985	35303.92
655.337	35257.59
655.688	35375.55
656.039	35366.74
656.391	35131.04
656.742	35286.52
657.094	35184.82
657.445	35469.79
657.796	35298.04
658.147	35099.4
658.498	35211.49
658.849	35124.03
659.2	35199.74
659.551	35104.6
659.902	35174.43
660.253	35084.04
660.604	35215.56
660.955	35026.41
661.306	35140.08
661.656	35100.08
662.007	35015.34
662.358	35114.09
662.708	35203.58
663.059	35055.56
663.409	34884.27
663.76	35232.05
664.11	34978.5
664.461	35159.29
664.811	35085.39
665.161	35139.17
665.511	35027.99
665.862	35129.91
666.212	35169.46
666.562	35196.8
666.912	35122.23
667.262	34997.26
667.612	34988.22
667.962	35186.86
668.312	35099.4
668.662	35297.36
669.011	35053.53
669.361	35095.33
669.711	35048.78
670.06	35006.75
670.41	34946.41
670.76	34999.29
671.109	35084.04
671.459	34958.61
671.808	34958.39
672.157	35031.16
672.507	34706.19
672.856	34848.11
673.205	34975.11
673.554	34919.97
673.904	34886.75
674.253	35046.07
674.602	34759.75
674.951	34327.22
675.3	34126.77
675.649	34704.16
675.998	34742.12
676.346	34748.9
676.695	34837.49
677.044	34522.47
677.393	34595.23
677.741	34652.86
678.09	34718.85
678.438	34521.79
678.787	34676.14
679.135	34572.18
679.484	34310.72
679.832	34551.39
680.181	34348.24
680.529	34460.55
680.877	34279.31
681.225	34261.23
681.573	34496.93
681.922	34174.91
682.27	34199.99
682.618	34163.61
682.966	34055.14
683.314	34085.87
683.661	34129.26
684.009	33929.26
684.357	33839.1
684.705	33704.86
685.053	33896.04
685.4	33748.03
685.748	33511.65
686.095	33593
686.443	33481.37
686.79	33512.55
687.138	33470.29
687.485	33470.74
687.832	33216.51
688.18	33433.46
688.527	33102.39
688.874	33056.07
689.221	33007.25
689.568	33003.41
689.915	32877.54
690.262	32941.72
690.609	32843.87
690.956	32764.1
691.303	32738.56
691.65	32638.9
691.997	32646.36
692.344	32309.64
692.69	32462.18
693.037	32470.32
693.383	32156.2
693.73	32259.25
694.077	32188.07
694.423	32037.11
694.769	32082.98
695.116	31901.75
695.462	31872.14
695.808	31781.07
696.155	31754.18
696.501	31557.12
696.847	31464.47
697.193	31246.62
697.539	31428.31
697.885	31198.26
698.231	31053.18
698.577	31073.07
698.923	31183.57
699.269	30879.4
699.614	30817.93
699.96	30697.94
700.306	30731.38
700.651	30618.16
700.997	30449.58
701.342	30478.73
701.688	30414.78
702.033	30457.26
702.379	30265.4
702.724	30360.09
703.069	30316.02
703.415	29905.19
703.76	29943.83
704.105	29944.06
704.45	29921.68
704.795	29576.16
705.14	29495.71
705.485	29638.98
705.83	29495.71
706.175	29599.66
706.52	29490.96
706.865	29421.81
707.209	29277.63
707.554	29179.56
707.899	29266.79
708.243	29081.71
708.588	29043.06
708.932	28884.2
709.277	28952.9
709.621	28923.52
709.966	28696.18
710.31	28687.14
710.654	28567.14
710.998	28692.11
711.342	28548.39
711.687	28470.2
712.031	28327.15
712.375	28307.72
712.719	28355.85
713.063	28168.51
713.407	28429.52
713.75	28120.38
714.094	28095.74
714.438	28024.33
714.782	28041.06
715.125	27910.66
715.469	27896.2
715.812	27817.33
716.156	27662.08
716.499	27648.75
716.843	27757.45
717.186	27482.43
717.53	27754.28
717.873	27611.46
718.216	27498.7
718.559	27452.37
718.902	27326.27
719.246	27381.64
719.589	27359.04
719.932	27052.61
720.275	27205.15
720.617	27201.08
720.96	27058.94
721.303	27059.61
721.646	27069.56
721.989	26981.2
722.331	26990.24
722.674	26759.73
723.016	26778.26
723.359	26830.92
723.701	26781.2
724.044	26671.15
724.386	26629.57
724.729	26703.69
725.071	26601.55
725.413	26420.53
725.755	26540.3
726.097	26365.85
726.439	26242.46
726.782	26282.68
727.124	26546.86
727.465	26387.77
727.807	26276.13
728.149	26278.39
728.491	26143.03
728.833	26131.73
729.175	25970.38
729.516	26048.11
729.858	26024.39
730.199	26049.24
730.541	26045.4
730.882	25884.73
731.224	25973.31
731.565	25808.57
731.906	25791.17
732.248	25858.51
732.589	25743.49
732.93	25596.37
733.271	25604.06
733.612	25772.19
733.953	25663.94
734.294	25574.91
734.635	25524.96
734.976	25569.71
735.317	25385.31
735.658	25490.84
735.999	25414.68
736.339	25407.91
736.68	25456.27
737.021	25347.57
737.361	25163.39
737.702	25331.98
738.042	25287
738.383	25216.05
738.723	25201.58
739.063	25166.33
739.404	25122.49
739.744	25125.65
740.084	24978.31
740.424	25038.42
740.764	24959.33
741.104	25053.11
741.444	24842.04
741.784	24883.63
742.124	24845.89
742.464	24869.16
742.804	24841.59
743.143	24784.19
743.483	24763.63
743.823	24674.59
744.162	24671.2
744.502	24680.69
744.841	24554.82
745.181	24774.02
745.52	24510.08
745.86	24581.71
746.199	24575.84
746.538	24504.2
746.877	24669.62
747.216	24443.18
747.556	24536.74
747.895	24477.53
748.234	24310.76
748.573	24347.59
748.911	24500.81
749.25	24351.66
749.589	24173.14
749.928	24312.11
750.267	24414.26
750.605	24177.2
750.944	24154.6
751.283	24110.76
751.621	24195.51
751.96	24071.44
752.298	24108.28
752.636	24051.1
752.975	23961.16
753.313	23925.46
753.651	24041.61
753.989	23773.37
754.327	23813.37
754.666	23706.71
755.004	23776.54
755.342	23905.35
755.679	23782.41
756.017	23736.99
756.355	23753.26
756.693	23644.34
757.031	23725.92
757.368	23702.64
757.706	23665.58
758.044	23527.05
758.381	23503.77
758.719	23406.15
759.056	23466.26
759.394	23485.02
759.731	23229.88
760.068	23257
760.405	23266.27
760.743	23173.84
761.08	23249.09
761.417	23137.23
761.754	23071.92
762.091	22995.54
762.428	22950.79
762.765	22836.22
763.102	23007.97
763.438	22800.06
763.775	22661.76
764.112	22635.1
764.449	22676.68
764.785	22579.73
765.122	22497.47
765.458	22446.85
765.795	22402.56
766.131	22350.58
766.467	22386.52
766.804	22206.63
767.14	22079.41
767.476	22023.36
767.812	21937.49
768.148	22092.51
768.485	21927.32
768.821	21738.85
769.157	21819.75
769.492	21715.57
769.828	21703.6
770.164	21482.13
770.5	21518.29
770.836	21421.12
771.171	21322.82
771.507	21196.72
771.842	21114.46
772.178	21202.37
772.513	21086.66
772.849	21139.54
773.184	20886.22
773.519	20935.48
773.855	20803.28
774.19	20763.06
774.525	20634.47
774.86	20554.25
775.195	20604.42
775.53	20523.74
775.865	20450.3
776.2	20290.75
776.535	20171.43
776.87	20177.31
777.205	20080.36
777.539	20037.88
777.874	20029.06
778.209	19876.07
778.543	19739.81
778.878	19682.41
779.212	19704.55
779.547	19616.42
779.881	19624.55
780.215	19506.59
780.55	19541.39
780.884	19335.3
781.218	19338.23
781.552	19320.83
781.886	19142.99
782.22	19061.18
782.554	19051.69
782.888	18865.93
783.222	18809.89
783.556	18738.02
783.889	18781.19
784.223	18639.5
784.557	18591.36
784.89	18537.58
785.224	18488.99
785.557	18328.09
785.891	18339.62
786.224	18250.81
786.558	18168.32
786.891	18145.95
787.224	17966.07
787.557	17920.42
787.891	17966.07
788.224	17895.11
788.557	17859.63
788.89	17779.86
789.223	17822.57
789.556	17605.85
789.888	17628.22
790.221	17492.86
790.554	17457.15
790.887	17408.79
791.219	17376.03
791.552	17274.56
791.884	17210.61
792.217	17193.66
792.549	17093.77
792.882	17088.12
793.214	16902.59
793.546	16988.01
793.879	16831.86
794.211	16731.07
794.543	16798.19
794.875	16778.98
795.207	16794.57
795.539	16660.79
795.871	16707.12
796.203	16486.78
796.535	16418.76
796.867	16467.12
797.198	16443.62
797.53	16344.19
797.862	16125.21
798.193	16188.71
798.525	16170.63
798.856	16113.01
799.188	16008.83
799.519	15923.86
799.85	15869.4
800.182	15895.16
800.513	15871.21
800.844	15644.77
801.175	15826.46
801.506	15688.39
801.837	15614.94
802.168	15552.12
802.499	15545.11
802.83	15472.12
803.161	15493.82
803.491	15365.01
803.822	15405
804.153	15338.34
804.483	15272.13
804.814	15223.99
805.145	15142.86
805.475	15185.58
805.805	15095.18
806.136	15021.51
806.466	14966.37
806.796	15042.3
807.126	14877.33
807.457	14811.12
807.787	14863.55
808.117	14738.13
808.447	14720.05
808.777	14760.5
809.107	14661.3
809.436	14610.22
809.766	14689.32
810.096	14528.42
810.426	14500.85
810.755	14473.05
811.085	14452.71
811.414	14468.31
811.744	14344.24
812.073	14280.06
812.403	14385.37
812.732	14238.03
813.061	14245.49
813.39	14180.63
813.719	14115.77
814.049	14174.98
814.378	14049.79
814.707	14086.17
815.036	13952.84
815.365	13936.79
815.693	13809.11
816.022	13853.18
816.351	13725.73
816.68	13710.81
817.008	13828.55
817.337	13682.34
817.665	13633.53
817.994	13610.25
818.322	13595.33
818.651	13531.38
818.979	13544.49
819.307	13532.29
819.636	13415.45
819.964	13448.22
820.292	13571.38
820.62	13518.73
820.948	13407.77
821.276	13356.02
821.604	13450.25
821.932	13415
822.259	13381.55
822.587	13384.04
822.915	13266.53
823.243	13437.15
823.57	13243.93
823.898	13390.59
824.225	13279.41
824.553	13345.17
824.88	13313.53
825.207	13346.98
825.535	13259.98
825.862	13341.56
826.189	13267.66
826.516	13385.62
826.843	13382.91
827.17	13328.9
827.497	13411.38
827.824	13353.53
828.151	13382.46
828.478	13337.26
828.805	13420.88
829.131	13334.32
829.458	13357.6
829.785	13223.82
830.111	13331.84
830.438	13379.07
830.764	13261.11
831.09	13240.54
831.417	13297.72
831.743	13320.77
832.069	13231.5
832.395	13226.53
832.722	13215.23
833.048	13224.95
833.374	13175.91
833.7	13221.33
834.026	13161.45
834.351	13231.05
834.677	13195.57
835.003	13231.28
835.329	13191.28
835.654	13125.06
835.98	12993.54
836.306	13094.56
836.631	12969.59
836.956	13123.26
837.282	13082.81
837.607	13004.16
837.932	12958.06
838.258	12925.75
838.583	12998.97
838.908	12865.64
839.233	12833.09
839.558	12820.67
839.883	12752.87
840.208	12736.15
840.533	12724.62
840.858	12723.04
841.182	12701.8
841.507	12691.18
841.832	12689.37
842.156	12650.27
842.481	12682.59
842.805	12612.08
843.13	12563.72
843.454	12530.28
843.778	12479.66
844.103	12412.77
844.427	12420.45
844.751	12411.18
845.075	12431.52
845.399	12339.77
845.723	12218.65
846.047	12323.5
846.371	12168.71
846.695	12158.99
847.019	12040.12
847.343	12036.96
847.666	11927.58
847.99	11873.57
848.313	11902.05
848.637	11860.46
848.96	11891.42
849.284	11804.87
849.607	11678.77
849.931	11686.01
850.254	11624.31
850.577	11481.27
850.9	11514.26
851.223	11528.27
851.546	11389.52
851.869	11377.54
852.192	11413.7
852.515	11354.04
852.838	11201.95
853.161	11186.13
853.483	11213.48
853.806	11165.79
854.129	11180.26
854.451	11133.48
854.774	11107.94
855.096	11025.91
855.419	10983.88
855.741	10974.84
856.063	10880.38
856.385	10864.78
856.708	10872.47
857.03	10793.6
857.352	10811.68
857.674	10782.53
857.996	10665.92
858.318	10626.83
858.64	10676.77
858.961	10605.13
859.283	10544.12
859.605	10597.45
859.926	10583.89
860.248	10508.86
860.57	10462.99
860.891	10536.66
861.212	10409.66
861.534	10378.92
861.855	10362.65
862.176	10393.16
862.498	10345.93
862.819	10335.31
863.14	10317.45
863.461	10243.11
863.782	10219.15
864.103	10302.54
864.424	10201.98
864.745	10243.78
865.065	10159.94
865.386	10110.91
865.707	10166.05
866.027	10160.85
866.348	10108.65
866.668	10103.45
866.989	10135.31
867.309	9999.27
867.63	10088.99
867.95	10027.97
868.27	9935.77
868.59	10008.31
868.91	10028.2
869.23	9953.4
869.55	9931.48
869.87	9913.62
870.19	9899.16
870.51	9904.58
870.83	9911.14
871.15	9861.42
871.469	9820.29
871.789	9889.22
872.109	9805.15
872.428	9719.28
872.748	9726.74
873.067	9756.57
873.386	9706.4
873.706	9721.09
874.025	9681.77
874.344	9701.43
874.663	9617.81
874.982	9575.55
875.301	9665.95
875.62	9642.9
875.939	9553.86
876.258	9606.51
876.577	9550.92
876.896	9586.85
877.214	9576.23
877.533	9518.61
877.852	9491.94
878.17	9499.17
878.489	9528.55
878.807	9534.88
879.125	9413.3
879.444	9398.83
879.762	9370.81
880.08	9425.95
880.398	9329.68
880.716	9381.21
881.034	9315.22
881.352	9325.39
881.67	9281.78
881.988	9335.79
882.306	9276.8
882.624	9218.05
882.941	9225.96
883.259	9195.45
883.577	9167.43
883.894	9143.7
884.212	9148.22
884.529	9088.33
884.846	9133.31
885.164	9038.17
885.481	9090.82
885.798	9044.27
886.115	8971.5
886.432	9042.01
886.75	8938.51
887.067	9057.37
887.383	8875.68
887.7	8880.66
888.017	8913.2
888.334	8922.92
888.651	8905.06
888.967	8850.15
889.284	8717.72
889.6	8770.38
889.917	8692.64
890.233	8634.79
890.55	8688.57
890.866	8677.72
891.182	8599.76
891.498	8625.75
891.815	8632.53
892.131	8570.38
892.447	8484.06
892.763	8473.89
893.079	8437.96
893.395	8467.11
893.71	8372.2
894.026	8438.63
894.342	8411.52
894.657	8313.89
894.973	8357.28
895.289	8333.1
895.604	8297.17
895.92	8251.75
896.235	8261.92
896.55	8275.02
896.865	8176.72
897.181	8178.98
897.496	8129.94
897.811	8126.78
898.126	8106.67
898.441	7991.19
898.756	8019.66
899.071	7955.48
899.386	7979.21
899.7	7909.83
900.015	7877.29
900.33	7849.5
900.644	7795.94
900.959	7843.62
901.273	7805.43
901.588	7760.69
901.902	7686.56
902.216	7742.38
902.531	7662.61
902.845	7651.08
903.159	7603.18
903.473	7567.24
903.787	7564.53
904.101	7530.86
904.415	7579.9
904.729	7456.74
905.042	7418.1
905.356	7421.26
905.67	7427.59
905.984	7401.15
906.297	7325.67
906.611	7243.19
906.924	7259.91
907.237	7240.02
907.551	7213.81
907.864	7179.23
908.177	7168.84
908.491	7167.71
908.804	7102.4
909.117	7042.29
909.43	7049.74
909.743	7026.02
910.056	7019.46
910.368	6967.94
910.681	6956.87
910.994	6887.49
911.307	6932.23
911.619	6811.33
911.932	6878.68
912.244	6735.63
912.557	6812.69
912.869	6733.59
913.181	6707.83
913.494	6666.03
913.806	6648.17
914.118	6563.66
914.43	6628.06
914.742	6643.65
915.054	6530.21
915.366	6587.38
915.678	6475.3
915.99	6512.81
916.302	6449.08
916.613	6449.99
916.925	6376.99
917.236	6346.03
917.548	6332.47
917.859	6303.55
918.171	6294.51
918.482	6252.02
918.794	6255.87
919.105	6208.64
919.416	6228.52
919.727	6140.84
920.038	6140.62
920.349	6106.27
920.66	6070.33
920.971	6078.92
921.282	6066.27
921.593	6030.56
921.903	5960.06
922.214	5955.08
922.525	5935.87
922.835	5910.11
923.146	5863.33
923.456	5821.3
923.767	5786.73
924.077	5814.07
924.387	5781.53
924.697	5776.33
925.008	5725.03
925.318	5680.29
925.628	5663.34
925.938	5655.43
926.248	5573.17
926.558	5567.52
926.867	5585.6
927.177	5567.52
927.487	5543.79
927.796	5494.3
928.106	5494.3
928.416	5447.53
928.725	5466.96
929.034	5388.77
929.344	5389.45
929.653	5387.64
929.962	5330.92
930.271	5327.98
930.581	5275.78
930.89	5275.33
931.199	5225.16
931.508	5250.92
931.817	5241.43
932.125	5218.38
932.434	5208.44
932.743	5139.29
933.051	5088.67
933.36	5113.98
933.669	5073.52
933.977	5067.2
934.286	5103.81
934.594	5034.43
934.902	4949.01
935.21	4977.03
935.519	4964.15
935.827	4929.35
936.135	4944.26
936.443	4861.55
936.751	4879.86
937.059	4875.79
937.367	4827.2
937.674	4841.44
937.982	4828.11
938.29	4775.91
938.597	4777.71
938.905	4771.39
939.213	4751.5
939.52	4644.84
939.827	4696.36
940.135	4631.73
940.442	4620.2
940.749	4595.35
941.056	4618.85
941.363	4564.16
941.67	4550.6
941.977	4527.1
942.284	4507.21
942.591	4503.14
942.898	4474.67
943.205	4457.72
943.511	4438.06
943.818	4404.62
944.125	4395.8
944.431	4392.64
944.738	4391.96
945.044	4283.04
945.35	4290.95
945.657	4241.91
945.963	4281
946.269	4258.4
946.575	4297.27
946.881	4247.56
947.187	4201.23
947.493	4232.42
947.799	4205.75
948.105	4156.71
948.41	4109.26
948.716	4146.32
949.022	4074
949.327	4112.42
949.633	4023.38
949.938	4042.14
950.244	4045.98
950.549	3976.83
950.854	4005.76
951.16	4013.67
951.465	3990.84
951.77	3921.01
952.075	3920.79
952.38	3914.01
952.685	3883.95
952.99	3837.63
953.294	3878.08
953.599	3819.09
953.904	3818.87
954.209	3790.39
954.513	3794.46
954.818	3776.38
955.122	3765.54
955.426	3726.22
955.731	3749.94
956.035	3734.12
956.339	3678.08
956.643	3650.29
956.948	3663.17
957.252	3662.26
957.556	3651.64
957.86	3620.46
958.163	3633.79
958.467	3583.39
958.771	3560.8
959.075	3590.85
959.378	3570.06
959.682	3538.42
959.985	3497.97
960.289	3505.66
960.592	3497.07
960.896	3454.81
961.199	3422.95
961.502	3422.27
961.805	3416.39
962.108	3405.09
962.411	3408.48
962.714	3370.07
963.017	3352.44
963.32	3389.95
963.623	3376.62
963.926	3333.68
964.228	3299.79
964.531	3290.07
964.833	3276.74
965.136	3248.26
965.438	3264.08
965.741	3228.83
966.043	3237.64
966.345	3201.48
966.648	3169.85
966.95	3160.81
967.252	3156.74
967.554	3130.07
967.856	3123.07
968.158	3124.2
968.46	3077.87
968.761	3076.29
969.063	3069.51
969.365	3107.47
969.666	3043.75
969.968	3030.41
970.269	3010.75
970.571	3018.89
970.872	3021.6
971.174	2974.14
971.475	3007.82
971.776	2969.85
972.077	2946.58
972.378	2925.11
972.679	2968.72
972.98	2900.93
973.281	2904.54
973.582	2892.57
973.883	2894.37
974.183	2839.69
974.484	2850.31
974.785	2845.11
975.085	2823.64
975.386	2832.68
975.686	2799.91
975.986	2804.21
976.287	2764.21
976.587	2753.13
976.887	2741.61
977.187	2739.8
977.487	2760.82
977.787	2726.24
978.087	2698.9
978.387	2693.02
978.687	2682.85
978.987	2656.19
979.286	2640.59
979.586	2641.72
979.885	2650.54
980.185	2630.2
980.484	2583.19
980.784	2608.96
981.083	2587.26
981.382	2600.6
981.682	2525.34
981.981	2550.43
982.28	2524.21
982.579	2539.13
982.878	2524.44
983.177	2497.32
983.475	2493.25
983.774	2529.64
984.073	2465.91
984.372	2465.01
984.67	2447.61
984.969	2471.33
985.267	2420.71
985.566	2408.28
985.864	2420.26
986.162	2451.45
986.461	2411
986.759	2371.45
987.057	2352.24
987.355	2373.26
987.653	2339.81
987.951	2303.88
988.249	2339.36
988.547	2326.48
988.844	2278.34
989.142	2292.13
989.44	2285.8
989.737	2259.14
990.035	2229.31
990.332	2256.88
990.63	2267.27
990.927	2229.76
991.224	2208.52
991.521	2203.32
991.819	2217.33
992.116	2218.23
992.413	2209.19
992.71	2180.27
993.006	2176.65
993.303	2161.28
993.6	2135.75
993.897	2120.38
994.193	2114.73
994.49	2122.87
994.787	2120.16
995.083	2105.47
995.379	2099.14
995.676	2079.25
995.972	2068.18
996.268	2054.4
996.565	2067.73
996.861	2028.86
997.157	2013.49
997.453	1999.48
997.749	1986.37
998.044	1992.48
998.34	1989.76
998.636	1960.39
998.932	1906.83
999.227	1971.01
999.523	1936.66
999.818	1940.27
1000.114	1917.9
1000.409	1911.57
1000.704	1889.65
1001	1902.53
1001.295	1885.81
1001.59	1875.42
1001.885	1879.03
1002.18	1851.01
1002.475	1841.07
1002.77	1838.13
1003.065	1807.17
1003.359	1813.72
1003.654	1830.67
1003.949	1792.48
1004.243	1768.07
1004.538	1756.55
1004.832	1755.19
1005.127	1756.1
1005.421	1763.78
1005.715	1711.35
1006.009	1725.36
1006.304	1704.35
1006.598	1703.22
1006.892	1693.27
1007.186	1711.13
1007.48	1712.03
1007.773	1662.77
1008.067	1664.35
1008.361	1646.95
1008.655	1639.26
1008.948	1637.46
1009.242	1634.97
1009.535	1634.29
1009.829	1629.1
1010.122	1597.46
1010.415	1594.75
1010.708	1557.46
1011.001	1578.7
1011.295	1585.71
1011.588	1563.56
1011.881	1537.12
1012.173	1557.01
1012.466	1508.19
1012.759	1521.53
1013.052	1498.25
1013.344	1514.07
1013.637	1474.75
1013.93	1463.68
1014.222	1470
1014.514	1459.16
1014.807	1428.65
1015.099	1433.62
1015.391	1418.93
1015.683	1450.12
1015.976	1432.72
1016.268	1411.7
1016.56	1425.03
1016.851	1420.29
1017.143	1396.79
1017.435	1371.48
1017.727	1362.66
1018.018	1363.34
1018.31	1362.21
1018.602	1389.55
1018.893	1338.48
1019.185	1327.18
1019.476	1334.19
1019.767	1318.82
1020.058	1315.43
1020.35	1312.72
1020.641	1295.55
1020.932	1269.33
1021.223	1292.83
1021.514	1244.02
1021.804	1275.43
1022.095	1235.89
1022.386	1229.33
1022.677	1225.72
1022.967	1249.9
1023.258	1251.7
1023.548	1201.31
1023.839	1216.9
1024.129	1196.56
1024.419	1168.32
1024.709	1197.92
1025	1162.67
1025.29	1163.35
1025.58	1152.72
1025.87	1167.19
1026.16	1168.99
1026.449	1176
1026.739	1128.77
1027.029	1100.75
1027.319	1112.72
1027.608	1122.67
1027.898	1122.22
1028.187	1114.76
1028.477	1078.38
1028.766	1089.9
1029.055	1084.25
1029.344	1085.16
1029.634	1053.29
1029.923	1063.91
1030.212	1041.31
1030.501	1047.19
1030.79	1035.89
1031.078	1021.43
1031.367	1024.14
1031.656	1014.65
1031.945	993.41
1032.233	1023.69
1032.522	997.7
1032.81	1001.77
1033.099	986.63
1033.387	976.23
1033.675	959.96
1033.963	960.19
1034.251	958.83
1034.54	952.05
1034.828	951.37
1035.116	959.73
1035.403	943.01
1035.691	933.29
1035.979	935.55
1036.267	935.55
1036.554	931.49
1036.842	905.95
1037.129	923.8
1037.417	879.96
1037.704	912.05
1037.992	892.62
1038.279	875.9
1038.566	894.43
1038.853	894.43
1039.14	894.43
