Data from hue_80_FLMS001491_14.txt Node
Date: Mon Feb 06 15:22:33 GMT 2017
User: dcchb
Spectrometer: FLMS00149
Trigger mode: 0
Integration Time (sec): 2.000000E-2
Scans to average: 10
Electric dark correction enabled: true
Nonlinearity correction enabled: false
Boxcar width: 0
XAxis mode: Wavelengths
Number of Pixels in Spectrum: 2048
>>>>>Begin Spectral Data<<<<<
341.393	2.7
341.776	2.7
342.16	2.7
342.543	-61.48
342.927	-58.54
343.31	-74.59
343.693	-75.72
344.077	-66.23
344.46	-57.87
344.843	-54.25
345.226	-26.23
345.61	-36.17
345.993	-10.18
346.376	-8.6
346.759	0.89
347.142	28.91
347.525	44.96
347.908	54.9
348.291	76.82
348.674	80.21
349.057	123.15
349.44	146.87
349.823	142.36
350.206	145.97
350.588	190.94
350.971	213.09
351.354	236.14
351.737	238.17
352.119	229.13
352.502	243.37
352.884	271.39
353.267	275.23
353.65	294.67
354.032	285.85
354.414	306.42
354.797	311.16
355.179	322.92
355.562	339.86
355.944	320.43
356.326	325.85
356.709	314.33
357.091	329.69
357.473	340.54
357.855	328.34
358.238	337.6
358.62	352.52
359.002	328.56
359.384	336.7
359.766	322.69
360.148	343.03
360.53	333.08
360.912	331.5
361.294	328.11
361.676	333.76
362.057	329.92
362.439	347.77
362.821	327.89
363.203	334.89
363.584	325.18
363.966	295.8
364.348	346.19
364.729	323.14
365.111	312.75
365.493	313.65
365.874	299.64
366.256	317.49
366.637	313.2
367.019	317.72
367.4	318.17
367.781	312.52
368.163	323.37
368.544	292.18
368.925	308.45
369.306	340.32
369.688	306.64
370.069	321.33
370.45	310.49
370.831	294.67
371.212	326.08
371.593	312.97
371.974	298.06
372.355	312.07
372.736	316.59
373.117	317.72
373.498	311.84
373.879	323.82
374.26	316.59
374.641	318.17
375.021	319.3
375.402	308.45
375.783	327.66
376.163	311.39
376.544	317.27
376.925	312.29
377.305	333.76
377.686	317.72
378.066	333.76
378.447	333.99
378.827	328.79
379.208	302.8
379.588	343.93
379.968	327.66
380.349	339.86
380.729	322.92
381.109	332.41
381.489	332.63
381.87	352.52
382.25	325.18
382.63	304.16
383.01	349.13
383.39	331.95
383.77	336.93
384.15	328.34
384.53	317.72
384.91	324.05
385.29	350.49
385.67	351.62
386.049	344.16
386.429	344.84
386.809	341.67
387.189	348.45
387.568	364.72
387.948	350.49
388.328	335.34
388.707	369.92
389.087	360.65
389.466	363.37
389.846	350.94
390.225	355.23
390.605	358.17
390.984	350.94
391.363	388.68
391.743	346.42
392.122	360.2
392.501	376.25
392.881	368.79
393.26	338.06
393.639	369.47
394.018	354.1
394.397	359.75
394.776	367.89
395.155	364.95
395.534	346.19
395.913	387.55
396.292	371.95
396.671	393.87
397.05	380.09
397.429	401.33
397.808	383.03
398.186	378.96
398.565	388.9
398.944	390.48
399.323	389.81
399.701	400.65
400.08	389.35
400.458	406.3
400.837	401.33
401.215	375.12
401.594	384.83
401.972	387.09
402.351	375.12
402.729	391.61
403.107	388.22
403.486	388
403.864	389.81
404.242	397.72
404.62	401.78
404.999	405.85
405.377	405.4
405.755	411.95
406.133	414.21
406.511	412.18
406.889	425.74
407.267	423.93
407.645	403.37
408.023	414.21
408.401	409.47
408.779	410.82
409.156	437.49
409.534	417.15
409.912	428
410.29	430.26
410.667	448.56
411.045	423.7
411.422	438.39
411.8	468.67
412.178	443.14
412.555	429.13
412.933	453.31
413.31	460.99
413.687	454.44
414.065	453.76
414.442	484.04
414.819	449.01
415.197	469.13
415.574	499.41
415.951	482.23
416.328	477.71
416.705	489.24
417.082	483.14
417.46	464.15
417.837	481.56
418.214	484.27
418.591	497.83
418.967	506.19
419.344	475.45
419.721	515.45
420.098	478.62
420.475	508.67
420.852	501.67
421.228	511.38
421.605	519.75
421.982	510.03
422.358	535.79
422.735	524.49
423.111	486.98
423.488	533.98
423.864	545.28
424.241	540.54
424.617	532.18
424.994	550.48
425.37	548.45
425.746	553.87
426.123	543.93
426.499	544.15
426.875	556.36
427.251	559.52
427.627	555.9
428.003	579.18
428.379	580.08
428.756	568.11
429.132	554.1
429.507	565.85
429.883	589.8
430.259	583.93
430.635	606.3
431.011	591.16
431.387	585.06
431.763	598.16
432.138	620.31
432.514	625.05
432.89	621.21
433.265	608.78
433.641	631.83
434.016	632.96
434.392	634.09
434.767	627.77
435.143	640.42
435.518	642.68
435.894	673.19
436.269	656.69
436.644	661.21
437.02	663.25
437.395	687.43
437.77	689.23
438.145	684.94
438.52	689.91
438.895	694.66
439.271	710.25
439.646	715.9
440.021	718.39
440.395	719.06
440.77	684.26
441.145	730.14
441.52	737.14
441.895	730.59
442.27	736.46
442.645	745.5
443.019	743.7
443.394	722.68
443.769	759.97
444.143	762.45
444.518	768.1
444.892	777.59
445.267	765.39
445.641	780.76
446.016	764.03
446.39	791.6
446.764	799.96
447.139	794.32
447.513	791.6
447.887	780.53
448.262	789.57
448.636	816.24
449.01	820.53
449.384	827.31
449.758	837.7
450.132	830.25
450.506	833.18
450.88	845.16
451.254	839.06
451.628	865.05
452.002	865.27
452.376	886.29
452.75	889.91
453.123	885.16
453.497	905.72
453.871	880.19
454.244	929
454.618	892.39
454.992	939.62
455.365	910.02
455.739	910.92
456.112	958.83
456.486	959.51
456.859	964.93
457.232	967.19
457.606	984.37
457.979	998.38
458.352	988.43
458.725	1031.15
459.099	1044.48
459.472	1032.28
459.845	1003.35
460.218	1039.05
460.591	1059.85
460.964	1077.25
461.337	1096.23
461.71	1105.72
462.083	1119.5
462.456	1135.1
462.829	1127.64
463.201	1145.27
463.574	1154.53
463.947	1151.37
464.32	1201.31
464.692	1196.79
465.065	1220.29
465.438	1275.88
465.81	1252.16
466.183	1296.9
466.555	1290.57
466.928	1307.07
467.3	1343.91
467.672	1356.11
468.045	1367.63
468.417	1387.29
468.789	1416.67
469.161	1455.77
469.534	1482.43
469.906	1461.64
470.278	1491.47
470.65	1526.5
471.022	1547.97
471.394	1577.12
471.766	1605.59
472.138	1627.06
472.51	1651.69
472.882	1698.47
473.253	1724.69
473.625	1765.59
473.997	1804.23
474.369	1861.63
474.74	1846.27
475.112	1895.53
475.484	1957.67
475.855	2001.52
476.227	2026.37
476.598	2076.54
476.97	2104.11
477.341	2220.72
477.713	2245.35
478.084	2258.01
478.455	2361.28
478.827	2418
479.198	2498.68
479.569	2520.15
479.94	2616.19
480.311	2666.36
480.682	2783.87
481.053	2854.15
481.424	2893.7
481.795	2974.14
482.166	3076.29
482.537	3128.72
482.908	3230.18
483.279	3324.42
483.65	3391.99
484.021	3500.01
484.391	3643.73
484.762	3691.87
485.133	3789.94
485.503	3880.34
485.874	3990.84
486.244	4062.7
486.615	4196.26
486.985	4317.39
487.356	4432.41
487.726	4529.13
488.097	4688.22
488.467	4777.49
488.837	4952.62
489.207	5041.21
489.578	5171.15
489.948	5262.45
490.318	5385.16
490.688	5470.35
491.058	5628.76
491.428	5831.02
491.798	5867.4
492.168	6114.4
492.538	6185.13
492.908	6360.5
493.278	6455.41
493.648	6565.24
494.017	6725.23
494.387	6823.31
494.757	6963.19
495.126	7136.07
495.496	7230.3
495.866	7308.27
496.235	7476.85
496.605	7610.63
496.974	7790.29
497.344	7890.17
497.713	7978.31
498.082	8081.13
498.452	8223.27
498.821	8258.07
499.19	8379.88
499.559	8549.82
499.928	8696.25
500.298	8750.94
500.667	8892.86
501.036	8934.21
501.405	9137.37
501.774	9132.63
502.143	9299.4
502.512	9464.82
502.88	9616.91
503.249	9609
503.618	9775.55
503.987	9794.53
504.356	9928.54
504.724	10078.36
505.093	10106.39
505.462	10188.64
505.83	10307.06
506.199	10406.04
506.567	10545.47
506.936	10592.93
507.304	10770.55
507.672	10816.88
508.041	10919.92
508.409	10975.74
508.777	11131.22
509.145	11182.52
509.514	11292.57
509.882	11311.33
510.25	11390.65
510.618	11493.02
510.986	11604.65
511.354	11688.94
511.722	11730.3
512.09	11855.27
512.458	11895.94
512.826	11980.01
513.193	12034.7
513.561	12082.38
513.929	12270.62
514.297	12376.38
514.664	12417.29
515.032	12475.59
515.4	12537.06
515.767	12581.35
516.135	12637.39
516.502	12650.27
516.869	12798.29
517.237	12861.79
517.604	12784.06
517.972	12997.16
518.339	13103.37
518.706	13108.79
519.073	13221.11
519.44	13234.21
519.808	13375.23
520.175	13321.22
520.542	13382.91
520.909	13541.32
521.276	13508.56
521.643	13638.95
522.009	13671.72
522.376	13749.91
522.743	13810.92
523.11	13933.18
523.477	14001.43
523.843	14068.09
524.21	14196.9
524.577	14206.17
524.943	14258.82
525.31	14356.22
525.676	14432.37
526.043	14481.64
526.409	14430.79
526.776	14566.38
527.142	14651.35
527.508	14677.11
527.874	14801.86
528.241	14770.22
528.607	14719.82
528.973	14882.31
529.339	14977.22
529.705	14977.67
530.071	15038.23
530.437	15044.79
530.803	15160.27
531.169	15150.32
531.535	15103.77
531.901	15200.72
532.267	15238.91
532.632	15204.33
532.998	15271.22
533.364	15273.26
533.73	15313.93
534.095	15350.32
534.461	15362.97
534.826	15398
535.192	15413.37
535.557	15450.2
535.923	15377.89
536.288	15488.62
536.653	15588.28
537.019	15381.5
537.384	15485
537.749	15518.67
538.114	15542.4
538.479	15508.28
538.845	15503.08
539.21	15402.74
539.575	15543.98
539.94	15455.85
540.305	15553.25
540.67	15510.54
541.034	15522.52
541.399	15471.9
541.764	15635.73
542.129	15546.02
542.494	15454.04
542.858	15550.54
543.223	15506.02
543.587	15501.73
543.952	15491.1
544.316	15510.09
544.681	15511.44
545.045	15514.83
545.41	15607.49
545.774	15499.47
546.138	15582.18
546.503	15439.13
546.867	15402.97
547.231	15446.13
547.595	15543.76
547.959	15528.17
548.324	15443.87
548.688	15353.03
549.052	15498.79
549.416	15489.52
549.779	15399.13
550.143	15455.17
550.507	15499.24
550.871	15397.1
551.235	15474.38
551.599	15459.01
551.962	15510.99
552.326	15429.86
552.689	15529.52
553.053	15528.62
553.417	15410.2
553.78	15561.61
554.143	15529.75
554.507	15428.73
554.87	15485.68
555.234	15585.34
555.597	15500.14
555.96	15501.73
556.323	15442.97
556.686	15514.83
557.05	15629.18
557.413	15608.39
557.776	15539.69
558.139	15645.22
558.502	15597.32
558.865	15620.37
559.228	15648.84
559.59	15733.58
559.953	15753.47
560.316	15844.09
560.679	15729.06
561.041	15859.23
561.404	15759.57
561.767	15950.07
562.129	15835.05
562.492	15984.42
562.854	15847.48
563.217	15841.15
563.579	15920.7
563.941	15971.09
564.304	16096.51
564.666	16041.6
565.028	16024.2
565.39	16087.02
565.753	16181.93
566.115	16073.24
566.477	16183.06
566.839	16188.94
567.201	16294.92
567.563	16226.9
567.925	16328.6
568.287	16379.89
568.648	16309.39
569.01	16369.05
569.372	16482.04
569.734	16393
570.095	16583.05
570.457	16631.41
570.819	16561.13
571.18	16598.42
571.542	16599.55
571.903	16637.74
572.265	16620.79
572.626	16776.49
572.987	16735.37
573.349	16739.66
573.71	16782.82
574.071	16807.68
574.432	16834.35
574.794	16905.3
575.155	16877.73
575.516	16713.44
575.877	16977.84
576.238	16816.94
576.599	16917.06
576.96	16880.9
577.32	16910.05
577.681	17065.53
578.042	17025.53
578.403	17029.14
578.763	17047.45
579.124	16993.21
579.485	17039.09
579.845	17103.26
580.206	17024.62
580.566	16990.73
580.927	17027.11
581.287	17079.08
581.648	17012.65
582.008	17046.09
582.368	17008.35
582.728	17090.84
583.089	17044.74
583.449	17050.39
583.809	17003.83
584.169	17024.62
584.529	17034.57
584.889	17121.34
585.249	17156.37
585.609	17068.46
585.969	17051.51
586.329	17096.94
586.688	17026.66
587.048	16997.96
587.408	16985.98
587.768	17058.07
588.127	16971.74
588.487	16966.09
588.846	16996.15
589.206	16878.64
589.565	16921.57
589.925	17004.96
590.284	17000.22
590.643	16976.04
591.003	16895.13
591.362	17031.63
591.721	17011.97
592.08	17001.12
592.44	17013.1
592.799	16988.24
593.158	16888.58
593.517	16941.69
593.876	17044.06
594.235	16894.91
594.593	16844.74
594.952	16952.76
595.311	16911.18
595.67	16870.05
596.029	17026.2
596.387	16990.95
596.746	16969.26
597.104	16899.65
597.463	16856.04
597.822	16940.11
598.18	16875.7
598.538	16860.11
598.897	16956.6
599.255	16842.48
599.613	17094.68
599.972	16915.7
600.33	16957.96
600.688	16783.73
601.046	16961.12
601.404	17029.82
601.762	16869.6
602.12	17115.69
602.478	16988.92
602.836	17035.24
603.194	16901.01
603.552	16976.04
603.91	16911.63
604.268	17070.27
604.625	16949.6
604.983	16979.65
605.341	16895.81
605.698	16964.06
606.056	17023.49
606.413	16981.91
606.771	17008.8
607.128	17083.83
607.485	17042.93
607.843	16937.85
608.2	17054.9
608.557	17122.02
608.914	17067.56
609.272	17182.13
609.629	17131.51
609.986	17231.4
610.343	17100.1
610.7	17286.76
611.057	17217.84
611.414	17228.46
611.771	17202.7
612.127	17312.98
612.484	17269.14
612.841	17382.58
613.198	17276.14
613.554	17323.15
613.911	17417.16
614.267	17381.68
614.624	17432.07
614.98	17384.39
615.337	17462.35
615.693	17420.77
616.05	17365.18
616.406	17512.97
616.762	17433.43
617.118	17375.8
617.475	17474.55
617.831	17470.26
618.187	17519.53
618.543	17519.53
618.899	17672.97
619.255	17549.58
619.611	17578.51
619.967	17667.77
620.323	17598.85
620.678	17568.11
621.034	17490.15
621.39	17709.8
621.746	17606.75
622.101	17720.65
622.457	17636.81
622.812	17607.21
623.168	17647.43
623.523	17665.28
623.879	17684.04
624.234	17703.25
624.589	17649.47
624.945	17801.1
625.3	17698.28
625.655	17698.05
626.01	17700.99
626.365	17753.64
626.72	17688.11
627.075	17694.44
627.43	17692.18
627.785	17624.83
628.14	17699.18
628.495	17685.17
628.85	17686.53
629.205	17609.92
629.559	17702.12
629.914	17659.41
630.269	17646.53
630.623	17584.38
630.978	17514.78
631.332	17618.73
631.687	17635.91
632.041	17577.38
632.396	17548.23
632.75	17544.61
633.104	17579.86
633.459	17515.91
633.813	17443.14
634.167	17504.61
634.521	17438.85
634.875	17481.11
635.229	17410.38
635.583	17366.08
635.937	17426.87
636.291	17237.05
636.645	17320.21
636.999	17233.43
637.352	17280.44
637.706	17216.48
638.06	17218.74
638.413	17216.71
638.767	17220.55
639.121	17233.88
639.474	17100.33
639.828	17143.04
640.181	17217.84
640.534	17085.41
640.888	17184.62
641.241	17026.43
641.594	17111.85
641.947	17210.38
642.301	17135.35
642.654	17126.99
643.007	17025.53
643.36	17103.04
643.713	16958.41
644.066	17096.03
644.419	16882.25
644.771	16892.88
645.124	16751.41
645.477	16663.95
645.83	16592.09
646.182	16566.56
646.535	16488.37
646.888	16409.5
647.24	16479.55
647.593	16604.75
647.945	16467.35
648.298	16460.34
648.65	16409.72
649.002	16344.41
649.355	16520.68
649.707	16401.14
650.059	16486.11
650.411	16682.49
650.763	16651.07
651.115	16870.05
651.467	16802.93
651.819	16793.89
652.171	16762.48
652.523	16775.82
652.875	16838.87
653.227	16727.46
653.578	16814.01
653.93	16705.31
654.282	16737.62
654.633	16720.68
654.985	16759.32
655.337	16769.26
655.688	16769.49
656.039	16836.61
656.391	16701.02
656.742	16703.05
657.094	16724.52
657.445	16781.69
657.796	16761.58
658.147	16703.95
658.498	16689.49
658.849	16752.54
659.2	16741.24
659.551	16660.56
659.902	16726.1
660.253	16769.49
660.604	16785.99
660.955	16759.32
661.306	16724.52
661.656	16721.35
662.007	16832.99
662.358	16771.97
662.708	16778.75
663.059	16827.34
663.409	16673.22
663.76	16840.9
664.11	16878.41
664.461	16791.18
664.811	16910.95
665.161	16916.15
665.511	16806.78
665.862	16875.02
666.212	16879.77
666.562	16894.23
666.912	16891.75
667.262	16873.44
667.612	16889.49
667.962	16884.97
668.312	16846.55
668.662	16823.5
669.011	16830.73
669.361	16703.05
669.711	16706.21
670.06	16765.87
670.41	16763.61
670.76	16727.68
671.109	16875.02
671.459	16800
671.808	16720.68
672.157	16670.96
672.507	16714.35
672.856	16622.83
673.205	16682.49
673.554	16726.78
673.904	16713.67
674.253	16742.6
674.602	16732.43
674.951	16463.51
675.3	16282.95
675.649	16589.61
675.998	16649.94
676.346	16651.53
676.695	16618.53
677.044	16550.51
677.393	16628.7
677.741	16606.55
678.09	16508.7
678.438	16524.3
678.787	16463.73
679.135	16457.41
679.484	16426.22
679.832	16512.55
680.181	16331.31
680.529	16502.6
680.877	16437.97
681.225	16362.95
681.573	16464.41
681.922	16383.96
682.27	16299.67
682.618	16186.68
682.966	16152.56
683.314	16312.1
683.661	16112.1
684.009	16067.81
684.357	15968.15
684.705	15986.68
685.053	15979.68
685.4	15948.49
685.748	15878.44
686.095	15882.28
686.443	15819.91
686.79	15810.19
687.138	15850.19
687.485	15769.29
687.832	15688.84
688.18	15754.83
688.527	15615.62
688.874	15704.66
689.221	15544.89
689.568	15482.52
689.915	15397.77
690.262	15554.83
690.609	15409.52
690.956	15367.27
691.303	15408.17
691.65	15293.6
691.997	15278
692.344	15125.46
692.69	15178.12
693.037	15101.96
693.383	15011.12
693.73	15043.21
694.077	15031.91
694.423	14930.44
694.769	14981.96
695.116	14802.99
695.462	14772.48
695.808	14787.62
696.155	14728.86
696.501	14627.62
696.847	14647.28
697.193	14563.22
697.539	14554.86
697.885	14454.07
698.231	14427.18
698.577	14348.08
698.923	14412.71
699.269	14343.11
699.614	14231.93
699.96	14160.07
700.306	14135.66
700.651	13995.55
700.997	14084.81
701.342	14086.85
701.688	13956.91
702.033	13863.58
702.379	13891.15
702.724	13846.4
703.069	13899.28
703.415	13718.72
703.76	13660.87
704.105	13688.21
704.45	13676.91
704.795	13608.67
705.14	13547.88
705.485	13499.74
705.83	13430.82
706.175	13379.52
706.52	13363.25
706.865	13289.81
707.209	13381.55
707.554	13272.18
707.899	13201.67
708.243	13234.67
708.588	13190.6
708.932	13031.28
709.277	13099.75
709.621	13072.18
709.966	12991.96
710.31	12960.55
710.654	12894.79
710.998	12815.47
711.342	12848.01
711.687	12875.35
712.031	12718.75
712.375	12692.99
712.719	12702.93
713.063	12674.23
713.407	12756.71
713.75	12658.64
714.094	12608.69
714.438	12642.59
714.782	12677.17
715.125	12500.45
715.469	12601.46
715.812	12444.18
716.156	12414.57
716.499	12460.9
716.843	12493.67
717.186	12376.38
717.53	12440.56
717.873	12358.3
718.216	12343.62
718.559	12339.55
718.902	12306.78
719.246	12298.65
719.589	12219.1
719.932	12233.11
720.275	12195.82
720.617	12197.18
720.96	12154.02
721.303	12170.29
721.646	12188.37
721.989	12079.67
722.331	12160.8
722.674	12093.68
723.016	12209.16
723.359	12074.24
723.701	12066.34
724.044	12000.35
724.386	11961.71
724.729	11998.77
725.071	12019.33
725.413	11991.08
725.755	11909.28
726.097	11958.99
726.439	11899.56
726.782	11895.27
727.124	12001.93
727.465	11848.94
727.807	11878.54
728.149	11820.69
728.491	11773.01
728.833	11936.4
729.175	11738.43
729.516	11805.78
729.858	11849.39
730.199	11808.94
730.541	11762.39
730.882	11794.03
731.224	11785.89
731.565	11770.75
731.906	11728.72
732.248	11763.74
732.589	11764.42
732.93	11719.23
733.271	11744.99
733.612	11767.81
733.953	11731.2
734.294	11675.39
734.635	11641.49
734.976	11815.49
735.317	11674.93
735.658	11697.98
735.999	11711.99
736.339	11697.53
736.68	11712.45
737.021	11719.9
737.361	11666.12
737.702	11769.85
738.042	11760.35
738.383	11741.15
738.723	11734.59
739.063	11762.84
739.404	11810.3
739.744	11729.62
740.084	11761.26
740.424	11802.39
740.764	11780.47
741.104	11810.75
741.444	11733.46
741.784	11759.9
742.124	11864.98
742.464	11814.36
742.804	11821.82
743.143	11834.48
743.483	11960.12
743.823	11890.07
744.162	11966
744.502	11951.76
744.841	11937.75
745.181	12043.74
745.52	11947.24
745.86	12104.75
746.199	12094.81
746.538	12105.88
746.877	12201.02
747.216	12210.06
747.556	12234.24
747.895	12284.86
748.234	12270.4
748.573	12292.09
748.911	12348.59
749.25	12476.49
749.589	12462.26
749.928	12595.59
750.267	12628.58
750.605	12674.91
750.944	12655.02
751.283	12738.41
751.621	12890.72
751.96	12837.16
752.298	12954.22
752.636	13055.24
752.975	13151.05
753.313	13166.65
753.651	13342.23
753.989	13305.62
754.327	13376.13
754.666	13487.77
755.004	13614.77
755.342	13724.37
755.679	13900.64
756.017	13855.67
756.355	14061.31
756.693	14069.9
757.031	14243.23
757.368	14301.98
757.706	14314.64
758.044	14473.73
758.381	14656.78
758.719	14730.22
759.056	14838.92
759.394	14922.76
759.731	14927.95
760.068	15036.65
760.405	15209.98
760.743	15171.79
761.08	15356.19
761.417	15385.57
761.754	15613.59
762.091	15684.77
762.428	15820.81
762.765	15746.46
763.102	15974.26
763.438	16020.58
763.775	16159.11
764.112	16287.47
764.449	16437.07
764.785	16420.8
765.122	16442.49
765.458	16542.6
765.795	16670.51
766.131	16666.21
766.467	16724.29
766.804	16807.68
767.14	16785.08
767.476	16890.84
767.812	16909.37
768.148	17106.43
768.485	17098.97
768.821	17175.58
769.157	17164.73
769.492	17276.59
769.828	17317.72
770.164	17173.09
770.5	17356.37
770.836	17423.93
771.171	17352.07
771.507	17456.48
771.842	17429.58
772.178	17446.08
772.513	17496.7
772.849	17445.85
773.184	17422.35
773.519	17520.66
773.855	17483.59
774.19	17515.01
774.525	17463.26
774.86	17484.27
775.195	17521.11
775.53	17574.89
775.865	17479.3
776.2	17434.78
776.535	17371.51
776.87	17466.42
777.205	17431.84
777.539	17362.24
777.874	17451.28
778.209	17260.77
778.543	17344.84
778.878	17196.37
779.212	17296.71
779.547	17252.64
779.881	17281.11
780.215	17234.56
780.55	17179.2
780.884	17128.35
781.218	17172.42
781.552	17140.55
781.886	17064.17
782.22	16953.21
782.554	17012.42
782.888	16872.54
783.222	16848.58
783.556	16795.25
783.889	16803.84
784.223	16766.55
784.557	16607.91
784.89	16729.49
785.224	16635.03
785.557	16582.6
785.891	16610.17
786.224	16519.1
786.558	16580.79
786.891	16460.8
787.224	16315.04
787.557	16432.55
787.891	16344.87
788.224	16313.91
788.557	16299.22
788.89	16289.73
789.223	16269.16
789.556	16169.73
789.888	16183.06
790.221	16112.33
790.554	15976.97
790.887	16019
791.219	15938.78
791.552	15939.91
791.884	15832.79
792.217	15778.55
792.549	15856.07
792.882	15615.62
793.214	15629.63
793.546	15683.64
793.879	15602.06
794.211	15497.43
794.543	15565.68
794.875	15460.6
795.207	15504.21
795.539	15450.88
795.871	15440.71
796.203	15273.93
796.535	15215.18
796.867	15209.53
797.198	15243.2
797.53	15173.15
797.862	15026.48
798.193	15067.84
798.525	15012.7
798.856	14995.07
799.188	14874.85
799.519	14833.95
799.85	14771.12
800.182	14902.19
800.513	14820.84
800.844	14674.85
801.175	14705.36
801.506	14739.94
801.837	14611.81
802.168	14637.57
802.499	14598.7
802.83	14426.95
803.161	14475.31
803.491	14432.6
803.822	14422.66
804.153	14380.17
804.483	14195.54
804.814	14242.55
805.145	14265.15
805.475	14266.05
805.805	14113.29
806.136	14176.79
806.466	14182.44
806.796	14091.37
807.126	14000.07
807.457	14006.85
807.787	14010.69
808.117	13837.59
808.447	13820.19
808.777	13843.01
809.107	13836.46
809.436	13805.05
809.766	13719.4
810.096	13729.12
810.426	13704.26
810.755	13665.62
811.085	13643.47
811.414	13629.91
811.744	13579.74
812.073	13511.04
812.403	13455.9
812.732	13454.32
813.061	13452.06
813.39	13303.14
813.719	13299.3
814.049	13358.28
814.378	13333.65
814.707	13252.07
815.036	13230.37
815.365	13292.29
815.693	13077.38
816.022	13102.24
816.351	13023.37
816.68	12975.92
817.008	12979.53
817.337	12875.58
817.665	12876.71
817.994	12955.35
818.322	12890.04
818.651	12809.14
818.979	12906.09
819.307	12817.05
819.636	12912.87
819.964	12679.43
820.292	12760.78
820.62	12721.23
820.948	12755.58
821.276	12807.78
821.604	12660.9
821.932	12724.17
822.259	12723.04
822.587	12586.77
822.915	12659.99
823.243	12752.64
823.57	12721.69
823.898	12675.81
824.225	12642.37
824.553	12660.67
824.88	12578.64
825.207	12641.46
825.535	12665.64
825.862	12619.77
826.189	12592.42
826.516	12755.81
826.843	12698.41
827.17	12725.08
827.497	12752.19
827.824	12675.13
828.151	12854.79
828.478	12676.49
828.805	12686.66
829.131	12679.43
829.458	12705.64
829.785	12624.51
830.111	12640.33
830.438	12705.64
830.764	12695.7
831.09	12670.16
831.417	12594.23
831.743	12685.98
832.069	12640.78
832.395	12574.34
832.722	12697.28
833.048	12590.62
833.374	12637.85
833.7	12569.15
834.026	12585.19
834.351	12554.23
834.677	12508.36
835.003	12564.18
835.329	12526.44
835.654	12447.57
835.98	12409.6
836.306	12516.49
836.631	12404.18
836.956	12395.59
837.282	12426.33
837.607	12447.34
837.932	12358.98
838.258	12359.21
838.583	12308.81
838.908	12272.66
839.233	12320.79
839.558	12318.53
839.883	12262.04
840.208	12219.55
840.533	12216.16
840.858	12209.83
841.182	12121.02
841.507	12191.08
841.832	12033.12
842.156	12029.95
842.481	12125.77
842.805	12036.73
843.13	11978.2
843.454	12000.8
843.778	11905.89
844.103	11915.83
844.427	11901.14
844.751	11910.18
845.075	11833.12
845.399	11843.29
845.723	11765.1
846.047	11723.75
846.371	11742.73
846.695	11680.58
847.019	11524.65
847.343	11553.35
847.666	11534.6
847.99	11464.09
848.313	11409.18
848.637	11333.93
848.96	11356.3
849.284	11334.83
849.607	11238.11
849.931	11182.29
850.254	11102.52
850.577	11043.76
850.9	11003.09
851.223	10960.83
851.546	10951.56
851.869	10819.14
852.192	10926.03
852.515	10827.05
852.838	10731.68
853.161	10786.82
853.483	10765.35
853.806	10616.88
854.129	10646.03
854.451	10597.9
854.774	10538.69
855.096	10519.26
855.419	10528.3
855.741	10498.47
856.063	10447.62
856.385	10394.29
856.708	10425.7
857.03	10297.79
857.352	10327.17
857.674	10266.61
857.996	10197.23
858.318	10164.69
858.64	10182.54
858.961	10106.61
859.283	10099.83
859.605	10090.57
859.926	10057.12
860.248	10026.61
860.57	10000.17
860.891	10024.81
861.212	9971.7
861.534	9919.73
861.855	9919.05
862.176	9976.22
862.498	9931.25
862.819	9873.85
863.14	9870.01
863.461	9842.44
863.782	9806.06
864.103	9788.66
864.424	9749.79
864.745	9775.32
865.065	9702.78
865.386	9743.01
865.707	9699.84
866.027	9657.13
866.348	9649.45
866.668	9724.93
866.989	9643.12
867.309	9561.09
867.63	9593.18
867.95	9630.92
868.27	9562.22
868.59	9619.85
868.91	9561.09
869.23	9507.31
869.55	9482.67
869.87	9522.22
870.19	9502.79
870.51	9443.81
870.83	9487.87
871.15	9334.2
871.469	9398.83
871.789	9461.21
872.109	9466.63
872.428	9400.19
872.748	9448.1
873.067	9378.5
873.386	9419.17
873.706	9264.38
874.025	9273.64
874.344	9262.57
874.663	9333.98
874.982	9301.21
875.301	9241.78
875.62	9164.26
875.939	9238.16
876.258	9200.65
876.577	9143.25
876.896	9213.98
877.214	9162.46
877.533	9153.42
877.852	9143.02
878.17	9087.43
878.489	9101.67
878.807	9071.16
879.125	9072.52
879.444	9051.27
879.762	9027.32
880.08	8978.51
880.398	8940.99
880.716	9048.79
881.034	8932.41
881.352	8980.09
881.67	8896.25
881.988	8959.98
882.306	8859.64
882.624	8840.43
882.941	8802.01
883.259	8849.24
883.577	8832.75
883.894	8718.85
884.212	8789.81
884.529	8708.91
884.846	8702.81
885.164	8757.95
885.481	8621.68
885.798	8708.23
886.115	8604.28
886.432	8594.56
886.75	8612.41
887.067	8584.39
887.383	8557.27
887.7	8538.52
888.017	8536.03
888.334	8534
888.651	8445.87
888.967	8494
889.284	8429.59
889.6	8405.19
889.917	8336.94
890.233	8330.84
890.55	8263.05
890.866	8324.96
891.182	8293.55
891.498	8288.81
891.815	8185.99
892.131	8232.99
892.447	8190.28
892.763	8174.46
893.079	8159.09
893.395	8134.24
893.71	8104.41
894.026	8088.59
894.342	8030.06
894.657	7950.06
894.973	7939.89
895.289	7997.52
895.604	8019.89
895.92	7862.15
896.235	7836.84
896.55	7902.83
896.865	7847.01
897.181	7805.88
897.496	7763.4
897.811	7756.62
898.126	7749.39
898.441	7663.29
898.756	7704.64
899.071	7678.65
899.386	7602.72
899.7	7579
900.015	7596.17
900.33	7518.21
900.644	7456.74
900.959	7532.67
901.273	7490.86
901.588	7396.85
901.902	7450.41
902.216	7343.3
902.531	7367.02
902.845	7351.88
903.159	7298.33
903.473	7212.23
903.787	7244.99
904.101	7165.9
904.415	7197.99
904.729	7165.67
905.042	7124.54
905.356	7070.99
905.67	7107.82
905.984	7053.81
906.297	7075.73
906.611	7005.23
906.924	6973.36
907.237	6948.28
907.551	6923.19
907.864	6927.71
908.177	6880.71
908.491	6817.43
908.804	6800.94
909.117	6758.23
909.43	6772.01
909.743	6706.48
910.056	6631.22
910.368	6683.2
910.681	6633.94
910.994	6598.91
911.307	6536.76
911.619	6490.21
911.932	6564.79
912.244	6547.38
912.557	6515.75
912.869	6444.56
913.181	6422.87
913.494	6455.18
913.806	6416.77
914.118	6394.17
914.43	6266.49
914.742	6315.07
915.054	6240.73
915.366	6223.33
915.678	6238.01
915.99	6172.25
916.302	6159.37
916.613	6195.76
916.925	6154.17
917.236	6138.13
917.548	6083.44
917.859	6126.83
918.171	6048.41
918.482	6023.1
918.794	6048.19
919.105	5929.77
919.416	5926.16
919.727	5900.62
920.038	5892.26
920.349	5879.38
920.66	5843.9
920.971	5814.07
921.282	5800.06
921.593	5778.14
921.903	5798.25
922.214	5681.64
922.525	5705.6
922.835	5699.27
923.146	5642.32
923.456	5655.88
923.767	5613.17
924.077	5594.64
924.387	5579.5
924.697	5579.95
925.008	5519.39
925.318	5468.32
925.628	5539.05
925.938	5467.41
926.248	5405.49
926.558	5366.17
926.867	5425.61
927.177	5323.24
927.487	5325.5
927.796	5327.98
928.106	5332.28
928.416	5250.47
928.725	5292.28
929.034	5211.83
929.344	5236.91
929.653	5182
929.962	5187.42
930.271	5139.06
930.581	5165.95
930.89	5090.02
931.199	5050.47
931.508	5028.1
931.817	5100.87
932.125	5015.22
932.434	5021.32
932.743	4915.79
933.051	4976.8
933.36	4960.31
933.669	4878.5
933.977	4858.39
934.286	4882.8
934.594	4897.71
934.902	4837.6
935.21	4782.01
935.519	4826.3
935.827	4757.37
936.135	4739.07
936.443	4724.16
936.751	4705.17
937.059	4694.55
937.367	4653.42
937.674	4640.77
937.982	4615.23
938.29	4634.67
938.597	4611.62
938.905	4570.04
939.213	4518.96
939.52	4506.53
939.827	4556.02
940.135	4478.74
940.442	4431.06
940.749	4451.62
941.056	4516.48
941.363	4414.79
941.67	4417.27
941.977	4381.57
942.284	4358.06
942.591	4347.89
942.898	4329.59
943.205	4298.86
943.511	4297.27
943.818	4260.66
944.125	4264.28
944.431	4210.04
944.738	4227.22
945.044	4215.92
945.35	4195.13
945.657	4129.82
945.963	4135.24
946.269	4164.85
946.575	4122.59
946.881	4071.97
947.187	4102.25
947.493	4076.04
947.799	4045.53
948.105	4087.34
948.41	3989.71
948.716	3985.87
949.022	3965.08
949.327	4015.7
949.633	3940.45
949.938	3958.98
950.244	3918.75
950.549	3891.86
950.854	3868.36
951.16	3837.4
951.465	3843.73
951.77	3831.52
952.075	3830.62
952.38	3780.68
952.685	3777.97
952.99	3734.8
953.294	3733.45
953.599	3746.55
953.904	3742.71
954.209	3675.6
954.513	3702.49
954.818	3695.48
955.122	3658.42
955.426	3657.97
955.731	3600.8
956.035	3564.64
956.339	3589.95
956.643	3540.68
956.948	3574.58
957.252	3536.16
957.556	3524.86
957.86	3517.41
958.163	3528.93
958.467	3497.75
958.771	3450.97
959.075	3414.13
959.378	3433.12
959.682	3420.69
959.985	3438.09
960.289	3377.07
960.592	3384.3
960.896	3373.23
961.199	3376.17
961.502	3326.9
961.805	3317.64
962.108	3307.47
962.411	3293.91
962.714	3279
963.017	3277.19
963.32	3233.12
963.623	3216.85
963.926	3214.14
964.228	3198.77
964.531	3216.62
964.833	3156.74
965.136	3191.09
965.438	3136.85
965.741	3134.14
966.043	3092.56
966.345	3099.79
966.648	3110.19
966.95	3046.91
967.252	3042.17
967.554	3067.93
967.856	3054.59
968.158	3016.18
968.46	3012.11
968.761	3007.14
969.063	2991.32
969.365	2993.81
969.666	2981.83
969.968	2981.6
970.269	2963.98
970.571	2906.58
970.872	2958.33
971.174	2875.39
971.475	2894.6
971.776	2900.93
972.077	2864.54
972.378	2844.88
972.679	2854.37
972.98	2823.64
973.281	2840.36
973.582	2792.91
973.883	2825.67
974.183	2769.18
974.484	2779.8
974.785	2760.59
975.085	2726.24
975.386	2775.73
975.686	2752.23
975.986	2709.52
976.287	2729.18
976.587	2696.41
976.887	2693.93
977.187	2705.45
977.487	2668.84
977.787	2616.19
978.087	2611.44
978.387	2618
978.687	2632.46
978.987	2591.78
979.286	2552.91
979.586	2587.04
979.885	2579.58
980.185	2589.07
980.484	2531.44
980.784	2539.58
981.083	2515.4
981.382	2511.78
981.682	2494.16
981.981	2525.34
982.28	2469.98
982.579	2472.01
982.878	2448.96
983.177	2476.3
983.475	2431.11
983.774	2398.11
984.073	2439.47
984.372	2370.32
984.67	2402.86
984.969	2370.55
985.267	2401.5
985.566	2395.86
985.864	2361.73
986.162	2338
986.461	2307.04
986.759	2323.77
987.057	2310.21
987.355	2300.49
987.653	2267.72
987.951	2262.53
988.249	2267.95
988.547	2271.34
988.844	2239.02
989.142	2239.25
989.44	2218.46
989.737	2224.33
990.035	2206.93
990.332	2208.29
990.63	2196.09
990.927	2192.92
991.224	2175.3
991.521	2133.72
991.819	2189.98
992.116	2159.48
992.413	2141.85
992.71	2091.23
993.006	2106.6
993.303	2099.14
993.6	2124.68
993.897	2102.08
994.193	2081.51
994.49	2085.35
994.787	2066.15
995.083	2021.85
995.379	2034.06
995.676	2055.07
995.972	2028.63
996.268	2035.64
996.565	1999.03
996.861	1996.77
997.157	1989.54
997.453	1953.15
997.749	1981.18
998.044	1964.45
998.34	1923.55
998.636	1940.05
998.932	1945.02
999.227	1885.13
999.523	1926.94
999.818	1913.61
1000.114	1881.29
1000.409	1888.52
1000.704	1853.72
1001	1824.8
1001.295	1856.66
1001.59	1827.51
1001.885	1845.81
1002.18	1816.89
1002.475	1780.96
1002.77	1808.75
1003.065	1788.19
1003.359	1770.79
1003.654	1760.62
1003.949	1756.32
1004.243	1775.76
1004.538	1750.9
1004.832	1741.41
1005.127	1708.64
1005.421	1733.95
1005.715	1705.03
1006.009	1713.16
1006.304	1693.5
1006.598	1692.6
1006.892	1639.94
1007.186	1679.94
1007.48	1644.46
1007.773	1642.43
1008.067	1614.63
1008.361	1605.82
1008.655	1597.46
1008.948	1618.25
1009.242	1609.66
1009.535	1579.61
1009.829	1578.7
1010.122	1552.49
1010.415	1557.91
1010.708	1551.81
1011.001	1538.93
1011.295	1536.44
1011.588	1496.44
1011.881	1516.33
1012.173	1507.74
1012.466	1509.32
1012.759	1495.09
1013.052	1483.34
1013.344	1479.95
1013.637	1474.07
1013.93	1461.19
1014.222	1427.29
1014.514	1438.14
1014.807	1431.36
1015.099	1446.28
1015.391	1432.49
1015.683	1396.56
1015.976	1398.82
1016.268	1397.01
1016.56	1383.9
1016.851	1357.46
1017.143	1364.92
1017.435	1324.92
1017.727	1371.7
1018.018	1323.79
1018.31	1331.25
1018.602	1350.01
1018.893	1323.79
1019.185	1322.21
1019.476	1300.97
1019.767	1291.48
1020.058	1280.4
1020.35	1291.03
1020.641	1270.46
1020.932	1270.01
1021.223	1244.92
1021.514	1255.32
1021.804	1235.21
1022.095	1235.89
1022.386	1232.27
1022.677	1220.74
1022.967	1192.5
1023.258	1203.57
1023.548	1197.92
1023.839	1212.16
1024.129	1166.96
1024.419	1177.58
1024.709	1184.36
1025	1141.88
1025.29	1125.61
1025.58	1140.97
1025.87	1134.42
1026.16	1121.76
1026.449	1123.12
1026.739	1117.02
1027.029	1106.85
1027.319	1093.52
1027.608	1088.09
1027.898	1093.29
1028.187	1087.19
1028.477	1076.34
1028.766	1088.54
1029.055	1080.41
1029.344	1031.6
1029.634	1058.49
1029.923	1016.46
1030.212	1039.51
1030.501	1033.86
1030.79	1033.86
1031.078	1008.77
1031.367	1006.51
1031.656	1021.2
1031.945	993.18
1032.233	1010.58
1032.522	1001.99
1032.81	977.14
1033.099	995.67
1033.387	950.24
1033.675	943.24
1033.963	968.32
1034.251	974.2
1034.54	928.1
1034.828	929.45
1035.116	937.36
1035.403	944.82
1035.691	924.48
1035.979	901.66
1036.267	923.8
1036.554	907.08
1036.842	907.08
1037.129	905.72
1037.417	876.57
1037.704	891.26
1037.992	890.13
1038.279	879.51
1038.566	887.42
1038.853	887.42
1039.14	887.42
