Data from hue_230_FLMS001491_00085.txt Node
Date: Tue Feb 07 16:37:51 GMT 2017
User: dcchb
Spectrometer: FLMS00149
Trigger mode: 0
Integration Time (sec): 2.000000E-2
Scans to average: 10
Electric dark correction enabled: true
Nonlinearity correction enabled: false
Boxcar width: 0
XAxis mode: Wavelengths
Number of Pixels in Spectrum: 2048
>>>>>Begin Spectral Data<<<<<
341.393	-3.12
341.776	-3.12
342.16	-3.12
342.543	-64.14
342.927	-62.1
343.31	-62.78
343.693	-78.6
344.077	-69.11
344.46	-53.97
344.843	-34.53
345.226	-55.55
345.61	-43.12
345.993	-49.9
346.376	-18.49
346.759	9.31
347.142	14.96
347.525	66.71
347.908	58.12
348.291	76.2
348.674	118.46
349.057	122.3
349.44	138.12
349.823	142.86
350.206	156.42
350.588	172.02
350.971	211.11
351.354	223.77
351.737	247.04
352.119	245.46
352.502	250.21
352.884	271.45
353.267	273.71
353.65	302.86
354.032	289.75
354.414	312.8
354.797	302.41
355.179	301.5
355.562	318.45
355.944	322.52
356.326	330.88
356.709	337.89
357.091	331.56
357.473	329.53
357.855	351.22
358.238	336.76
358.62	330.66
359.002	334.95
359.384	332.24
359.766	330.88
360.148	306.93
360.53	344.44
360.912	328.85
361.294	320.94
361.676	304.89
362.057	320.26
362.439	333.82
362.821	330.2
363.203	325.01
363.584	337.21
363.966	322.52
364.348	313.03
364.729	314.16
365.111	300.15
365.493	325.46
365.874	314.61
366.256	301.28
366.637	304.89
367.019	310.77
367.4	300.15
367.781	315.06
368.163	295.4
368.544	302.86
368.925	308.28
369.306	310.77
369.688	280.71
370.069	316.64
370.45	285.68
370.831	290.43
371.212	302.86
371.593	313.48
371.974	310.77
372.355	307.38
372.736	289.98
373.117	297.89
373.498	317.1
373.879	294.95
374.26	323.65
374.641	323.42
375.021	293.59
375.402	315.29
375.783	300.83
376.163	327.49
376.544	329.98
376.925	335.85
377.305	317.77
377.686	311.45
378.066	324.55
378.447	303.54
378.827	332.01
379.208	305.8
379.588	318.9
379.968	333.37
380.349	323.2
380.729	308.28
381.109	325.46
381.489	305.8
381.87	313.03
382.25	320.94
382.63	308.28
383.01	353.03
383.39	348.06
383.77	341.95
384.15	323.2
384.53	314.61
384.91	343.31
385.29	330.2
385.67	324.78
386.049	332.69
386.429	340.37
386.809	350.54
387.189	360.03
387.568	349.19
387.948	352.58
388.328	340.82
388.707	350.54
389.087	352.35
389.466	346.02
389.846	356.87
390.225	359.58
390.605	368.39
390.984	374.04
391.363	348.28
391.743	383.76
392.122	377.66
392.501	386.47
392.881	369.75
393.26	377.89
393.639	359.13
394.018	359.13
394.397	366.36
394.776	365.91
395.155	386.47
395.534	385.79
395.913	363.65
396.292	375.4
396.671	391.22
397.05	368.85
397.429	404.78
397.808	396.64
398.186	385.57
398.565	383.76
398.944	392.57
399.323	384.67
399.701	390.99
400.08	405.46
400.458	411.33
400.837	419.69
401.215	395.06
401.594	405.68
401.972	404.78
402.351	421.95
402.729	394.38
403.107	427.15
403.486	412.46
403.864	418.56
404.242	426.25
404.62	422.4
404.999	447.94
405.377	415.17
405.755	415.85
406.133	431.22
406.511	442.06
406.889	442.29
407.267	454.27
407.645	448.84
408.023	467.37
408.401	439.58
408.779	463.76
409.156	473.02
409.534	466.92
409.912	469.86
410.29	491.78
410.667	476.19
411.045	496.3
411.422	512.35
411.8	496.3
412.178	520.03
412.555	533.36
412.933	524.32
413.31	542.85
413.687	536.75
414.065	556.64
414.442	551.44
414.819	554.83
415.197	553.93
415.574	584.89
415.951	609.29
416.328	578.78
416.705	599.57
417.082	587.15
417.46	607.26
417.837	600.03
418.214	611.33
418.591	618.11
418.967	642.51
419.344	639.35
419.721	615.85
420.098	663.3
420.475	656.52
420.852	653.81
421.228	646.35
421.605	665.11
421.982	663.75
422.358	703.07
422.735	702.85
423.111	714.15
423.488	744.88
423.864	737.2
424.241	721.61
424.617	733.58
424.994	768.61
425.37	775.16
425.746	773.36
426.123	788.72
426.499	796.63
426.875	781.94
427.251	804.09
427.627	824.43
428.003	834.82
428.379	854.71
428.756	867.36
429.132	854.26
429.507	879.79
429.883	876.86
430.259	909.4
430.635	898.32
431.011	906.46
431.387	914.59
431.763	960.24
432.138	948.72
432.514	969.28
432.89	947.81
433.265	990.07
433.641	1004.54
434.016	1025.1
434.392	1024.42
434.767	1081.37
435.143	1079.79
435.518	1101.48
435.894	1127.92
436.269	1108.26
436.644	1147.13
437.02	1153.01
437.395	1152.55
437.77	1193.91
438.145	1188.26
438.52	1237.07
438.895	1203.63
439.271	1233.23
439.646	1265.32
440.021	1304.41
440.395	1283.4
440.77	1265.55
441.145	1323.17
441.52	1344.41
441.895	1333.34
442.27	1329.27
442.645	1366.33
443.019	1375.37
443.394	1382.15
443.769	1408.14
444.143	1413.34
444.518	1422.38
444.892	1416.5
445.267	1457.86
445.641	1440.46
446.016	1475.48
446.39	1488.36
446.764	1473.45
447.139	1509.83
447.513	1520.68
447.887	1531.53
448.262	1517.74
448.636	1517.74
449.01	1547.8
449.384	1570.4
449.758	1577.85
450.132	1588.7
450.506	1586.67
450.88	1602.94
451.254	1597.74
451.628	1623.5
452.002	1671.18
452.376	1673.67
452.75	1643.84
453.123	1698.3
453.497	1707.34
453.871	1723.84
454.244	1735.82
454.618	1738.08
454.992	1784.4
455.365	1756.83
455.739	1818.53
456.112	1836.6
456.486	1821.69
456.859	1873.67
457.232	1885.19
457.606	1894.46
457.979	1928.13
458.352	1968.13
458.725	1952.99
459.099	1963.15
459.472	2028.92
459.845	2036.82
460.218	2058.29
460.591	2065.98
460.964	2077.73
461.337	2086.32
461.71	2138.52
462.083	2192.53
462.456	2149.59
462.829	2157.73
463.201	2199.76
463.574	2183.26
463.947	2272.98
464.32	2307.55
464.692	2288.57
465.065	2297.84
465.438	2341
465.81	2382.8
466.183	2380.77
466.555	2462.58
466.928	2450.37
467.3	2459.41
467.672	2481.11
468.045	2532.63
468.417	2563.36
468.789	2536.47
469.161	2602.69
469.534	2666.19
469.906	2643.81
470.278	2693.76
470.65	2719.07
471.022	2755
471.394	2789.57
471.766	2803.36
472.138	2863.7
472.51	2872.96
472.882	2956.8
473.253	2963.13
473.625	3015.56
473.997	3042.45
474.369	3099.4
474.74	3085.16
475.112	3192.5
475.484	3219.84
475.855	3269.56
476.227	3274.53
476.598	3354.53
476.97	3380.52
477.341	3449.44
477.713	3479.95
478.084	3512.49
478.455	3536.45
478.827	3597.69
479.198	3668.65
479.569	3696.22
479.94	3772.82
480.311	3804.91
480.682	3922.88
481.053	3943.67
481.424	4014.85
481.795	4022.76
482.166	4132.14
482.537	4094.62
482.908	4166.26
483.279	4210.55
483.65	4314.73
484.021	4347.95
484.391	4392.92
484.762	4442.86
485.133	4507.72
485.503	4560.83
485.874	4580.94
486.244	4610.09
486.615	4695.29
486.985	4760.82
487.356	4837.2
487.726	4831.78
488.097	4976.41
488.467	4931.66
488.837	5025.22
489.207	5105.9
489.578	5114.26
489.948	5187.7
490.318	5232
490.688	5224.54
491.058	5349.28
491.428	5350.18
491.798	5410.52
492.168	5528.94
492.538	5544.08
492.908	5567.58
493.278	5644.87
493.648	5656.62
494.017	5742.49
494.387	5776.84
494.757	5801.25
495.126	5846.22
495.496	5820.23
495.866	5881.47
496.235	5906.78
496.605	5975.48
496.974	5978.19
497.344	6010.05
497.713	6050.5
498.082	6090.05
498.452	6116.94
498.821	6090.28
499.19	6163.72
499.559	6294.34
499.928	6227.9
500.298	6281.23
500.667	6331.63
501.036	6327.79
501.405	6316.03
501.774	6353.77
502.143	6380.44
502.512	6399.87
502.88	6440.55
503.249	6452.53
503.618	6418.4
503.987	6463.38
504.356	6510.15
504.724	6538.4
505.093	6548.12
505.462	6563.71
505.83	6567.55
506.199	6645.52
506.567	6673.09
506.936	6643.94
507.304	6746.98
507.672	6703.82
508.041	6773.88
508.409	6734.78
508.777	6866.08
509.145	6852.29
509.514	6803.48
509.882	6854.1
510.25	6848
510.618	6857.49
510.986	6864.49
511.354	6951.5
511.722	6892.52
512.09	6962.35
512.458	6958.73
512.826	6991.27
513.193	7000.76
513.561	7030.14
513.929	7087.99
514.297	7058.16
514.664	7139.29
515.032	7079.18
515.4	7151.72
515.767	7195.33
516.135	7194.66
516.502	7125.73
516.869	7231.94
517.237	7149.91
517.604	7166.41
517.972	7232.62
518.339	7210.47
518.706	7194.66
519.073	7222.45
519.44	7176.35
519.808	7258.38
520.175	7300.42
520.542	7335.44
520.909	7314.88
521.276	7285.73
521.643	7351.71
522.009	7300.19
522.376	7388.77
522.743	7434.65
523.11	7477.59
523.477	7446.17
523.843	7499.96
524.21	7488.43
524.577	7513.29
524.943	7499.05
525.31	7483.24
525.676	7535.66
526.043	7536.79
526.409	7503.57
526.776	7563.01
527.142	7544.02
527.508	7565.27
527.874	7565.04
528.241	7597.81
528.607	7565.49
528.973	7613.4
529.339	7601.88
529.705	7659.95
530.071	7709.44
530.437	7668.09
530.803	7712.16
531.169	7668.32
531.535	7612.95
531.901	7622.67
532.267	7659.05
532.632	7614.08
532.998	7671.71
533.364	7555.78
533.73	7677.35
534.095	7685.94
534.461	7690.24
534.826	7680.97
535.192	7669.45
535.557	7669.67
535.923	7671.03
536.288	7588.09
536.653	7626.73
537.019	7590.35
537.384	7602.1
537.749	7575.89
538.114	7576.57
538.479	7570.69
538.845	7609.56
539.21	7539.73
539.575	7499.51
539.94	7571.82
540.305	7528.66
540.67	7549
541.034	7490.24
541.399	7484.82
541.764	7512.16
542.129	7443.69
542.494	7465.38
542.858	7446.63
543.223	7389.45
543.587	7421.09
543.952	7413.18
544.316	7442.56
544.681	7400.53
545.045	7386.29
545.41	7387.42
545.774	7366.4
546.138	7290.47
546.503	7327.53
546.867	7313.07
547.231	7281.43
547.595	7258.38
547.959	7301.77
548.324	7280.98
548.688	7334.31
549.052	7202.34
549.416	7222
549.779	7265.16
550.143	7247.76
550.507	7203.47
550.871	7222
551.235	7210.25
551.599	7182.23
551.962	7180.87
552.326	7180.64
552.689	7214.09
553.053	7177.93
553.417	7111.72
553.78	7158.5
554.143	7150.14
554.507	7168.89
554.87	7108.56
555.234	7176.35
555.597	7137.93
555.96	7130.7
556.323	7110.36
556.686	7099.52
557.05	7168.22
557.413	7132.28
557.776	7131.61
558.139	7182
558.502	7133.87
558.865	7111.95
559.228	7157.82
559.59	7080.53
559.953	7147.88
560.316	7232.62
560.679	7179.74
561.041	7164.37
561.404	7140.42
561.767	7178.16
562.129	7176.58
562.492	7196.01
562.854	7204.15
563.217	7192.17
563.579	7162.57
563.941	7202.11
564.304	7188.1
564.666	7200.31
565.028	7296.57
565.39	7285.95
565.753	7334.99
566.115	7351.49
566.477	7262
566.839	7270.59
567.201	7289.57
567.563	7320.53
567.925	7366.85
568.287	7348.78
568.648	7308.55
569.01	7349.23
569.372	7399.62
569.734	7345.16
570.095	7466.96
570.457	7474.65
570.819	7483.46
571.18	7430.58
571.542	7513.07
571.903	7547.64
572.265	7474.2
572.626	7545.38
572.987	7542.44
573.349	7566.62
573.71	7530.69
574.071	7641.65
574.432	7587.64
574.794	7593.29
575.155	7625.6
575.516	7693.17
575.877	7648.65
576.238	7699.73
576.599	7792.61
576.96	7744.92
577.32	7813.85
577.681	7745.83
578.042	7817.01
578.403	7781.98
578.763	7771.14
579.124	7817.01
579.485	7875.54
579.845	7825.37
580.206	7840.06
580.566	7835.09
580.927	7873.96
581.287	7904.24
581.648	7864.02
582.008	7883.45
582.368	7939.95
582.728	7945.82
583.089	7926.84
583.449	7958.03
583.809	7949.44
584.169	7956.9
584.529	7886.84
584.889	8025.14
585.249	7993.28
585.609	7984.24
585.969	8037.12
586.329	8018.59
586.688	8050.9
587.048	7995.76
587.408	8008.42
587.768	8026.05
588.127	8080.28
588.487	8026.72
588.846	8089.55
589.206	8048.19
589.565	8067.17
589.925	8142.65
590.284	8097.46
590.643	8143.56
591.003	8152.14
591.362	8160.28
591.721	8176.1
592.08	8135.65
592.44	8203.44
592.799	8188.98
593.158	8192.6
593.517	8200.73
593.876	8183.1
594.235	8163.9
594.593	8167.74
594.952	8217.91
595.311	8113.5
595.67	8253.84
596.029	8289.09
596.387	8307.39
596.746	8279.82
597.104	8252.93
597.463	8272.14
597.822	8246.83
598.18	8227.62
598.538	8244.8
598.897	8333.83
599.255	8206.38
599.613	8351.01
599.972	8317.79
600.33	8295.64
600.688	8298.36
601.046	8380.84
601.404	8374.51
601.762	8370.44
602.12	8383.32
602.478	8358.69
602.836	8374.06
603.194	8320.05
603.552	8375.64
603.91	8329.54
604.268	8344.68
604.625	8343.1
604.983	8404.34
605.341	8308.98
605.698	8390.78
606.056	8417.9
606.413	8383.32
606.771	8396.88
607.128	8428.75
607.485	8380.39
607.843	8367.96
608.2	8440.27
608.557	8485.47
608.914	8432.14
609.272	8504
609.629	8451.12
609.986	8532.02
610.343	8450.44
610.7	8527.28
611.057	8534.06
611.414	8465.58
611.771	8433.49
612.127	8520.72
612.484	8602.3
612.841	8578.57
613.198	8559.82
613.554	8583.55
613.911	8618.12
614.267	8582.19
614.624	8557.33
614.98	8527.28
615.337	8659.93
615.693	8627.16
616.05	8593.49
616.406	8632.36
616.762	8549.87
617.118	8689.08
617.475	8605.92
617.831	8638.91
618.187	8669.87
618.543	8631
618.899	8700.6
619.255	8727.27
619.611	8668.06
619.967	8774.73
620.323	8659.02
620.678	8662.41
621.034	8598.01
621.39	8738.57
621.746	8664.9
622.101	8760.72
622.457	8683.66
622.812	8710.77
623.168	8723.43
623.523	8696.54
623.879	8742.64
624.234	8688.18
624.589	8701.28
624.945	8700.6
625.3	8762.52
625.655	8655.18
626.01	8715.52
626.365	8768.4
626.72	8653.6
627.075	8726.59
627.43	8643.88
627.785	8634.84
628.14	8728.4
628.495	8663.09
628.85	8660.15
629.205	8611.34
629.559	8746.25
629.914	8641.17
630.269	8678.91
630.623	8589.42
630.978	8582.19
631.332	8691.57
631.687	8616.99
632.041	8550.78
632.396	8645.92
632.75	8598.23
633.104	8639.59
633.459	8559.37
633.813	8542.19
634.167	8565.24
634.521	8498.58
634.875	8561.85
635.229	8487.73
635.583	8489.54
635.937	8470.33
636.291	8452.02
636.645	8456.32
636.999	8429.2
637.352	8479.82
637.706	8397.56
638.06	8492.7
638.413	8426.94
638.767	8366.15
639.121	8476.66
639.474	8409.31
639.828	8393.72
640.181	8435.98
640.534	8443.89
640.888	8399.6
641.241	8308.75
641.594	8388.52
641.947	8350.33
642.301	8325.02
642.654	8375.64
643.007	8375.64
643.36	8348.75
643.713	8314.17
644.066	8376.32
644.419	8378.35
644.771	8307.17
645.124	8155.53
645.477	8223.55
645.83	8088.19
646.182	8037.8
646.535	8043.9
646.888	8092.26
647.24	8024.69
647.593	8082.09
647.945	8061.75
648.298	8004.13
648.65	7996.22
649.002	8001.41
649.355	8010
649.707	8029.66
650.059	8012.94
650.411	8073.73
650.763	8119.6
651.115	8202.09
651.467	8189.21
651.819	8190.34
652.171	8150.56
652.523	8157.34
652.875	8165.48
653.227	8094.07
653.578	8184.91
653.93	8198.92
654.282	8162.77
654.633	8114.63
654.985	8162.54
655.337	8171.8
655.688	8138.36
656.039	8191.69
656.391	8095.2
656.742	8189.43
657.094	8130.9
657.445	8167.06
657.796	8133.84
658.147	8136.78
658.498	8112.82
658.849	8216.1
659.2	8158.25
659.551	8165.48
659.902	8173.84
660.253	8226.04
660.604	8181.07
660.955	8128.19
661.306	8121.41
661.656	8134.52
662.007	8132.71
662.358	8195.31
662.708	8182.65
663.059	8190.11
663.409	8098.13
663.76	8171.8
664.11	8130.68
664.461	8196.44
664.811	8219.71
665.161	8190.11
665.511	8150.79
665.862	8210.9
666.212	8200.96
666.562	8198.7
666.912	8188.98
667.262	8110.34
667.612	8171.8
667.962	8175.19
668.312	8219.71
668.662	8190.11
669.011	8163.22
669.361	8192.37
669.711	8163.9
670.06	8151.01
670.41	8099.04
670.76	8082.09
671.109	8163.44
671.459	8168.87
671.808	8142.43
672.157	8131.58
672.507	8063.11
672.856	8075.08
673.205	8112.37
673.554	8103.11
673.904	8055.42
674.253	8149.88
674.602	8099.49
674.951	7951.7
675.3	7929.55
675.649	8026.72
675.998	8059.94
676.346	8036.22
676.695	8148.3
677.044	8055.65
677.393	8095.65
677.741	8074.41
678.09	8017.68
678.438	8027.4
678.787	7987.4
679.135	8029.44
679.484	7920.96
679.832	7942.66
680.181	7938.82
680.529	7961.87
680.877	7938.59
681.225	7852.72
681.573	7928.65
681.922	7887.74
682.27	7850.23
682.618	7884.81
682.966	7881.19
683.314	7843.45
683.661	7803.45
684.009	7755.77
684.357	7737.69
684.705	7763.23
685.053	7767.3
685.4	7768.2
685.748	7705.15
686.095	7712.83
686.443	7668.77
686.79	7642.33
687.138	7635.32
687.485	7673.06
687.832	7596.45
688.18	7618.15
688.527	7589.45
688.874	7590.13
689.221	7527.75
689.568	7522.78
689.915	7483.01
690.262	7445.27
690.609	7485.27
690.956	7412.73
691.303	7388.32
691.65	7398.94
691.997	7395.55
692.344	7289.34
692.69	7301.32
693.037	7362.79
693.383	7301.32
693.73	7294.09
694.077	7192.17
694.423	7230.13
694.769	7181.1
695.116	7227.65
695.462	7142.68
695.808	7122.11
696.155	7105.39
696.501	7113.08
696.847	7011.84
697.193	7065.39
697.539	6972.06
697.885	6975
698.231	6945.85
698.577	6979.52
698.923	6960.76
699.269	6855
699.614	6855
699.96	6866.3
700.306	6858.17
700.651	6811.39
700.997	6785.17
701.342	6779.53
701.688	6765.74
702.033	6791.95
702.379	6713.54
702.724	6702.01
703.069	6729.13
703.415	6677.15
703.76	6631.51
704.105	6593.09
704.45	6626.76
704.795	6557.38
705.14	6550.38
705.485	6556.93
705.83	6499.53
706.175	6487.33
706.52	6502.24
706.865	6417.95
707.209	6444.39
707.554	6433.32
707.899	6417.95
708.243	6382.47
708.588	6353.55
708.932	6308.58
709.277	6358.29
709.621	6304.51
709.966	6298.18
710.31	6352.87
710.654	6241.23
710.998	6224.74
711.342	6213.66
711.687	6224.51
712.031	6219.31
712.375	6132.31
712.719	6158.75
713.063	6162.82
713.407	6141.35
713.75	6137.96
714.094	6113.78
714.438	6090.5
714.782	6112.42
715.125	6093.22
715.469	6094.8
715.812	6090.28
716.156	6001.92
716.499	6089.83
716.843	6018.19
717.186	6001.01
717.53	6026.1
717.873	6042.82
718.216	6012.54
718.559	6015.03
718.902	5947.91
719.246	5956.5
719.589	5980.45
719.932	5915.82
720.275	5918.3
720.617	5981.35
720.96	5929.38
721.303	5971.41
721.646	5950.85
721.989	5908.36
722.331	5882.6
722.674	5915.59
723.016	5902.49
723.359	5873.79
723.701	5931.19
724.044	5861.58
724.386	5817.52
724.729	5885.99
725.071	5854.8
725.413	5903.84
725.755	5851.41
726.097	5809.38
726.439	5827.23
726.782	5827.69
727.124	5855.03
727.465	5808.7
727.807	5809.83
728.149	5754.92
728.491	5830.4
728.833	5856.39
729.175	5813.45
729.516	5754.24
729.858	5804.41
730.199	5771.19
730.541	5745.43
730.882	5833.34
731.224	5796.27
731.565	5742.94
731.906	5753.79
732.248	5774.35
732.589	5750.4
732.93	5749.04
733.271	5763.73
733.612	5803.96
733.953	5799.89
734.294	5751.98
734.635	5819.55
734.976	5823.62
735.317	5741.59
735.658	5742.94
735.999	5751.3
736.339	5766.67
736.68	5800.34
737.021	5771.42
737.361	5786.56
737.702	5787.69
738.042	5842.83
738.383	5774.81
738.723	5763.28
739.063	5780
739.404	5828.14
739.744	5813
740.084	5880.79
740.424	5783.62
740.764	5816.16
741.104	5840.11
741.444	5828.36
741.784	5829.04
742.124	5829.72
742.464	5935.93
742.804	5899.1
743.143	5883.05
743.483	5909.94
743.823	5935.93
744.162	5878.76
744.502	6013.67
744.841	5956.95
745.181	6011.18
745.52	5994.01
745.86	6032.43
746.199	6080.33
746.538	6107
746.877	6108.81
747.216	6149.03
747.556	6169.37
747.895	6266.32
748.234	6183.83
748.573	6243.95
748.911	6271.52
749.25	6310.16
749.589	6348.35
749.928	6426.99
750.267	6484.84
750.605	6557.61
750.944	6561.45
751.283	6573.2
751.621	6655.46
751.96	6704.27
752.298	6747.66
752.636	6818.85
752.975	6897.26
753.313	6917.37
753.651	7067.43
753.989	7100.87
754.327	7112.17
754.666	7270.81
755.004	7334.99
755.342	7437.81
755.679	7505.38
756.017	7573.63
756.355	7687.75
756.693	7751.03
757.031	7926.16
757.368	7923.9
757.706	8063.33
758.044	8136.78
758.381	8297
758.719	8341.74
759.056	8523.89
759.394	8592.81
759.731	8664.22
760.068	8800.04
760.405	8830.54
760.743	8937.89
761.08	9165.45
761.417	9225.34
761.754	9328.16
762.091	9532.9
762.428	9525.22
762.765	9704.87
763.102	9804.08
763.438	9915.71
763.775	10015.15
764.112	10199.77
764.449	10295.36
764.785	10303.27
765.122	10434.57
765.458	10529.48
765.795	10700.1
766.131	10773.09
766.467	10856.93
766.804	10921.11
767.14	11011.96
767.476	11149.58
767.812	11249.01
768.148	11369.01
768.485	11411.49
768.821	11444.49
769.157	11502.34
769.492	11614.65
769.828	11725.16
770.164	11728.32
770.5	11852.84
770.836	11920.18
771.171	11979.16
771.507	12111.14
771.842	12127.63
772.178	12196.56
772.513	12193.85
772.849	12321.07
773.184	12308.87
773.519	12408.3
773.855	12421.18
774.19	12465.25
774.525	12537.34
774.86	12526.49
775.195	12584.8
775.53	12702.08
775.865	12536.89
776.2	12564.46
776.535	12633.38
776.87	12688.3
777.205	12617.11
777.539	12637
777.874	12808.29
778.209	12747.05
778.543	12653.72
778.878	12804
779.212	12770.78
779.547	12806.94
779.881	12823.66
780.215	12876.09
780.55	12954.05
780.884	12896.2
781.218	12814.39
781.552	12904.56
781.886	12910.66
782.22	12792.47
782.554	12787.73
782.888	12745.24
783.222	12758.12
783.556	12795.19
783.889	12841.74
784.223	12642.42
784.557	12738.92
784.89	12746.83
785.224	12695.08
785.557	12661.18
785.891	12673.16
786.224	12643.55
786.558	12693.27
786.891	12538.02
787.224	12572.59
787.557	12527.62
787.891	12614.17
788.224	12587.51
788.557	12551.8
788.89	12546.38
789.223	12607.17
789.556	12546.83
789.888	12442.88
790.221	12537.57
790.554	12418.7
790.887	12425.25
791.219	12412.6
791.552	12437.68
791.884	12400.39
792.217	12356.33
792.549	12311.36
792.882	12184.58
793.214	12202.21
793.546	12253.73
793.879	12222.09
794.211	12053.96
794.543	12112.72
794.875	12145.49
795.207	12142.77
795.539	12089.67
795.871	12053.74
796.203	12027.75
796.535	11926.28
796.867	11998.37
797.198	11954.53
797.53	11945.94
797.862	11841.76
798.193	11893.97
798.525	11832.27
798.856	11827.53
799.188	11733.52
799.519	11665.05
799.85	11629.34
800.182	11665.5
800.513	11672.96
800.844	11580.53
801.175	11600.19
801.506	11570.81
801.837	11566.29
802.168	11498.72
802.499	11498.72
802.83	11430.7
803.161	11486.29
803.491	11474.77
803.822	11401.1
804.153	11384.38
804.483	11313.64
804.814	11350.93
805.145	11252.4
805.475	11284.72
805.805	11242.91
806.136	11229.8
806.466	11129.69
806.796	11189.35
807.126	11132.63
807.457	11124.04
807.787	11036.36
808.117	11036.14
808.447	11048.57
808.777	11066.42
809.107	11016.93
809.436	10944.16
809.766	10963.6
810.096	10910.04
810.426	10941.45
810.755	10870.72
811.085	10859.64
811.414	10823.49
811.744	10779.65
812.073	10708.46
812.403	10770.83
812.732	10746.88
813.061	10678.63
813.39	10634.79
813.719	10592.31
814.049	10642.25
814.378	10651.97
814.707	10588.46
815.036	10561.35
815.365	10512.53
815.693	10505.08
816.022	10474.12
816.351	10480.9
816.68	10468.92
817.008	10493.1
817.337	10370.62
817.665	10292.65
817.994	10439.32
818.322	10352.99
818.651	10307.12
818.979	10310.05
819.307	10360.22
819.636	10317.74
819.964	10263.5
820.292	10300.34
820.62	10254.69
820.948	10212.2
821.276	10291.07
821.604	10195.93
821.932	10216.04
822.259	10272.77
822.587	10186.22
822.915	10119.78
823.243	10226.21
823.57	10256.95
823.898	10219.89
824.225	10208.14
824.553	10188.25
824.88	10177.85
825.207	10227.57
825.535	10155.26
825.862	10209.04
826.189	10175.59
826.516	10290.85
826.843	10247.23
827.17	10270.96
827.497	10228.7
827.824	10179.44
828.151	10305.53
828.478	10248.13
828.805	10251.07
829.131	10225.54
829.458	10205.65
829.785	10230.51
830.111	10147.12
830.438	10338.3
830.764	10260.79
831.09	10218.76
831.417	10177.4
831.743	10221.69
832.069	10170.17
832.395	10138.53
832.722	10204.52
833.048	10148.02
833.374	10247.46
833.7	10189.6
834.026	10197.97
834.351	10183.73
834.677	10189.38
835.003	10142.6
835.329	10094.01
835.654	10157.52
835.98	10110.74
836.306	10113.22
836.631	10122.71
836.956	10081.81
837.282	10178.08
837.607	10132.43
837.932	10032.77
838.258	10076.39
838.583	10053.11
838.908	10017.63
839.233	10000.91
839.558	9997.97
839.883	9921.14
840.208	9892.21
840.533	9858.31
840.858	9908.93
841.182	10008.14
841.507	9801.37
841.832	9844.53
842.156	9875.71
842.481	9811.99
842.805	9790.75
843.13	9745.55
843.454	9833.68
843.778	9726.79
844.103	9724.08
844.427	9691.31
844.751	9651.09
845.075	9595.5
845.399	9659
845.723	9555.27
846.047	9543.52
846.371	9457.87
846.695	9536.51
847.019	9447.7
847.343	9360.02
847.666	9343.53
847.99	9274.37
848.313	9327.03
848.637	9271.66
848.96	9186.02
849.284	9236.86
849.607	9143.98
849.931	9108.5
850.254	9121.61
850.577	9030.77
850.9	8995.74
851.223	9000.26
851.546	8989.64
851.869	8864.67
852.192	8932.46
852.515	8828.51
852.838	8772.24
853.161	8816.53
853.483	8775.86
853.806	8763.88
854.129	8697.21
854.451	8746.25
854.774	8654.28
855.096	8544.68
855.419	8582.87
855.741	8557.56
856.063	8499.48
856.385	8599.36
856.708	8490.89
857.03	8464.68
857.352	8473.04
857.674	8455.64
857.996	8407.28
858.318	8326.38
858.64	8348.3
858.961	8307.17
859.283	8272.37
859.605	8267.17
859.926	8282.54
860.248	8235.98
860.57	8264.01
860.891	8210.22
861.212	8161.18
861.534	8175.42
861.855	8162.77
862.176	8098.59
862.498	8162.31
862.819	8114.18
863.14	8058.14
863.461	8082.77
863.782	8043.45
864.103	8002.54
864.424	8008.19
864.745	8016.1
865.065	8003
865.386	7899.72
865.707	7946.73
866.027	7977.46
866.348	7960.74
866.668	7903.34
866.989	7883.9
867.309	7859.5
867.63	7894.07
867.95	7881.42
868.27	7812.94
868.59	7837.58
868.91	7829.44
869.23	7795.77
869.55	7832.6
869.87	7799.84
870.19	7785.83
870.51	7818.59
870.83	7817.01
871.15	7701.53
871.469	7728.65
871.789	7712.16
872.109	7749.44
872.428	7598.03
872.748	7646.17
873.067	7730.69
873.386	7710.57
873.706	7667.19
874.025	7556
874.344	7635.55
874.663	7611.82
874.982	7648.43
875.301	7571.82
875.62	7631.03
875.939	7576.34
876.258	7640.52
876.577	7536.57
876.896	7518.71
877.214	7472.84
877.533	7477.36
877.852	7510.81
878.17	7487.53
878.489	7508.55
878.807	7492.27
879.125	7462.45
879.444	7498.6
879.762	7409.57
880.08	7394.42
880.398	7337.25
880.716	7386.74
881.034	7308.1
881.352	7385.16
881.67	7330.25
881.988	7329.79
882.306	7294.77
882.624	7311.26
882.941	7243.47
883.259	7247.76
883.577	7266.29
883.894	7237.59
884.212	7176.8
884.529	7215.22
884.846	7185.62
885.164	7183.81
885.481	7121.21
885.798	7133.87
886.115	7114.21
886.432	7101.32
886.75	7071.04
887.067	7075.79
887.383	7070.14
887.7	7053.64
888.017	7013.19
888.334	7029.01
888.651	7037.15
888.967	6908.34
889.284	6906.53
889.6	6962.12
889.917	6871.27
890.233	6885.29
890.55	6904.49
890.866	6863.59
891.182	6816.59
891.498	6832.41
891.815	6762.35
892.131	6797.38
892.447	6758.73
892.763	6724.61
893.079	6689.13
893.395	6674.67
893.71	6612.3
894.026	6676.93
894.342	6633.09
894.657	6594.9
894.973	6596.25
895.289	6580.66
895.604	6583.15
895.92	6538.63
896.235	6439.65
896.55	6446.88
896.865	6483.94
897.181	6452.75
897.496	6441.68
897.811	6427.44
898.126	6360.1
898.441	6370.27
898.756	6324.85
899.071	6273.1
899.386	6295.92
899.7	6217.05
900.015	6268.58
900.33	6172.54
900.644	6146.55
900.959	6219.54
901.273	6125.98
901.588	6125.76
901.902	6108.58
902.216	6112.42
902.531	6065.87
902.845	6069.26
903.159	6036.95
903.473	6010.96
903.787	5973.67
904.101	5958.3
904.415	5930.06
904.729	5944.29
905.042	5871.07
905.356	5825.43
905.67	5864.75
905.984	5830.17
906.297	5801.25
906.611	5834.24
906.924	5819.55
907.237	5776.61
907.551	5716.95
907.864	5714.02
908.177	5792.43
908.491	5645.54
908.804	5659.78
909.117	5637.41
909.43	5609.16
909.743	5572.33
910.056	5547.92
910.368	5497.07
910.681	5493.01
910.994	5534.81
911.307	5495.94
911.619	5455.27
911.932	5457.98
912.244	5400.35
912.557	5393.8
912.869	5368.26
913.181	5329.85
913.494	5294.14
913.806	5249.85
914.118	5282.84
914.43	5225.44
914.742	5264.76
915.054	5237.87
915.366	5189.96
915.678	5170.08
915.99	5159.68
916.302	5130.53
916.613	5092.11
916.925	5047.14
917.236	5070.19
917.548	5047.37
917.859	5040.81
918.171	5046.46
918.482	5006.69
918.794	4982.51
919.105	4901.38
919.416	4870.42
919.727	4965.11
920.038	4902.96
920.349	4879.24
920.66	4872.23
920.971	4873.13
921.282	4851.44
921.593	4797.66
921.903	4786.58
922.214	4758.56
922.525	4746.81
922.835	4723.99
923.146	4735.06
923.456	4728.28
923.767	4643.99
924.077	4705.68
924.387	4646.7
924.697	4608.73
925.008	4556.98
925.318	4599.7
925.628	4588.85
925.938	4564.44
926.248	4526.7
926.558	4547.49
926.867	4464.33
927.177	4475.18
927.487	4446.25
927.796	4397.67
928.106	4431.79
928.416	4356.99
928.725	4407.38
929.034	4328.29
929.344	4404.22
929.653	4345.46
929.962	4310.44
930.271	4319.93
930.581	4264.79
930.89	4294.62
931.199	4232.02
931.508	4249.87
931.817	4193.38
932.125	4178.46
932.434	4163.55
932.743	4155.19
933.051	4151.12
933.36	4159.71
933.669	4071.57
933.977	4076.32
934.286	4107.05
934.594	4064.34
934.902	4011.69
935.21	4005.13
935.519	4006.49
935.827	4028.41
936.135	4013.27
936.443	3983.67
936.751	3939.15
937.059	3912.93
937.367	3897.57
937.674	3907.74
937.982	3901.63
938.29	3887.85
938.597	3881.52
938.905	3807.17
939.213	3801.52
939.52	3757.46
939.827	3825.25
940.135	3790
940.442	3761.75
940.749	3738.48
941.056	3747.97
941.363	3686.73
941.67	3667.74
941.977	3677.46
942.284	3662.32
942.591	3698.48
942.898	3624.81
943.205	3612.83
943.511	3613.28
943.818	3621.19
944.125	3577.12
944.431	3575.32
944.738	3552.04
945.044	3503.91
945.35	3486.05
945.657	3485.6
945.963	3468.43
946.269	3466.39
946.575	3435.43
946.881	3479.95
947.187	3431.59
947.493	3396.11
947.799	3387.52
948.105	3392.5
948.41	3397.24
948.716	3356.34
949.022	3342.78
949.327	3341.88
949.633	3315.44
949.938	3305.04
950.244	3329.45
950.549	3281.31
950.854	3251.93
951.16	3230.24
951.465	3246.06
951.77	3200.41
952.075	3174.87
952.38	3215.78
952.685	3197.92
952.99	3190.69
953.294	3137.59
953.599	3176.23
953.904	3120.86
954.209	3091.49
954.513	3122.45
954.818	3092.62
955.122	3070.92
955.426	3071.6
955.731	3067.08
956.035	3076.8
956.339	3020.3
956.643	3014.43
956.948	3013.97
957.252	3051.49
957.556	2965.61
957.86	2976.01
958.163	2985.73
958.467	2946.41
958.771	2929.91
959.075	2933.75
959.378	2909.12
959.682	2898.5
959.985	2868.67
960.289	2882.68
960.592	2866.63
960.896	2851.49
961.199	2832.51
961.502	2836.35
961.805	2806.97
962.108	2827.31
962.411	2773.08
962.714	2766.52
963.017	2776.24
963.32	2751.38
963.623	2762
963.926	2749.8
964.228	2723.59
964.531	2718.61
964.833	2712.97
965.136	2685.4
965.438	2687.43
965.741	2681.55
966.043	2640.2
966.345	2640.2
966.648	2631.39
966.95	2592.74
967.252	2580.54
967.554	2625.06
967.856	2575.34
968.158	2556.81
968.46	2540.77
968.761	2565.62
969.063	2555.46
969.365	2517.26
969.666	2532.86
969.968	2505.29
970.269	2486.3
970.571	2505.97
970.872	2504.16
971.174	2493.08
971.475	2497.83
971.776	2457.15
972.077	2435.23
972.378	2439.53
972.679	2409.47
972.98	2421.45
973.281	2397.72
973.582	2390.49
973.883	2414.89
974.183	2360.66
974.484	2369.47
974.785	2356.82
975.085	2350.94
975.386	2336.48
975.686	2309.59
975.986	2324.95
976.287	2303.48
976.587	2287.44
976.887	2262.36
977.187	2271.85
977.487	2239.31
977.787	2272.98
978.087	2254.9
978.387	2245.86
978.687	2234.56
978.987	2229.14
979.286	2201.34
979.586	2223.49
979.885	2193.21
980.185	2185.3
980.484	2191.4
980.784	2154.11
981.083	2153.88
981.382	2166.99
981.682	2119.53
981.981	2102.59
982.28	2121.34
982.579	2094.68
982.878	2083.6
983.177	2104.85
983.475	2113.66
983.774	2068.69
984.073	2038.18
984.372	2102.81
984.67	2056.26
984.969	2020.55
985.267	2038.41
985.566	2021.68
985.864	2011.06
986.162	1998.86
986.461	1990.72
986.759	1957.73
987.057	1959.31
987.355	1953.66
987.653	1948.24
987.951	1940.78
988.249	1950.5
988.547	1930.16
988.844	1913.21
989.142	1935.36
989.44	1901.46
989.737	1903.04
990.035	1874.8
990.332	1863.04
990.63	1875.47
990.927	1899.2
991.224	1871.41
991.521	1848.13
991.819	1846.55
992.116	1859.2
992.413	1858.07
992.71	1808.13
993.006	1819.88
993.303	1786.66
993.6	1798.64
993.897	1788.47
994.193	1794.8
994.49	1744.63
994.787	1775.81
995.083	1748.24
995.379	1758.19
995.676	1757.51
995.972	1720.45
996.268	1737.62
996.565	1727
996.861	1708.02
997.157	1687.23
997.453	1712.54
997.749	1678.42
998.044	1694.24
998.34	1713.67
998.636	1662.37
998.932	1633.45
999.227	1644.29
999.523	1624.86
999.818	1650.62
1000.114	1624.41
1000.409	1616.95
1000.704	1584.63
1001	1610.17
1001.295	1608.59
1001.59	1612.2
1001.885	1604.97
1002.18	1584.41
1002.475	1550.06
1002.77	1562.26
1003.065	1564.97
1003.359	1562.26
1003.654	1513
1003.949	1512.32
1004.243	1541.02
1004.538	1520.68
1004.832	1503.96
1005.127	1469.16
1005.421	1483.62
1005.715	1497.18
1006.009	1485.2
1006.304	1470.74
1006.598	1456.28
1006.892	1451.53
1007.186	1435.48
1007.48	1436.16
1007.773	1421.7
1008.067	1423.28
1008.361	1402.27
1008.655	1369.72
1008.948	1396.39
1009.242	1424.86
1009.535	1419.21
1009.829	1368.59
1010.122	1364.07
1010.415	1348.93
1010.708	1338.76
1011.001	1339.67
1011.295	1337.63
1011.588	1325.66
1011.881	1318.43
1012.173	1271.87
1012.466	1338.09
1012.759	1298.31
1013.052	1298.31
1013.344	1293.79
1013.637	1276.84
1013.93	1263.51
1014.222	1266
1014.514	1248.37
1014.807	1261.03
1015.099	1233.46
1015.391	1269.84
1015.683	1213.12
1015.976	1218.32
1016.268	1212.44
1016.56	1218.32
1016.851	1189.39
1017.143	1207.69
1017.435	1196.85
1017.727	1186.9
1018.018	1174.7
1018.31	1180.58
1018.602	1181.71
1018.893	1161.82
1019.185	1157.3
1019.476	1138.32
1019.767	1142.61
1020.058	1146
1020.35	1133.12
1020.641	1119.79
1020.932	1104.65
1021.223	1105.32
1021.514	1082.5
1021.804	1081.37
1022.095	1071.2
1022.386	1073.69
1022.677	1055.38
1022.967	1066.46
1023.258	1063.07
1023.548	1064.65
1023.839	1036.17
1024.129	1024.87
1024.419	1044.53
1024.709	1048.6
1025	1002.28
1025.29	997.76
1025.58	1037.53
1025.87	1000.69
1026.16	1010.41
1026.449	1023.74
1026.739	1004.99
1027.029	968.83
1027.319	953.92
1027.608	977.42
1027.898	972.45
1028.187	956.63
1028.477	943.52
1028.766	952.56
1029.055	927.7
1029.344	933.58
1029.634	915.5
1029.923	925.44
1030.212	893.13
1030.501	902.84
1030.79	927.7
1031.078	879.34
1031.367	883.18
1031.656	887.02
1031.945	887.48
1032.233	872.56
1032.522	878.21
1032.81	873.92
1033.099	862.62
1033.387	887.7
1033.675	884.31
1033.963	861.94
1034.251	842.05
1034.54	843.41
1034.828	822.17
1035.116	819.91
1035.403	816.29
1035.691	833.47
1035.979	811.32
1036.267	813.13
1036.554	816.52
1036.842	800.02
1037.129	798.21
1037.417	785.78
1037.704	765.9
1037.992	802.73
1038.279	790.08
1038.566	776.29
1038.853	776.29
1039.14	776.29
