Data from hue_310_FLMS001491_36.txt Node
Date: Mon Feb 06 15:49:36 GMT 2017
User: dcchb
Spectrometer: FLMS00149
Trigger mode: 0
Integration Time (sec): 2.000000E-2
Scans to average: 10
Electric dark correction enabled: true
Nonlinearity correction enabled: false
Boxcar width: 0
XAxis mode: Wavelengths
Number of Pixels in Spectrum: 2048
>>>>>Begin Spectral Data<<<<<
341.393	-8.7
341.776	-8.7
342.16	-8.7
342.543	-53.44
342.927	-50.06
343.31	-58.64
343.693	-85.31
344.077	-60
344.46	-71.07
344.843	-43.5
345.226	-45.76
345.61	-21.13
345.993	-24.29
346.376	2.15
346.759	26.55
347.142	20.23
347.525	51.64
347.908	44.18
348.291	78.98
348.674	71.07
349.057	114.91
349.44	135.02
349.823	147.91
350.206	169.6
350.588	181.35
350.971	217.96
351.354	226.77
351.737	238.3
352.119	248.92
352.502	257.73
352.884	268.81
353.267	290.5
353.65	285.08
354.032	308.58
354.414	290.95
354.797	308.81
355.179	319.43
355.562	327.56
355.944	338.86
356.326	328.24
356.709	330.5
357.091	335.92
357.473	348.8
357.855	328.24
358.238	330.05
358.62	340.89
359.002	336.6
359.384	360.33
359.766	350.61
360.148	337.28
360.53	357.39
360.912	334.34
361.294	324.85
361.676	325.08
362.057	331.18
362.439	328.69
362.821	341.8
363.203	323.04
363.584	328.24
363.966	328.69
364.348	316.26
364.729	304.51
365.111	308.58
365.493	321.23
365.874	301.8
366.256	326.43
366.637	315.58
367.019	307.68
367.4	313.1
367.781	300.22
368.163	324.85
368.544	316.26
368.925	327.56
369.306	319.2
369.688	300.9
370.069	325.75
370.45	299.31
370.831	317.17
371.212	315.13
371.593	292.53
371.974	321.01
372.355	310.16
372.736	309.71
373.117	319.88
373.498	328.92
373.879	318.75
374.26	334.12
374.641	311.74
375.021	326.21
375.402	307.45
375.783	318.07
376.163	318.75
376.544	316.94
376.925	332.31
377.305	330.73
377.686	312.2
378.066	316.49
378.447	352.19
378.827	335.47
379.208	337.28
379.588	330.73
379.968	338.18
380.349	358.75
380.729	347.22
381.109	333.66
381.489	314.91
381.87	344.74
382.25	342.25
382.63	322.59
383.01	348.13
383.39	333.89
383.77	352.19
384.15	337.28
384.53	334.79
384.91	371.63
385.29	344.74
385.67	359.65
386.049	351.97
386.429	336.38
386.809	332.08
387.189	347
387.568	384.74
387.948	347
388.328	363.04
388.707	353.78
389.087	343.83
389.466	349.93
389.846	365.3
390.225	364.62
390.605	368.92
390.984	361.69
391.363	374.11
391.743	379.09
392.122	351.52
392.501	353.55
392.881	364.4
393.26	361.69
393.639	370.05
394.018	376.15
394.397	378.18
394.776	371.4
395.155	391.52
395.534	385.64
395.913	368.01
396.292	373.89
396.671	402.14
397.05	367.79
397.429	402.36
397.808	387
398.186	369.59
398.565	400.1
398.944	405.53
399.323	401.91
399.701	407.79
400.08	384.51
400.458	403.49
400.837	402.14
401.215	383.15
401.594	411.63
401.972	408.01
402.351	394.23
402.729	420.67
403.107	407.33
403.486	407.33
403.864	422.47
404.242	395.81
404.62	438.97
404.999	422.47
405.377	431.06
405.755	424.06
406.133	437.84
406.511	452.08
406.889	447.11
407.267	460.21
407.645	440.1
408.023	455.69
408.401	445.98
408.779	455.92
409.156	473.55
409.534	452.08
409.912	464.73
410.29	487.78
410.667	502.92
411.045	485.98
411.422	489.37
411.8	507.67
412.178	486.43
412.555	532.3
412.933	546.54
413.31	532.08
413.687	547.44
414.065	545.18
414.442	535.69
414.819	550.38
415.197	545.64
415.574	574.79
415.951	553.54
416.328	566.43
416.705	589.7
417.082	593.54
417.46	613.66
417.837	630.83
418.214	612.75
418.591	628.57
418.967	636.25
419.344	639.19
419.721	637.61
420.098	642.13
420.475	643.71
420.852	650.94
421.228	668.12
421.605	682.13
421.982	678.74
422.358	690.26
422.735	719.19
423.111	709.92
423.488	730.49
423.864	714.44
424.241	706.08
424.617	734.1
424.994	764.84
425.37	731.17
425.746	752.41
426.123	776.59
426.499	764.16
426.875	767.1
427.251	789.24
427.627	800.32
428.003	797.38
428.379	787.89
428.756	801.9
429.132	841.9
429.507	829.7
429.883	852.07
430.259	863.14
430.635	870.6
431.011	867.43
431.387	880.99
431.763	895
432.138	916.47
432.514	903.82
432.89	914.89
433.265	883.93
433.641	958.05
434.016	938.17
434.392	971.84
434.767	982.69
435.143	957.6
435.518	982.23
435.894	1011.16
436.269	1010.26
436.644	1040.09
437.02	1035.79
437.395	1042.57
437.77	1066.53
438.145	1044.61
438.52	1061.33
438.895	1067.88
439.271	1067.2
439.646	1090.93
440.021	1116.47
440.395	1101.33
440.77	1099.52
441.145	1123.7
441.52	1134.09
441.895	1150.82
442.27	1130.7
442.645	1122.57
443.019	1147.43
443.394	1149.01
443.769	1183.36
444.143	1145.39
444.518	1180.42
444.892	1152.17
445.267	1158.73
445.641	1169.12
446.016	1188.1
446.39	1193.08
446.764	1191.72
447.139	1195.11
447.513	1204.6
447.887	1201.66
448.262	1216.13
448.636	1215.22
449.01	1240.76
449.384	1214.54
449.758	1226.97
450.132	1223.36
450.506	1255.9
450.88	1226.07
451.254	1215.22
451.628	1230.14
452.002	1259.97
452.376	1256.8
452.75	1266.29
453.123	1283.24
453.497	1300.19
453.871	1278.27
454.244	1306.07
454.618	1312.17
454.992	1323.47
455.365	1342.22
455.739	1337.25
456.112	1342.45
456.486	1344.94
456.859	1376.12
457.232	1371.6
457.606	1386.97
457.979	1371.38
458.352	1413.64
458.725	1406.86
459.099	1424.71
459.472	1454.99
459.845	1462.22
460.218	1461.77
460.591	1473.07
460.964	1461.32
461.337	1494.99
461.71	1493.41
462.083	1502.22
462.456	1496.34
462.829	1520.75
463.201	1539.06
463.574	1537.7
463.947	1537.47
464.32	1550.81
464.692	1580.18
465.065	1608.66
465.438	1582.22
465.81	1632.61
466.183	1620.64
466.555	1658.37
466.928	1655.66
467.3	1690.46
467.672	1674.42
468.045	1702.44
468.417	1727.98
468.789	1728.88
469.161	1735.21
469.534	1729.56
469.906	1750.12
470.278	1779.28
470.65	1799.39
471.022	1791.48
471.394	1792.83
471.766	1825.38
472.138	1852.72
472.51	1874.41
472.882	1914.19
473.253	1868.31
473.625	1904.47
473.997	1945.82
474.369	1955.99
474.74	1954.19
475.112	1969.78
475.484	2006.16
475.855	2007.52
476.227	2035.54
476.598	2066.95
476.97	2078.48
477.341	2099.27
477.713	2140.85
478.084	2101.75
478.455	2188.76
478.827	2200.96
479.198	2216.78
479.569	2226.95
479.94	2251.13
480.311	2253.84
480.682	2305.82
481.053	2341.07
481.424	2333.84
481.795	2374.06
482.166	2406.38
482.537	2425.36
482.908	2466.04
483.279	2465.58
483.65	2485.02
484.021	2531.12
484.391	2577.45
484.762	2550.33
485.133	2583.55
485.503	2575.86
485.874	2613.15
486.244	2666.03
486.615	2688.86
486.985	2686.14
487.356	2737.89
487.726	2748.74
488.097	2775.18
488.467	2787.38
488.837	2814.73
489.207	2874.61
489.578	2891.34
489.948	2894.5
490.318	2895.63
490.688	2943.99
491.058	2974.72
491.428	2993.03
491.798	3025.12
492.168	3080.26
492.538	3055.63
492.908	3120.26
493.278	3149.41
493.648	3115.29
494.017	3163.42
494.387	3114.83
494.757	3174.72
495.126	3155.51
495.496	3194.15
495.866	3225.56
496.235	3236.19
496.605	3312.34
496.974	3302.63
497.344	3280.03
497.713	3276.41
498.082	3313.25
498.452	3305.56
498.821	3333.58
499.19	3407.71
499.559	3388.27
499.928	3415.84
500.298	3399.12
500.667	3419.91
501.036	3441.15
501.405	3428.27
501.774	3436.86
502.143	3493.13
502.512	3483.19
502.88	3490.87
503.249	3488.61
503.618	3520.7
503.987	3528.38
504.356	3554.14
504.724	3535.61
505.093	3541.49
505.462	3578.78
505.83	3612
506.199	3621.49
506.567	3588.49
506.936	3598.89
507.304	3661.03
507.672	3670.52
508.041	3674.59
508.409	3664.2
508.777	3714.37
509.145	3682.28
509.514	3705.1
509.882	3693.8
510.25	3713.91
510.618	3690.64
510.986	3735.83
511.354	3781.71
511.722	3802.95
512.09	3848.6
512.458	3788.94
512.826	3731.09
513.193	3820.58
513.561	3811.31
513.929	3841.82
514.297	3856.73
514.664	3859.22
515.032	3865.77
515.4	3883.17
515.767	3888.15
516.135	3888.6
516.502	3862.16
516.869	3923.63
517.237	3914.59
517.604	3923.4
517.972	3943.29
518.339	3941.25
518.706	3979.22
519.073	3967.01
519.44	3951.65
519.808	3978.54
520.175	3945.55
520.542	3996.84
520.909	4033.45
521.276	3995.04
521.643	4002.49
522.009	4065.09
522.376	4073.23
522.743	4081.36
523.11	4135.15
523.477	4135.37
523.843	4122.94
524.21	4196.39
524.577	4168.36
524.943	4207.23
525.31	4221.7
525.676	4189.16
526.043	4221.7
526.409	4262.6
526.776	4287.23
527.142	4275.03
527.508	4341.24
527.874	4304.41
528.241	4353.22
528.607	4353.44
528.973	4399.77
529.339	4409.26
529.705	4472.09
530.071	4441.58
530.437	4494.01
530.803	4477.51
531.169	4513.89
531.535	4515.02
531.901	4540.56
532.267	4514.12
532.632	4559.09
532.998	4593.21
533.364	4585.3
533.73	4577.62
534.095	4660.78
534.461	4692.19
534.826	4700.55
535.192	4696.94
535.557	4728.58
535.923	4749.82
536.288	4775.58
536.653	4765.64
537.019	4769.71
537.384	4768.35
537.749	4823.26
538.114	4809.25
538.479	4853.54
538.845	4886.76
539.21	4892.64
539.575	4943.03
539.94	4961.11
540.305	4987.33
540.67	4985.07
541.034	5002.24
541.399	5011.73
541.764	5023.71
542.129	5054.67
542.494	5072.75
542.858	5077.49
543.223	5053.99
543.587	5150.49
543.952	5072.07
544.316	5181.45
544.681	5152.97
545.045	5236.13
545.41	5205.85
545.774	5265.29
546.138	5235
546.503	5269.35
546.867	5249.92
547.231	5358.84
547.595	5321.1
547.959	5430.7
548.324	5383.25
548.688	5391.61
549.052	5340.09
549.416	5420.54
549.779	5435.22
550.143	5440.42
550.507	5506.41
550.871	5526.75
551.235	5497.6
551.599	5539.4
551.962	5542.11
552.326	5590.93
552.689	5584.82
553.053	5612.62
553.417	5620.76
553.78	5645.39
554.143	5657.14
554.507	5632.28
554.87	5670.47
555.234	5726.97
555.597	5692.39
555.96	5784.82
556.323	5748.66
556.686	5700.75
557.05	5777.81
557.413	5773.75
557.776	5769.68
558.139	5807.42
558.502	5799.28
558.865	5802.22
559.228	5839.28
559.59	5844.03
559.953	5826.85
560.316	5969
560.679	5931.03
561.041	5945.27
561.404	5999.5
561.767	6085.83
562.129	6026.85
562.492	6071.59
562.854	6014.19
563.217	6077.92
563.579	6087.18
563.941	6106.17
564.304	6131.93
564.666	6160.63
565.028	6194.98
565.39	6251.47
565.753	6283.11
566.115	6223
566.477	6290.8
566.839	6316.33
567.201	6348.65
567.563	6302.77
567.925	6358.59
568.287	6351.58
568.648	6333.28
569.01	6416.22
569.372	6478.81
569.734	6433.16
570.095	6530.34
570.457	6552.94
570.819	6559.71
571.18	6545.03
571.542	6591.35
571.903	6653.72
572.265	6700.28
572.626	6651.01
572.987	6750.9
573.349	6765.36
573.71	6818.01
574.071	6847.84
574.432	6916.99
574.794	6966.03
575.155	7032.7
575.516	7000.38
575.877	7134.61
576.238	7111.11
576.599	7215.06
576.96	7201.05
577.32	7364.21
577.681	7382.07
578.042	7502.51
578.403	7495.06
578.763	7603.53
579.124	7634.49
579.485	7788.83
579.845	7937.08
580.206	8036.29
580.566	8163.06
580.927	8172.55
581.287	8375.03
581.648	8468.82
582.008	8616.16
582.368	8695.25
582.728	8851.63
583.089	9001.46
583.449	9232.64
583.809	9298.4
584.169	9471.28
584.529	9611.16
584.889	9858.84
585.249	9925.73
585.609	10130.24
585.969	10429.22
586.329	10578.14
586.688	10722.09
587.048	11032.14
587.408	11120.27
587.768	11408.63
588.127	11570.43
588.487	11894.94
588.846	12076.18
589.206	12291.54
589.565	12611.08
589.925	12804.52
590.284	13105.53
590.643	13382.36
591.003	13606.31
591.362	13916.58
591.721	14126.97
592.08	14429.79
592.44	14744.36
592.799	14896.9
593.158	15323.33
593.517	15507.73
593.876	15841.5
594.235	16203.75
594.593	16389.51
594.952	16696.62
595.311	16924.19
595.67	17323.95
596.029	17697.73
596.387	18009.58
596.746	18322.34
597.104	18546.29
597.463	18854.08
597.822	19091.81
598.18	19428.3
598.538	19682.99
598.897	20074.61
599.255	20246.13
599.613	20713.47
599.972	20862.84
600.33	21346.67
600.688	21564.07
601.046	21769.94
601.404	22168.57
601.762	22384.61
602.12	22736.69
602.478	22989.79
602.836	23318.37
603.194	23361.31
603.552	23664.8
603.91	23886.94
604.268	24348.17
604.625	24451.45
604.983	24888.27
605.341	24948.84
605.698	25381.37
606.056	25634.02
606.413	25797.85
606.771	26006.43
607.128	26359.87
607.485	26564.39
607.843	26751.05
608.2	27020.87
608.557	27390.58
608.914	27423.12
609.272	27868.53
609.629	27948.53
609.986	28224.91
610.343	28426.48
610.7	28797.1
611.057	28900.14
611.414	29040.03
611.771	29249.97
612.127	29446.34
612.484	29648.37
612.841	29914.13
613.198	29941.92
613.554	30159.09
613.911	30416.94
614.267	30586.65
614.624	30773.09
614.98	30932.18
615.337	31267.54
615.693	31280.87
616.05	31467.08
616.406	31688.32
616.762	31732.16
617.118	31947.07
617.475	32014.41
617.831	32289.89
618.187	32407.17
618.543	32598.35
618.899	32886.03
619.255	32912.02
619.611	33005.35
619.967	33163.76
620.323	33244.89
620.678	33294.38
621.034	33430.87
621.39	33555.84
621.746	33541.6
622.101	33902.27
622.457	33921.71
622.812	34172.32
623.168	34137.29
623.523	34257.52
623.879	34320.34
624.234	34285.77
624.589	34497.06
624.945	34505.42
625.3	34636.72
625.655	34795.13
626.01	34806.88
626.365	34862.47
626.72	34978.18
627.075	35016.59
627.43	35048.46
627.785	34999.64
628.14	35110.83
628.495	35194.44
628.85	35213.65
629.205	35243.48
629.559	35596.92
629.914	35318.96
630.269	35549.69
630.623	35487.32
630.978	35460.42
631.332	35533.64
631.687	35737.25
632.041	35588.56
632.396	35718.5
632.75	35622.91
633.104	35754.88
633.459	35652.73
633.813	35664.71
634.167	35653.64
634.521	35617.71
634.875	35814.76
635.229	35930.69
635.583	35699.74
635.937	35740.42
636.291	35667.88
636.645	35842.11
636.999	35675.79
637.352	35831.26
637.706	35649.8
638.06	35833.52
638.413	35615.67
638.767	35600.98
639.121	35935.67
639.474	35561.21
639.828	35680.3
640.181	35720.3
640.534	35711.26
640.888	35732.05
641.241	35567.31
641.594	35681.21
641.947	35704.94
642.301	35696.12
642.654	35708.1
643.007	35702.23
643.36	35703.81
643.713	35626.52
644.066	35771.15
644.419	35518.73
644.771	35433.31
645.124	35130.71
645.477	34962.13
645.83	34706.55
646.182	34673.1
646.535	34582.25
646.888	34604.4
647.24	34548.58
647.593	34696.83
647.945	34728.01
648.298	34577.28
648.65	34462.71
649.002	34357.4
649.355	34522.82
649.707	34454.35
650.059	34707.45
650.411	34925.07
650.763	35097.95
651.115	35485.73
651.467	35309.69
651.819	35290.26
652.171	35238.28
652.523	35219.3
652.875	35185.63
653.227	35087.78
653.578	35375
653.93	35199.41
654.282	35137.49
654.633	35023.82
654.985	35109.92
655.337	35208.9
655.688	35149.25
656.039	35233.31
656.391	34967.33
656.742	35082.58
657.094	35060.66
657.445	35108.57
657.796	35086.42
658.147	35001.23
658.498	35103.37
658.849	35065.41
659.2	35066.76
659.551	34870.83
659.902	35088.68
660.253	34949.25
660.604	35052.07
660.955	34822.7
661.306	34946.31
661.656	34865.86
662.007	35013.43
662.358	34982.24
662.708	34977.72
663.059	34945.63
663.409	34830.61
663.76	34977.27
664.11	35077.83
664.461	34992.87
664.811	34949.7
665.161	34922.81
665.511	34887.11
665.862	34924.17
666.212	34919.19
666.562	35013.66
666.912	34905.41
667.262	34922.36
667.612	34897.5
667.962	34858.41
668.312	34952.41
668.662	35016.82
669.011	34954.45
669.361	34733.21
669.711	34791.97
670.06	34742.93
670.41	34740.22
670.76	34728.69
671.109	34843.72
671.459	34788.35
671.808	34709.03
672.157	34742.7
672.507	34606.66
672.856	34597.62
673.205	34677.62
673.554	34672.42
673.904	34543.39
674.253	34725.53
674.602	34770.5
674.951	34112.21
675.3	33900.24
675.649	34598.98
675.998	34466.33
676.346	34648.69
676.695	34577.96
677.044	34448.02
677.393	34376.38
677.741	34450.28
678.09	34375.93
678.438	34288.02
678.787	34412.32
679.135	34414.35
679.484	34194.24
679.832	34427.91
680.181	34081.93
680.529	34235.37
680.877	34147.46
681.225	34077.18
681.573	34364.86
681.922	33993.34
682.27	33968.94
682.618	34014.59
682.966	33851.43
683.314	33942.05
683.661	33828.15
684.009	33668.83
684.357	33633.35
684.705	33721.94
685.053	33688.94
685.4	33632
685.748	33401.04
686.095	33331.89
686.443	33356.52
686.79	33286.92
687.138	33404.66
687.485	33268.62
687.832	33153.82
688.18	33207.38
688.527	33072.46
688.874	33112.24
689.221	32969.87
689.568	32960.15
689.915	32912.92
690.262	32930.32
690.609	32820.49
690.956	32633.61
691.303	32565.36
691.65	32492.82
691.997	32544.79
692.344	32264.58
692.69	32165.82
693.037	32191.36
693.383	32019.16
693.73	32286.72
694.077	31936.22
694.423	31931.7
694.769	31817.58
695.116	31641.54
695.462	31699.39
695.808	31644.7
696.155	31628.66
696.501	31323.13
696.847	31439.96
697.193	31072.97
697.539	31370.14
697.885	31022.8
698.231	30948
698.577	31044.27
698.923	31007.89
699.269	30783.03
699.614	30665.75
699.96	30588.01
700.306	30654
700.651	30482.48
700.997	30352.31
701.342	30373.33
701.688	30358.41
702.033	30264.4
702.379	30153.9
702.724	30062.6
703.069	30193.67
703.415	29857.63
703.76	29869.38
704.105	29839.55
704.45	29834.36
704.795	29717.52
705.14	29424.42
705.485	29590.3
705.83	29319.79
706.175	29615.61
706.52	29365.67
706.865	29239.12
707.209	29293.58
707.554	29133.81
707.899	29153.47
708.243	29053.59
708.588	28874.16
708.932	28878.45
709.277	28768.85
709.621	28763.42
709.966	28639.59
710.31	28792.35
710.654	28468.74
710.998	28425.81
711.342	28587.61
711.687	28386.94
712.031	28319.14
712.375	28249.31
712.719	28275.75
713.063	28238.92
713.407	28278.24
713.75	27969.55
714.094	27992.15
714.438	27984.24
714.782	27943.56
715.125	27737.24
715.469	27881.64
715.812	27772.94
716.156	27560.74
716.499	27580.63
716.843	27559.61
717.186	27500.41
717.53	27728.88
717.873	27570.46
718.216	27545.15
718.559	27345.83
718.902	27193.07
719.246	27264.93
719.589	27090.93
719.932	27177.93
720.275	27026.75
720.617	27039.18
720.96	27019.06
721.303	27014.77
721.646	27008.67
721.989	26731.39
722.331	26966.41
722.674	26789.01
723.016	26807.54
723.359	26644.16
723.701	26817.71
724.044	26601
724.386	26409.81
724.729	26612.52
725.071	26562.13
725.413	26479.87
725.755	26501.11
726.097	26255.92
726.439	26212.31
726.782	26260.67
727.124	26284.62
727.465	26166.88
727.807	26138.63
728.149	26145.64
728.491	26034.46
728.833	26115.81
729.175	26027.68
729.516	25921.92
729.858	25853.9
730.199	25813.22
730.541	25950.84
730.882	25749.94
731.224	26008.69
731.565	25671.3
731.906	25718.53
732.248	25761.24
732.589	25545.2
732.93	25588.14
733.271	25520.12
733.612	25666.1
733.953	25571.42
734.294	25548.82
734.635	25344.76
734.976	25437.41
735.317	25310.18
735.658	25370.97
735.999	25345.89
736.339	25220.01
736.68	25323.74
737.021	25120.36
737.361	25023.86
737.702	25304.98
738.042	25019.12
738.383	25064.31
738.723	25139.11
739.063	24958.78
739.404	24974.15
739.744	24902.28
740.084	24752
740.424	24861.61
740.764	24778.9
741.104	24818.22
741.444	24735.28
741.784	24721.5
742.124	24626.36
742.464	24654.15
742.804	24562.63
743.143	24620.03
743.483	24438.11
743.823	24492.8
744.162	24324.67
744.502	24322.19
744.841	24242.19
745.181	24318.34
745.52	24238.57
745.86	24321.96
746.199	24269.31
746.538	24202.19
746.877	24230.21
747.216	24209.65
747.556	24161.06
747.895	24099.82
748.234	24057.79
748.573	23948.64
748.911	23872.25
749.25	23930.78
749.589	23830.22
749.928	23857.79
750.267	23861.86
750.605	23699.38
750.944	23758.13
751.283	23680.17
751.621	23703.67
751.96	23499.83
752.298	23534.18
752.636	23500.96
752.975	23359.05
753.313	23318.14
753.651	23513.39
753.989	23210.58
754.327	23246.51
754.666	23169.22
755.004	23228.88
755.342	23068.66
755.679	23070.69
756.017	22954.54
756.355	23000.86
756.693	23011.03
757.031	22934.65
757.368	22752.06
757.706	22637.48
758.044	22736.46
758.381	22773.07
758.719	22634.55
759.056	22706.18
759.394	22565.62
759.731	22416.7
760.068	22456.7
760.405	22350.94
760.743	22340.32
761.08	22364.95
761.417	22182.35
761.754	22221.22
762.091	22044.51
762.428	21991.63
762.765	21966.77
763.102	21846.77
763.438	21757.28
763.775	21736.49
764.112	21612.65
764.449	21629.37
764.785	21522.94
765.122	21433
765.458	21277.52
765.795	21312.32
766.131	21307.8
766.467	21241.14
766.804	21168.82
767.14	21077.98
767.476	21025.55
767.812	20853.8
768.148	20897.64
768.485	20755.73
768.821	20662.17
769.157	20654.26
769.492	20562.28
769.828	20565.9
770.164	20385.57
770.5	20408.39
770.836	20318
771.171	20167.49
771.507	20186.7
771.842	20042.98
772.178	20035.52
772.513	20025.12
772.849	19917.56
773.184	19888.4
773.519	19831.46
773.855	19742.64
774.19	19689.31
774.525	19580.84
774.86	19663.32
775.195	19562.08
775.53	19451.35
775.865	19304.92
776.2	19182.43
776.535	19111.25
776.87	19128.65
777.205	19062.66
777.539	18873.52
777.874	19051.14
778.209	18784.03
778.543	18684.14
778.878	18703.58
779.212	18588.32
779.547	18617.48
779.881	18643.46
780.215	18403.92
780.55	18378.61
780.884	18282.8
781.218	18308.78
781.552	18185.62
781.886	18141.33
782.22	18062.24
782.554	18080.32
782.888	17828.57
783.222	17845.07
783.556	17730.72
783.889	17690.72
784.223	17582.48
784.557	17441.01
784.89	17505.19
785.224	17485.08
785.557	17384.29
785.891	17398.07
786.224	17193.79
786.558	17235.37
786.891	17089.16
787.224	17069.49
787.557	17015.71
787.891	16866.34
788.224	16930.29
788.557	16852.78
788.89	16860.23
789.223	16797.86
789.556	16540.47
789.888	16583.18
790.221	16648.26
790.554	16475.39
790.887	16523.75
791.219	16355.39
791.552	16332.34
791.884	16264.54
792.217	16291.44
792.549	16213.25
792.882	16006.7
793.214	15992.46
793.546	15998.11
793.879	15929.86
794.211	15767.16
794.543	15860.94
794.875	15828.85
795.207	15832.47
795.539	15676.54
795.871	15681.28
796.203	15588.18
796.535	15496.2
796.867	15531.46
797.198	15429.76
797.53	15385.02
797.862	15292.37
798.193	15292.14
798.525	15137.34
798.856	15167.4
799.188	15016.44
799.519	15053.95
799.85	14973.5
800.182	14966.73
800.513	14962.66
800.844	14835.88
801.175	14869.33
801.506	14738.03
801.837	14729.44
802.168	14653.96
802.499	14688.31
802.83	14578.71
803.161	14551.82
803.491	14644.47
803.822	14491.03
804.153	14436.57
804.483	14299.17
804.814	14282.68
805.145	14211.26
805.475	14252.62
805.805	14200.87
806.136	14217.82
806.466	14253.3
806.796	14132.4
807.126	14140.31
807.457	13915.23
807.787	14042.68
808.117	14068.67
808.447	13915
808.777	13919.3
809.107	13872.06
809.436	13806.98
809.766	13738.06
810.096	13768.56
810.426	13656.7
810.755	13714.1
811.085	13617.83
811.414	13660.77
811.744	13511.17
812.073	13482.24
812.403	13441.79
812.732	13441.57
813.061	13350.72
813.39	13293.55
813.719	13273.66
814.049	13333.32
814.378	13295.81
814.707	13247.22
815.036	13267.33
815.365	13138.07
815.693	13076.15
816.022	13066.44
816.351	12971.98
816.68	12939.89
817.008	12984.18
817.337	12856.27
817.665	12770.17
817.994	12844.52
818.322	12817.63
818.651	12770.4
818.979	12789.83
819.307	12769.95
819.636	12684.75
819.964	12665.54
820.292	12724.75
820.62	12671.87
820.948	12582.61
821.276	12633.68
821.604	12623.96
821.932	12600.23
822.259	12683.17
822.587	12598.65
822.915	12540.57
823.243	12605.66
823.57	12648.59
823.898	12588.48
824.225	12506
824.553	12584.64
824.88	12549.61
825.207	12553.91
825.535	12527.47
825.862	12590.74
826.189	12537.18
826.516	12569.05
826.843	12615.6
827.17	12615.37
827.497	12572.89
827.824	12594.36
828.151	12620.57
828.478	12514.36
828.805	12615.83
829.131	12522.72
829.458	12496.28
829.785	12473.46
830.111	12451.76
830.438	12537.41
830.764	12491.31
831.09	12581.93
831.417	12467.81
831.743	12505.32
832.069	12592.32
832.395	12471.2
832.722	12503.51
833.048	12450.41
833.374	12478.88
833.7	12494.7
834.026	12412.44
834.351	12412.44
834.677	12384.65
835.003	12402.95
835.329	12461.48
835.654	12418.54
835.98	12353.46
836.306	12354.82
836.631	12336.96
836.956	12290.41
837.282	12356.85
837.607	12227.14
837.932	12165.44
838.258	12259.68
838.583	12155.73
838.908	12076.63
839.233	12164.76
839.558	12110.3
839.883	12030.98
840.208	11999.8
840.533	12050.87
840.858	12019.46
841.182	12066.24
841.507	11989.4
841.832	11881.61
842.156	11939.23
842.481	11905.11
842.805	11841.16
843.13	11861.72
843.454	11790.99
843.778	11799.8
844.103	11751.44
844.427	11711.22
844.751	11701.05
845.075	11693.14
845.399	11678
845.723	11654.95
846.047	11633.48
846.371	11536.08
846.695	11532.24
847.019	11368.4
847.343	11377.89
847.666	11305.35
847.99	11235.75
848.313	11231.46
848.637	11204.79
848.96	11163.66
849.284	11171.34
849.607	11052.7
849.931	10986.72
850.254	10972.71
850.577	10930.22
850.9	10856.1
851.223	10872.14
851.546	10734.97
851.869	10753.05
852.192	10730.68
852.515	10650.45
852.838	10611.36
853.161	10649.78
853.483	10535.43
853.806	10502.66
854.129	10463.34
854.451	10417.92
854.774	10394.42
855.096	10323.23
855.419	10283.68
855.741	10305.6
856.063	10350.8
856.385	10257.47
856.708	10230.13
857.03	10189
857.352	10166.85
857.674	10111.03
857.996	10045.95
858.318	10093.18
858.64	10071.26
858.961	9995.33
859.283	9978.61
859.605	9893.64
859.926	9921.89
860.248	9908.1
860.57	9868.55
860.891	9846.41
861.212	9818.39
861.534	9774.77
861.855	9775.45
862.176	9814.54
862.498	9705.17
862.819	9764.15
863.14	9743.59
863.461	9671.72
863.782	9670.37
864.103	9642.8
864.424	9668.33
864.745	9595.11
865.065	9673.76
865.386	9530.71
865.707	9533.42
866.027	9550.14
866.348	9497.49
866.668	9549.69
866.989	9431.96
867.309	9400.09
867.63	9465.4
867.95	9380.66
868.27	9384.05
868.59	9393.54
868.91	9399.19
869.23	9327.1
869.55	9377.95
869.87	9271.28
870.19	9339.08
870.51	9311.96
870.83	9300.89
871.15	9279.42
871.469	9248.91
871.789	9254.78
872.109	9285.52
872.428	9193.77
872.748	9249.36
873.067	9177.5
873.386	9194.67
873.706	9168.69
874.025	9132.75
874.344	9068.58
874.663	9093.43
874.982	9096.6
875.301	9135.92
875.62	9097.73
875.939	9034.45
876.258	9021.34
876.577	9020.67
876.896	8987
877.214	8993.55
877.533	8942.7
877.852	8956.04
878.17	8939.09
878.489	8987.67
878.807	8964.85
879.125	8913.55
879.444	8902.48
879.762	8838.75
880.08	8902.48
880.398	8829.71
880.716	8837.62
881.034	8712.2
881.352	8829.26
881.67	8814.57
881.988	8819.77
882.306	8725.31
882.624	8710.62
882.941	8685.31
883.259	8674.46
883.577	8664.52
883.894	8642.15
884.212	8598.98
884.529	8603.05
884.846	8625.2
885.164	8571.87
885.481	8552.43
885.798	8583.16
886.115	8434.02
886.432	8453
886.75	8463.62
887.067	8448.93
887.383	8410.74
887.7	8449.38
888.017	8349.72
888.334	8432.43
888.651	8369.16
888.967	8318.54
889.284	8282.83
889.6	8278.77
889.917	8246
890.233	8209.84
890.55	8172.1
890.866	8159.22
891.182	8107.47
891.498	8170.29
891.815	8003.29
892.131	8116.51
892.447	8059.11
892.763	8027.92
893.079	7994.03
893.395	8007.13
893.71	7901.15
894.026	7940.7
894.342	7964.42
894.657	7894.37
894.973	7854.14
895.289	7909.96
895.604	7813.01
895.92	7755.84
896.235	7775.73
896.55	7716.52
896.865	7738.89
897.181	7648.05
897.496	7676.75
897.811	7623.42
898.126	7601.5
898.441	7534.83
898.756	7574.15
899.071	7452.57
899.386	7478.33
899.7	7463.19
900.015	7503.19
900.33	7348.62
900.644	7360.15
900.959	7363.99
901.273	7358.79
901.588	7282.63
901.902	7302.75
902.216	7181.17
902.531	7260.04
902.845	7182.97
903.159	7210.32
903.473	7163.99
903.787	7083.54
904.101	7073.6
904.415	7085.12
904.729	7103.43
905.042	7081.51
905.356	7001.51
905.67	6961.29
905.984	6980.95
906.297	6924.22
906.611	6921.74
906.924	6887.62
907.237	6865.47
907.551	6795.87
907.864	6795.41
908.177	6767.17
908.491	6783.44
908.804	6724.68
909.117	6715.42
909.43	6668.86
909.743	6618.24
910.056	6604.01
910.368	6551.58
910.681	6551.35
910.994	6517.68
911.307	6510
911.619	6478.13
911.932	6464.35
912.244	6427.06
912.557	6378.48
912.869	6397.91
913.181	6374.18
913.494	6304.35
913.806	6314.75
914.118	6267.52
914.43	6234.3
914.742	6275.65
915.054	6207.63
915.366	6201.76
915.678	6137.58
915.99	6107.75
916.302	6066.17
916.613	6032.27
916.925	6061.65
917.236	6013.74
917.548	6008.99
917.859	5971.93
918.171	5936.68
918.482	5889.68
918.794	5886.51
919.105	5888.55
919.416	5841.99
919.727	5867.98
920.038	5799.73
920.349	5788.44
920.66	5763.13
920.971	5754.54
921.282	5730.58
921.593	5669.34
921.903	5653.07
922.214	5596.35
922.525	5583.02
922.835	5608.1
923.146	5547.54
923.456	5543.47
923.767	5563.36
924.077	5499.18
924.387	5432.06
924.697	5441.55
925.008	5414.43
925.318	5416.92
925.628	5365.4
925.938	5402.68
926.248	5379.18
926.558	5326.07
926.867	5311.39
927.177	5277.94
927.487	5261.9
927.796	5201.33
928.106	5192.29
928.416	5122.92
928.725	5169.47
929.034	5136.7
929.344	5137.61
929.653	5152.75
929.962	5093.76
930.271	5057.83
930.581	5029.13
930.89	4999.3
931.199	4984.16
931.508	4959.3
931.817	4966.08
932.125	4941.68
932.434	4929.93
932.743	4871.4
933.051	4825.07
933.36	4805.86
933.669	4837.5
933.977	4801.34
934.286	4795.02
934.594	4720.67
934.902	4688.13
935.21	4703.49
935.519	4695.36
935.827	4674.34
936.135	4651.97
936.443	4644.51
936.751	4614.23
937.059	4590.95
937.367	4548.02
937.674	4568.13
937.982	4548.69
938.29	4507.79
938.597	4520.9
938.905	4507.57
939.213	4484.97
939.52	4456.27
939.827	4381.47
940.135	4402.94
940.442	4391.86
940.749	4355.48
941.056	4408.13
941.363	4317.51
941.67	4336.95
941.977	4338.76
942.284	4293.33
942.591	4273.22
942.898	4260.79
943.205	4237.97
943.511	4171.75
943.818	4169.49
944.125	4151.19
944.431	4154.13
944.738	4152.09
945.044	4092.21
945.35	4106.45
945.657	4098.08
945.963	4061.25
946.269	4064.64
946.575	3994.58
946.881	4001.14
947.187	4020.12
947.493	4003.4
947.799	3930.63
948.105	3960.91
948.41	3891.08
948.716	3926.11
949.022	3905.32
949.327	3893.34
949.633	3833.01
949.938	3847.02
950.244	3842.5
950.549	3790.75
950.854	3748.71
951.16	3807.47
951.465	3760.69
951.77	3782.39
952.075	3705.55
952.38	3744.42
952.685	3719.56
952.99	3696.51
953.294	3658.32
953.599	3646.57
953.904	3644.08
954.209	3616.52
954.513	3624.42
954.818	3610.41
955.122	3586.69
955.426	3597.31
955.731	3529.51
956.035	3508.27
956.339	3534.94
956.643	3534.03
956.948	3527.93
957.252	3493.58
957.556	3468.27
957.86	3443.86
958.163	3411.32
958.467	3419.46
958.771	3404.09
959.075	3408.84
959.378	3371.32
959.682	3396.63
959.985	3350.31
960.289	3334.04
960.592	3337.88
960.896	3270.31
961.199	3308.95
961.502	3244.55
961.805	3232.12
962.108	3215.4
962.411	3230.31
962.714	3226.92
963.017	3193.25
963.32	3222.63
963.623	3167.71
963.926	3165.91
964.228	3146.02
964.531	3136.3
964.833	3120.03
965.136	3075.29
965.438	3082.52
965.741	3113.03
966.043	3077.32
966.345	3049.3
966.648	3052.01
966.95	3055.17
967.252	3018.79
967.554	3007.04
967.856	3027.6
968.158	2924.1
968.46	2940.37
968.761	2917.1
969.063	2946.25
969.365	2925.91
969.666	2915.74
969.968	2874.16
970.269	2874.16
970.571	2870.77
970.872	2886.14
971.174	2886.59
971.475	2824.22
971.776	2836.42
972.077	2830.32
972.378	2802.07
972.679	2823.32
972.98	2778.57
973.281	2760.27
973.582	2735.86
973.883	2756.88
974.183	2729.76
974.484	2711.45
974.785	2738.8
975.085	2716.2
975.386	2714.39
975.686	2666.26
975.986	2658.12
976.287	2674.84
976.587	2631.68
976.887	2653.38
977.187	2626.71
977.487	2607.73
977.787	2585.58
978.087	2583.1
978.387	2561.85
978.687	2569.76
978.987	2550.55
979.286	2575.41
979.586	2526.37
979.885	2513.27
980.185	2525.47
980.484	2489.54
980.784	2495.19
981.083	2476.88
981.382	2477.79
981.682	2457.45
981.981	2423.78
982.28	2440.5
982.579	2428.75
982.878	2410.67
983.177	2422.87
983.475	2431.91
983.774	2355.53
984.073	2348.98
984.372	2393.72
984.67	2354.63
984.969	2316.21
985.267	2371.58
985.566	2313.72
985.864	2344.01
986.162	2297.91
986.461	2304.46
986.759	2295.42
987.057	2277.34
987.355	2250.45
987.653	2224.91
987.951	2266.27
988.249	2216.33
988.547	2241.18
988.844	2214.07
989.142	2200.96
989.44	2178.13
989.737	2179.49
990.035	2185.82
990.332	2174.07
990.63	2161.64
990.927	2158.47
991.224	2149.66
991.521	2141.75
991.819	2117.12
992.116	2124.58
992.413	2093.84
992.71	2103.11
993.006	2073.05
993.303	2082.09
993.6	2035.99
993.897	2048.65
994.193	2066.95
994.49	2040.06
994.787	2021.98
995.083	2019.04
995.379	2001.19
995.676	1979.72
995.972	1975.88
996.268	1958.71
996.565	1972.72
996.861	1978.37
997.157	1979.95
997.453	1913.51
997.749	1961.64
998.044	1913.28
998.34	1914.86
998.636	1920.74
998.932	1910.12
999.227	1885.26
999.523	1856.34
999.818	1863.11
1000.114	1862.89
1000.409	1859.95
1000.704	1836.67
1001	1820.18
1001.295	1811.59
1001.59	1801.2
1001.885	1801.2
1002.18	1783.34
1002.475	1755.32
1002.77	1757.35
1003.065	1751.25
1003.359	1746.28
1003.654	1727.98
1003.949	1734.3
1004.243	1729.33
1004.538	1705.15
1004.832	1713.51
1005.127	1720.07
1005.421	1713.51
1005.715	1688.43
1006.009	1678.94
1006.304	1672.84
1006.598	1623.8
1006.892	1666.96
1007.186	1669.45
1007.48	1585.38
1007.773	1617.25
1008.067	1581.77
1008.361	1595.1
1008.655	1636.91
1008.948	1590.35
1009.242	1558.49
1009.535	1548.09
1009.829	1550.35
1010.122	1557.59
1010.415	1542.9
1010.708	1547.42
1011.001	1496.34
1011.295	1495.67
1011.588	1476.46
1011.881	1495.44
1012.173	1505.84
1012.466	1465.39
1012.759	1451.83
1013.052	1462.67
1013.344	1489.57
1013.637	1446.18
1013.93	1462.22
1014.222	1425.16
1014.514	1418.83
1014.807	1408.21
1015.099	1391.94
1015.391	1418.38
1015.683	1403.47
1015.976	1402.79
1016.268	1370.7
1016.56	1386.29
1016.851	1374.31
1017.143	1351.72
1017.435	1360.3
1017.727	1339.96
1018.018	1329.34
1018.31	1331.6
1018.602	1297.48
1018.893	1331.38
1019.185	1297.48
1019.476	1285.28
1019.767	1295.67
1020.058	1286.63
1020.35	1286.41
1020.641	1271.27
1020.932	1277.14
1021.223	1253.64
1021.514	1244.6
1021.804	1228.1
1022.095	1201.66
1022.386	1221.32
1022.677	1208.44
1022.967	1206.41
1023.258	1196.01
1023.548	1175.68
1023.839	1165.96
1024.129	1193.3
1024.419	1169.57
1024.709	1122.57
1025	1144.94
1025.29	1145.17
1025.58	1120.76
1025.87	1093.42
1026.16	1118.73
1026.449	1130.48
1026.739	1107.65
1027.029	1102.91
1027.319	1082.12
1027.608	1081.89
1027.898	1094.77
1028.187	1065.62
1028.477	1061.33
1028.766	1054.77
1029.055	1036.24
1029.344	1041.67
1029.634	1054.55
1029.923	1036.24
1030.212	1037.15
1030.501	1023.36
1030.79	1018.62
1031.078	996.24
1031.367	1020.65
1031.656	1004.83
1031.945	1005.74
1032.233	1003.02
1032.522	959.86
1032.81	981.1
1033.099	963.93
1033.387	941.56
1033.675	955.57
1033.963	952.86
1034.251	928.9
1034.54	918.73
1034.828	928.22
1035.116	936.36
1035.403	924.83
1035.691	916.93
1035.979	907.43
1036.267	893.65
1036.554	885.06
1036.842	878.28
1037.129	886.42
1037.417	873.08
1037.704	868.79
1037.992	881.22
1038.279	876.02
1038.566	862.92
1038.853	862.92
1039.14	862.92
