Data from hue_26_FLMS001491_00026.txt Node
Date: Tue Feb 07 17:13:46 GMT 2017
User: dcchb
Spectrometer: FLMS00149
Trigger mode: 0
Integration Time (sec): 2.000000E-2
Scans to average: 10
Electric dark correction enabled: true
Nonlinearity correction enabled: false
Boxcar width: 0
XAxis mode: Wavelengths
Number of Pixels in Spectrum: 2048
>>>>>Begin Spectral Data<<<<<
341.393	-0.97
341.776	-0.97
342.16	-0.97
342.543	-57.24
342.927	-54.53
343.31	-57.02
343.693	-68.54
344.077	-57.02
344.46	-65.38
344.843	-59.73
345.226	-47.75
345.61	-33.74
345.993	-12.95
346.376	17.1
346.759	26.37
347.142	18.01
347.525	53.94
347.908	29.53
348.291	76.76
348.674	81.06
349.057	99.36
349.44	133.03
349.823	133.94
350.206	184.11
350.588	201.28
350.971	201.51
351.354	226.82
351.737	230.88
352.119	281.73
352.502	259.36
352.884	281.96
353.267	281.05
353.65	305.91
354.032	308.4
354.414	310.43
354.797	329.86
355.179	341.39
355.562	333.93
355.944	357.89
356.326	334.16
356.709	322.86
357.091	341.84
357.473	341.62
357.855	338.45
358.238	341.39
358.62	337.55
359.002	351.78
359.384	364.21
359.766	348.85
360.148	325.34
360.53	351.56
360.912	346.36
361.294	329.19
361.676	357.43
362.057	345.01
362.439	332.12
362.821	348.17
363.203	311.11
363.584	320.15
363.966	316.98
364.348	310.66
364.729	324.67
365.111	336.19
365.493	317.21
365.874	318.11
366.256	333.03
366.637	314.27
367.019	335.97
367.4	300.94
367.781	315.4
368.163	330.99
368.544	329.41
368.925	334.61
369.306	311.33
369.688	319.92
370.069	307.04
370.45	340.94
370.831	326.25
371.212	323.99
371.593	324.67
371.974	322.63
372.355	329.19
372.736	301.16
373.117	342.75
373.498	314.95
373.879	319.02
374.26	313.14
374.641	294.84
375.021	319.92
375.402	335.74
375.783	322.41
376.163	331.22
376.544	318.79
376.925	325.57
377.305	323.54
377.686	320.37
378.066	330.54
378.447	345.01
378.827	340.26
379.208	321.05
379.588	325.8
379.968	340.49
380.349	342.75
380.729	318.11
381.109	333.25
381.489	353.37
381.87	336.64
382.25	336.64
382.63	340.71
383.01	351.56
383.39	340.94
383.77	341.39
384.15	340.03
384.53	347.72
384.91	340.26
385.29	360.82
385.67	349.52
386.049	359.24
386.429	343.65
386.809	347.49
387.189	353.59
387.568	359.92
387.948	361.05
388.328	359.69
388.707	377.09
389.087	369.86
389.466	362.18
389.846	363.31
390.225	369.86
390.605	356.53
390.984	363.99
391.363	344.1
391.743	375.06
392.122	367.38
392.501	382.74
392.881	364.44
393.26	369.19
393.639	354.04
394.018	386.13
394.397	377.09
394.776	392.46
395.155	403.08
395.534	385.46
395.913	393.82
396.292	383.87
396.671	386.36
397.05	369.86
397.429	394.95
397.808	386.36
398.186	400.37
398.565	384.33
398.944	395.4
399.323	380.94
399.701	388.39
400.08	401.05
400.458	407.15
400.837	395.85
401.215	412.12
401.594	406.92
401.972	402.63
402.351	406.02
402.729	427.04
403.107	416.42
403.486	416.19
403.864	431.1
404.242	416.87
404.62	426.13
404.999	411.9
405.377	398.34
405.755	427.94
406.133	431.78
406.511	417.09
406.889	426.58
407.267	429.07
407.645	427.71
408.023	427.71
408.401	450.99
408.779	453.48
409.156	448.28
409.534	454.61
409.912	456.87
410.29	451.22
410.667	455.51
411.045	456.87
411.422	474.49
411.8	485.79
412.178	451.22
412.555	468.84
412.933	462.52
413.31	465.45
413.687	513.14
414.065	479.69
414.442	477.43
414.819	486.7
415.197	458
415.574	486.02
415.951	492.57
416.328	495.74
416.705	494.38
417.082	494.61
417.46	494.83
417.837	491.44
418.214	525.57
418.591	512.01
418.967	512.23
419.344	520.82
419.721	515.62
420.098	506.81
420.475	510.2
420.852	543.64
421.228	516.53
421.605	509.75
421.982	529.41
422.358	527.6
422.735	523.31
423.111	521.5
423.488	549.75
423.864	533.93
424.241	571.44
424.617	577.54
424.994	535.06
425.37	554.49
425.746	559.69
426.123	567.6
426.499	544.1
426.875	576.41
427.251	564.21
427.627	593.36
428.003	563.3
428.379	568.73
428.756	581.16
429.132	590.42
429.507	596.07
429.883	619.8
430.259	591.55
430.635	618.67
431.011	588.16
431.387	611.89
431.763	627.94
432.138	639.46
432.514	627.71
432.89	664.32
433.265	631.33
433.641	646.69
434.016	671.55
434.392	676.75
434.767	660.93
435.143	685.34
435.518	687.82
435.894	709.29
436.269	685.34
436.644	687.59
437.02	688.05
437.395	700.7
437.77	708.16
438.145	693.7
438.52	706.35
438.895	711.55
439.271	722.85
439.646	717.88
440.021	731.66
440.395	750.64
440.77	719.68
441.145	740.25
441.52	756.75
441.895	739.57
442.27	727.82
442.645	774.6
443.019	763.3
443.394	756.52
443.769	787.25
444.143	762.17
444.518	781.15
444.892	784.99
445.267	789.29
445.641	776.63
446.016	805.33
446.39	803.07
446.764	799.46
447.139	814.82
447.513	796.29
447.887	824.31
448.262	811.66
448.636	826.12
449.01	816.86
449.384	827.7
449.758	826.12
450.132	839
450.506	870.41
450.88	832.9
451.254	841.04
451.628	868.61
452.002	858.44
452.376	863.64
452.75	872.22
453.123	893.69
453.497	896.85
453.871	876.06
454.244	889.17
454.618	902.05
454.992	913.35
455.365	929.85
455.739	934.37
456.112	971.43
456.486	966.46
456.859	959.68
457.232	939.57
457.606	953.12
457.979	970.53
458.352	989.96
458.725	1013.24
459.099	995.84
459.472	1016.4
459.845	1028.38
460.218	1036.29
460.591	1040.13
460.964	1052.33
461.337	1073.12
461.71	1094.59
462.083	1101.37
462.456	1091.2
462.829	1116.74
463.201	1116.28
463.574	1149.5
463.947	1138.88
464.32	1166.9
464.692	1144.98
465.065	1179.33
465.438	1194.47
465.81	1210.75
466.183	1241.25
466.555	1233.34
466.928	1264.3
467.3	1241.25
467.672	1291.65
468.045	1307.01
468.417	1336.39
468.789	1335.04
469.161	1339.33
469.534	1350.85
469.906	1382.04
470.278	1384.3
470.65	1429.27
471.022	1448.25
471.394	1469.95
471.766	1450.96
472.138	1480.34
472.51	1516.5
472.882	1544.07
473.253	1553.33
473.625	1578.42
473.997	1620.68
474.369	1615.48
474.74	1639.43
475.112	1676.72
475.484	1680.56
475.855	1773.22
476.227	1744.52
476.598	1798.3
476.97	1832.42
477.341	1870.61
477.713	1905.19
478.084	1930.05
478.455	1967.34
478.827	1977.28
479.198	2046.88
479.569	2047.33
479.94	2128.91
480.311	2158.29
480.682	2184.5
481.053	2245.07
481.424	2308.57
481.795	2327.33
482.166	2335.24
482.537	2412.07
482.908	2435.35
483.279	2480.09
483.65	2528.45
484.021	2588.56
484.391	2641.89
484.762	2671.05
485.133	2690.25
485.503	2717.37
485.874	2816.13
486.244	2826.75
486.615	2856.58
486.985	2940.87
487.356	3028.1
487.726	3034.65
488.097	3088.21
488.467	3113.07
488.837	3227.87
489.207	3213.18
489.578	3311.93
489.948	3335.66
490.318	3396.45
490.688	3417.92
491.058	3507.41
491.428	3583.11
491.798	3589.44
492.168	3638.03
492.538	3687.29
492.908	3702.43
493.278	3775.42
493.648	3812.48
494.017	3877.57
494.387	3882.99
494.757	3927.28
495.126	3934.52
495.496	4034.17
495.866	4000.95
496.235	4095.41
496.605	4099.93
496.974	4137.67
497.344	4179.71
497.713	4257.67
498.082	4277.78
498.452	4313.49
498.821	4327.5
499.19	4343.09
499.559	4441.62
499.928	4420.15
500.298	4500.83
500.667	4518.68
501.036	4510.77
501.405	4576.31
501.774	4589.87
502.143	4635.29
502.512	4655.4
502.88	4718.22
503.249	4739.01
503.618	4757.32
503.987	4828.05
504.356	4797.32
504.724	4818.79
505.093	4844.1
505.462	4867.6
505.83	4870.54
506.199	4956.86
506.567	5003.41
506.936	5004.54
507.304	4986.92
507.672	5056.07
508.041	5103.75
508.409	5119.12
508.777	5167.25
509.145	5135.61
509.514	5204.54
509.882	5228.72
510.25	5211.54
510.618	5200.47
510.986	5279.11
511.354	5305.1
511.722	5367.47
512.09	5387.58
512.458	5336.51
512.826	5395.72
513.193	5450.18
513.561	5437.53
513.929	5537.41
514.297	5508.49
514.664	5544.19
515.032	5541.03
515.4	5581.7
515.767	5647.24
516.135	5640.46
516.502	5606.56
516.869	5703.96
517.237	5702.38
517.604	5717.07
517.972	5760.91
518.339	5725.2
518.706	5771.76
519.073	5810.4
519.44	5841.81
519.808	5885.88
520.175	5855.82
520.542	5920.23
520.909	6016.04
521.276	5974.01
521.643	5998.87
522.009	6018.75
522.376	6020.79
522.743	6084.06
523.11	6150.05
523.477	6167.68
523.843	6187.56
524.21	6228.69
524.577	6280.67
524.943	6312.53
525.31	6327.67
525.676	6402.92
526.043	6391.4
526.409	6479.76
526.776	6446.54
527.142	6519.08
527.508	6503.94
527.874	6562.47
528.241	6587.78
528.607	6607.21
528.973	6646.31
529.339	6683.6
529.705	6747.55
530.071	6809.92
530.437	6806.98
530.803	6806.53
531.169	6848.11
531.535	6874.1
531.901	6876.81
532.267	6925.62
532.632	7007.88
532.998	7031.16
533.364	7058.5
533.73	7055.11
534.095	7135.56
534.461	7113.41
534.826	7191.6
535.192	7274.31
535.557	7258.5
535.923	7216.46
536.288	7311.6
536.653	7319.51
537.019	7301.88
537.384	7376.68
537.749	7375.55
538.114	7379.85
538.479	7451.71
538.845	7456
539.21	7383.69
539.575	7521.09
539.94	7542.33
540.305	7590.24
540.67	7550.24
541.034	7554.53
541.399	7599.05
541.764	7641.76
542.129	7717.01
542.494	7760.18
542.858	7809.22
543.223	7851.25
543.587	7854.86
543.952	7827.29
544.316	7865.94
544.681	7993.17
545.045	7928.99
545.41	7989.1
545.774	8027.06
546.138	8023.67
546.503	8055.99
546.867	8032.94
547.231	8167.4
547.595	8178.25
547.959	8189.32
548.324	8229.09
548.688	8267.73
549.052	8259.83
549.416	8247.4
549.779	8305.7
550.143	8334.17
550.507	8390.22
550.871	8390.67
551.235	8452.81
551.599	8492.36
551.962	8451.91
552.326	8525.35
552.689	8499.82
553.053	8494.85
553.417	8575.98
553.78	8700.94
554.143	8673.6
554.507	8672.47
554.87	8737.1
555.234	8768.74
555.597	8721.51
555.96	8796.31
556.323	8799.7
556.686	8806.7
557.05	8868.62
557.413	8935.29
557.776	8889.41
558.139	8954.72
558.502	9044.44
558.865	8988.39
559.228	9098.9
559.59	9165.11
559.953	9086.7
560.316	9129.63
560.679	9223.19
561.041	9189.52
561.404	9263.19
561.767	9274.94
562.129	9295.96
562.492	9436.97
562.854	9378.44
563.217	9427.03
563.579	9457.76
563.941	9485.56
564.304	9535.5
564.666	9524.65
565.028	9486.91
565.39	9618.89
565.753	9651.88
566.115	9738.43
566.477	9682.39
566.839	9735.04
567.201	9852.55
567.563	9786.11
567.925	9874.02
568.287	9886
568.648	9897.52
569.01	9981.14
569.372	10040.34
569.734	9968.03
570.095	10102.71
570.457	10182.26
570.819	10229.94
571.18	10168.93
571.542	10315.36
571.903	10303.16
572.265	10288.25
572.626	10394.46
572.987	10398.53
573.349	10458.41
573.71	10529.82
574.071	10641.46
574.432	10678.97
574.794	10758.74
575.155	10720.1
575.516	10803.71
575.877	10953.31
576.238	11023.59
576.599	11100.65
576.96	11117.6
577.32	11205.51
577.681	11324.15
578.042	11416.8
578.403	11511.27
578.763	11529.57
579.124	11611.83
579.485	11735.21
579.845	11916.23
580.206	11916.23
580.566	12014.75
580.927	12097.46
581.287	12299.27
581.648	12441.18
582.008	12628.75
582.368	12689.99
582.728	12912.13
583.089	13006.37
583.449	13201.16
583.809	13404.77
584.169	13567.03
584.529	13684.77
584.889	13956.17
585.249	14086.79
585.609	14161.82
585.969	14467.12
586.329	14622.82
586.688	14812.2
587.048	14992.98
587.408	15317.49
587.768	15536.7
588.127	15752.28
588.487	15867.99
588.846	16260.07
589.206	16333.51
589.565	16685.59
589.925	17015.98
590.284	17253.71
590.643	17485.8
591.003	17847.6
591.362	18185.89
591.721	18323.29
592.08	18653.45
592.44	18980.9
592.799	19168.46
593.158	19327.56
593.517	19785.17
593.876	20010.25
594.235	20205.73
594.593	20641.42
594.952	20888.42
595.311	21171.12
595.67	21422.42
596.029	21736.08
596.387	22186.69
596.746	22459.45
597.104	22710.97
597.463	23018.31
597.822	23479.99
598.18	23554.79
598.538	23971.28
598.897	24391.38
599.255	24411.49
599.613	24980.74
599.972	25022.77
600.33	25479.26
600.688	25599.93
601.046	25953.6
601.404	26335.06
601.762	26622.51
602.12	26994.7
602.478	27306.33
602.836	27556.49
603.194	27709.26
603.552	27951.51
603.91	28303.82
604.268	28577.03
604.625	28694.32
604.983	29140.18
605.341	29212.49
605.698	29611.58
606.056	29866.04
606.413	30068.74
606.771	30485.46
607.128	30598.45
607.485	30739.91
607.843	31030.75
608.2	31335.6
608.557	31727.23
608.914	31746.89
609.272	32116.15
609.629	32369.7
609.986	32664.83
610.343	32679.97
610.7	33131.26
611.057	33236.34
611.414	33355.89
611.771	33573.74
612.127	33950
612.484	34236.77
612.841	34367.39
613.198	34580.94
613.554	34713.59
613.911	34942.06
614.267	35156.07
614.624	35170.53
614.98	35567.81
615.337	35674.25
615.693	35886.9
616.05	35907.91
616.406	36348.8
616.762	36248.47
617.118	36550.15
617.475	36458.63
617.831	36759.41
618.187	37026.75
618.543	36986.75
618.899	37342.22
619.255	37398.27
619.611	37469.45
619.967	37688.2
620.323	38009.1
620.678	37790.8
621.034	38060.17
621.39	38065.14
621.746	38133.16
622.101	38586.03
622.457	38355.76
622.812	38639.37
623.168	38755.52
623.523	38798.68
623.879	39023.08
624.234	38882.97
624.589	39046.81
624.945	39080.26
625.3	39318.9
625.655	39213.36
626.01	39399.12
626.365	39534.26
626.72	39419.46
627.075	39595.5
627.43	39663.29
627.785	39587.59
628.14	39922.5
628.495	39991.42
628.85	39992.32
629.205	39909.16
629.559	40149.38
629.914	39818.09
630.269	39946.22
630.623	39938.99
630.978	40045.66
631.332	40193.45
631.687	40271.64
632.041	40063.73
632.396	40194.8
632.75	40134.02
633.104	40274.12
633.459	40287.68
633.813	40280.9
634.167	40189.16
634.521	40151.42
634.875	40351.86
635.229	40335.14
635.583	40272.99
635.937	40305.76
636.291	40354.35
636.645	40250.17
636.999	40364.52
637.352	40412.43
637.706	40193.22
638.06	40387.34
638.413	40175.14
638.767	40122.26
639.121	40389.15
639.474	40167.69
639.828	40145.54
640.181	40231.41
640.534	40349.15
640.888	40065.32
641.241	40110.06
641.594	40145.09
641.947	40360.22
642.301	40068.48
642.654	40299.66
643.007	40148.7
643.36	40256.27
643.713	40089.04
644.066	40247.01
644.419	40141.25
644.771	39801.14
645.124	39387.82
645.477	39418.78
645.83	39071.9
646.182	39037.77
646.535	39008.4
646.888	39038.22
647.24	38830.55
647.593	39232.34
647.945	39111.9
648.298	39045.23
648.65	38763.66
649.002	38801.62
649.355	38813.37
649.707	39013.14
650.059	39076.64
650.411	39465.33
650.763	39673.24
651.115	39974.02
651.467	39920.46
651.819	39758.43
652.171	39622.84
652.523	39764.08
652.875	39652.9
653.227	39563.63
653.578	39804.08
653.93	39726.79
654.282	39703.07
654.633	39598.89
654.985	39640.47
655.337	39716.4
655.688	39602.73
656.039	39801.59
656.391	39386.69
656.742	39405.45
657.094	39481.15
657.445	39655.61
657.796	39552.34
658.147	39670.3
658.498	39371.1
658.849	39587.14
659.2	39318.9
659.551	39292
659.902	39642.5
660.253	39389.85
660.604	39608.38
660.955	39282.74
661.306	39548.27
661.656	39376.97
662.007	39441.15
662.358	39456.29
662.708	39392.57
663.059	39490.87
663.409	39234.15
663.76	39422.17
664.11	39523.86
664.461	39626.46
664.811	39429.63
665.161	39248.84
665.511	39319.35
665.862	39341.72
666.212	39548.27
666.562	39457.65
666.912	39250.87
667.262	39248.39
667.612	39284.32
667.962	39360.48
668.312	39290.42
668.662	39499.68
669.011	39391.89
669.361	39269.63
669.711	39282.06
670.06	39241.38
670.41	39104.89
670.76	39176.07
671.109	39336.3
671.459	39180.82
671.808	39054.95
672.157	39311.21
672.507	38983.76
672.856	39041.16
673.205	39067.38
673.554	39152.8
673.904	39037.1
674.253	39270.99
674.602	39062.18
674.951	38565.24
675.3	38351.46
675.649	39042.52
675.998	38916.65
676.346	38959.81
676.695	38972.01
677.044	38774.28
677.393	39031.22
677.741	38901.28
678.09	38884.78
678.438	38760.04
678.787	38813.6
679.135	38820.38
679.484	38621.96
679.832	38700.38
680.181	38508.07
680.529	38619.03
680.877	38485.25
681.225	38345.36
681.573	38553.27
681.922	38512.82
682.27	38263.33
682.618	38311.01
682.966	38268.75
683.314	38363.67
683.661	38191.92
684.009	38050.68
684.357	37969.78
684.705	37909.67
685.053	38050.68
685.4	37927.52
685.748	37837.13
686.095	37747.41
686.443	37585.61
686.79	37591.71
687.138	37712.38
687.485	37592.16
687.832	37351.04
688.18	37612.95
688.527	37240.31
688.874	37269.68
689.221	37183.58
689.568	36923.93
689.915	37008.22
690.262	37089.8
690.609	36912.18
690.956	36857.94
691.303	36795.35
691.65	36578.4
691.997	36522.81
692.344	36418.86
692.69	36409.59
693.037	36462.25
693.383	36089.83
693.73	36285.75
694.077	35987.68
694.423	35976.61
694.769	35902.71
695.116	35801.93
695.462	35813.23
695.808	35693.23
696.155	35698.88
696.501	35544.08
696.847	35530.97
697.193	35235.84
697.539	35337.76
697.885	35119.01
698.231	35013.92
698.577	35124.88
698.923	34965.79
699.269	34898.9
699.614	34630.88
699.96	34497.78
700.306	34694.61
700.651	34514.05
700.997	34379.82
701.342	34324.22
701.688	34294.39
702.033	34237.67
702.379	34266.6
702.724	33955.87
703.069	34291.91
703.415	33715.65
703.76	33839.27
704.105	33902.77
704.45	33670.23
704.795	33367.19
705.14	33442.21
705.485	33414.64
705.83	33220.98
706.175	33258.49
706.52	33198.83
706.865	33026.86
707.209	32954.32
707.554	32947.76
707.899	32984.6
708.243	32739.41
708.588	32736.47
708.932	32488.57
709.277	32492.86
709.621	32569.47
709.966	32272.53
710.31	32381.22
710.654	31988.92
710.998	32206.31
711.342	32218.52
711.687	32080.67
712.031	31909.15
712.375	31812.43
712.719	31898.98
713.063	31890.16
713.407	31880.67
713.75	31771.75
714.094	31558.87
714.438	31590.06
714.782	31550.96
715.125	31456.28
715.469	31607.69
715.812	31333.79
716.156	31189.62
716.499	31280.01
716.843	31374.02
717.186	31117.3
717.53	31150.97
717.873	31127.02
718.216	31026.91
718.559	30840.7
718.902	30719.8
719.246	30713.02
719.589	30658.56
719.932	30517.55
720.275	30666.47
720.617	30561.16
720.96	30454.95
721.303	30386.93
721.646	30558.45
721.989	30314.84
722.331	30428.51
722.674	30383.09
723.016	30323.43
723.359	30280.26
723.701	30338.34
724.044	30103.32
724.386	29850.22
724.729	30027.39
725.071	29882.08
725.413	29917.33
725.755	29936.09
726.097	29795.3
726.439	29673.5
726.782	29600.51
727.124	29729.09
727.465	29531.81
727.807	29461.98
728.149	29637.12
728.491	29393.96
728.833	29477.12
729.175	29248.65
729.516	29273.96
729.858	29275.32
730.199	29300.63
730.541	29261.31
730.882	29192.16
731.224	29226.05
731.565	28979.28
731.906	29097.47
732.248	29132.5
732.589	28837.59
732.93	28886.85
733.271	28898.38
733.612	28771.38
733.953	28836.69
734.294	28745.84
734.635	28603.47
734.976	28800.08
735.317	28566.86
735.658	28531.61
735.999	28611.83
736.339	28594.43
736.68	28615.67
737.021	28456.13
737.361	28307.89
737.702	28510.14
738.042	28377.71
738.383	28366.87
738.723	28343.36
739.063	28279.19
739.404	28230.6
739.744	28189.7
740.084	28068.8
740.424	28052.75
740.764	28025.18
741.104	28163.71
741.444	28139.98
741.784	27936.37
742.124	28062.02
742.464	28019.76
742.804	27883.72
743.143	27837.62
743.483	27893.89
743.823	27620.67
744.162	27656.38
744.502	27791.74
744.841	27607.57
745.181	27653.44
745.52	27493.9
745.86	27560.33
746.199	27513.56
746.538	27439.43
746.877	27571.18
747.216	27445.31
747.556	27448.25
747.895	27365.99
748.234	27227.46
748.573	27307.91
748.911	27228.82
749.25	27182.49
749.589	27095.49
749.928	27095.94
750.267	27208.71
750.605	27102.49
750.944	26933.91
751.283	26864.99
751.621	27058.88
751.96	26790.86
752.298	26873.57
752.636	26877.41
752.975	26593.35
753.313	26552.9
753.651	26698.44
753.989	26546.58
754.327	26577.54
754.666	26352.91
755.004	26470.19
755.342	26473.58
755.679	26347.03
756.017	26305.68
756.355	26294.83
756.693	26244.21
757.031	26207.83
757.368	26017.55
757.706	26029.75
758.044	25975.29
758.381	26012.35
758.719	25846.93
759.056	26047.15
759.394	25848.74
759.731	25659.59
760.068	25675.64
760.405	25494.63
760.743	25441.52
761.08	25460.28
761.417	25408.98
761.754	25286.04
762.091	25208.31
762.428	25163.79
762.765	25118.14
763.102	25183.22
763.438	25010.12
763.775	24924.92
764.112	24816.45
764.449	24813.74
764.785	24746.85
765.122	24661.43
765.458	24583.69
765.795	24491.49
766.131	24401.1
766.467	24442.45
766.804	24266.18
767.14	24143.02
767.476	24147.32
767.812	24008.34
768.148	24039.98
768.485	23849.7
768.821	23658.06
769.157	23807.44
769.492	23659.87
769.828	23616.03
770.164	23439.31
770.5	23377.85
770.836	23386.66
771.171	23255.82
771.507	23139.21
771.842	22990.06
772.178	23134.91
772.513	22961.36
772.849	22882.27
773.184	22820.35
773.519	22842.04
773.855	22722.5
774.19	22631.2
774.525	22454.71
774.86	22448.38
775.195	22420.13
775.53	22245.45
775.865	22153.47
776.2	22084.55
776.535	21938.34
776.87	21899.69
777.205	21736.98
777.539	21819.47
777.874	21785.35
778.209	21598.91
778.543	21595.97
778.878	21328.41
779.212	21362.08
779.547	21268.07
779.881	21311.91
780.215	21139.26
780.55	21185.14
780.884	21079.83
781.218	21042.99
781.552	21054.74
781.886	20892.26
782.22	20640.29
782.554	20722.77
782.888	20457.02
783.222	20502.44
783.556	20403.46
783.889	20273.75
784.223	20161.66
784.557	20118.04
784.89	20204.82
785.224	20047.54
785.557	19982.68
785.891	19895.45
786.224	19826.07
786.558	19832.85
786.891	19674.89
787.224	19566.87
787.557	19533.2
787.891	19495.01
788.224	19392.87
788.557	19541.34
788.89	19370.72
789.223	19274.22
789.556	19111.07
789.888	19017.73
790.221	19091.18
790.554	18884.18
790.887	18885.76
791.219	18844.63
791.552	18766.67
791.884	18710.85
792.217	18668.82
792.549	18540.91
792.882	18509.27
793.214	18374.59
793.546	18381.59
793.879	18316.74
794.211	18164.65
794.543	18300.01
794.875	18203.52
795.207	18193.58
795.539	18112.67
795.871	18056.18
796.203	17951.32
796.535	17852.57
796.867	17842.85
797.198	17773.25
797.53	17736.19
797.862	17658
798.193	17656.64
798.525	17568.73
798.856	17513.82
799.188	17319.93
799.519	17308.17
799.85	17176.88
800.182	17259.81
800.513	17223.66
800.844	16980.27
801.175	17112.02
801.506	17110.89
801.837	16967.17
802.168	16963.55
802.499	16907.73
802.83	16880.39
803.161	16770.34
803.491	16825.93
803.822	16730.34
804.153	16689.89
804.483	16438.59
804.814	16448.31
805.145	16443.56
805.475	16534.86
805.805	16326.28
806.136	16374.41
806.466	16333.29
806.796	16295.55
807.126	16135.55
807.457	16116.34
807.787	16125.38
808.117	15974.42
808.447	15953.18
808.777	15951.15
809.107	15954.99
809.436	15917.25
809.766	15868.44
810.096	15798.61
810.426	15740.08
810.755	15744.37
811.085	15675.22
811.414	15620.99
811.744	15562.68
812.073	15478.62
812.403	15488.11
812.732	15317.27
813.061	15501.22
813.39	15401.33
813.719	15375.12
814.049	15319.07
814.378	15237.49
814.707	15184.84
815.036	15170.15
815.365	15079.76
815.693	15003.6
816.022	15025.97
816.351	14969.71
816.68	14822.59
817.008	14923.15
817.337	14782.59
817.665	14757.28
817.994	14834.34
818.322	14771.29
818.651	14676.61
818.979	14659.2
819.307	14787.11
819.636	14619.43
819.964	14555.25
820.292	14609.49
820.62	14515.48
820.948	14568.36
821.276	14584.18
821.604	14554.12
821.932	14548.47
822.259	14536.5
822.587	14523.16
822.915	14515.93
823.243	14567.91
823.57	14460.11
823.898	14484.52
824.225	14433
824.553	14408.36
824.88	14472.32
825.207	14425.76
825.535	14402.04
825.862	14481.81
826.189	14447.46
826.516	14553.9
826.843	14505.31
827.17	14501.47
827.497	14549.83
827.824	14431.41
828.151	14501.47
828.478	14439.1
828.805	14438.42
829.131	14455.82
829.458	14426.67
829.785	14371.98
830.111	14448.59
830.438	14457.4
830.764	14459.66
831.09	14480
831.417	14348.93
831.743	14513.9
832.069	14397.97
832.395	14303.96
832.722	14364.07
833.048	14256.05
833.374	14393.9
833.7	14290.4
834.026	14322.94
834.351	14265.32
834.677	14210.4
835.003	14346.22
835.329	14247.01
835.654	14275.94
835.98	14100.35
836.306	14168.37
836.631	14135.15
836.956	14148.03
837.282	14153.91
837.607	14068.03
837.932	14068.94
838.258	14066.45
838.583	14016.06
838.908	13957.3
839.233	13992.33
839.558	13937.19
839.883	13967.47
840.208	13842.05
840.533	13845.22
840.858	13879.11
841.182	13817.65
841.507	13862.16
841.832	13766.57
842.156	13705.33
842.481	13742.84
842.805	13694.26
843.13	13607.48
843.454	13666.69
843.778	13556.18
844.103	13557.54
844.427	13512.12
844.751	13514.15
845.075	13445.23
845.399	13478.9
845.723	13299.69
846.047	13316.42
846.371	13263.08
846.695	13262.86
847.019	13102.86
847.343	13041.85
847.666	13044.56
847.99	13029.19
848.313	13019.93
848.637	12904.45
848.96	12854.96
849.284	12905.35
849.607	12803.43
849.931	12692.25
850.254	12638.24
850.577	12598.47
850.9	12460.17
851.223	12466.49
851.546	12371.81
851.869	12265.14
852.192	12433.95
852.515	12280.28
852.838	12200.74
853.161	12227.63
853.483	12130.68
853.806	12064.24
854.129	12111.7
854.451	11982.89
854.774	11943.34
855.096	11933.4
855.419	11928.66
855.741	11870.13
856.063	11859.96
856.385	11866.74
856.708	11747.42
857.03	11720.53
857.352	11736.34
857.674	11725.72
857.996	11654.76
858.318	11610.7
858.64	11606.86
858.961	11603.24
859.283	11504.03
859.605	11393.98
859.926	11518.27
860.248	11427.43
860.57	11330.93
860.891	11294.77
861.212	11355.11
861.534	11254.1
861.855	11202.35
862.176	11219.97
862.498	11281.67
862.819	11189.01
863.14	11191.05
863.461	11118.06
863.782	11185.17
864.103	11117.38
864.424	11076.7
864.745	11102.69
865.065	11044.16
865.386	10960.77
865.707	11019.98
866.027	10977.49
866.348	10990.6
866.668	10938.62
866.989	10914.22
867.309	10849.36
867.63	10910.38
867.95	10889.13
868.27	10671.06
868.59	10830.15
868.91	10778.4
869.23	10807.55
869.55	10699.08
869.87	10714.22
870.19	10688.24
870.51	10780.44
870.83	10815.92
871.15	10654.79
871.469	10568.69
871.789	10731.85
872.109	10641.23
872.428	10525.75
872.748	10644.4
873.067	10549.26
873.386	10593.32
873.706	10581.57
874.025	10465.87
874.344	10510.84
874.663	10529.37
874.982	10420.45
875.301	10423.61
875.62	10421.35
875.939	10418.86
876.258	10344.74
876.577	10342.48
876.896	10339.32
877.214	10306.33
877.533	10365.08
877.852	10334.35
878.17	10276.5
878.489	10316.04
878.807	10265.2
879.125	10319.88
879.444	10225.88
879.762	10248.25
880.08	10175.93
880.398	10072.88
880.716	10148.14
881.034	10068.82
881.352	10093.22
881.67	10100.45
881.988	10115.37
882.306	10072.66
882.624	10003.51
882.941	9958.54
883.259	9994.24
883.577	9910.63
883.894	9944.3
884.212	9947.46
884.529	9916.28
884.846	9864.75
885.164	9874.7
885.481	9801.71
885.798	9859.33
886.115	9711.09
886.432	9770.07
886.75	9673.8
887.067	9726.68
887.383	9645.33
887.7	9728.94
888.017	9603.07
888.334	9679.9
888.651	9603.74
888.967	9549.73
889.284	9557.19
889.6	9528.72
889.917	9507.25
890.233	9486.69
890.55	9400.81
890.866	9404.43
891.182	9380.02
891.498	9325.79
891.815	9360.36
892.131	9252.79
892.447	9287.37
892.763	9228.39
893.079	9212.12
893.395	9185.45
893.71	9166.69
894.026	9142.29
894.342	9163.76
894.657	9051.22
894.973	9096.19
895.289	9049.18
895.604	9062.52
895.92	8945
896.235	8898.68
896.55	8912.46
896.865	8852.35
897.181	8856.87
897.496	8771.45
897.811	8811.9
898.126	8781.39
898.441	8681.96
898.756	8671.34
899.071	8638.8
899.386	8686.48
899.7	8597.9
900.015	8608.74
900.33	8479.25
900.644	8514.06
900.959	8519.03
901.273	8462.31
901.588	8404.68
901.902	8429.76
902.216	8382.08
902.531	8370.56
902.845	8310.22
903.159	8230
903.473	8248.07
903.787	8171.69
904.101	8123.56
904.415	8176.21
904.729	8122.65
905.042	8127.85
905.356	8036.55
905.67	8062.77
905.984	8026.39
906.297	7984.13
906.611	7986.16
906.924	7909.78
907.237	7839.72
907.551	7876.33
907.864	7830.23
908.177	7865.49
908.491	7764.02
908.804	7747.97
909.117	7752.49
909.43	7634.08
909.743	7561.31
910.056	7546.4
910.368	7576.91
910.681	7582.55
910.994	7507.08
911.307	7466.17
911.619	7435.67
911.932	7443.8
912.244	7401.99
912.557	7349.79
912.869	7259.4
913.181	7261.89
913.494	7269.34
913.806	7194.99
914.118	7223.24
914.43	7133.08
914.742	7168.78
915.054	7108.67
915.366	7049.69
915.678	7035.45
915.99	7076.58
916.302	7012.63
916.613	6931.05
916.925	6918.39
917.236	6924.49
917.548	6866.87
917.859	6879.97
918.171	6808.11
918.482	6765.63
918.794	6765.18
919.105	6792.75
919.416	6678.4
919.727	6673.43
920.038	6712.3
920.349	6592.07
920.66	6618.51
920.971	6624.84
921.282	6589.13
921.593	6569.02
921.903	6532.19
922.214	6454
922.525	6410.38
922.835	6405.41
923.146	6376.03
923.456	6276.6
923.767	6313.21
924.077	6281.57
924.387	6258.07
924.697	6243.16
925.008	6195.02
925.318	6159.99
925.628	6186.66
925.938	6103.95
926.248	6062.37
926.558	6068.7
926.867	6041.58
927.177	6061.01
927.487	6000.68
927.796	5971.75
928.106	5960.9
928.416	5939.66
928.725	5943.5
929.034	5902.83
929.344	5847.23
929.653	5862.37
929.962	5824.86
930.271	5780.79
930.581	5769.95
930.89	5795.71
931.199	5728.37
931.508	5675.49
931.817	5656.73
932.125	5680.91
932.434	5599.56
932.743	5566.34
933.051	5602.27
933.36	5470.29
933.669	5482.05
933.977	5469.84
934.286	5457.41
934.594	5433.91
934.902	5438.43
935.21	5357.75
935.519	5419.9
935.827	5345.78
936.135	5329.96
936.443	5321.37
936.751	5248.15
937.059	5239.79
937.367	5240.47
937.674	5218.32
937.982	5188.72
938.29	5149.85
938.597	5167.7
938.905	5130.42
939.213	5116.41
939.52	5064.43
939.827	5071.21
940.135	5066.24
940.442	5008.61
940.749	4955.96
941.056	5021.72
941.363	4951.21
941.67	4966.13
941.977	4859.01
942.284	4899.46
942.591	4901.72
942.898	4837.32
943.205	4811.33
943.511	4815.4
943.818	4747.38
944.125	4748.51
944.431	4770.2
944.738	4734.04
945.044	4746.92
945.35	4653.14
945.657	4637.32
945.963	4641.84
946.269	4577.44
946.575	4627.83
946.881	4565.46
947.187	4561.17
947.493	4549.64
947.799	4490.21
948.105	4538.79
948.41	4466.7
948.716	4437.55
949.022	4421.06
949.327	4421.96
949.633	4367.5
949.938	4380.15
950.244	4399.59
950.549	4390.55
950.854	4327.73
951.16	4354.39
951.465	4332.92
951.77	4282.3
952.075	4234.62
952.38	4252.25
952.685	4256.09
952.99	4167.96
953.294	4167.28
953.599	4136.09
953.904	4166.37
954.209	4156.43
954.513	4132.25
954.818	4106.49
955.122	4095.64
955.426	4091.12
955.731	4038.69
956.035	4030.78
956.339	4034.85
956.643	3993.04
956.948	3991.69
957.252	3967.51
957.556	3994.17
957.86	3888.87
958.163	3918.02
958.467	3932.48
958.771	3860.84
959.075	3857.46
959.378	3863.56
959.682	3823.56
959.985	3826.5
960.289	3828.98
960.592	3807.29
960.896	3780.85
961.199	3762.09
961.502	3767.51
961.805	3746.72
962.108	3693.62
962.411	3678.25
962.714	3680.28
963.017	3659.49
963.32	3623.11
963.623	3620.17
963.926	3572.94
964.228	3615.65
964.531	3599.83
964.833	3592.6
965.136	3549.67
965.438	3520.97
965.741	3515.54
966.043	3503.11
966.345	3497.69
966.648	3497.69
966.95	3499.5
967.252	3423.79
967.554	3431.93
967.856	3407.52
968.158	3378.6
968.46	3360.74
968.761	3372.95
969.063	3366.17
969.365	3341.54
969.666	3339.5
969.968	3279.17
970.269	3270.58
970.571	3248.21
970.872	3306.96
971.174	3221.77
971.475	3244.59
971.776	3242.56
972.077	3199.39
972.378	3181.77
972.679	3186.51
972.98	3171.37
973.281	3139.28
973.582	3159.85
973.883	3129.34
974.183	3113.97
974.484	3127.08
974.785	3064.93
975.085	3094.99
975.386	3049.79
975.686	3078.27
975.986	3048.44
976.287	3053.18
976.587	2977.03
976.887	2948.78
977.187	2978.61
977.487	2956.69
977.787	2979.96
978.087	2927.08
978.387	2912.4
978.687	2925.05
978.987	2866.07
979.286	2878.27
979.586	2876.01
979.885	2833.08
980.185	2868.78
980.484	2823.58
980.784	2773.42
981.083	2826.07
981.382	2783.59
981.682	2801.89
981.981	2782.46
982.28	2762.79
982.579	2713.76
982.878	2712.17
983.177	2744.04
983.475	2706.75
983.774	2686.19
984.073	2685.73
984.372	2681.67
984.67	2685.73
984.969	2647.32
985.267	2692.74
985.566	2639.18
985.864	2645.28
986.162	2621.78
986.461	2619.75
986.759	2617.04
987.057	2622.91
987.355	2548.79
987.653	2541.78
987.951	2539.52
988.249	2496.36
988.547	2549.92
988.844	2504.04
989.142	2499.07
989.44	2463.59
989.737	2473.08
990.035	2478.96
990.332	2452.75
990.63	2419.53
990.927	2406.19
991.224	2437.15
991.521	2402.35
991.819	2382.69
992.116	2368.91
992.413	2350.15
992.71	2356.7
993.006	2339.98
993.303	2334.78
993.6	2379.98
993.897	2329.13
994.193	2303.15
994.49	2318.96
994.787	2268.57
995.083	2273.54
995.379	2260.21
995.676	2246.88
995.972	2262.24
996.268	2223.15
996.565	2232.19
996.861	2204.84
997.157	2200.55
997.453	2178.18
997.749	2194.22
998.044	2153.32
998.34	2175.92
998.636	2149.7
998.932	2112.87
999.227	2125.98
999.523	2083.26
999.818	2111.29
1000.114	2096.15
1000.409	2066.09
1000.704	2049.37
1001	2076.48
1001.295	2056.6
1001.59	2056.82
1001.885	2022.25
1002.18	2009.59
1002.475	1994.68
1002.77	2028.58
1003.065	2004.85
1003.359	1962.59
1003.654	1964.85
1003.949	1950.16
1004.243	1951.06
1004.538	1919.43
1004.832	1922.36
1005.127	1918.52
1005.421	1890.5
1005.715	1878.75
1006.009	1894.34
1006.304	1856.15
1006.598	1873.55
1006.892	1867.68
1007.186	1804.85
1007.48	1824.06
1007.773	1792.2
1008.067	1830.84
1008.361	1789.03
1008.655	1794.01
1008.948	1801.46
1009.242	1769.6
1009.535	1726.44
1009.829	1772.31
1010.122	1727.57
1010.415	1743.39
1010.708	1713.33
1011.001	1688.92
1011.295	1683.05
1011.588	1690.51
1011.881	1691.41
1012.173	1662.71
1012.466	1664.07
1012.759	1648.93
1013.052	1626.55
1013.344	1642.15
1013.637	1614.35
1013.93	1613.45
1014.222	1608.25
1014.514	1612.09
1014.807	1576.84
1015.099	1595.59
1015.391	1573
1015.683	1577.97
1015.976	1548.36
1016.268	1562.37
1016.56	1501.58
1016.851	1507.23
1017.143	1539.78
1017.435	1502.26
1017.727	1470.63
1018.018	1454.81
1018.31	1492.32
1018.602	1448.7
1018.893	1482.38
1019.185	1466.33
1019.476	1445.54
1019.767	1437.63
1020.058	1412.77
1020.35	1401.25
1020.641	1384.98
1020.932	1403.96
1021.223	1404.41
1021.514	1351.98
1021.804	1365.77
1022.095	1331.42
1022.386	1358.54
1022.677	1344.98
1022.967	1312.21
1023.258	1296.39
1023.548	1326.67
1023.839	1330.52
1024.129	1300.46
1024.419	1302.27
1024.709	1269.27
1025	1277.64
1025.29	1264.75
1025.58	1258.2
1025.87	1284.64
1026.16	1217.75
1026.449	1213.91
1026.739	1220.46
1027.029	1229.73
1027.319	1198.99
1027.608	1187.02
1027.898	1175.72
1028.187	1202.16
1028.477	1182.27
1028.766	1161.93
1029.055	1184.76
1029.344	1163.74
1029.634	1147.02
1029.923	1140.24
1030.212	1127.13
1030.501	1113.8
1030.79	1111.99
1031.078	1078.32
1031.367	1121.71
1031.656	1102.05
1031.945	1070.64
1032.233	1059.34
1032.522	1080.8
1032.81	1047.36
1033.099	1069.96
1033.387	1057.98
1033.675	1063.63
1033.963	1055.95
1034.251	1046.23
1034.54	1042.39
1034.828	1030.86
1035.116	1052.56
1035.403	1016.85
1035.691	1047.81
1035.979	1015.27
1036.267	986.12
1036.554	1021.6
1036.842	980.24
1037.129	985.67
1037.417	968.27
1037.704	962.62
1037.992	982.73
1038.279	937.53
1038.566	933.01
1038.853	933.01
1039.14	933.01
