Data from hue_340_FLMS001491_24.txt Node
Date: Mon Feb 06 15:42:41 GMT 2017
User: dcchb
Spectrometer: FLMS00149
Trigger mode: 0
Integration Time (sec): 2.000000E-2
Scans to average: 10
Electric dark correction enabled: true
Nonlinearity correction enabled: false
Boxcar width: 0
XAxis mode: Wavelengths
Number of Pixels in Spectrum: 2048
>>>>>Begin Spectral Data<<<<<
341.393	0.51
341.776	0.51
342.16	0.51
342.543	-51.69
342.927	-67.06
343.31	-61.41
343.693	-72.94
344.077	-48.08
344.46	-62.31
344.843	-48.98
345.226	-32.71
345.61	-28.64
345.993	-18.7
346.376	9.55
346.759	2.32
347.142	35.31
347.525	39.38
347.908	35.08
348.291	59.26
348.674	80.73
349.057	112.14
349.44	134.97
349.823	140.17
350.206	162.54
350.588	195.08
350.971	208.41
351.354	219.71
351.737	234.85
352.119	245.25
352.502	274.63
352.884	273.27
353.267	275.98
353.65	286.38
354.032	295.19
354.414	275.98
354.797	316.43
355.179	304.23
355.562	329.99
355.944	316.66
356.326	327.28
356.709	319.37
357.091	343.55
357.473	340.39
357.855	338.58
358.238	341.74
358.62	322.76
359.002	334.28
359.384	337.9
359.766	327.28
360.148	344.23
360.53	334.06
360.912	327.28
361.294	331.12
361.676	337
362.057	332.93
362.439	320.95
362.821	304.46
363.203	333.61
363.584	322.99
363.966	318.69
364.348	320.05
364.729	328.41
365.111	300.61
365.493	325.02
365.874	290.9
366.256	320.95
366.637	319.37
367.019	303.55
367.4	290.22
367.781	304.68
368.163	319.37
368.544	294.96
368.925	312.36
369.306	318.92
369.688	287.73
370.069	300.16
370.45	311.01
370.831	302.42
371.212	318.47
371.593	301.97
371.974	310.1
372.355	299.71
372.736	322.53
373.117	322.53
373.498	323.44
373.879	320.73
374.26	297.22
374.641	330.22
375.021	309.65
375.402	313.49
375.783	319.82
376.163	321.4
376.544	319.37
376.925	336.77
377.305	335.64
377.686	346.49
378.066	322.53
378.447	313.04
378.827	322.76
379.208	341.74
379.588	319.6
379.968	320.73
380.349	315.3
380.729	330.9
381.109	336.77
381.489	348.52
381.87	340.39
382.25	332.03
382.63	329.77
383.01	321.63
383.39	328.64
383.77	347.39
384.15	327.05
384.53	338.8
384.91	353.72
385.29	324.57
385.67	340.39
386.049	336.09
386.429	332.25
386.809	335.64
387.189	350.33
387.568	327.28
387.948	345.81
388.328	341.29
388.707	374.28
389.087	342.87
389.466	361.18
389.846	360.72
390.225	347.84
390.605	364.79
390.984	348.52
391.363	355.3
391.743	350.78
392.122	355.53
392.501	387.62
392.881	378.8
393.26	345.13
393.639	370.22
394.018	339.03
394.397	362.31
394.776	386.26
395.155	385.58
395.534	382.87
395.913	374.06
396.292	376.09
396.671	393.04
397.05	387.16
397.429	387.84
397.808	376.32
398.186	369.09
398.565	373.61
398.944	383.55
399.323	378.58
399.701	388.75
400.08	382.65
400.458	380.61
400.837	379.26
401.215	387.62
401.594	386.71
401.972	393.72
402.351	405.24
402.729	391.23
403.107	423.55
403.486	425.13
403.864	391.46
404.242	412.93
404.62	429.2
404.999	414.51
405.377	408.41
405.755	411.57
406.133	407.96
406.511	415.64
406.889	425.81
407.267	439.59
407.645	417.9
408.023	423.55
408.401	406.15
408.779	457.9
409.156	424.68
409.534	452.25
409.912	442.98
410.29	472.59
410.667	443.21
411.045	455.41
411.422	436.88
411.8	463.55
412.178	447.05
412.555	465.58
412.933	482.08
413.31	492.02
413.687	484.34
414.065	482.98
414.442	502.64
414.819	505.13
415.197	519.82
415.574	496.09
415.951	527.27
416.328	532.25
416.705	494.28
417.082	519.82
417.46	516.65
417.837	520.95
418.214	543.09
418.591	524.11
418.967	545.35
419.344	579.93
419.721	537.67
420.098	520.95
420.475	548.74
420.852	540.16
421.228	541.74
421.605	569.08
421.982	578.12
422.358	581.51
422.735	586.26
423.111	556.2
423.488	560.04
423.864	584.9
424.241	559.82
424.617	577.67
424.994	594.62
425.37	590.78
425.746	613.37
426.123	610.44
426.499	612.47
426.875	625.12
427.251	619.93
427.627	656.31
428.003	634.39
428.379	646.14
428.756	650.66
429.132	645.92
429.507	636.65
429.883	670.55
430.259	690.89
430.635	685.46
431.011	675.52
431.387	678.46
431.763	709.19
432.138	698.57
432.514	723.43
432.89	728.85
433.265	755.29
433.641	715.07
434.016	713.03
434.392	749.64
434.767	760.04
435.143	767.27
435.518	754.16
435.894	776.31
436.269	778.34
436.644	779.92
437.02	779.7
437.395	803.65
437.77	818.34
438.145	801.17
438.52	801.39
438.895	823.31
439.271	823.31
439.646	845.23
440.021	844.33
440.395	824.67
440.77	824.44
441.145	835.29
441.52	869.64
441.895	866.47
442.27	868.06
442.645	866.02
443.019	870.54
443.394	883.88
443.769	896.53
444.143	859.02
444.518	895.4
444.892	904.21
445.267	901.28
445.641	920.48
446.016	919.13
446.39	884.55
446.764	919.13
447.139	933.59
447.513	916.42
447.887	928.17
448.262	918.45
448.636	916.87
449.01	953.93
449.384	948.05
449.758	957.32
450.132	958
450.506	946.47
450.88	957.55
451.254	972.91
451.628	969.3
452.002	958.22
452.376	983.53
452.75	993.93
453.123	984.66
453.497	1009.75
453.871	975.85
454.244	1008.62
454.618	1052.01
454.992	1020.37
455.365	1046.58
455.739	1038.67
456.112	1060.59
456.486	1053.59
456.859	1058.79
457.232	1063.31
457.606	1070.31
457.979	1100.59
458.352	1111.21
458.725	1128.61
459.099	1116.41
459.472	1126.58
459.845	1153.02
460.218	1152.57
460.591	1153.92
460.964	1172.46
461.337	1176.97
461.71	1203.87
462.083	1184.43
462.456	1215.62
462.829	1200.93
463.201	1236.63
463.574	1220.59
463.947	1266.01
464.32	1277.54
464.692	1247.93
465.065	1263.75
465.438	1289.29
465.81	1249.52
466.183	1324.32
466.555	1335.84
466.928	1355.73
467.3	1341.72
467.672	1343.07
468.045	1393.24
468.417	1360.7
468.789	1421.49
469.161	1385.1
469.534	1441.6
469.906	1448.15
470.278	1483.86
470.65	1485.22
471.022	1492.9
471.394	1536.74
471.766	1517.98
472.138	1559.11
472.51	1576.06
472.882	1564.31
473.253	1574.03
473.625	1583.52
473.997	1639.79
474.369	1665.78
474.74	1706.45
475.112	1714.14
475.484	1703.97
475.855	1729.05
476.227	1781.03
476.598	1803.62
476.97	1827.35
477.341	1823.06
477.713	1853.79
478.084	1844.3
478.455	1910.06
478.827	1946.67
479.198	1995.26
479.569	2013.79
479.94	2029.38
480.311	2071.41
480.682	2115.03
481.053	2147.8
481.424	2167.91
481.795	2164.97
482.166	2165.65
482.537	2228.02
482.908	2277.74
483.279	2285.65
483.65	2346.66
484.021	2351.41
484.391	2369.94
484.762	2400.9
485.133	2420.78
485.503	2435.02
485.874	2528.58
486.244	2523.83
486.615	2550.95
486.985	2602.47
487.356	2638.86
487.726	2666.65
488.097	2717.05
488.467	2725.41
488.837	2754.56
489.207	2770.83
489.578	2826.2
489.948	2875.46
490.318	2908.45
490.688	2891.05
491.058	2921.11
491.428	2953.2
491.798	3036.81
492.168	3098.96
492.538	3071.61
492.908	3097.6
493.278	3153.42
493.648	3153.65
494.017	3180.09
494.387	3183.48
494.757	3242.01
495.126	3274.09
495.496	3250.14
495.866	3294.66
496.235	3328.78
496.605	3364.94
496.974	3374.88
497.344	3397.71
497.713	3432.06
498.082	3504.15
498.452	3481.55
498.821	3442.23
499.19	3495.78
499.559	3537.82
499.928	3566.06
500.298	3519.51
500.667	3579.85
501.036	3574.65
501.405	3636.57
501.774	3630.7
502.143	3640.19
502.512	3680.41
502.88	3715.67
503.249	3687.42
503.618	3745.49
503.987	3741.88
504.356	3775.1
504.724	3766.51
505.093	3783.46
505.462	3772.61
505.83	3778.94
506.199	3885.83
506.567	3873.85
506.936	3850.8
507.304	3930.35
507.672	3933.96
508.041	3970.35
508.409	3961.99
508.777	3956.79
509.145	3972.61
509.514	3934.64
509.882	4041.08
510.25	4030.91
510.618	4029.1
510.986	4044.92
511.354	4040.63
511.722	4092.83
512.09	4098.25
512.458	4098.71
512.826	4164.92
513.193	4152.49
513.561	4148.65
513.929	4164.01
514.297	4224.58
514.664	4265.93
515.032	4213.05
515.4	4242.2
515.767	4256.89
516.135	4292.37
516.502	4248.31
516.869	4330.79
517.237	4336.89
517.604	4339.38
517.972	4387.74
518.339	4359.94
518.706	4344.12
519.073	4438.36
519.44	4387.29
519.808	4416.89
520.175	4406.95
520.542	4470
520.909	4515.19
521.276	4433.16
521.643	4512.48
522.009	4546.6
522.376	4501.18
522.743	4570.33
523.11	4597.9
523.477	4634.74
523.843	4613.04
524.21	4683.78
524.577	4706.37
524.943	4719.03
525.31	4774.17
525.676	4787.28
526.043	4801.96
526.409	4799.7
526.776	4858.69
527.142	4867.95
527.508	4875.86
527.874	4914.96
528.241	4935.07
528.607	4912.7
528.973	5011.45
529.339	4964.22
529.705	5041.96
530.071	5081.96
530.437	5063.43
530.803	5079.47
531.169	5139.36
531.535	5097.32
531.901	5176.42
532.267	5177.55
532.632	5218
532.998	5238.34
533.364	5280.14
533.73	5251.22
534.095	5294.83
534.461	5308.84
534.826	5340.71
535.192	5347.49
535.557	5367.15
535.923	5453.02
536.288	5396.07
536.653	5424.55
537.019	5408.73
537.384	5457.99
537.749	5498.44
538.114	5506.58
538.479	5534.83
538.845	5557.65
539.21	5529.18
539.575	5579.34
539.94	5605.78
540.305	5650.98
540.67	5613.24
541.034	5702.28
541.399	5735.27
541.764	5692.56
542.129	5729.85
542.494	5691.21
542.858	5783.63
543.223	5846.68
543.587	5866.79
543.952	5886
544.316	5867.92
544.681	5906.12
545.045	5916.96
545.41	5945.89
545.774	5982.72
546.138	6010.75
546.503	6006
546.867	6020.46
547.231	6081.03
547.595	6096.62
547.959	6086.22
548.324	6162.15
548.688	6110.86
549.052	6090.29
549.416	6144.53
549.779	6132.32
550.143	6175.49
550.507	6266.56
550.871	6214.58
551.235	6233.11
551.599	6327.12
551.962	6320.34
552.326	6364.41
552.689	6354.92
553.053	6385.43
553.417	6364.63
553.78	6482.6
554.143	6436.5
554.507	6424.07
554.87	6518.76
555.234	6514.24
555.597	6516.95
555.96	6531.86
556.323	6601.92
556.686	6545.42
557.05	6572.31
557.413	6612.54
557.776	6612.76
558.139	6666.1
558.502	6696.6
558.865	6667.23
559.228	6764.62
559.59	6731.86
559.953	6770.73
560.316	6834.23
560.679	6808.92
561.041	6851.63
561.404	6864.96
561.767	6859.99
562.129	6867.9
562.492	6974.34
562.854	6976.82
563.217	6995.35
563.579	6993.32
563.941	7024.28
564.304	7079.42
564.666	7082.13
565.028	7075.12
565.39	7112.64
565.753	7207.32
566.115	7207.55
566.477	7201.45
566.839	7254.56
567.201	7206.42
567.563	7242.58
567.925	7347.43
568.287	7342.91
568.648	7304.72
569.01	7434.21
569.372	7426.98
569.734	7416.58
570.095	7431.05
570.457	7544.49
570.819	7540.65
571.18	7567.99
571.542	7636.24
571.903	7685.5
572.265	7703.13
572.626	7696.13
572.987	7761.21
573.349	7798.27
573.71	7865.39
574.071	7888.89
574.432	7966.4
574.794	8057.25
575.155	8030.58
575.516	8043.46
575.877	8115.55
576.238	8135.21
576.599	8248.43
576.96	8285.26
577.32	8306.96
577.681	8430.57
578.042	8507.18
578.403	8510.79
578.763	8672.82
579.124	8679.83
579.485	8768.87
579.845	8913.27
580.206	9018.8
580.566	9071.91
580.927	9191.68
581.287	9399.58
581.648	9375.18
582.008	9564.55
582.368	9664.66
582.728	9797.31
583.089	9897.65
583.449	10007.48
583.809	10190.3
584.169	10266.91
584.529	10519.1
584.889	10748.7
585.249	10818.98
585.609	10974.01
585.969	11178.75
586.329	11367.67
586.688	11511.84
587.048	11637.04
587.408	11890.14
587.768	12059.63
588.127	12289.68
588.487	12541.65
588.846	12756.11
589.206	12953.84
589.565	13167.85
589.925	13481.51
590.284	13624.11
590.643	13952.91
591.003	14192.9
591.362	14444.87
591.721	14688.03
592.08	15004.18
592.44	15223.84
592.799	15441.46
593.158	15742.47
593.517	16001.9
593.876	16194.88
594.235	16546.74
594.593	16717.58
594.952	17115.76
595.311	17316.44
595.67	17573.61
596.029	18001.62
596.387	18357.99
596.746	18538.55
597.104	18718.21
597.463	18935.6
597.822	19282.94
598.18	19649.03
598.538	19823.94
598.897	20190.49
599.255	20303.03
599.613	20847.87
599.972	20923.57
600.33	21292.15
600.688	21422.54
601.046	21768.07
601.404	22116.54
601.762	22243.31
602.12	22691.44
602.478	22937.76
602.836	23150.63
603.194	23258.88
603.552	23643.05
603.91	23713.56
604.268	24085.3
604.625	24223.83
604.983	24588.79
605.341	24716.92
605.698	25047.76
606.056	25383.34
606.413	25527.07
606.771	25802.99
607.128	26172.25
607.485	26184.23
607.843	26390.1
608.2	26697.66
608.557	27044.32
608.914	27162.73
609.272	27417.41
609.629	27510.97
609.986	27873.9
610.343	28005.87
610.7	28265.98
611.057	28522.24
611.414	28618.51
611.771	28694.44
612.127	29056.92
612.484	29195.45
612.841	29490.81
613.198	29408.55
613.554	29737.81
613.911	29982.77
614.267	30140.28
614.624	30224.12
614.98	30468.86
615.337	30671.57
615.693	30588.4
616.05	30787.95
616.406	31228.39
616.762	31234.04
617.118	31380.02
617.475	31505.22
617.831	31667.92
618.187	31765.77
618.543	31893
618.899	32091.42
619.255	32248.7
619.611	32419.32
619.967	32482.14
620.323	32729.59
620.678	32662.47
621.034	32745.64
621.39	32863.6
621.746	33011.17
622.101	33485.96
622.457	33283.93
622.812	33389.46
623.168	33610.47
623.523	33611.6
623.879	33840.75
624.234	33724.14
624.589	33973.4
624.945	33860.64
625.3	33903.35
625.655	34062.21
626.01	34122.55
626.365	34309.89
626.72	34172.04
627.075	34238.25
627.43	34284.35
627.785	34400.51
628.14	34518.24
628.495	34708.97
628.85	34560.28
629.205	34590.79
629.559	34748.52
629.914	34774.06
630.269	34784
630.623	34656.09
630.978	34698.35
631.332	34849.54
631.687	34918.91
632.041	34953.26
632.396	34971.34
632.75	35005.01
633.104	34983.09
633.459	34905.35
633.813	34795.53
634.167	34918.91
634.521	35047.95
634.875	34979.25
635.229	35019.7
635.583	34922.53
635.937	34942.87
636.291	35022.86
636.645	35038.68
636.999	34921.17
637.352	35100.15
637.706	34776.77
638.06	35093.37
638.413	34938.8
638.767	34843.89
639.121	34993.26
639.474	34762.98
639.828	34947.16
640.181	35059.47
640.534	35090.21
640.888	34769.54
641.241	34744.68
641.594	34904
641.947	34934.51
642.301	34919.82
642.654	34880.95
643.007	34840.95
643.36	34842.53
643.713	34778.35
644.066	34963.43
644.419	34671.46
644.771	34482.54
645.124	34291.36
645.477	34119.84
645.83	33923.91
646.182	33868.32
646.535	33806.17
646.888	33978.37
647.24	33775.67
647.593	33868.09
647.945	33814.31
648.298	33751.71
648.65	33625.16
649.002	33636.23
649.355	33659.51
649.707	33711.94
650.059	33807.98
650.411	34189.67
650.763	34308.53
651.115	34721.18
651.467	34632.14
651.819	34511.47
652.171	34492.71
652.523	34344.46
652.875	34462.65
653.227	34235.09
653.578	34519.6
653.93	34357.35
654.282	34277.8
654.633	34226.05
654.985	34311.7
655.337	34285.93
655.688	34285.03
656.039	34332.94
656.391	34125.71
656.742	34331.58
657.094	34166.16
657.445	34289.55
657.796	34254.75
658.147	34175.2
658.498	34238.48
658.849	34241.42
659.2	34233.96
659.551	34071.25
659.902	34273.51
660.253	34122.55
660.604	34224.02
660.955	33965.49
661.306	34134.3
661.656	34070.8
662.007	34177.24
662.358	34162.32
662.708	34226.73
663.059	34161.19
663.409	34040.74
663.76	34201.87
664.11	34163.68
664.461	34126.84
664.811	34245.26
665.161	34161.42
665.511	34010.69
665.862	34167.52
666.212	34153.06
666.562	34073.28
666.912	34050.01
667.262	33961.42
667.612	34034.19
667.962	34042.55
668.312	33929.79
668.662	34155.99
669.011	34118.26
669.361	33966.4
669.711	33972.95
670.06	34040.97
670.41	33867.87
670.76	33907.41
671.109	33968.2
671.459	33954.19
671.808	33876.68
672.157	34103.11
672.507	33754.88
672.856	33789.22
673.205	33958.26
673.554	33981.76
673.904	33842.33
674.253	33917.81
674.602	33742.22
674.951	33380.2
675.3	33134.1
675.649	33644.82
675.998	33634.2
676.346	33692.73
676.695	33832.39
677.044	33632.39
677.393	33654.09
677.741	33676.69
678.09	33702.9
678.438	33579.51
678.787	33681.2
679.135	33560.08
679.484	33400.99
679.832	33550.81
680.181	33222.01
680.529	33532.28
680.877	33283.25
681.225	33402.79
681.573	33658.38
681.922	33261.55
682.27	33189.01
682.618	33224.04
682.966	33047.55
683.314	33213.65
683.661	33101.33
684.009	32949.92
684.357	32912.86
684.705	32765.97
685.053	32929.36
685.4	32803.71
685.748	32736.6
686.095	32629.48
686.443	32535.02
686.79	32628.13
687.138	32541.8
687.485	32594.45
687.832	32349.26
688.18	32424.51
688.527	32229.49
688.874	32286.44
689.221	32228.14
689.568	32195.14
689.915	32102.04
690.262	31983.62
690.609	32001.93
690.956	31863.17
691.303	31888.48
691.65	31643.29
691.997	31616.4
692.344	31487.36
692.69	31475.39
693.037	31538.21
693.383	31228.39
693.73	31590.19
694.077	31087.15
694.423	31231.55
694.769	31064.32
695.116	30937.55
695.462	30950.88
695.808	30888.28
696.155	30981.84
696.501	30646.71
696.847	30652.36
697.193	30491.68
697.539	30645.35
697.885	30295.98
698.231	30353.61
698.577	30241.07
698.923	30263.22
699.269	30055.76
699.614	29923.11
699.96	29850.57
700.306	29948.65
700.651	29781.65
700.997	29751.82
701.342	29655.1
701.688	29716.56
702.033	29486.06
702.379	29473.18
702.724	29461.2
703.069	29450.36
703.415	29135.56
703.76	29138.5
704.105	29146.63
704.45	29022.8
704.795	28973.76
705.14	28838.85
705.485	28834.1
705.83	28764.5
706.175	28738.28
706.52	28675.91
706.865	28494
707.209	28472.08
707.554	28570.38
707.899	28393.21
708.243	28495.35
708.588	28293.1
708.932	28113.22
709.277	28235.47
709.621	28069.6
709.966	27897.63
710.31	27912.77
710.654	27781.25
710.998	27919.55
711.342	27765.43
711.687	27764.07
712.031	27716.84
712.375	27449.28
712.719	27496.06
713.063	27538.32
713.407	27505.55
713.75	27341.26
714.094	27336.06
714.438	27245.89
714.782	27312.56
715.125	27143.3
715.469	27159.79
715.812	27070.53
716.156	27020.81
716.499	26917.31
716.843	27060.36
717.186	26738.34
717.53	26885
717.873	26720.03
718.216	26772.01
718.559	26680.48
718.902	26613.82
719.246	26638.68
719.589	26461.73
719.932	26454.95
720.275	26426.71
720.617	26310.1
720.96	26294.05
721.303	26338.8
721.646	26354.17
721.989	26087.51
722.331	26249.31
722.674	26113.72
723.016	26165.7
723.359	26060.39
723.701	26178.58
724.044	25898.58
724.386	25794.18
724.729	25860.39
725.071	25772.94
725.413	25773.62
725.755	25738.14
726.097	25740.4
726.439	25473.51
726.782	25604.58
727.124	25696.33
727.465	25509.44
727.807	25585.15
728.149	25496.34
728.491	25485.71
728.833	25473.29
729.175	25399.61
729.516	25237.13
729.858	25184.71
730.199	25272.84
730.541	25232.16
730.882	25264.7
731.224	25223.35
731.565	25083.46
731.906	25295.44
732.248	25076.23
732.589	24885.5
732.93	24803.02
733.271	24987.87
733.612	25026.97
733.953	24958.27
734.294	24846.41
734.635	24695.9
734.976	24713.98
735.317	24663.14
735.658	24657.94
735.999	24658.84
736.339	24579.75
736.68	24657.71
737.021	24546.53
737.361	24411.17
737.702	24535.46
738.042	24434.89
738.383	24363.48
738.723	24426.98
739.063	24344.5
739.404	24380.21
739.744	24294.11
740.084	24272.19
740.424	24200.55
740.764	24139.99
741.104	24278.97
741.444	24095.69
741.784	24118.97
742.124	24227.67
742.464	24160.78
742.804	23918.07
743.143	24010.05
743.483	23929.6
743.823	23839.43
744.162	23740.9
744.502	23816.83
744.841	23787.68
745.181	23851.63
745.52	23741.13
745.86	23694.35
746.199	23626.33
746.538	23636.27
746.877	23659.77
747.216	23625.88
747.556	23583.39
747.895	23585.43
748.234	23478.99
748.573	23473.56
748.911	23410.74
749.25	23366.22
749.589	23336.39
749.928	23263.85
750.267	23273.57
750.605	23159.22
750.944	23201.25
751.283	23012.56
751.621	23071.99
751.96	22982.96
752.298	22986.12
752.636	23017.98
752.975	22859.57
753.313	22793.13
753.651	22794.49
753.989	22697.09
754.327	22699.12
754.666	22574.6
755.004	22660.03
755.342	22759.68
755.679	22691.21
756.017	22497.77
756.355	22532.35
756.693	22453.7
757.031	22540.03
757.368	22320.6
757.706	22376.19
758.044	22307.49
758.381	22262.07
758.719	22217.33
759.056	22114.05
759.394	22103.66
759.731	22013.94
760.068	22028.4
760.405	21878.13
760.743	21818.92
761.08	21965.13
761.417	21715.64
761.754	21589.77
762.091	21663.22
762.428	21554.97
762.765	21455.54
763.102	21422.09
763.438	21348.87
763.775	21263.9
764.112	21250.57
764.449	21253.28
764.785	21153.85
765.122	21114.08
765.458	20894.42
765.795	20843.35
766.131	20941.88
766.467	20764.03
766.804	20682.9
767.14	20610.81
767.476	20578.05
767.812	20598.16
768.148	20519.29
768.485	20356.81
768.821	20310.48
769.157	20243.37
769.492	20190.03
769.828	20136.93
770.164	19987.1
770.5	19899.19
770.836	20011.51
771.171	19831.63
771.507	19735.13
771.842	19642.48
772.178	19674.12
772.513	19576.72
772.849	19573.1
773.184	19395.48
773.519	19439.77
773.855	19237.97
774.19	19255.37
774.525	19153.45
774.86	19190.51
775.195	19147.58
775.53	18937.41
775.865	18862.39
776.2	18912.55
776.535	18699.23
776.87	18817.87
777.205	18564.31
777.539	18537.2
777.874	18564.54
778.209	18485.45
778.543	18374.04
778.878	18296.3
779.212	18304.66
779.547	18125.68
779.881	18117.09
780.215	18054.72
780.55	18118.45
780.884	17979.92
781.218	17849.08
781.552	17918
781.886	17779.02
782.22	17781.06
782.554	17655.19
782.888	17530.22
783.222	17424.46
783.556	17451.12
783.889	17391.92
784.223	17184.69
784.557	17228.08
784.89	17167.51
785.224	17134.97
785.557	17039.16
785.891	16925.49
786.224	16877.35
786.558	16947.63
786.891	16782.44
787.224	16730.46
787.557	16636.68
787.891	16661.99
788.224	16609.79
788.557	16560.75
788.89	16510.81
789.223	16440.75
789.556	16330.47
789.888	16339.06
790.221	16252.28
790.554	16139.52
790.887	16195.79
791.219	16050.03
791.552	16029.92
791.884	16001.44
792.217	15860.88
792.549	15850.71
792.882	15766.2
793.214	15639.42
793.546	15697.04
793.879	15544.96
794.211	15536.37
794.543	15565.97
794.875	15422.7
795.207	15591.51
795.539	15397.84
795.871	15346.77
796.203	15236.72
796.535	15152.43
796.867	15143.61
797.198	15129.83
797.53	15111.3
797.862	14945.65
798.193	15061.58
798.525	14909.49
798.856	14952.88
799.188	14753.34
799.519	14789.72
799.85	14702.04
800.182	14728.71
800.513	14656.62
800.844	14536.85
801.175	14574.14
801.506	14529.62
801.837	14459.11
802.168	14497.3
802.499	14344.31
802.83	14312.22
803.161	14254.82
803.491	14281.49
803.822	14272.45
804.153	14250.98
804.483	14166.46
804.814	14022.51
805.145	14012.12
805.475	14038.78
805.805	13971.21
806.136	13916.75
806.466	14019.35
806.796	13862.97
807.126	13745.01
807.457	13724.44
807.787	13788.17
808.117	13682.41
808.447	13570.1
808.777	13625.23
809.107	13610.32
809.436	13571.45
809.766	13538.01
810.096	13584.11
810.426	13454.62
810.755	13463.88
811.085	13439.48
811.414	13337.11
811.744	13258.01
812.073	13215.3
812.403	13243.1
812.732	13135.08
813.061	13178.47
813.39	13082.42
813.719	13013.27
814.049	13039.26
814.378	13012.82
814.707	12977.34
815.036	12969.66
815.365	12910.45
815.693	12805.14
816.022	12801.08
816.351	12715.2
816.68	12759.72
817.008	12773.73
817.337	12689.21
817.665	12594.98
817.994	12681.08
818.322	12636.33
818.651	12532.83
818.979	12429.56
819.307	12561.31
819.636	12529.67
819.964	12476.79
820.292	12404.7
820.62	12441.76
820.948	12400.18
821.276	12449.22
821.604	12381.43
821.932	12393.4
822.259	12399.5
822.587	12433.63
822.915	12362.44
823.243	12414.42
823.57	12347.53
823.898	12344.14
824.225	12274.08
824.553	12329.22
824.88	12310.69
825.207	12369.67
825.535	12358.83
825.862	12381.2
826.189	12265.5
826.516	12423.46
826.843	12403.57
827.17	12259.62
827.497	12366.29
827.824	12263.24
828.151	12254.65
828.478	12288.55
828.805	12344.59
829.131	12275.67
829.458	12297.36
829.785	12284.03
830.111	12233.86
830.438	12353.86
830.764	12299.85
831.09	12272.73
831.417	12195.89
831.743	12258.27
832.069	12251.71
832.395	12228.89
832.722	12288.09
833.048	12223.24
833.374	12212.62
833.7	12119.74
834.026	12205.84
834.351	12233.63
834.677	12152.05
835.003	12099.17
835.329	12219.17
835.654	12079.51
835.98	12072.73
836.306	12072.06
836.631	12045.39
836.956	12032.06
837.282	12108.66
837.607	11926.3
837.932	11939.4
838.258	11937.6
838.583	11917.48
838.908	11870.7
839.233	11936.01
839.558	11855.79
839.883	11823.7
840.208	11802.46
840.533	11835.45
840.858	11811.72
841.182	11793.19
841.507	11801.78
841.832	11716.81
842.156	11663.25
842.481	11719.75
842.805	11716.36
843.13	11588.9
843.454	11601.11
843.778	11493.09
844.103	11571.5
844.427	11533.99
844.751	11498.06
845.075	11465.29
845.399	11362.47
845.723	11394.11
846.047	11421.9
846.371	11262.59
846.695	11292.41
847.019	11182.36
847.343	11173.1
847.666	11114.11
847.99	11069.6
848.313	11044.74
848.637	10959.32
848.96	10946.89
849.284	10946.66
849.607	10863.05
849.931	10777.85
850.254	10714.35
850.577	10709.38
850.9	10631.87
851.223	10584.18
851.546	10595.03
851.869	10442.04
852.192	10542.83
852.515	10454.47
852.838	10362.95
853.161	10430.29
853.483	10369.73
853.806	10342.61
854.129	10275.72
854.451	10256.28
854.774	10219
855.096	10209.96
855.419	10104.88
855.741	10098.32
856.063	10075.27
856.385	10008.61
856.708	10013.13
857.03	9974.71
857.352	9953.92
857.674	9915.95
857.996	9925.45
858.318	9865.33
858.64	9834.15
858.961	9816.52
859.283	9807.71
859.605	9741.5
859.926	9655.17
860.248	9730.65
860.57	9711.44
860.891	9689.97
861.212	9605
861.534	9676.41
861.855	9565.91
862.176	9573.59
862.498	9606.36
862.819	9610.88
863.14	9492.91
863.461	9576.98
863.782	9448.4
864.103	9486.36
864.424	9397.55
864.745	9447.72
865.065	9365.01
865.386	9306.7
865.707	9346.93
866.027	9398.91
866.348	9388.74
866.668	9374.95
866.989	9320.26
867.309	9253.6
867.63	9292.92
867.95	9269.19
868.27	9234.84
868.59	9253.6
868.91	9272.58
869.23	9190.78
869.55	9166.14
869.87	9204.79
870.19	9215.63
870.51	9119.14
870.83	9153.26
871.15	9104.9
871.469	9145.35
871.789	9130.21
872.109	9103.55
872.428	9079.37
872.748	9062.64
873.067	9108.29
873.386	8991.01
873.706	9007.5
874.025	8954.62
874.344	8929.31
874.663	9015.41
874.982	8930.22
875.301	8959.82
875.62	8907.17
875.939	8928.64
876.258	8832.37
876.577	8868.52
876.896	8852.48
877.214	8834.4
877.533	8828.98
877.852	8847.96
878.17	8747.17
878.489	8803.67
878.807	8819.94
879.125	8728.64
879.444	8720.05
879.762	8702.2
880.08	8695.42
880.398	8686.38
880.716	8732.26
881.034	8642.32
881.352	8647.06
881.67	8609.1
881.988	8623.33
882.306	8578.36
882.624	8554.86
882.941	8580.62
883.259	8462.43
883.577	8480.74
883.894	8484.81
884.212	8417.01
884.529	8403
884.846	8403.68
885.164	8401.87
885.481	8354.41
885.798	8407.75
886.115	8286.62
886.432	8326.84
886.75	8318.48
887.067	8276.45
887.383	8252.49
887.7	8227.18
888.017	8237.58
888.334	8197.13
888.651	8251.59
888.967	8137.92
889.284	8145.61
889.6	8047.08
889.917	8074.87
890.233	8094.76
890.55	8038.49
890.866	8059.28
891.182	7973.18
891.498	7949.9
891.815	7910.81
892.131	7911.26
892.447	7853.86
892.763	7863.13
893.079	7894.76
893.395	7849.57
893.71	7872.84
894.026	7785.16
894.342	7802.79
894.657	7742.45
894.973	7751.49
895.289	7678.05
895.604	7704.94
895.92	7610.25
896.235	7552.17
896.55	7582.23
896.865	7595.34
897.181	7571.83
897.496	7564.83
897.811	7453.87
898.126	7473.08
898.441	7437.83
898.756	7404.61
899.071	7427.88
899.386	7397.83
899.7	7287.55
900.015	7315.12
900.33	7278.96
900.644	7266.31
900.959	7175.91
901.273	7150.6
901.588	7192.18
901.902	7150.6
902.216	7184.73
902.531	7055.92
902.845	7102.24
903.159	7052.53
903.473	7017.27
903.787	6970.49
904.101	6958.97
904.415	6929.59
904.729	6942.02
905.042	6879.88
905.356	6840.33
905.67	6865.64
905.984	6894.11
906.297	6823.38
906.611	6804.17
906.924	6831.52
907.237	6773.89
907.551	6708.81
907.864	6688.47
908.177	6680.33
908.491	6609.83
908.804	6597.62
909.117	6507
909.43	6546.78
909.743	6507.23
910.056	6495.7
910.368	6497.06
910.681	6430.17
910.994	6402.83
911.307	6407.35
911.619	6389.27
911.932	6375.26
912.244	6262.49
912.557	6272.66
912.869	6243.96
913.181	6243.96
913.494	6222.49
913.806	6152.21
914.118	6154.92
914.43	6136.17
914.742	6168.93
915.054	6106.34
915.366	6065.21
915.678	6010.97
915.99	5983.18
916.302	5964.19
916.613	6016.4
916.925	5969.84
917.236	5902.05
917.548	5893.23
917.859	5867.02
918.171	5823.63
918.482	5797.42
918.794	5797.64
919.105	5815.95
919.416	5730.75
919.727	5745.44
920.038	5737.08
920.349	5643.98
920.66	5648.95
920.971	5629.51
921.282	5615.05
921.593	5579.8
921.903	5580.93
922.214	5520.14
922.525	5536.63
922.835	5484.66
923.146	5509.97
923.456	5427.03
923.767	5393.36
924.077	5440.37
924.387	5388.84
924.697	5363.98
925.008	5329.63
925.318	5307.71
925.628	5286.7
925.938	5317.2
926.248	5230.2
926.558	5227.49
926.867	5212.57
927.177	5228.62
927.487	5195.4
927.796	5131.9
928.106	5198.79
928.416	5153.14
928.725	5090.54
929.034	5055.97
929.344	5042.18
929.653	5051.9
929.962	5019.13
930.271	4988.85
930.581	4956.08
930.89	4888.74
931.199	4914.28
931.508	4891.45
931.817	4891
932.125	4875.86
932.434	4817.78
932.743	4789.08
933.051	4770.55
933.36	4718.8
933.669	4720.38
933.977	4755.64
934.286	4674.06
934.594	4691.01
934.902	4655.08
935.21	4629.54
935.519	4635.87
935.827	4598.58
936.135	4549.99
936.443	4536.43
936.751	4502.09
937.059	4517.23
937.367	4499.6
937.674	4521.52
937.982	4444.91
938.29	4435.87
938.597	4438.13
938.905	4368.98
939.213	4424.57
939.52	4376.89
939.827	4362.65
940.135	4323.78
940.442	4302.54
940.749	4304.8
941.056	4334.18
941.363	4232.04
941.67	4267.51
941.977	4222.77
942.284	4193.62
942.591	4213.05
942.898	4174.18
943.205	4162.43
943.511	4171.25
943.818	4140.06
944.125	4077.69
944.431	4063
944.738	4110
945.044	4071.14
945.35	4054.19
945.657	4085.6
945.963	4021.87
946.269	3964.7
946.575	4016.45
946.881	3979.84
947.187	3933.96
947.493	3960.4
947.799	3917.47
948.105	3901.2
948.41	3906.85
948.716	3866.62
949.022	3834.76
949.327	3867.98
949.633	3787.98
949.938	3806.74
950.244	3758.15
950.549	3763.12
950.854	3754.99
951.16	3724.25
951.465	3740.52
951.77	3704.37
952.075	3682.67
952.38	3681.09
952.685	3676.57
952.99	3662.56
953.294	3640.86
953.599	3579.85
953.904	3578.49
954.209	3575.78
954.513	3521.55
954.818	3546.63
955.122	3491.94
955.426	3519.06
955.731	3497.59
956.035	3455.56
956.339	3441.55
956.643	3437.93
956.948	3429.34
957.252	3423.92
957.556	3395.22
957.86	3398.61
958.163	3370.14
958.467	3346.18
958.771	3366.52
959.075	3353.64
959.378	3332.85
959.682	3335.56
959.985	3276.58
960.289	3272.51
960.592	3270.25
960.896	3214.66
961.199	3245.39
961.502	3221.67
961.805	3223.93
962.108	3223.02
962.411	3168.33
962.714	3136.25
963.017	3153.87
963.32	3157.26
963.623	3132.86
963.926	3105.29
964.228	3095.12
964.531	3072.74
964.833	3084.95
965.136	3046.76
965.438	3055.12
965.741	3025.97
966.043	3011.05
966.345	2999.75
966.648	3016.02
966.95	2978.96
967.252	2974.89
967.554	2973.76
967.856	2955.68
968.158	2959.53
968.46	2914.33
968.761	2914.78
969.063	2909.13
969.365	2889.25
969.666	2870.26
969.968	2866.42
970.269	2852.86
970.571	2821.23
970.872	2825.74
971.174	2785.29
971.475	2798.85
971.776	2750.94
972.077	2774.45
972.378	2742.13
972.679	2748.68
972.98	2745.3
973.281	2728.35
973.582	2718.86
973.883	2673.21
974.183	2677.05
974.484	2691.96
974.785	2695.35
975.085	2654
975.386	2676.14
975.686	2653.55
975.986	2602.02
976.287	2604.28
976.587	2587.11
976.887	2550.05
977.187	2597.05
977.487	2576.03
977.787	2563.6
978.087	2583.49
978.387	2539.2
978.687	2532.65
978.987	2517.5
979.286	2516.37
979.586	2475.92
979.885	2467.34
980.185	2467.56
980.484	2475.92
980.784	2438.41
981.083	2407.68
981.382	2437.73
981.682	2433.21
981.981	2367.23
982.28	2410.84
982.579	2359.99
982.878	2348.7
983.177	2370.84
983.475	2364.97
983.774	2342.37
984.073	2315.93
984.372	2304.85
984.67	2318.87
984.969	2343.95
985.267	2314.57
985.566	2285.87
985.864	2273.9
986.162	2248.13
986.461	2260.56
986.759	2265.53
987.057	2225.76
987.355	2238.42
987.653	2237.29
987.951	2234.12
988.249	2208.36
988.547	2185.31
988.844	2160
989.142	2168.36
989.44	2160.23
989.737	2172.65
990.035	2151.19
990.332	2140.34
990.63	2116.61
990.927	2106.89
991.224	2112.32
991.521	2115.03
991.819	2094.92
992.116	2070.28
992.413	2068.02
992.71	2057.63
993.006	2079.78
993.303	2056.95
993.6	2055.6
993.897	2016.95
994.193	2000.91
994.49	2004.07
994.787	1974.24
995.083	1972.21
995.379	1985.32
995.676	1963.39
995.972	1972.89
996.268	1955.94
996.565	1933.34
996.861	1918.42
997.157	1960
997.453	1892.21
997.749	1913
998.044	1890.63
998.34	1910.97
998.636	1870.06
998.932	1898.09
999.227	1837.3
999.523	1847.47
999.818	1821.03
1000.114	1837.3
1000.409	1818.99
1000.704	1830.29
1001	1796.39
1001.295	1776.73
1001.59	1822.83
1001.885	1788.94
1002.18	1741.25
1002.475	1765.43
1002.77	1750.74
1003.065	1721.59
1003.359	1728.37
1003.654	1711.42
1003.949	1707.81
1004.243	1688.83
1004.538	1647.02
1004.832	1703.51
1005.127	1677.98
1005.421	1677.3
1005.715	1665.78
1006.009	1673.01
1006.304	1641.14
1006.598	1661.71
1006.892	1635.95
1007.186	1619.9
1007.48	1623.06
1007.773	1611.31
1008.067	1574.7
1008.361	1559.34
1008.655	1559.79
1008.948	1535.61
1009.242	1553.01
1009.535	1534.48
1009.829	1527.93
1010.122	1527.93
1010.415	1534.93
1010.708	1523.18
1011.001	1508.27
1011.295	1511.88
1011.588	1489.96
1011.881	1472.33
1012.173	1475.72
1012.466	1472.79
1012.759	1466.46
1013.052	1461.04
1013.344	1427.59
1013.637	1452
1013.93	1418.32
1014.222	1408.38
1014.514	1407.7
1014.807	1380.13
1015.099	1382.84
1015.391	1385.33
1015.683	1370.19
1015.976	1389.17
1016.268	1363.86
1016.56	1338.33
1016.851	1315.95
1017.143	1340.13
1017.435	1338.33
1017.727	1298.33
1018.018	1321.15
1018.31	1264.66
1018.602	1308.27
1018.893	1301.94
1019.185	1295.62
1019.476	1272.79
1019.767	1269.85
1020.058	1266.69
1020.35	1259.68
1020.641	1246.13
1020.932	1239.57
1021.223	1215.39
1021.514	1221.27
1021.804	1187.82
1022.095	1216.97
1022.386	1200.7
1022.677	1181.49
1022.967	1199.57
1023.258	1167.26
1023.548	1156.18
1023.839	1186.24
1024.129	1163.64
1024.419	1155.96
1024.709	1141.5
1025	1128.39
1025.29	1141.72
1025.58	1141.72
1025.87	1119.58
1026.16	1118.9
1026.449	1117.09
1026.739	1088.16
1027.029	1076.64
1027.319	1047.94
1027.608	1089.97
1027.898	1052.46
1028.187	1049.07
1028.477	1057.66
1028.766	1054.04
1029.055	1034.83
1029.344	1053.59
1029.634	1040.26
1029.923	1031.22
1030.212	1031.44
1030.501	1012.23
1030.79	1006.13
1031.078	976.98
1031.367	1000.03
1031.656	979.47
1031.945	984.44
1032.233	965.91
1032.522	972.23
1032.81	950.54
1033.099	939.69
1033.387	945.12
1033.675	938.11
1033.963	946.7
1034.251	918.9
1034.54	913.93
1034.828	943.31
1035.116	900.82
1035.403	901.73
1035.691	905.12
1035.979	919.35
1036.267	898.34
1036.554	897.89
1036.842	896.53
1037.129	840.71
1037.417	876.87
1037.704	855.85
1037.992	856.31
1038.279	874.16
1038.566	882.29
1038.853	882.29
1039.14	882.29
