Data from hue_310_FLMS001491_45.txt Node
Date: Mon Feb 06 15:49:44 GMT 2017
User: dcchb
Spectrometer: FLMS00149
Trigger mode: 0
Integration Time (sec): 2.000000E-2
Scans to average: 10
Electric dark correction enabled: true
Nonlinearity correction enabled: false
Boxcar width: 0
XAxis mode: Wavelengths
Number of Pixels in Spectrum: 2048
>>>>>Begin Spectral Data<<<<<
341.393	-25.25
341.776	-25.25
342.16	-25.25
342.543	-51.02
342.927	-55.31
343.31	-70.9
343.693	-74.07
344.077	-69.32
344.46	-57.34
344.843	-25.71
345.226	-50.79
345.61	-19.38
345.993	-33.84
346.376	-8.08
346.759	8.64
347.142	8.87
347.525	52.48
347.908	73.05
348.291	74.86
348.674	74.63
349.057	116.89
349.44	110.56
349.823	150.79
350.206	159.6
350.588	206.6
350.971	227.62
351.354	233.72
351.737	226.27
352.119	238.02
352.502	275.98
352.884	269.2
353.267	273.72
353.65	290.44
354.032	303.1
354.414	301.29
354.797	309.2
355.179	322.53
355.562	317.79
355.944	315.75
356.326	328.64
356.709	339.26
357.091	338.8
357.473	351.91
357.855	339.26
358.238	343.55
358.62	344
359.002	347.62
359.384	341.52
359.766	346.04
360.148	331.35
360.53	329.77
360.912	360.72
361.294	323.89
361.676	340.16
362.057	322.99
362.439	306.26
362.821	305.36
363.203	317.79
363.584	307.62
363.966	321.4
364.348	317.79
364.729	331.35
365.111	325.02
365.493	333.83
365.874	337.22
366.256	324.79
366.637	330.44
367.019	304.23
367.4	307.39
367.781	324.57
368.163	320.5
368.544	313.49
368.925	304
369.306	315.53
369.688	320.05
370.069	306.72
370.45	297.9
370.831	326.15
371.212	311.23
371.593	309.2
371.974	317.56
372.355	301.07
372.736	316.66
373.117	299.71
373.498	300.39
373.879	321.86
374.26	314.4
374.641	316.88
375.021	305.59
375.402	327.05
375.783	305.13
376.163	336.09
376.544	327.05
376.925	329.99
377.305	328.64
377.686	329.77
378.066	329.99
378.447	318.01
378.827	326.15
379.208	334.06
379.588	328.41
379.968	327.05
380.349	354.62
380.729	314.62
381.109	320.05
381.489	327.28
381.87	332.7
382.25	332.25
382.63	348.07
383.01	336.77
383.39	335.64
383.77	346.49
384.15	343.32
384.53	338.13
384.91	349.2
385.29	342.42
385.67	353.04
386.049	346.49
386.429	342.87
386.809	351.69
387.189	361.85
387.568	326.6
387.948	341.52
388.328	359.6
388.707	354.85
389.087	374.74
389.466	352.59
389.846	358.01
390.225	365.92
390.605	360.05
390.984	386.71
391.363	372.25
391.743	365.24
392.122	362.98
392.501	368.86
392.881	364.34
393.26	372.25
393.639	370.44
394.018	384.91
394.397	384
394.776	365.47
395.155	378.13
395.534	381.29
395.913	375.87
396.292	381.52
396.671	385.81
397.05	382.87
397.429	388.29
397.808	369.31
398.186	366.83
398.565	419.03
398.944	389.2
399.323	394.17
399.701	417.9
400.08	395.07
400.458	409.99
400.837	401.85
401.215	394.85
401.594	412.25
401.972	420.38
402.351	406.37
402.729	413.83
403.107	407.5
403.486	417.9
403.864	433.72
404.242	420.61
404.62	429.42
404.999	445.47
405.377	419.93
405.755	427.84
406.133	416.77
406.511	452.93
406.889	444.11
407.267	457.67
407.645	436.2
408.023	469.2
408.401	458.58
408.779	456.77
409.156	451.12
409.534	461.97
409.912	472.59
410.29	491.57
410.667	481.85
411.045	490.89
411.422	494.96
411.8	510.78
412.178	510.55
412.555	532.25
412.933	521.17
413.31	528.18
413.687	541.06
414.065	547.39
414.442	566.37
414.819	570.21
415.197	564.34
415.574	584.45
415.951	584.22
416.328	598.46
416.705	589.65
417.082	581.28
417.46	619.93
417.837	623.77
418.214	622.19
418.591	604.33
418.967	626.25
419.344	633.71
419.721	643.2
420.098	656.54
420.475	660.38
420.852	672.13
421.228	687.27
421.605	686.37
421.982	701.96
422.358	699.93
422.735	729.08
423.111	715.97
423.488	732.69
423.864	722.98
424.241	738.79
424.617	748.51
424.994	758
425.37	746.7
425.746	751.22
426.123	771.56
426.499	781.5
426.875	789.19
427.251	805.01
427.627	841.16
428.003	814.27
428.379	841.39
428.756	854.95
429.132	875.74
429.507	860.37
429.883	875.51
430.259	901.95
430.635	892.01
431.011	898.11
431.387	924.1
431.763	926.13
432.138	947.83
432.514	934.27
432.89	957.55
433.265	975.85
433.641	998.9
434.016	972.46
434.392	992.35
434.767	1016.75
435.143	1019.01
435.518	1028.5
435.894	1036.19
436.269	1037.77
436.644	1048.16
437.02	1050.42
437.395	1077.32
437.77	1084.55
438.145	1101.04
438.52	1111.67
438.895	1125.68
439.271	1114.38
439.646	1143.3
440.021	1135.39
440.395	1144.21
440.77	1147.14
441.145	1172.91
441.52	1166.35
441.895	1165
442.27	1184.88
442.645	1181.49
443.019	1205.9
443.394	1167.26
443.769	1179.01
444.143	1179.91
444.518	1200.02
444.892	1207.26
445.267	1222.17
445.641	1233.92
446.016	1215.39
446.39	1245.45
446.764	1245
447.139	1216.52
447.513	1263.3
447.887	1275.73
448.262	1240.7
448.636	1244.54
449.01	1255.62
449.384	1283.86
449.758	1285.22
450.132	1282.73
450.506	1288.61
450.88	1309.4
451.254	1297.65
451.628	1307.82
452.002	1334.26
452.376	1310.76
452.75	1333.81
453.123	1385.33
453.497	1340.13
453.871	1352.56
454.244	1387.36
454.618	1356.86
454.992	1388.04
455.365	1381.26
455.739	1409.74
456.112	1416.29
456.486	1427.82
456.859	1428.27
457.232	1466.68
457.606	1456.29
457.979	1474.59
458.352	1457.42
458.725	1502.84
459.099	1487.48
459.472	1498.55
459.845	1524.99
460.218	1558.21
460.591	1520.24
460.964	1542.16
461.337	1552.33
461.71	1613.35
462.083	1590.07
462.456	1579.22
462.829	1574.48
463.201	1630.75
463.574	1630.75
463.947	1642.73
464.32	1671.88
464.692	1695.15
465.065	1670.3
465.438	1678.2
465.81	1691.99
466.183	1735.6
466.555	1717.53
466.928	1720.01
467.3	1772.67
467.672	1757.07
468.045	1819.44
468.417	1810.63
468.789	1809.05
469.161	1804.08
469.534	1835.26
469.906	1893.11
470.278	1878.65
470.65	1898.31
471.022	1911.64
471.394	1941.47
471.766	1965.43
472.138	1961.81
472.51	1970.4
472.882	1994.58
473.253	2022.38
473.625	2042.71
473.997	2077.97
474.369	2088.14
474.74	2092.43
475.112	2078.87
475.484	2119.1
475.855	2150.06
476.227	2161.58
476.598	2232.99
476.97	2228.02
477.341	2276.38
477.713	2277.06
478.084	2288.13
478.455	2311.18
478.827	2293.33
479.198	2382.14
479.569	2417.85
479.94	2416.72
480.311	2446.32
480.682	2500.56
481.053	2524.28
481.424	2538.07
481.795	2561.12
482.166	2594.34
482.537	2593.89
482.908	2643.38
483.279	2639.76
483.65	2700.1
484.021	2739.87
484.391	2780.32
484.762	2762.7
485.133	2762.02
485.503	2814.67
485.874	2836.14
486.244	2867.1
486.615	2893.31
486.985	2928.57
487.356	2959.3
487.726	3001.33
488.097	3004.5
488.467	3009.47
488.837	3091.27
489.207	3085.85
489.578	3146.41
489.948	3126.98
490.318	3187.09
490.688	3192.29
491.058	3225.51
491.428	3276.81
491.798	3305.51
492.168	3347.77
492.538	3328.56
492.908	3343.25
493.278	3389.12
493.648	3380.08
494.017	3416.01
494.387	3459.85
494.757	3491.26
495.126	3501.43
495.496	3483.58
495.866	3486.29
496.235	3549.57
496.605	3585.72
496.974	3564.48
497.344	3605.61
497.713	3620.53
498.082	3614.65
498.452	3677.47
498.821	3636.57
499.19	3711.82
499.559	3676.34
499.928	3711.15
500.298	3751.37
500.667	3763.12
501.036	3731.94
501.405	3791.14
501.774	3785.49
502.143	3819.84
502.512	3771.26
502.88	3810.8
503.249	3856.45
503.618	3840.86
503.987	3855.55
504.356	3920.41
504.724	3887.19
505.093	3903.46
505.462	3890.8
505.83	3897.13
506.199	3934.19
506.567	4048.09
506.936	3946.17
507.304	3983.45
507.672	4006.28
508.041	4056.67
508.409	4025.71
508.777	4082.89
509.145	4088.76
509.514	4051.7
509.882	4090.8
510.25	4125.6
510.618	4126.73
510.986	4107.29
511.354	4154.3
511.722	4198.59
512.09	4186.84
512.458	4140.06
512.826	4176.67
513.193	4197.69
513.561	4212.38
513.929	4231.13
514.297	4256.89
514.664	4252.37
515.032	4301.86
515.4	4258.25
515.767	4299.6
516.135	4321.75
516.502	4281.07
516.869	4351.58
517.237	4344.58
517.604	4326.27
517.972	4372.82
518.339	4370.11
518.706	4358.59
519.073	4364.69
519.44	4385.93
519.808	4403.33
520.175	4392.48
520.542	4475.87
520.909	4440.17
521.276	4404.69
521.643	4523.55
522.009	4512.48
522.376	4512.25
522.743	4520.16
523.11	4521.97
523.477	4590.9
523.843	4562.2
524.21	4605.81
524.577	4629.54
524.943	4648.3
525.31	4680.16
525.676	4684.45
526.043	4752.7
526.409	4733.94
526.776	4790.44
527.142	4780.72
527.508	4845.35
527.874	4825.01
528.241	4820.27
528.607	4861.17
528.973	4896.2
529.339	4923.99
529.705	4922.86
530.071	4990.89
530.437	5042.41
530.803	5004.22
531.169	5034.27
531.535	4992.69
531.901	5076.31
532.267	5063.43
532.632	5154.72
532.998	5126.7
533.364	5128.06
533.73	5171.45
534.095	5232.24
534.461	5190.65
534.826	5229.3
535.192	5258.9
535.557	5280.37
535.923	5320.14
536.288	5292.12
536.653	5292.35
537.019	5377.09
537.384	5337.32
537.749	5361.72
538.114	5400.14
538.479	5431.55
538.845	5453.25
539.21	5406.24
539.575	5486.24
539.94	5479.69
540.305	5539.8
540.67	5516.75
541.034	5612.56
541.399	5560.81
541.764	5633.13
542.129	5644.2
542.494	5669.96
542.858	5703.18
543.223	5678.33
543.587	5722.39
543.952	5742.96
544.316	5753.13
544.681	5724.65
545.045	5841.48
545.41	5835.16
545.774	5862.5
546.138	5867.25
546.503	5901.37
546.867	5910.86
547.231	5958.32
547.595	5950.41
547.959	6011.2
548.324	5996.28
548.688	5972.78
549.052	6013.23
549.416	6055.94
549.779	6123.74
550.143	6114.47
550.507	6153.57
550.871	6174.13
551.235	6140.46
551.599	6182.72
551.962	6195.83
552.326	6220.91
552.689	6270.85
553.053	6243.73
553.417	6220.46
553.78	6333.68
554.143	6283.06
554.507	6350.62
554.87	6383.39
555.234	6417.06
555.597	6382.26
555.96	6427.68
556.323	6411.41
556.686	6391.75
557.05	6450.06
557.413	6419.55
557.776	6482.82
558.139	6582.26
558.502	6512.2
558.865	6566.21
559.228	6576.15
559.59	6623.16
559.953	6610.28
560.316	6645.08
560.679	6677.17
561.041	6654.57
561.404	6750.39
561.767	6735.02
562.129	6746.77
562.492	6760.33
562.854	6755.81
563.217	6843.72
563.579	6816.37
563.941	6902.25
564.304	6841.91
564.666	6890.5
565.028	6958.97
565.39	6887.33
565.753	6956.26
566.115	6949.93
566.477	7009.82
566.839	7041.68
567.201	7101.79
567.563	7092.3
567.925	7127.1
568.287	7071.96
568.648	7132.98
569.01	7169.81
569.372	7242.58
569.734	7249.36
570.095	7328.45
570.457	7298.17
570.819	7315.34
571.18	7313.31
571.542	7448.22
571.903	7390.82
572.265	7447.77
572.626	7502.91
572.987	7518.05
573.349	7578.61
573.71	7669.91
574.071	7679.63
574.432	7727.54
574.794	7840.53
575.155	7872.62
575.516	7895.44
575.877	7968.43
576.238	8020.86
576.599	8078.26
576.96	8190.58
577.32	8242.1
577.681	8290.01
578.042	8405.49
578.403	8435.31
578.763	8512.6
579.124	8632.15
579.485	8773.84
579.845	8875.98
580.206	8908.75
580.566	9055.41
580.927	9175.86
581.287	9321.85
581.648	9408.62
582.008	9583.53
582.368	9668.95
582.728	9827.14
583.089	9996.4
583.449	10231.2
583.809	10357.52
584.169	10492.21
584.529	10669.61
584.889	10923.61
585.249	10971.97
585.609	11128.35
585.969	11423.03
586.329	11610.6
586.688	11842.01
587.048	12046.75
587.408	12285.16
587.768	12483.57
588.127	12674.3
588.487	12913.39
588.846	13281.97
589.206	13419.14
589.565	13648.96
589.925	13981.38
590.284	14239.91
590.643	14553.57
591.003	14812.77
591.362	15173.22
591.721	15255.25
592.08	15613.88
592.44	15867.44
592.799	16108.56
593.158	16396.91
593.517	16700.41
593.876	17047.52
594.235	17268.08
594.593	17640.5
594.952	17856.99
595.311	18143.31
595.67	18510.76
596.029	18879.56
596.387	19102.61
596.746	19412.88
597.104	19555.02
597.463	19915.92
597.822	20290.14
598.18	20478.84
598.538	20765.61
598.897	21117.69
599.255	21205.6
599.613	21870.67
599.972	21986.82
600.33	22293.48
600.688	22491.89
601.046	22920.13
601.404	23208.26
601.762	23362.15
602.12	23771.18
602.478	24032.19
602.836	24247.33
603.194	24460.88
603.552	24752.4
603.91	24925.5
604.268	25226.51
604.625	25366.4
604.983	25797.34
605.341	25912.6
605.698	26252.7
606.056	26562.3
606.413	26732.69
606.771	27156.63
607.128	27302.16
607.485	27364.99
607.843	27582.83
608.2	27947.12
608.557	28126.32
608.914	28457.39
609.272	28653.54
609.629	28934.89
609.986	29116.81
610.343	29232.06
610.7	29621.88
611.057	29621.65
611.414	29877.24
611.771	30144.8
612.127	30392.7
612.484	30393.83
612.841	30672.02
613.198	30915.18
613.554	30964.89
613.911	31353.36
614.267	31399.91
614.624	31536.18
614.98	31788.83
615.337	32069.5
615.693	32117.86
616.05	32120.12
616.406	32630.16
616.762	32510.61
617.118	32696.82
617.475	32855.01
617.831	33005.06
618.187	33104.5
618.543	33407.31
618.899	33664.93
619.255	33633.52
619.611	33745.84
619.967	33882.33
620.323	34139.5
620.678	34103.57
621.034	34154.41
621.39	34359.38
621.746	34340.85
622.101	34842.53
622.457	34602.76
622.812	34921.17
623.168	35008.4
623.523	35037.1
623.879	35132.47
624.234	35204.55
624.589	35216.98
624.945	35401.84
625.3	35335.17
625.655	35482.74
626.01	35649.06
626.365	35781.49
626.72	35700.13
627.075	35670.08
627.43	35805.89
627.785	35824.43
628.14	35961.14
628.495	35921.82
628.85	36087.02
629.205	35988.26
629.559	36173.79
629.914	36109.39
630.269	36245.88
630.623	36219.44
630.978	36188.71
631.332	36366.78
631.687	36494.01
632.041	36319.33
632.396	36468.48
632.75	36341.02
633.104	36448.14
633.459	36321.14
633.813	36441.81
634.167	36455.6
634.521	36350.51
634.875	36440.23
635.229	36518.19
635.583	36340.12
635.937	36478.87
636.291	36495.82
636.645	36425.99
636.999	36499.21
637.352	36519.77
637.706	36336.28
638.06	36524.97
638.413	36486.1
638.767	36592.09
639.121	36569.04
639.474	36291.53
639.828	36462.6
640.181	36407.91
640.534	36461.47
640.888	36494.24
641.241	36237.07
641.594	36383.96
641.947	36454.24
642.301	36317.52
642.654	36381.47
643.007	36547.8
643.36	36435.48
643.713	36332.21
644.066	36440.23
644.419	36184.19
644.771	36149.39
645.124	35679.34
645.477	35695.39
645.83	35556.41
646.182	35474.38
646.535	35360.71
646.888	35367.71
647.24	35192.35
647.593	35416.07
647.945	35367.26
648.298	35170.43
648.65	35095.86
649.002	35169.53
649.355	35286.36
649.707	35261.95
650.059	35272.58
650.411	35862.16
650.763	35871.88
651.115	36142.61
651.467	36060.35
651.819	36154.36
652.171	35990.75
652.523	35924.08
652.875	35884.76
653.227	35737.42
653.578	36127.24
653.93	36024.42
654.282	35958.89
654.633	35774.48
654.985	35873.69
655.337	36022.16
655.688	35995.27
656.039	35976.96
656.391	35760.92
656.742	35739.68
657.094	35880.24
657.445	35985.1
657.796	35772.9
658.147	35705.56
658.498	35679.12
658.849	35948.26
659.2	35680.93
659.551	35644.09
659.902	35823.52
660.253	35789.4
660.604	35909.62
660.955	35538.11
661.306	35777.65
661.656	35659.91
662.007	35677.54
662.358	35732
662.708	35642.06
663.059	35753.47
663.409	35417.88
663.76	35683.64
664.11	35828.94
664.461	35671.43
664.811	35653.13
665.161	35605.22
665.511	35614.49
665.862	35700.81
666.212	35624.2
666.562	35715.5
666.912	35710.76
667.262	35748.27
667.612	35596.63
667.962	35718.67
668.312	35638.89
668.662	35729.29
669.011	35626.92
669.361	35575.62
669.711	35509.63
670.06	35667.59
670.41	35422.85
670.76	35374.27
671.109	35638.22
671.459	35448.39
671.808	35485.9
672.157	35542.4
672.507	35153.48
672.856	35489.52
673.205	35371.56
673.554	35578.78
673.904	35235.97
674.253	35454.49
674.602	35303.31
674.951	34919.36
675.3	34626.26
675.649	35273.71
675.998	35288.85
676.346	35320.26
676.695	35527.48
677.044	35162.75
677.393	35163.2
677.741	35293.82
678.09	35178.57
678.438	35056.31
678.787	35207.04
679.135	35231.22
679.484	34939.02
679.832	35087.27
680.181	34973.15
680.529	35136.99
680.877	34946.71
681.225	34798.01
681.573	34997.78
681.922	34947.84
682.27	34752.59
682.618	34700.16
682.966	34616.1
683.314	34687.96
683.661	34614.74
684.009	34524.8
684.357	34354.41
684.705	34402.09
685.053	34339.94
685.4	34221.76
685.748	34084.81
686.095	34170.01
686.443	34038.71
686.79	33982.89
687.138	33996
687.485	34130.46
687.832	33934.76
688.18	34045.49
688.527	33703.35
688.874	33753.29
689.221	33817.7
689.568	33643.92
689.915	33581.09
690.262	33486.63
690.609	33439.4
690.956	33395.56
691.303	33333.64
691.65	33230.14
691.997	33175.91
692.344	32962.35
692.69	32978.4
693.037	32962.35
693.383	32704.06
693.73	32972.97
694.077	32709.93
694.423	32696.15
694.769	32518.3
695.116	32474
695.462	32464.29
695.808	32491.41
696.155	32368.7
696.501	32203.96
696.847	32188.36
697.193	32075.6
697.539	32005.32
697.885	31876.73
698.231	31808.94
698.577	31839.67
698.923	31588.38
699.269	31571.43
699.614	31317.88
699.96	31418.89
700.306	31378.44
700.651	31320.36
700.997	31143.19
701.342	31114.94
701.688	31087.6
702.033	30898.23
702.379	30904.33
702.724	30895.29
703.069	30907.94
703.415	30625.24
703.76	30507.5
704.105	30510.21
704.45	30396.55
704.795	30309.32
705.14	30172.82
705.485	30287.62
705.83	30162.2
706.175	30123.56
706.52	29964.69
706.865	29898.03
707.209	29930.57
707.554	29681.76
707.899	29813.74
708.243	29638.15
708.588	29720.18
708.932	29455.78
709.277	29467.53
709.621	29456.23
709.966	29289.91
710.31	29413.97
710.654	28959.3
710.998	29176.24
711.342	29164.26
711.687	29017.82
712.031	29057.6
712.375	28872.52
712.719	28943.02
713.063	28808.11
713.407	28947.09
713.75	28853.76
714.094	28691.73
714.438	28653.31
714.782	28684.27
715.125	28603.37
715.469	28531.74
715.812	28371.51
716.156	28239.54
716.499	28273.89
716.843	28282.7
717.186	28122.93
717.53	28348.92
717.873	28217.62
718.216	28230.73
718.559	27974.01
718.902	27948.25
719.246	27937.85
719.589	27793.22
719.932	27804.07
720.275	27757.97
720.617	27680.01
720.96	27589.16
721.303	27634.13
721.646	27583.51
721.989	27472.1
722.331	27581.03
722.674	27467.36
723.016	27435.49
723.359	27493.34
723.701	27444.08
724.044	27207.48
724.386	27085.9
724.729	27217.65
725.071	27190.08
725.413	27124.09
725.755	27025.33
726.097	26924.55
726.439	26841.61
726.782	26829.41
727.124	26845.68
727.465	26893.59
727.807	26828.5
728.149	26784.89
728.491	26725.68
728.833	26706.47
729.175	26609.98
729.516	26593.48
729.858	26459.47
730.199	26627.38
730.541	26499.47
730.882	26403.66
731.224	26508.74
731.565	26287.73
731.906	26332.47
732.248	26395.07
732.589	26149.88
732.93	26138.13
733.271	26139.93
733.612	26214.51
733.953	26169.09
734.294	26030.56
734.635	25940.17
734.976	26017.23
735.317	25891.58
735.658	25889.55
735.999	25909.88
736.339	25764.58
736.68	25955.31
737.021	25753.05
737.361	25669.89
737.702	25831.24
738.042	25677.35
738.383	25587.18
738.723	25653.62
739.063	25596.67
739.404	25546.5
739.744	25444.36
740.084	25385.83
740.424	25512.38
740.764	25392.84
741.104	25434.64
741.444	25330.01
741.784	25205.04
742.124	25307.64
742.464	25202.33
742.804	25249.11
743.143	25069
743.483	25137.93
743.823	24932.96
744.162	25052.96
744.502	25117.36
744.841	24939.51
745.181	25078.72
745.52	24964.37
745.86	24967.31
746.199	24800.53
746.538	24825.17
746.877	24794.66
747.216	24795.56
747.556	24754.66
747.895	24825.62
748.234	24602.57
748.573	24598.51
748.911	24547.66
749.25	24383.6
749.589	24332.75
749.928	24375.01
750.267	24491.62
750.605	24396.03
750.944	24311.73
751.283	24179.31
751.621	24163.49
751.96	24226.76
752.298	24162.59
752.636	24090.04
752.975	23933.89
753.313	23889.6
753.651	24004.85
753.989	23799.88
754.327	23824.29
754.666	23764.18
755.004	23721.24
755.342	23734.12
755.679	23616.38
756.017	23571.41
756.355	23647.12
756.693	23429.5
757.031	23469.5
757.368	23331.19
757.706	23356.5
758.044	23163.97
758.381	23211.88
758.719	23065.89
759.056	23147.02
759.394	22967.81
759.731	22871.09
760.068	22881.26
760.405	22737.76
760.743	22825.9
761.08	22810.76
761.417	22636.75
761.754	22640.37
762.091	22515.62
762.428	22486.02
762.765	22379.13
763.102	22316.98
763.438	22274.27
763.775	22129.19
764.112	22156.31
764.449	22122.41
764.785	22082.87
765.122	21897.79
765.458	21891.23
765.795	21816.66
766.131	21747.06
766.467	21686.72
766.804	21545.48
767.14	21475.88
767.476	21549.55
767.812	21505.25
768.148	21421.64
768.485	21278.82
768.821	21215.32
769.157	21154.3
769.492	21057.81
769.828	21046.28
770.164	20886.06
770.5	20814.88
770.836	20804.48
771.171	20669.12
771.507	20716.8
771.842	20405.17
772.178	20512.06
772.513	20420.99
772.849	20459.63
773.184	20206.3
773.519	20337.15
773.855	20163.59
774.19	20140.32
774.525	20025.07
774.86	19985.97
775.195	20002.92
775.53	19870.49
775.865	19761.12
776.2	19618.52
776.535	19517.74
776.87	19624.63
777.205	19473.22
777.539	19430.51
777.874	19443.61
778.209	19153.23
778.543	19182.15
778.878	19119.78
779.212	19093.34
779.547	18958.65
779.881	19007.92
780.215	18853.8
780.55	18744.42
780.884	18691.99
781.218	18726.12
781.552	18626.23
781.886	18508.04
782.22	18486.58
782.554	18477.08
782.888	18258.79
783.222	18171.33
783.556	18141.95
783.889	18062.86
784.223	18011.56
784.557	17984.22
784.89	18050.43
785.224	17920.49
785.557	17751.68
785.891	17664.68
786.224	17653.38
786.558	17601.4
786.891	17479.37
787.224	17390.33
787.557	17424.46
787.891	17358.02
788.224	17249.09
788.557	17282.77
788.89	17172.94
789.223	17149.66
789.556	17094.07
789.888	16949.44
790.221	17006.16
790.554	16867.41
790.887	16856.56
791.219	16762.1
791.552	16666.28
791.884	16633.52
792.217	16598.49
792.549	16482.79
792.882	16388.33
793.214	16313.75
793.546	16393.07
793.879	16193.08
794.211	16206.41
794.543	16215.9
794.875	16149.24
795.207	16173.19
795.539	15992.4
795.871	16060.2
796.203	15820.66
796.535	15808.23
796.867	15766.87
797.198	15685.52
797.53	15737.5
797.862	15646.2
798.193	15669.7
798.525	15537.05
798.856	15603.04
799.188	15410.72
799.519	15403.27
799.85	15237.4
800.182	15278.3
800.513	15311.07
800.844	15119.66
801.175	15260.9
801.506	15160.79
801.837	15105.42
802.168	15104.07
802.499	14939.78
802.83	14898.65
803.161	14831.08
803.491	14862.26
803.822	14822.27
804.153	14745.66
804.483	14698.65
804.814	14684.42
805.145	14644.87
805.475	14606.9
805.805	14551.54
806.136	14551.99
806.466	14482.61
806.796	14544.08
807.126	14360.58
807.457	14317.19
807.787	14357.42
808.117	14234.71
808.447	14189.06
808.777	14192.68
809.107	14189.51
809.436	14071.32
809.766	14046.92
810.096	14055.73
810.426	14042.85
810.755	14022.74
811.085	13929.86
811.414	13946.13
811.744	13877.88
812.073	13749.07
812.403	13834.49
812.732	13678.11
813.061	13733.25
813.39	13640.83
813.719	13604.9
814.049	13683.76
814.378	13584.78
814.707	13511.34
815.036	13449.87
815.365	13510.66
815.693	13391.34
816.022	13374.62
816.351	13302.53
816.68	13239.03
817.008	13233.15
817.337	13132.14
817.665	13081.52
817.994	13158.58
818.322	13063.67
818.651	13045.36
818.979	13004.91
819.307	13088.3
819.636	13061.63
819.964	12881.75
820.292	12971.69
820.62	12930.79
820.948	12978.92
821.276	12957
821.604	12923.33
821.932	12922.43
822.259	12925.37
822.587	12895.76
822.915	12810.12
823.243	12941.64
823.57	12891.92
823.898	12950
824.225	12815.31
824.553	12818.93
824.88	12867.06
825.207	12922.43
825.535	12897.34
825.862	12902.99
826.189	12776.9
826.516	12847.63
826.843	12856.44
827.17	12899.6
827.497	12901.64
827.824	12810.57
828.151	12786.39
828.478	12797.01
828.805	12870.23
829.131	12806.27
829.458	12757.91
829.785	12681.98
830.111	12741.87
830.438	12829.78
830.764	12811.47
831.09	12843.11
831.417	12719.72
831.743	12782.09
832.069	12729.67
832.395	12656.67
832.722	12766.27
833.048	12683.11
833.374	12719.5
833.7	12640.85
834.026	12715.88
834.351	12693.51
834.677	12670.91
835.003	12688.54
835.329	12651.48
835.654	12720.63
835.98	12671.14
836.306	12623.23
836.631	12594.08
836.956	12664.58
837.282	12644.7
837.607	12498.48
837.932	12403.35
838.258	12554.08
838.583	12418.71
838.908	12391.82
839.233	12382.33
839.558	12308.43
839.883	12421.2
840.208	12327.19
840.533	12294.2
840.858	12317.47
841.182	12354.53
841.507	12286.74
841.832	12269.56
842.156	12181.88
842.481	12206.06
842.805	12112.51
843.13	12061.66
843.454	12166.97
843.778	12020.31
844.103	11979.4
844.427	12020.53
844.751	12010.14
845.075	11972.4
845.399	11908.9
845.723	11792.74
846.047	11817.6
846.371	11807.43
846.695	11730.6
847.019	11692.63
847.343	11737.37
847.666	11559.53
847.99	11561.79
848.313	11507.55
848.637	11419.87
848.96	11435.01
849.284	11384.84
849.607	11265.75
849.931	11215.13
850.254	11157.96
850.577	11150.95
850.9	11021.01
851.223	11103.72
851.546	11005.19
851.869	10833.22
852.192	10949.37
852.515	10867.34
852.838	10827.12
853.161	10782.6
853.483	10743.73
853.806	10768.59
854.129	10713.45
854.451	10668.93
854.774	10606.78
855.096	10599.55
855.419	10576.95
855.741	10480.46
856.063	10531.31
856.385	10521.81
856.708	10375.6
857.03	10384.87
857.352	10360.69
857.674	10313.68
857.996	10290.41
858.318	10237.3
858.64	10330.18
858.961	10200.92
859.283	10210.86
859.605	10108.49
859.926	10240.24
860.248	10059.68
860.57	10122.73
860.891	10124.08
861.212	10056.06
861.534	9981.71
861.855	9987.36
862.176	10039.79
862.498	9954.15
862.819	9968.16
863.14	9919.57
863.461	9879.34
863.782	9850.87
864.103	9906.91
864.424	9854.26
864.745	9833.7
865.065	9757.31
865.386	9769.97
865.707	9779.23
866.027	9772.23
866.348	9733.13
866.668	9742.63
866.989	9639.35
867.309	9635.51
867.63	9645.45
867.95	9701.27
868.27	9554.83
868.59	9616.3
868.91	9606.13
869.23	9578.34
869.55	9577.88
869.87	9571.78
870.19	9529.98
870.51	9506.7
870.83	9537.88
871.15	9454.05
871.469	9512.12
871.789	9416.98
872.109	9472.12
872.428	9405.91
872.748	9453.37
873.067	9428.28
873.386	9428.51
873.706	9401.17
874.025	9353.71
874.344	9367.27
874.663	9390.77
874.982	9310.77
875.301	9302.86
875.62	9350.32
875.939	9181.28
876.258	9304.9
876.577	9201.4
876.896	9268.29
877.214	9188.74
877.533	9218.8
877.852	9111
878.17	9173.37
878.489	9195.97
878.807	9141.96
879.125	9083.89
879.444	9102.42
879.762	9061.97
880.08	9066.71
880.398	9024.23
880.716	9067.84
881.034	9025.13
881.352	8989.65
881.67	8956.43
881.988	8957.34
882.306	8940.39
882.624	8936.77
882.941	8883.44
883.259	8808.41
883.577	8835.53
883.894	8821.97
884.212	8801.86
884.529	8825.14
884.846	8728.19
885.164	8777
885.481	8685.48
885.798	8714.86
886.115	8690.22
886.432	8649.09
886.75	8669.43
887.067	8644.12
887.383	8578.59
887.7	8589.44
888.017	8547.85
888.334	8554.86
888.651	8510.12
888.967	8496.78
889.284	8437.12
889.6	8459.95
889.917	8351.48
890.233	8386.5
890.55	8372.49
890.866	8363
891.182	8351.48
891.498	8262.21
891.815	8263.79
892.131	8223.34
892.447	8217.47
892.763	8178.82
893.079	8204.36
893.395	8170.69
893.71	8124.14
894.026	8121.2
894.342	8110.8
894.657	8140.63
894.973	8009.56
895.289	8027.42
895.604	8020.18
895.92	7933.63
896.235	7923.46
896.55	7925.95
896.865	7892.28
897.181	7913.75
897.496	7887.31
897.811	7886.4
898.126	7786.07
898.441	7760.53
898.756	7761.21
899.071	7645.05
899.386	7702.68
899.7	7665.62
900.015	7656.58
900.33	7522.57
900.644	7540.88
900.959	7534.55
901.273	7527.99
901.588	7542.46
901.902	7419.75
902.216	7466.98
902.531	7436.25
902.845	7376.81
903.159	7390.37
903.473	7322.8
903.787	7335.46
904.101	7190.83
904.415	7234.67
904.729	7202.8
905.042	7172.75
905.356	7120.77
905.67	7173.43
905.984	7146.31
906.297	7099.76
906.611	7108.12
906.924	6998.74
907.237	6977.05
907.551	6924.39
907.864	6926.2
908.177	6931.17
908.491	6906.99
908.804	6872.87
909.117	6844.85
909.43	6760.78
909.743	6762.14
910.056	6761.46
910.368	6731.4
910.681	6712.2
910.994	6669.26
911.307	6650.96
911.619	6623.61
911.932	6614.8
912.244	6608.47
912.557	6599.88
912.869	6478.98
913.181	6512.43
913.494	6464.97
913.806	6391.3
914.118	6386.33
914.43	6423.84
914.742	6361.92
915.054	6338.87
915.366	6259.78
915.678	6287.57
915.99	6245.09
916.302	6240.34
916.613	6213.45
916.925	6237.63
917.236	6192.21
917.548	6164.41
917.859	6107.24
918.171	6062.5
918.482	6039.45
918.794	6049.16
919.105	6025.89
919.416	6022.05
919.727	5993.57
920.038	5940.69
920.349	5933.91
920.66	5926.91
920.971	5868.6
921.282	5826.12
921.593	5797.64
921.903	5775.95
922.214	5784.99
922.525	5726.46
922.835	5687.14
923.146	5695.5
923.456	5653.02
923.767	5601.27
924.077	5655.95
924.387	5582.73
924.697	5604.88
925.008	5539.57
925.318	5535.28
925.628	5468.84
925.938	5497.99
926.248	5432.23
926.558	5434.26
926.867	5404.21
927.177	5352.91
927.487	5381.61
927.796	5354.04
928.106	5324.66
928.416	5314.04
928.725	5290.54
929.034	5231.33
929.344	5250.99
929.653	5197.21
929.962	5201.05
930.271	5134.38
930.581	5210.09
930.89	5132.12
931.199	5068.4
931.508	5060.04
931.817	5100.94
932.125	5055.52
932.434	5067.27
932.743	4984.11
933.051	4956.99
933.36	4968.06
933.669	4922.41
933.977	4913.37
934.286	4920.15
934.594	4846.26
934.902	4826.6
935.21	4793.15
935.519	4830.66
935.827	4771.91
936.135	4715.86
936.443	4728.97
936.751	4722.42
937.059	4681.74
937.367	4698.24
937.674	4663.89
937.982	4645.58
938.29	4610.78
938.597	4632.93
938.905	4582.99
939.213	4533.04
939.52	4554.06
939.827	4570.56
940.135	4506.15
940.442	4452.82
940.749	4491.24
941.056	4458.02
941.363	4433.84
941.67	4412.82
941.977	4394.29
942.284	4342.09
942.591	4397
942.898	4342.32
943.205	4324.24
943.511	4275.65
943.818	4292.37
944.125	4248.76
944.431	4204.69
944.738	4261.41
945.044	4199.27
945.35	4184.35
945.657	4156.78
945.963	4199.95
946.269	4139.16
946.575	4132.83
946.881	4096.22
947.187	4125.82
947.493	4069.1
947.799	4102.55
948.105	4029.56
948.41	4024.36
948.716	4051.25
949.022	3974.87
949.327	3971.25
949.633	3934.19
949.938	3926.73
950.244	3927.64
950.549	3917.24
950.854	3892.61
951.16	3854.64
951.465	3848.99
951.77	3838.6
952.075	3806.28
952.38	3805.61
952.685	3799.73
952.99	3736.68
953.294	3742.1
953.599	3752.27
953.904	3699.85
954.209	3721.31
954.513	3689.68
954.818	3683.35
955.122	3638.15
955.426	3663.69
955.731	3613.29
956.035	3637.47
956.339	3623.24
956.643	3621.66
956.948	3536.69
957.252	3529.91
957.556	3536.69
957.86	3538.04
958.163	3504.37
958.467	3445.39
958.771	3467.76
959.075	3436.58
959.378	3454.2
959.682	3413.98
959.985	3457.14
960.289	3418.95
960.592	3361.78
960.896	3369.23
961.199	3351.38
961.502	3363.58
961.805	3322.23
962.108	3293.53
962.411	3316.35
962.714	3282.68
963.017	3268.22
963.32	3297.6
963.623	3221.89
963.926	3244.72
964.228	3219.18
964.531	3188.45
964.833	3212.18
965.136	3188
965.438	3147.54
965.741	3116.13
966.043	3162.01
966.345	3151.84
966.648	3129.01
966.95	3082.24
967.252	3053.08
967.554	3089.69
967.856	3030.94
968.158	3068.22
968.46	3040.65
968.761	2987.32
969.063	3005.18
969.365	2996.59
969.666	2983.25
969.968	3001.56
970.269	2954.56
970.571	2947.55
970.872	2926.08
971.174	2913.65
971.475	2905.06
971.776	2887.44
972.077	2905.74
972.378	2855.57
972.679	2825.74
972.98	2842.47
973.281	2860.09
973.582	2799.53
973.883	2848.34
974.183	2792.07
974.484	2762.92
974.785	2768.8
975.085	2753.88
975.386	2747.1
975.686	2707.33
975.986	2746.65
976.287	2739.19
976.587	2685.41
976.887	2683.6
977.187	2676.37
977.487	2659.2
977.787	2665.3
978.087	2667.33
978.387	2656.26
978.687	2643.6
978.987	2623.26
979.286	2562.7
979.586	2561.57
979.885	2548.92
980.185	2549.37
980.484	2553.44
980.784	2520.22
981.083	2518.18
981.382	2538.07
981.682	2510.27
981.981	2487.9
982.28	2483.38
982.579	2469.82
982.878	2425.3
983.177	2464.62
983.475	2429.37
983.774	2423.72
984.073	2397.96
984.372	2418.98
984.67	2392.08
984.969	2374.68
985.267	2372.65
985.566	2389.6
985.864	2363.16
986.162	2320.9
986.461	2345.76
986.759	2305.08
987.057	2287.23
987.355	2329.03
987.653	2314.35
987.951	2287.23
988.249	2270.96
988.547	2259.66
988.844	2246.55
989.142	2251.75
989.44	2249.04
989.737	2262.6
990.035	2224.63
990.332	2207
990.63	2212.88
990.927	2170.62
991.224	2181.02
991.521	2178.98
991.819	2169.94
992.116	2163.62
992.413	2136.5
992.71	2120.68
993.006	2119.1
993.303	2123.84
993.6	2085.43
993.897	2087.46
994.193	2082.71
994.49	2059.89
994.787	2045.65
995.083	2054.01
995.379	2034.58
995.676	2030.29
995.972	2022.6
996.268	1985.99
996.565	2007.01
996.861	2005.2
997.157	1993.45
997.453	1964.3
997.749	1973.79
998.044	1957.75
998.34	1967.91
998.636	1915.49
998.932	1919.33
999.227	1921.59
999.523	1906
999.818	1906.67
1000.114	1893.57
1000.409	1908.48
1000.704	1853.79
1001	1890.63
1001.295	1875.71
1001.59	1868.03
1001.885	1856.96
1002.18	1816.28
1002.475	1809.73
1002.77	1807.01
1003.065	1764.53
1003.359	1817.86
1003.654	1813.79
1003.949	1743.29
1004.243	1724.76
1004.538	1756.17
1004.832	1746.68
1005.127	1730.86
1005.421	1706.45
1005.715	1687.24
1006.009	1711.42
1006.304	1703.29
1006.598	1694.25
1006.892	1666
1007.186	1662.16
1007.48	1643.4
1007.773	1656.96
1008.067	1623.97
1008.361	1626.23
1008.655	1585.55
1008.948	1616.06
1009.242	1557.98
1009.535	1596.4
1009.829	1583.07
1010.122	1550.98
1010.415	1574.48
1010.708	1552.78
1011.001	1546.68
1011.295	1536.29
1011.588	1543.52
1011.881	1523.86
1012.173	1505.55
1012.466	1489.96
1012.759	1529.28
1013.052	1492.45
1013.344	1481.15
1013.637	1484.99
1013.93	1457.19
1014.222	1466.46
1014.514	1467.59
1014.807	1414.93
1015.099	1439.79
1015.391	1424.2
1015.683	1428.49
1015.976	1411.77
1016.268	1403.64
1016.56	1386.69
1016.851	1366.35
1017.143	1395.5
1017.435	1366.35
1017.727	1344.65
1018.018	1337.87
1018.31	1369.06
1018.602	1349.85
1018.893	1332.9
1019.185	1292.45
1019.476	1312.34
1019.767	1332
1020.058	1295.62
1020.35	1274.83
1020.641	1294.94
1020.932	1292.23
1021.223	1255.16
1021.514	1275.73
1021.804	1240.02
1022.095	1210.19
1022.386	1220.59
1022.677	1235.28
1022.967	1200.02
1023.258	1205
1023.548	1159.12
1023.839	1169.52
1024.129	1170.87
1024.419	1160.7
1024.709	1157.31
1025	1159.35
1025.29	1162.29
1025.58	1156.64
1025.87	1143.76
1026.16	1134.72
1026.449	1143.3
1026.739	1124.32
1027.029	1101.72
1027.319	1123.19
1027.608	1141.27
1027.898	1106.47
1028.187	1090.2
1028.477	1093.36
1028.766	1093.59
1029.055	1074.83
1029.344	1053.59
1029.634	1068.05
1029.923	1034.15
1030.212	1052.23
1030.501	1006.13
1030.79	1049.07
1031.078	1046.13
1031.367	1004.78
1031.656	999.35
1031.945	1032.8
1032.233	995.28
1032.522	990.09
1032.81	978.56
1033.099	963.87
1033.387	974.27
1033.675	969.52
1033.963	967.71
1034.251	959.13
1034.54	960.71
1034.828	954.38
1035.116	917.55
1035.403	908.28
1035.691	914.16
1035.979	917.55
1036.267	887.04
1036.554	901.05
1036.842	933.14
1037.129	903.76
1037.417	893.59
1037.704	873.93
1037.992	894.27
1038.279	887.26
1038.566	868.96
1038.853	868.96
1039.14	868.96
