Data from hue_210_FLMS001491_00050.txt Node
Date: Tue Feb 07 16:41:16 GMT 2017
User: dcchb
Spectrometer: FLMS00149
Trigger mode: 0
Integration Time (sec): 2.000000E-2
Scans to average: 10
Electric dark correction enabled: true
Nonlinearity correction enabled: false
Boxcar width: 0
XAxis mode: Wavelengths
Number of Pixels in Spectrum: 2048
>>>>>Begin Spectral Data<<<<<
341.393	-24.28
341.776	-24.28
342.16	-24.28
342.543	-53.43
342.927	-58.18
343.31	-69.93
343.693	-54.11
344.077	-52.07
344.46	-81.23
344.843	-52.53
345.226	-40.32
345.61	-45.3
345.993	-14.56
346.376	-9.59
346.759	11.88
347.142	23.18
347.525	43.52
347.908	56.85
348.291	68.37
348.674	94.59
349.057	121.25
349.44	126.45
349.823	156.06
350.206	164.87
350.588	185.88
350.971	177.52
351.354	221.36
351.737	240.12
352.119	247.58
352.502	257.52
352.884	281.25
353.267	281.02
353.65	281.25
354.032	293.68
354.414	307.46
354.797	302.94
355.179	311.76
355.562	311.76
355.944	318.54
356.326	334.36
356.709	329.16
357.091	317.41
357.473	344.75
357.855	300.91
358.238	352.21
358.62	347.91
359.002	327.12
359.384	326.22
359.766	331.87
360.148	324.19
360.53	337.29
360.912	311.08
361.294	321.02
361.676	319.21
362.057	323.06
362.439	324.41
362.821	313.11
363.203	330.51
363.584	320.57
363.966	307.69
364.348	328.93
364.729	305.2
365.111	326.67
365.493	323.06
365.874	288.93
366.256	303.62
366.637	325.99
367.019	276.73
367.4	290.29
367.781	313.11
368.163	328.48
368.544	303.17
368.925	297.29
369.306	312.89
369.688	304.75
370.069	303.4
370.45	292.77
370.831	311.76
371.212	312.66
371.593	299.1
371.974	298.65
372.355	311.98
372.736	319.89
373.117	299.33
373.498	307.01
373.879	305.2
374.26	309.72
374.641	312.89
375.021	320.8
375.402	349.5
375.783	330.74
376.163	315.83
376.544	311.76
376.925	317.63
377.305	334.13
377.686	312.21
378.066	316.73
378.447	326.67
378.827	318.99
379.208	344.75
379.588	323.96
379.968	343.17
380.349	305.66
380.729	328.03
381.109	311.08
381.489	338.88
381.87	341.81
382.25	323.96
382.63	360.8
383.01	344.07
383.39	357.41
383.77	336.84
384.15	352.43
384.53	323.73
384.91	328.03
385.29	331.87
385.67	347.91
386.049	363.51
386.429	335.03
386.809	345.2
387.189	356.73
387.568	353.56
387.948	347.24
388.328	362.83
388.707	349.27
389.087	339.1
389.466	359.44
389.846	357.86
390.225	359.67
390.605	368.25
390.984	359.67
391.363	352.21
391.743	377.97
392.122	371.64
392.501	367.35
392.881	391.3
393.26	362.83
393.639	389.04
394.018	378.65
394.397	353.79
394.776	409.61
395.155	395.6
395.534	391.53
395.913	378.42
396.292	388.14
396.671	373.22
397.05	384.07
397.429	384.75
397.808	398.08
398.186	383.85
398.565	407.57
398.944	401.7
399.323	408.7
399.701	391.76
400.08	392.66
400.458	414.35
400.837	405.77
401.215	410.74
401.594	398.53
401.972	415.48
402.351	424.52
402.729	422.26
403.107	409.83
403.486	435.6
403.864	443.73
404.242	465.2
404.62	442.38
404.999	464.52
405.377	459.1
405.755	458.65
406.133	467.01
406.511	469.49
406.889	461.36
407.267	462.04
407.645	469.27
408.023	490.96
408.401	483.73
408.779	512.43
409.156	483.73
409.534	527.12
409.912	493.67
410.29	517.85
410.667	529.15
411.045	539.55
411.422	529.6
411.8	560.34
412.178	571.19
412.555	568.93
412.933	569.15
413.31	576.38
413.687	590.62
414.065	594.01
414.442	598.3
414.819	608.02
415.197	602.6
415.574	624.74
415.951	662.48
416.328	653.44
416.705	655.48
417.082	657.51
417.46	645.99
417.837	679.88
418.214	674.69
418.591	696.38
418.967	676.04
419.344	701.35
419.721	718.75
420.098	728.7
420.475	749.94
420.852	749.49
421.228	754.23
421.605	769.6
421.982	776.15
422.358	813.21
422.735	840.56
423.111	845.53
423.488	825.42
423.864	842.82
424.241	874.91
424.617	878.97
424.994	889.6
425.37	895.92
425.746	905.64
426.123	923.94
426.499	936.6
426.875	965.75
427.251	961.68
427.627	1007.56
428.003	981.57
428.379	999.65
428.756	1038.07
429.132	1018.41
429.507	1054.79
429.883	1083.26
430.259	1076.71
430.635	1099.99
431.011	1078.97
431.387	1098.63
431.763	1136.37
432.138	1116.48
432.514	1154.45
432.89	1156.48
433.265	1197.16
433.641	1211.62
434.016	1214.11
434.392	1243.48
434.767	1307.21
435.143	1281.45
435.518	1327.32
435.894	1332.52
436.269	1380.43
436.644	1364.61
437.02	1415.01
437.395	1439.41
437.77	1455.46
438.145	1466.76
438.52	1506.08
438.895	1517.38
439.271	1538.39
439.646	1565.06
440.021	1589.01
440.395	1618.62
440.77	1609.35
441.145	1637.82
441.52	1682.57
441.895	1691.16
442.27	1711.04
442.645	1698.39
443.019	1749.91
443.394	1764.6
443.769	1767.09
444.143	1783.58
444.518	1811.6
444.892	1801.44
445.267	1830.81
445.641	1861.1
446.016	1867.65
446.39	1913.98
446.764	1884.15
447.139	1908.78
447.513	1927.08
447.887	1936.57
448.262	1942
448.636	1945.16
449.01	1979.74
449.384	2013.18
449.758	2016.12
450.132	2057.02
450.506	2023.58
450.88	2077.36
451.254	2084.59
451.628	2101.54
452.002	2144.25
452.376	2129.11
452.75	2162.33
453.123	2152.39
453.497	2205.49
453.871	2204.59
454.244	2266.06
454.618	2287.52
454.992	2289.33
455.365	2291.59
455.739	2363
456.112	2398.71
456.486	2418.37
456.859	2457.92
457.232	2487.97
457.606	2442.32
457.979	2487.75
458.352	2528.87
458.725	2565.03
459.099	2553.96
459.472	2647.74
459.845	2642.09
460.218	2660.85
460.591	2711.24
460.964	2683.22
461.337	2754.86
461.71	2783.33
462.083	2873.05
462.456	2847.74
462.829	2848.19
463.201	2920.95
463.574	2919.15
463.947	2975.87
464.32	3038.69
464.692	3009.09
465.065	3031.91
465.438	3091.8
465.81	3116.43
466.183	3122.3
466.555	3249.08
466.928	3267.16
467.3	3230.1
467.672	3290.44
468.045	3407.27
468.417	3392.35
468.789	3372.47
469.161	3467.15
469.534	3484.78
469.906	3580.37
470.278	3559.36
470.65	3651.78
471.022	3684.32
471.394	3747.37
471.766	3750.54
472.138	3814.04
472.51	3879.57
472.882	3894.71
473.253	3952.11
473.625	4037.76
473.997	4094.71
474.369	4099.45
474.74	4207.47
475.112	4260.58
475.484	4309.39
475.855	4410.18
476.227	4387.81
476.598	4462.83
476.97	4500.12
477.341	4560.69
477.713	4637.52
478.084	4633.23
478.455	4789.61
478.827	4834.12
479.198	4964.97
479.569	4953.22
479.94	5078.64
480.311	5102.82
480.682	5227.33
481.053	5303.94
481.424	5441.57
481.795	5427.33
482.166	5517.95
482.537	5533.54
482.908	5619.64
483.279	5665.06
483.65	5790.94
484.021	5899.41
484.391	5928.78
484.762	6003.36
485.133	6034.77
485.503	6072.06
485.874	6252.39
486.244	6286.74
486.615	6342.79
486.985	6413.97
487.356	6469.56
487.726	6553.63
488.097	6662.55
488.467	6704.13
488.837	6835.43
489.207	6852.6
489.578	6954.29
489.948	6951.13
490.318	7061.86
490.688	7102.09
491.058	7253.04
491.428	7254.85
491.798	7302.31
492.168	7443.55
492.538	7382.31
492.908	7515.41
493.278	7645.8
493.648	7607.61
494.017	7764.44
494.387	7764.67
494.757	7840.37
495.126	7907.04
495.496	7858.23
495.866	7958.11
496.235	8047.37
496.605	8008.96
496.974	8097.77
497.344	8120.37
497.713	8168.27
498.082	8209.18
498.452	8295.95
498.821	8284.2
499.19	8295.5
499.559	8430.64
499.928	8374.6
500.298	8405.1
500.667	8548.15
501.036	8463.86
501.405	8589.51
501.774	8558.32
502.143	8574.82
502.512	8585.21
502.88	8681.48
503.249	8674.02
503.618	8718.54
503.987	8677.64
504.356	8762.16
504.724	8808.26
505.093	8826.56
505.462	8768.48
505.83	8856.62
506.199	8881.48
506.567	8975.94
506.936	8966.9
507.304	9009.61
507.672	9006.9
508.041	9025.43
508.409	9070.85
508.777	9093.67
509.145	9178.42
509.514	9108.59
509.882	9175.25
510.25	9141.81
510.618	9176.61
510.986	9213.22
511.354	9234.91
511.722	9340.9
512.09	9408.47
512.458	9293.89
512.826	9372.76
513.193	9345.64
513.561	9387.9
513.929	9338.64
514.297	9486.21
514.664	9450.73
515.032	9457.05
515.4	9441.01
515.767	9529.59
516.135	9479.43
516.502	9462.25
516.869	9565.98
517.237	9563.49
517.604	9469.48
517.972	9622.25
518.339	9573.21
518.706	9548.12
519.073	9528.01
519.44	9516.71
519.808	9603.26
520.175	9547.45
520.542	9626.77
520.909	9670.16
521.276	9626.99
521.643	9662.7
522.009	9672.42
522.376	9697.05
522.743	9690.27
523.11	9800.1
523.477	9805.07
523.843	9766.42
524.21	9902.01
524.577	9942.01
524.943	9873.09
525.31	9824.05
525.676	9894.1
526.043	9882.58
526.409	9897.49
526.776	9979.07
527.142	9934.56
527.508	9959.64
527.874	9935.69
528.241	9931.62
528.607	9938.62
528.973	10020.65
529.339	9913.09
529.705	9901.11
530.071	9986.31
530.437	9949.24
530.803	9945.63
531.169	9949.92
531.535	9909.92
531.901	9873.54
532.267	9919.64
532.632	9913.09
532.998	9932.52
533.364	9902.01
533.73	9872.86
534.095	9869.25
534.461	9873.54
534.826	9850.26
535.192	9837.61
535.557	9807.1
535.923	9760.77
536.288	9779.53
536.653	9652.53
537.019	9622.47
537.384	9645.98
537.749	9691.17
538.114	9654.56
538.479	9659.08
538.845	9675.58
539.21	9584.73
539.575	9543.83
539.94	9534.57
540.305	9590.38
540.67	9549.25
541.034	9513.78
541.399	9470.16
541.764	9494.57
542.129	9465.64
542.494	9429.03
542.858	9428.13
543.223	9328.24
543.587	9427.22
543.952	9340.45
544.316	9304.06
544.681	9244.18
545.045	9229.71
545.41	9242.14
545.774	9214.12
546.138	9218.42
546.503	9109.49
546.867	9133.22
547.231	9139.1
547.595	9093.67
547.959	9077.85
548.324	9031.53
548.688	9033.11
549.052	8972.55
549.416	8987.46
549.779	8936.39
550.143	8887.8
550.507	8899.78
550.871	8911.98
551.235	8831.53
551.599	8857.3
551.962	8812.1
552.326	8840.35
552.689	8842.83
553.053	8739.78
553.417	8760.57
553.78	8776.17
554.143	8662.05
554.507	8707.02
554.87	8654.36
555.234	8740.91
555.597	8634.48
555.96	8650.52
556.323	8662.95
556.686	8559
557.05	8615.04
557.413	8629.73
557.776	8550.41
558.139	8570.52
558.502	8568.94
558.865	8550.41
559.228	8569.17
559.59	8480.36
559.953	8537.76
560.316	8563.29
560.679	8567.13
561.041	8617.75
561.404	8587.25
561.767	8591.31
562.129	8553.57
562.492	8564.2
562.854	8547.92
563.217	8544.76
563.579	8568.72
563.941	8566
564.304	8603.06
564.666	8560.81
565.028	8603.52
565.39	8637.87
565.753	8580.69
566.115	8636.96
566.477	8664.53
566.839	8601.48
567.201	8629.96
567.563	8636.74
567.925	8645.32
568.287	8678.77
568.648	8674.7
569.01	8701.82
569.372	8738.43
569.734	8656.85
570.095	8745.66
570.457	8824.3
570.819	8768.26
571.18	8752.67
571.542	8787.69
571.903	8769.61
572.265	8764.19
572.626	8761.25
572.987	8758.31
573.349	8794.47
573.71	8839.22
574.071	8841.93
574.432	8838.31
574.794	8868.14
575.155	8850.74
575.516	8788.82
575.877	8859.56
576.238	8861.36
576.599	8953.56
576.96	8884.87
577.32	8926.45
577.681	8930.29
578.042	8965.77
578.403	8938.2
578.763	8918.99
579.124	8944.75
579.485	9024.97
579.845	8965.77
580.206	8999.89
580.566	9002.6
580.927	9049.38
581.287	9041.25
581.648	9003.05
582.008	9020.91
582.368	9042.6
582.728	9076.5
583.089	8976.39
583.449	9095.71
583.809	8981.59
584.169	9047.8
584.529	8989.04
584.889	9155.59
585.249	9046.67
585.609	9084.86
585.969	9090.06
586.329	9105.42
586.688	9091.41
587.048	9076.27
587.408	9106.78
587.768	9063.62
588.127	9079.21
588.487	9112.43
588.846	9095.03
589.206	9108.36
589.565	9094.58
589.925	9162.82
590.284	9098.64
590.643	9162.15
591.003	9094.8
591.362	9177.96
591.721	9096.39
592.08	9214.8
592.44	9188.59
592.799	9129.83
593.158	9128.25
593.517	9132.54
593.876	9168.7
594.235	9165.99
594.593	9141.36
594.952	9206.44
595.311	9161.47
595.67	9158.08
596.029	9166.21
596.387	9223.61
596.746	9212.77
597.104	9195.14
597.463	9157.63
597.822	9172.32
598.18	9091.64
598.538	9109.72
598.897	9237.17
599.255	9146.78
599.613	9298.19
599.972	9210.05
600.33	9257.51
600.688	9183.61
601.046	9240.34
601.404	9283.5
601.762	9227.46
602.12	9267.45
602.478	9178.42
602.836	9335.25
603.194	9172.32
603.552	9227.46
603.91	9177.29
604.268	9259.32
604.625	9193.11
604.983	9242.37
605.341	9251.86
605.698	9237.62
606.056	9194.46
606.413	9243.73
606.771	9283.27
607.128	9244.18
607.485	9231.07
607.843	9235.59
608.2	9336.38
608.557	9311.75
608.914	9340.45
609.272	9305.42
609.629	9331.41
609.986	9326.89
610.343	9333.89
610.7	9418.86
611.057	9369.15
611.414	9335.7
611.771	9348.36
612.127	9328.47
612.484	9360.33
612.841	9377.51
613.198	9400.33
613.554	9365.98
613.911	9442.59
614.267	9431.29
614.624	9400.56
614.98	9440.78
615.337	9475.58
615.693	9447.34
616.05	9409.6
616.406	9439.65
616.762	9368.47
617.118	9454.12
617.475	9406.21
617.831	9488.69
618.187	9460.22
618.543	9497.5
618.899	9516.04
619.255	9552.42
619.611	9506.77
619.967	9545.19
620.323	9507.45
620.678	9514.68
621.034	9510.39
621.39	9466.32
621.746	9475.13
622.101	9610.5
622.457	9502.48
622.812	9469.71
623.168	9531.63
623.523	9433.78
623.879	9541.12
624.234	9517.84
624.589	9493.44
624.945	9455.47
625.3	9537.5
625.655	9547.9
626.01	9518.29
626.365	9427.68
626.72	9528.69
627.075	9472.87
627.43	9505.64
627.785	9439.65
628.14	9563.49
628.495	9481.23
628.85	9480.56
629.205	9418.18
629.559	9512.42
629.914	9453.21
630.269	9453.89
630.623	9491.4
630.978	9402.59
631.332	9436.72
631.687	9419.99
632.041	9371.41
632.396	9427.68
632.75	9391.74
633.104	9371.41
633.459	9329.37
633.813	9360.78
634.167	9377.96
634.521	9400.33
634.875	9261.13
635.229	9228.59
635.583	9263.16
635.937	9242.6
636.291	9257.28
636.645	9299.54
636.999	9252.99
637.352	9238.3
637.706	9233.1
638.06	9226.55
638.413	9214.12
638.767	9175.03
639.121	9208.02
639.474	9122.15
639.828	9164.63
640.181	9168.25
640.534	9119.21
640.888	9144.75
641.241	9145.88
641.594	9127.8
641.947	9171.64
642.301	9087.35
642.654	9099.77
643.007	9159.89
643.36	9129.6
643.713	9028.59
644.066	9156.72
644.419	9098.42
644.771	8962.6
645.124	8922.83
645.477	8927.8
645.83	8873.79
646.182	8773
646.535	8818.65
646.888	8778.65
647.24	8706.11
647.593	8784.53
647.945	8775.49
648.298	8689.39
648.65	8767.35
649.002	8666.34
649.355	8741.14
649.707	8727.36
650.059	8759.44
650.411	8906.11
650.763	8897.07
651.115	8993.56
651.467	8944.75
651.819	8957.63
652.171	8949.04
652.523	8937.75
652.875	8842.61
653.227	8993.56
653.578	8981.36
653.93	8971.42
654.282	8943.85
654.633	8897.29
654.985	8908.82
655.337	8957.41
655.688	8973.9
656.039	8963.51
656.391	8898.42
656.742	8899.55
657.094	8859.33
657.445	8966.45
657.796	8969.83
658.147	8901.14
658.498	8854.36
658.849	8973
659.2	8947.46
659.551	8920.12
659.902	8962.38
660.253	8995.37
660.604	9001.7
660.955	8954.24
661.306	9003.51
661.656	8951.76
662.007	8978.87
662.358	8963.06
662.708	8970.06
663.059	8884.41
663.409	8972.32
663.76	9040.79
664.11	8947.01
664.461	8952.43
664.811	8998.08
665.161	8970.96
665.511	8923.96
665.862	8931.64
666.212	9008.7
666.562	8964.41
666.912	9001.25
667.262	8962.38
667.612	8998.53
667.962	8980.23
668.312	8905.88
668.662	9018.2
669.011	8971.19
669.361	9013.9
669.711	8936.62
670.06	8972.32
670.41	9006.67
670.76	8958.08
671.109	8992.66
671.459	8863.4
671.808	8914.47
672.157	8919.67
672.507	8934.36
672.856	8831.99
673.205	8902.04
673.554	8928.25
673.904	8872.89
674.253	8870.63
674.602	8907.01
674.951	8793.79
675.3	8694.81
675.649	8857.97
675.998	8872.66
676.346	8861.14
676.695	8875.37
677.044	8808.03
677.393	8775.72
677.741	8872.89
678.09	8794.47
678.438	8802.83
678.787	8827.47
679.135	8805.32
679.484	8728.26
679.832	8723.74
680.181	8707.24
680.529	8780.69
680.877	8734.81
681.225	8665.89
681.573	8693.46
681.922	8664.98
682.27	8614.59
682.618	8635.38
682.966	8612.33
683.314	8575.95
683.661	8615.72
684.009	8532.33
684.357	8603.97
684.705	8496.17
685.053	8472.67
685.4	8486.46
685.748	8460.02
686.095	8403.07
686.443	8339.12
686.79	8377.31
687.138	8396.74
687.485	8323.75
687.832	8357.42
688.18	8299.57
688.527	8336.86
688.874	8288.95
689.221	8262.96
689.568	8194.49
689.915	8243.75
690.262	8258.22
690.609	8193.13
690.956	8152.46
691.303	8126.69
691.65	8140.93
691.997	8054.15
692.344	7989.3
692.69	8016.19
693.037	8025.23
693.383	7937.09
693.73	7980.48
694.077	7902.29
694.423	7895.96
694.769	7815.06
695.116	7828.62
695.462	7836.31
695.808	7770.77
696.155	7720.6
696.501	7768.74
696.847	7720.6
697.193	7658.68
697.539	7692.13
697.885	7575.75
698.231	7565.58
698.577	7531.23
698.923	7585.01
699.269	7515.18
699.614	7429.31
699.96	7430.44
700.306	7434.96
700.651	7416.43
700.997	7385.47
701.342	7355.87
701.688	7331.91
702.033	7299.82
702.379	7288.52
702.724	7248.3
703.069	7248.75
703.415	7220.73
703.76	7226.15
704.105	7182.99
704.45	7131.69
704.795	7121.3
705.14	7089.88
705.485	7083.1
705.83	7062.09
706.175	7090.11
706.52	7048.76
706.865	6933.5
707.209	6970.11
707.554	6935.09
707.899	6926.72
708.243	6919.04
708.588	6865.26
708.932	6835.2
709.277	6799.04
709.621	6837.69
709.966	6788.65
710.31	6805.37
710.654	6710.46
710.998	6697.35
711.342	6742.1
711.687	6707.97
712.031	6652.61
712.375	6633.63
712.719	6708.65
713.063	6627.98
713.407	6694.64
713.75	6609.44
714.094	6656.22
714.438	6588.2
714.782	6588.65
715.125	6639.27
715.469	6566.28
715.812	6571.25
716.156	6507.75
716.499	6555.21
716.843	6515.89
717.186	6480.41
717.53	6484.02
717.873	6458.71
718.216	6505.94
718.559	6478.6
718.902	6385.95
719.246	6449.9
719.589	6443.35
719.932	6424.82
720.275	6392.5
720.617	6378.94
720.96	6342.11
721.303	6374.42
721.646	6369
721.989	6373.97
722.331	6459.62
722.674	6394.31
723.016	6409.68
723.359	6374.42
723.701	6424.82
724.044	6333.29
724.386	6349.56
724.729	6334.65
725.071	6350.92
725.413	6326.06
725.755	6331.03
726.097	6266.63
726.439	6268.89
726.782	6272.05
727.124	6361.99
727.465	6245.39
727.807	6293.29
728.149	6270.02
728.491	6290.13
728.833	6263.47
729.175	6266.18
729.516	6293.52
729.858	6245.61
730.199	6281.54
730.541	6283.35
730.882	6256.91
731.224	6258.27
731.565	6238.61
731.906	6213.75
732.248	6283.13
732.589	6239.96
732.93	6263.47
733.271	6217.36
733.612	6245.61
733.953	6303.46
734.294	6193.18
734.635	6253.52
734.976	6298.72
735.317	6240.42
735.658	6235.67
735.999	6251.71
736.339	6279.28
736.68	6303.92
737.021	6271.37
737.361	6218.95
737.702	6296.01
738.042	6242.45
738.383	6255.78
738.723	6291.26
739.063	6287.42
739.404	6361.32
739.744	6318.15
740.084	6333.52
740.424	6338.04
740.764	6372.16
741.104	6375.78
741.444	6319.28
741.784	6353.63
742.124	6411.48
742.464	6455.32
742.804	6430.01
743.143	6420.07
743.483	6483.12
743.823	6444.25
744.162	6448.32
744.502	6528.54
744.841	6514.08
745.181	6579.16
745.52	6597.92
745.86	6631.14
746.199	6636.56
746.538	6656.45
746.877	6688.09
747.216	6779.84
747.556	6757.46
747.895	6783
748.234	6891.47
748.573	6919.04
748.911	6991.81
749.25	7030.45
749.589	7073.84
749.928	7124.91
750.267	7198.13
750.605	7254.63
750.944	7299.14
751.283	7370.55
751.621	7439.25
751.96	7484
752.298	7555.41
752.636	7691.45
752.975	7736.19
753.313	7813.71
753.651	7958.34
753.989	8051.21
754.327	8149.52
754.666	8194.26
755.004	8385.67
755.342	8430.64
755.679	8611.43
756.017	8668.6
756.355	8822.49
756.693	8938.42
757.031	9129.6
757.368	9237.17
757.706	9318.3
758.044	9483.27
758.381	9607.78
758.719	9773.66
759.056	9897.49
759.394	10051.39
759.731	10106.98
760.068	10348.33
760.405	10512.39
760.743	10504.03
761.08	10821.76
761.417	11001.42
761.754	11165.94
762.091	11304.24
762.428	11439.83
762.765	11604.79
763.102	11728.18
763.438	11913.49
763.775	11996.65
764.112	12249.07
764.449	12424.21
764.785	12522.06
765.122	12683.41
765.458	12828.94
765.795	12995.49
766.131	13173.34
766.467	13297.63
766.804	13420.57
767.14	13531.75
767.476	13726.09
767.812	13799.99
768.148	14052.86
768.485	14070.49
768.821	14175.12
769.157	14372.4
769.492	14521.55
769.828	14710.7
770.164	14654.21
770.5	14856.69
770.836	15001.31
771.171	15108.43
771.507	15181.87
771.842	15218.26
772.178	15362.66
772.513	15468.19
772.849	15674.97
773.184	15625.25
773.519	15804.01
773.855	15844.68
774.19	15796.55
774.525	15962.19
774.86	15980.72
775.195	16210.1
775.53	16235.18
775.865	16308.4
776.2	16241.51
776.535	16252.81
776.87	16354.95
777.205	16402.41
777.539	16387.27
777.874	16520.14
778.209	16485.12
778.543	16552.91
778.878	16559.01
779.212	16645.57
779.547	16575.74
779.881	16756.52
780.215	16673.81
780.55	16794.71
780.884	16731.44
781.218	16757.43
781.552	16809.18
781.886	16789.74
782.22	16805.56
782.554	16839.46
782.888	16781.61
783.222	16697.99
783.556	16723.98
783.889	16763.98
784.223	16701.16
784.557	16672.68
784.89	16824.32
785.224	16839.68
785.557	16726.47
785.891	16764.66
786.224	16713.81
786.558	16777.09
786.891	16698.67
787.224	16758.1
787.557	16695.96
787.891	16632.23
788.224	16662.97
788.557	16717.88
788.89	16688.05
789.223	16759.46
789.556	16643.53
789.888	16674.94
790.221	16583.65
790.554	16486.93
790.887	16543.65
791.219	16415.06
791.552	16392.46
791.884	16404.44
792.217	16461.84
792.549	16375.06
792.882	16273.15
793.214	16280.83
793.546	16394.95
793.879	16337.78
794.211	16248.29
794.543	16291.68
794.875	16268.85
795.207	16272.24
795.539	16189.76
795.871	16162.64
796.203	16006.71
796.535	16006.71
796.867	16033.83
797.198	15964.45
797.53	15989.31
797.862	15880.61
798.193	16000.84
798.525	15884.91
798.856	15943.21
799.188	15747.51
799.519	15684.46
799.85	15614.41
800.182	15668.19
800.513	15648.76
800.844	15530.11
801.175	15671.58
801.506	15598.81
801.837	15454.41
802.168	15510
802.499	15423
802.83	15391.13
803.161	15341.64
803.491	15401.08
803.822	15421.19
804.153	15319.95
804.483	15254.64
804.814	15194.08
805.145	15098.49
805.475	15208.99
805.805	15133.29
806.136	15107.75
806.466	15091.03
806.796	15069.34
807.126	14963.12
807.457	14972.16
807.787	14930.36
808.117	14924.71
808.447	14905.27
808.777	14972.61
809.107	14743.02
809.436	14708.21
809.766	14868.89
810.096	14794.31
810.426	14628.22
810.755	14717.25
811.085	14714.99
811.414	14685.84
811.744	14543.93
812.073	14536.92
812.403	14621.21
812.732	14542.57
813.061	14461.89
813.39	14449.24
813.719	14354.55
814.049	14427.54
814.378	14393.42
814.707	14373.08
815.036	14327.21
815.365	14261.9
815.693	14246.08
816.022	14225.52
816.351	14184.16
816.68	14137.61
817.008	14235.91
817.337	14014.9
817.665	13936.48
817.994	13986.43
818.322	14028.46
818.651	13965.64
818.979	13942.13
819.307	13987.56
819.636	13992.98
819.964	13871.85
820.292	13908.46
820.62	13938.07
820.948	13917.05
821.276	13911.17
821.604	13908.24
821.932	13857.84
822.259	13953.21
822.587	13841.57
822.915	13841.57
823.243	13859.65
823.57	13786.43
823.898	13826.66
824.225	13838.41
824.553	13812.87
824.88	13777.84
825.207	13832.53
825.535	13765.64
825.862	13865.75
826.189	13818.07
826.516	13931.29
826.843	13913.66
827.17	13901
827.497	13848.8
827.824	13910.5
828.151	13943.26
828.478	13900.78
828.805	13948.23
829.131	13901.68
829.458	13912.08
829.785	13828.69
830.111	13851.97
830.438	13866.88
830.764	13873.21
831.09	13942.36
831.417	13750.27
831.743	13881.57
832.069	13910.72
832.395	13835.24
832.722	13914.11
833.048	13791.63
833.374	13921.12
833.7	13736.49
834.026	13805.41
834.351	13794.34
834.677	13766.77
835.003	13824.4
835.329	13780.78
835.654	13804.51
835.98	13733.78
836.306	13803.61
836.631	13719.99
836.956	13726.09
837.282	13742.59
837.607	13646.32
837.932	13593.67
838.258	13655.36
838.583	13693.33
838.908	13611.75
839.233	13527
839.558	13468.7
839.883	13498.08
840.208	13472.54
840.533	13408.59
840.858	13458.76
841.182	13446.78
841.507	13496.04
841.832	13357.52
842.156	13343.96
842.481	13306.9
842.805	13280
843.13	13251.53
843.454	13331.53
843.778	13180.35
844.103	13227.35
844.427	13109.39
844.751	13169.05
845.075	13075.49
845.399	13117.97
845.723	12940.35
846.047	13075.49
846.371	12943.97
846.695	12886.12
847.019	12787.81
847.343	12791.43
847.666	12728.83
847.99	12636.18
848.313	12578.33
848.637	12518.44
848.96	12609.97
849.284	12495.39
849.607	12391.44
849.931	12304.66
850.254	12311.89
850.577	12298.79
850.9	12080.49
851.223	12150.54
851.546	12117.55
851.869	12000.72
852.192	12048.62
852.515	11967.72
852.838	12023.77
853.161	11885.46
853.483	11839.82
853.806	11772.47
854.129	11801.62
854.451	11700.38
854.774	11663.55
855.096	11632.59
855.419	11629.43
855.741	11629.88
856.063	11560.05
856.385	11547.62
856.708	11483.22
857.03	11475.76
857.352	11446.61
857.674	11352.6
857.996	11342.2
858.318	11308.3
858.64	11285.25
858.961	11224.01
859.283	11279.6
859.605	11179.27
859.926	11270.34
860.248	11099.5
860.57	11055.66
860.891	11071.93
861.212	11015.66
861.534	11027.41
861.855	10958.48
862.176	10970.23
862.498	10925.94
862.819	10955.55
863.14	10900.41
863.461	10879.39
863.782	10834.42
864.103	10865.6
864.424	10817.24
864.745	10834.19
865.065	10757.58
865.386	10744.7
865.707	10685.95
866.027	10709.68
866.348	10671.26
866.668	10691.15
866.989	10671.71
867.309	10581.32
867.63	10695.67
867.95	10633.52
868.27	10627.42
868.59	10547.87
868.91	10561.66
869.23	10523.47
869.55	10501.32
869.87	10554.2
870.19	10436.69
870.51	10538.16
870.83	10532.73
871.15	10418.38
871.469	10466.52
871.789	10405.96
872.109	10396.69
872.428	10314.66
872.748	10350.59
873.067	10330.25
873.386	10304.26
873.706	10314.21
874.025	10291.38
874.344	10267.43
874.663	10267.43
874.982	10251.83
875.301	10263.81
875.62	10148.56
875.939	10235.79
876.258	10230.37
876.577	10175.68
876.896	10142.46
877.214	10083.93
877.533	10130.71
877.852	10070.14
878.17	10080.54
878.489	10030.37
878.807	10060.2
879.125	10043.7
879.444	10018.39
879.762	10028.56
880.08	9950.6
880.398	9954.22
880.716	9999.19
881.034	9916.7
881.352	9881.68
881.67	9894.33
881.988	9863.6
882.306	9833.99
882.624	9805.97
882.941	9813.88
883.259	9729.59
883.577	9741.34
883.894	9742.02
884.212	9669.03
884.529	9742.47
884.846	9701.11
885.164	9614.56
885.481	9595.81
885.798	9625.18
886.115	9541.8
886.432	9501.12
886.75	9521.68
887.067	9566.43
887.383	9458.86
887.7	9490.95
888.017	9473.32
888.334	9421.12
888.651	9402.37
888.967	9419.77
889.284	9350.16
889.6	9331.18
889.917	9257.28
890.233	9266.32
890.55	9255.48
890.866	9243.73
891.182	9219.32
891.498	9168.93
891.815	9168.02
892.131	9110.62
892.447	9062.71
892.763	9033.56
893.079	9024.97
893.395	8953.34
893.71	8964.86
894.026	8943.39
894.342	8958.31
894.657	8850.06
894.973	8856.84
895.289	8818.2
895.604	8798.99
895.92	8741.82
896.235	8666.11
896.55	8746.34
896.865	8747.24
897.181	8672.22
897.496	8710.18
897.811	8531.88
898.126	8571.2
898.441	8511.32
898.756	8492.33
899.071	8444.88
899.386	8513.8
899.7	8384.31
900.015	8367.59
900.33	8300.47
900.644	8301.38
900.959	8289.4
901.273	8326.24
901.588	8245.79
901.902	8194.04
902.216	8128.27
902.531	8090.76
902.845	8092.8
903.159	8076.52
903.473	8054.38
903.787	7982.74
904.101	7955.4
904.415	7940.26
904.729	7939.13
905.042	7865.01
905.356	7858
905.67	7874.04
905.984	7755.18
906.297	7778.68
906.611	7772.13
906.924	7710.21
907.237	7729.19
907.551	7696.42
907.864	7603.54
908.177	7595.41
908.491	7603.99
908.804	7536.65
909.117	7448.07
909.43	7410.55
909.743	7367.17
910.056	7436.09
910.368	7334.4
910.681	7333.49
910.994	7296.21
911.307	7271.57
911.619	7218.69
911.932	7273.61
912.244	7155.65
912.557	7157
912.869	7084.69
913.181	7019.83
913.494	7071.81
913.806	7018.93
914.118	7022.54
914.43	7022.99
914.742	6958.59
915.054	6896.22
915.366	6846.27
915.678	6919.72
915.99	6825.71
916.302	6813.96
916.613	6772.83
916.925	6746.39
917.236	6727.41
917.548	6649.22
917.859	6696.22
918.171	6636.34
918.482	6619.16
918.794	6587.52
919.105	6574.19
919.416	6505.94
919.727	6561.76
920.038	6466.62
920.349	6433.18
920.66	6425.04
920.971	6386.85
921.282	6401.31
921.593	6403.35
921.903	6330.13
922.214	6272.05
922.525	6269.34
922.835	6275.22
923.146	6192.73
923.456	6210.59
923.767	6224.82
924.077	6195.44
924.387	6105.96
924.697	6083.58
925.008	6070.7
925.318	6113.64
925.628	6054.88
925.938	6050.36
926.248	5998.84
926.558	5922.23
926.867	5947.54
927.177	5919.97
927.487	5862.8
927.796	5803.59
928.106	5837.94
928.416	5793.42
928.725	5853.31
929.034	5739.19
929.344	5752.97
929.653	5770.6
929.962	5684.27
930.271	5667.77
930.581	5655.8
930.89	5627.55
931.199	5583.94
931.508	5547.78
931.817	5589.58
932.125	5538.96
932.434	5548.23
932.743	5508.68
933.051	5457.61
933.36	5421.68
933.669	5407.67
933.977	5419.42
934.286	5369.25
934.594	5353.88
934.902	5316.82
935.21	5297.84
935.519	5314.34
935.827	5323.6
936.135	5269.82
936.443	5266.88
936.751	5199.76
937.059	5209.71
937.367	5190.05
937.674	5153.66
937.982	5160.9
938.29	5105.53
938.597	5129.94
938.905	5055.14
939.213	5052.2
939.52	5031.86
939.827	5016.49
940.135	4945.08
940.442	4956.15
940.749	5003.16
941.056	4938.75
941.363	4889.94
941.67	4851.52
941.977	4802.71
942.284	4838.19
942.591	4819.89
942.898	4795.48
943.205	4819.44
943.511	4762.49
943.818	4674.35
944.125	4683.39
944.431	4679.78
944.738	4690.63
945.044	4637.75
945.35	4616.73
945.657	4623.73
945.963	4578.09
946.269	4607.01
946.575	4548.93
946.881	4484.53
947.187	4536.73
947.493	4501.03
947.799	4495.83
948.105	4437.75
948.41	4460.8
948.716	4476.39
949.022	4388.49
949.327	4403.63
949.633	4338.54
949.938	4348.26
950.244	4326.79
950.549	4324.53
950.854	4298.32
951.16	4231.43
951.465	4307.81
951.77	4218.32
952.075	4215.38
952.38	4172.67
952.685	4194.37
952.99	4138.1
953.294	4125.89
953.599	4126.12
953.904	4101.94
954.209	4069.62
954.513	4094.93
954.818	4029.85
955.122	4004.99
955.426	3978.33
955.731	3976.52
956.035	4015.61
956.339	3947.14
956.643	3986.91
956.948	3934.94
957.252	3904.66
957.556	3935.62
957.86	3896.97
958.163	3885.67
958.467	3809.74
958.771	3835.73
959.075	3823.3
959.378	3821.95
959.682	3788.05
959.985	3752.12
960.289	3723.42
960.592	3730.2
960.896	3713.7
961.199	3724.32
961.502	3705.11
961.805	3666.47
962.108	3623.99
962.411	3643.42
962.714	3619.69
963.017	3629.86
963.32	3642.07
963.623	3590.32
963.926	3549.41
964.228	3544.67
964.531	3556.64
964.833	3496.53
965.136	3514.84
965.438	3489.53
965.741	3454.5
966.043	3453.6
966.345	3448.85
966.648	3449.75
966.95	3434.61
967.252	3414.27
967.554	3368.63
967.856	3375.86
968.158	3350.77
968.46	3326.37
968.761	3334.28
969.063	3320.04
969.365	3311
969.666	3265.13
969.968	3295.86
970.269	3243.88
970.571	3263.32
970.872	3193.94
971.174	3207.5
971.475	3229.87
971.776	3169.76
972.077	3172.25
972.378	3208.18
972.679	3164.11
972.98	3155.3
973.281	3141.51
973.582	3115.98
973.883	3089.09
974.183	3073.27
974.484	3050.89
974.785	3069.65
975.085	3046.15
975.386	3056.32
975.686	3028.75
975.986	3016.54
976.287	3015.64
976.587	2972.48
976.887	2964.79
977.187	2934.29
977.487	2957.56
977.787	2956.66
978.087	2931.12
978.387	2880.73
978.687	2867.85
978.987	2896.77
979.286	2842.76
979.586	2854.06
979.885	2836.44
980.185	2827.4
980.484	2810.22
980.784	2817.68
981.083	2769.32
981.382	2749.89
981.682	2729.09
981.981	2761.64
982.28	2728.87
982.579	2721.64
982.878	2719.6
983.177	2675.09
983.475	2700.4
983.774	2634.18
984.073	2649.55
984.372	2661.75
984.67	2617.01
984.969	2621.08
985.267	2591.47
985.566	2587.18
985.864	2580.85
986.162	2557.57
986.461	2583.34
986.759	2567.74
987.057	2540.63
987.355	2546.27
987.653	2496.11
987.951	2513.73
988.249	2472.83
988.547	2483.23
988.844	2469.44
989.142	2475.77
989.44	2437.58
989.737	2469.67
990.035	2449.33
990.332	2387.86
990.63	2380.86
990.927	2382.21
991.224	2363.45
991.521	2348.09
991.819	2380.4
992.116	2331.82
992.413	2353.96
992.71	2313.74
993.006	2308.54
993.303	2344.92
993.6	2313.06
993.897	2281.2
994.193	2261.08
994.49	2247.98
994.787	2284.59
995.083	2236.23
995.379	2221.09
995.676	2231.25
995.972	2191.26
996.268	2203.68
996.565	2210.46
996.861	2197.13
997.157	2190.13
997.453	2163.91
997.749	2137.47
998.044	2122.78
998.34	2104.03
998.636	2102.22
998.932	2082.33
999.227	2083.01
999.523	2090.69
999.818	2066.97
1000.114	2053.18
1000.409	2051.37
1000.704	2032.39
1001	2008.66
1001.295	2020.19
1001.59	2019.06
1001.885	1998.94
1002.18	1998.72
1002.475	1961.43
1002.77	1953.75
1003.065	1954.43
1003.359	1935.9
1003.654	1952.17
1003.949	1908.33
1004.243	1912.85
1004.538	1904.71
1004.832	1900.87
1005.127	1892.51
1005.421	1874.2
1005.715	1862.45
1006.009	1856.12
1006.304	1860.42
1006.598	1824.71
1006.892	1830.59
1007.186	1795.56
1007.48	1808.67
1007.773	1775.45
1008.067	1789.68
1008.361	1773.41
1008.655	1742.68
1008.948	1755.34
1009.242	1728.9
1009.535	1710.36
1009.829	1725.05
1010.122	1699.29
1010.415	1707.65
1010.708	1644.38
1011.001	1676.92
1011.295	1668.56
1011.588	1683.25
1011.881	1645.06
1012.173	1655.68
1012.466	1651.38
1012.759	1635.56
1013.052	1609.35
1013.344	1605.73
1013.637	1606.64
1013.93	1612.51
1014.222	1589.69
1014.514	1558.05
1014.807	1548.56
1015.099	1537.94
1015.391	1546.3
1015.683	1526.19
1015.976	1528.9
1016.268	1500.2
1016.56	1519.86
1016.851	1488.45
1017.143	1503.14
1017.435	1477.83
1017.727	1468.34
1018.018	1439.64
1018.31	1434.89
1018.602	1451.16
1018.893	1445.29
1019.185	1401.22
1019.476	1429.47
1019.767	1401.22
1020.058	1383.59
1020.35	1382.69
1020.641	1331.84
1020.932	1363.93
1021.223	1353.54
1021.514	1339.98
1021.804	1337.49
1022.095	1332.75
1022.386	1325.74
1022.677	1318.96
1022.967	1320.77
1023.258	1334.1
1023.548	1281.68
1023.839	1276.03
1024.129	1265.86
1024.419	1270.83
1024.709	1259.76
1025	1248
1025.29	1218.4
1025.58	1216.59
1025.87	1224.05
1026.16	1228.8
1026.449	1232.19
1026.739	1198.51
1027.029	1183.15
1027.319	1202.13
1027.608	1199.87
1027.898	1175.24
1028.187	1162.81
1028.477	1145.86
1028.766	1189.47
1029.055	1135.92
1029.344	1138.85
1029.634	1133.88
1029.923	1112.19
1030.212	1140.89
1030.501	1088.46
1030.79	1082.58
1031.078	1102.02
1031.367	1066.09
1031.656	1084.39
1031.945	1073.32
1032.233	1062.25
1032.522	1051.85
1032.81	1056.14
1033.099	1051.62
1033.387	1041.46
1033.675	1006.88
1033.963	1026.99
1034.251	1039.87
1034.54	1010.72
1034.828	1000.1
1035.116	975.69
1035.403	1018.18
1035.691	983.38
1035.979	985.86
1036.267	983.38
1036.554	961.68
1036.842	958.52
1037.129	965.3
1037.417	936.6
1037.704	930.5
1037.992	942.48
1038.279	948.12
1038.566	922.36
1038.853	922.36
1039.14	922.36
