Data from hue_260_FLMS001491_00063.txt Node
Date: Tue Feb 07 15:59:23 GMT 2017
User: dcchb
Spectrometer: FLMS00149
Trigger mode: 0
Integration Time (sec): 2.000000E-2
Scans to average: 10
Electric dark correction enabled: true
Nonlinearity correction enabled: false
Boxcar width: 0
XAxis mode: Wavelengths
Number of Pixels in Spectrum: 2048
>>>>>Begin Spectral Data<<<<<
341.393	-33.02
341.776	-33.02
342.16	-33.02
342.543	-56.3
342.927	-95.62
343.31	-73.47
343.693	-70.76
344.077	-62.63
344.46	-42.74
344.843	-52.68
345.226	-46.35
345.61	-37.54
345.993	-13.59
346.376	-10.2
346.759	13.53
347.142	36.35
347.525	48.56
347.908	59.63
348.291	48.78
348.674	89.46
349.057	113.64
349.44	112.06
349.823	133.98
350.206	167.88
350.588	184.83
350.971	197.48
351.354	204.03
351.737	224.37
352.119	222.11
352.502	235.67
352.884	258.72
353.267	259.63
353.65	272.28
354.032	287.87
354.414	278.38
354.797	298.04
355.179	304.37
355.562	326.29
355.944	314.77
356.326	319.74
356.709	320.42
357.091	308.21
357.473	314.09
357.855	310.7
358.238	321.77
358.62	323.35
359.002	321.09
359.384	329
359.766	331.49
360.148	327.65
360.53	310.02
360.912	317.03
361.294	310.7
361.676	317.03
362.057	329.68
362.439	311.83
362.821	319.96
363.203	304.82
363.584	302.79
363.966	307.99
364.348	316.57
364.729	321.55
365.111	297.59
365.493	299.62
365.874	294.65
366.256	301.88
366.637	305.27
367.019	293.3
367.4	312.05
367.781	306.63
368.163	293.52
368.544	296.91
368.925	289.91
369.306	307.08
369.688	288.78
370.069	306.86
370.45	295.78
370.831	313.18
371.212	294.2
371.593	289.46
371.974	310.7
372.355	314.09
372.736	291.26
373.117	297.37
373.498	307.53
373.879	288.33
374.26	316.8
374.641	294.65
375.021	313.64
375.402	307.08
375.783	300.98
376.163	309.34
376.544	305.5
376.925	337.14
377.305	296.24
377.686	313.41
378.066	319.74
378.447	320.42
378.827	290.36
379.208	326.97
379.588	317.93
379.968	304.82
380.349	339.85
380.729	326.97
381.109	318.38
381.489	344.37
381.87	304.14
382.25	331.26
382.63	327.87
383.01	330.81
383.39	320.64
383.77	351.6
384.15	336.01
384.53	324.48
384.91	346.18
385.29	348.66
385.67	334.65
386.049	346.18
386.429	329.45
386.809	351.6
387.189	351.83
387.568	341.43
387.948	337.59
388.328	337.36
388.707	359.28
389.087	347.76
389.466	347.76
389.846	356.35
390.225	343.01
390.605	388.66
390.984	347.08
391.363	358.15
391.743	358.38
392.122	355.67
392.501	394.99
392.881	372.39
393.26	348.66
393.639	349.57
394.018	359.74
394.397	387.08
394.776	387.76
395.155	377.36
395.534	385.95
395.913	372.39
396.292	384.37
396.671	369
397.05	380.53
397.429	371.49
397.808	399.28
398.186	380.98
398.565	400.41
398.944	414.42
399.323	420.3
399.701	399.51
400.08	383.46
400.458	387.08
400.837	397.7
401.215	396.57
401.594	405.84
401.972	416.68
402.351	434.99
402.729	418.72
403.107	425.72
403.486	407.42
403.864	423.46
404.242	421.43
404.62	418.94
404.999	429.79
405.377	425.95
405.755	443.35
406.133	453.52
406.511	438.6
406.889	459.85
407.267	459.62
407.645	453.97
408.023	462.56
408.401	478.15
408.779	470.92
409.156	495.1
409.534	491.03
409.912	484.03
410.29	497.36
410.667	493.74
411.045	487.64
411.422	495.55
411.8	513.63
412.178	536.45
412.555	545.49
412.933	521.09
413.31	535.78
413.687	547.08
414.065	556.12
414.442	565.83
414.819	588.2
415.197	581.2
415.574	573.52
415.951	589.56
416.328	616.68
416.705	576.91
417.082	597.92
417.46	617.58
417.837	611.93
418.214	644.7
418.591	638.37
418.967	620.75
419.344	660.52
419.721	667.75
420.098	674.08
420.475	681.31
420.852	691.93
421.228	683.34
421.605	706.85
421.982	703.23
422.358	706.39
422.735	712.27
423.111	726.51
423.488	717.69
423.864	771.25
424.241	766.73
424.617	780.97
424.994	789.1
425.37	815.77
425.746	800.18
426.123	826.62
426.499	836.56
426.875	827.75
427.251	872.27
427.627	845.83
428.003	880.63
428.379	873.85
428.756	897.35
429.132	871.36
429.507	914.3
429.883	917.46
430.259	924.47
430.635	928.08
431.011	948.42
431.387	959.95
431.763	979.16
432.138	992.49
432.514	1016.22
432.89	1028.87
433.265	1041.75
433.641	1043.11
434.016	1046.27
434.392	1065.48
434.767	1102.09
435.143	1098.02
435.518	1124.24
435.894	1133.5
436.269	1131.92
436.644	1177.79
437.02	1190.22
437.395	1197.68
437.77	1227.96
438.145	1234.74
438.52	1295.76
438.895	1274.06
439.271	1301.18
439.646	1343.67
440.021	1313.16
440.395	1357.68
440.77	1320.61
441.145	1353.83
441.52	1388.18
441.895	1389.77
442.27	1381.18
442.645	1398.81
443.019	1458.46
443.394	1427.73
443.769	1451.01
444.143	1495.07
444.518	1465.02
444.892	1488.75
445.267	1488.29
445.641	1501.85
446.016	1531
446.39	1484.68
446.764	1525.13
447.139	1540.04
447.513	1595.64
447.887	1545.92
448.262	1556.09
448.636	1573.94
449.01	1625.92
449.384	1613.26
449.758	1627.5
450.132	1633.6
450.506	1646.48
450.88	1640.15
451.254	1668.85
451.628	1663.88
452.002	1698.01
452.376	1699.14
452.75	1726.93
453.123	1768.51
453.497	1787.72
453.871	1777.55
454.244	1770.77
454.618	1814.84
454.992	1858.91
455.365	1816.2
455.739	1873.37
456.112	1900.71
456.486	1892.8
456.859	1935.06
457.232	1934.61
457.606	1932.12
457.979	1972.35
458.352	2020.48
458.725	2018.45
459.099	2030.88
459.472	2074.72
459.845	2106.13
460.218	2132.57
460.591	2132.57
460.964	2132.8
461.337	2165.11
461.71	2217.54
462.083	2208.5
462.456	2256.41
462.829	2261.38
463.201	2250.53
463.574	2267.93
463.947	2330.76
464.32	2361.04
464.692	2357.42
465.065	2368.72
465.438	2418.67
465.81	2448.95
466.183	2467.7
466.555	2531.2
466.928	2535.72
467.3	2535.95
467.672	2588.6
468.045	2626.57
468.417	2634.25
468.789	2608.04
469.161	2674.93
469.534	2692.56
469.906	2774.36
470.278	2759.22
470.65	2825.89
471.022	2881.03
471.394	2920.8
471.766	2946.79
472.138	2921.02
472.51	3013.68
472.882	3044.19
473.253	3094.81
473.625	3119.89
473.997	3187.68
474.369	3224.97
474.74	3211.41
475.112	3228.59
475.484	3299.09
475.855	3385.42
476.227	3401.24
476.598	3439.88
476.97	3504.29
477.341	3571.18
477.713	3611.85
478.084	3586.54
478.455	3680.33
478.827	3747.9
479.198	3793.54
479.569	3793.32
479.94	3882.36
480.311	3946.08
480.682	4010.26
481.053	4076.7
481.424	4123.25
481.795	4170.03
482.166	4215
482.537	4245.06
482.908	4344.26
483.279	4367.31
483.65	4437.14
484.021	4548.78
484.391	4589.91
484.762	4559.4
485.133	4641.43
485.503	4645.95
485.874	4790.81
486.244	4781.99
486.615	4905.61
486.985	4942.44
487.356	5015.66
487.726	5018.37
488.097	5116.67
488.467	5087.75
488.837	5216.78
489.207	5266.05
489.578	5351.02
489.948	5374.75
490.318	5434.18
490.688	5431.24
491.058	5527.51
491.428	5615.42
491.798	5615.42
492.168	5684.34
492.538	5718.69
492.908	5754.85
493.278	5869.87
493.648	5845.47
494.017	5917.78
494.387	5950.78
494.757	5995.29
495.126	6055.86
495.496	6085.46
495.866	6088.85
496.235	6165.23
496.605	6162.07
496.974	6131.11
497.344	6278.68
497.713	6282.74
498.082	6326.59
498.452	6358.45
498.821	6363.65
499.19	6414.94
499.559	6453.81
499.928	6462.17
500.298	6497.2
500.667	6591.44
501.036	6534.49
501.405	6567.48
501.774	6580.14
502.143	6658.33
502.512	6593.92
502.88	6705.78
503.249	6699.46
503.618	6813.13
503.987	6770.64
504.356	6767.48
504.724	6798.44
505.093	6854.93
505.462	6834.82
505.83	6859.23
506.199	6868.04
506.567	6961.6
506.936	6924.76
507.304	6995.04
507.672	6974.03
508.041	7016.96
508.409	7115.04
508.777	7161.37
509.145	7148.03
509.514	7093.12
509.882	7161.14
510.25	7172.89
510.618	7191.65
510.986	7168.37
511.354	7225.32
511.722	7255.15
512.09	7267.13
512.458	7295.15
512.826	7371.53
513.193	7347.58
513.561	7340.12
513.929	7421.25
514.297	7487.01
514.664	7455.14
515.032	7458.08
515.4	7520.45
515.767	7468.25
516.135	7555.25
516.502	7482.71
516.869	7607
517.237	7561.58
517.604	7527.91
517.972	7606.1
518.339	7602.26
518.706	7561.13
519.073	7616.27
519.44	7599.55
519.808	7676.15
520.175	7665.31
520.542	7754.8
520.909	7721.35
521.276	7759.99
521.643	7771.97
522.009	7774
522.376	7771.52
522.743	7873.66
523.11	7830.27
523.477	7854.45
523.843	7936.26
524.21	8005.41
524.577	7974
524.943	7963.38
525.31	7972.87
525.676	8029.37
526.043	8038.86
526.409	8082.7
526.776	8113.66
527.142	8118.63
527.508	8172.19
527.874	8127.67
528.241	8187.33
528.607	8171.96
528.973	8202.02
529.339	8174.67
529.705	8211.51
530.071	8182.81
530.437	8216.25
530.803	8239.98
531.169	8293.99
531.535	8251.51
531.901	8265.97
532.267	8216.25
532.632	8282.69
532.998	8224.16
533.364	8284.73
533.73	8277.72
534.095	8310.49
534.461	8304.61
534.826	8315.23
535.192	8264.16
535.557	8375.57
535.923	8376.93
536.288	8272.52
536.653	8289.92
537.019	8238.4
537.384	8319.98
537.749	8210.83
538.114	8225.74
538.479	8295.57
538.845	8324.5
539.21	8256.7
539.575	8294.67
539.94	8226.65
540.305	8261.68
540.67	8259.87
541.034	8280.88
541.399	8241.11
541.764	8270.71
542.129	8267.1
542.494	8254.44
542.858	8223.26
543.223	8187.78
543.587	8258.06
543.952	8201.79
544.316	8210.83
544.681	8163.37
545.045	8239.3
545.41	8170.38
545.774	8171.73
546.138	8092.64
546.503	8156.82
546.867	8118.18
547.231	8209.93
547.595	8189.36
547.959	8124.96
548.324	8131.96
548.688	8112.53
549.052	8089.93
549.416	8143.03
549.779	8115.24
550.143	8141.68
550.507	8173.77
550.871	8167.21
551.235	8077.95
551.599	8121.11
551.962	8151.62
552.326	8129.7
552.689	8146.65
553.053	8116.59
553.417	8156.59
553.78	8113.66
554.143	8115.92
554.507	8093.09
554.87	8102.36
555.234	8145.29
555.597	8051.96
555.96	8094.9
556.323	8138.06
556.686	8147.78
557.05	8087.89
557.413	8117.27
557.776	8133.77
558.139	8151.62
558.502	8132.87
558.865	8136.48
559.228	8186.65
559.59	8232.52
559.953	8221.68
560.316	8240.66
560.679	8198.17
561.041	8253.31
561.404	8266.87
561.767	8234.56
562.129	8234.78
562.492	8322.92
562.854	8282.92
563.217	8271.62
563.579	8383.25
563.941	8311.62
564.304	8352.52
564.666	8394.1
565.028	8399.75
565.39	8447.89
565.753	8424.38
566.115	8460.54
566.477	8464.38
566.839	8489.47
567.201	8468.45
567.563	8495.57
567.925	8590.93
568.287	8570.59
568.648	8549.13
569.01	8610.59
569.372	8679.29
569.734	8670.93
570.095	8657.6
570.457	8656.24
570.819	8637.26
571.18	8660.08
571.542	8714.32
571.903	8813.75
572.265	8821.66
572.626	8787.76
572.987	8789.12
573.349	8775.11
573.71	8842.45
574.071	8839.06
574.432	8865.73
574.794	8958.61
575.155	8950.24
575.516	8802.68
575.877	8948.89
576.238	8957.7
576.599	9009.9
576.96	8980.53
577.32	9011.26
577.681	9030.69
578.042	9109.56
578.403	9036.8
578.763	9008.55
579.124	9101.65
579.485	9091.26
579.845	9177.58
580.206	9158.6
580.566	9177.58
580.927	9195.66
581.287	9207.64
581.648	9211.71
582.008	9302.33
582.368	9293.29
582.728	9269.11
583.089	9311.59
583.449	9312.72
583.809	9321.31
584.169	9337.58
584.529	9310.91
584.889	9402.89
585.249	9410.35
585.609	9392.04
585.969	9460.06
586.329	9359.73
586.688	9400.63
587.048	9436.56
587.408	9419.84
587.768	9477.91
588.127	9459.38
588.487	9463.45
588.846	9584.13
589.206	9482.66
589.565	9507.52
589.925	9589.55
590.284	9531.47
590.643	9500.51
591.003	9631.81
591.362	9613.5
591.721	9630.9
592.08	9625.03
592.44	9632.49
592.799	9668.42
593.158	9670
593.517	9667.97
593.876	9717.68
594.235	9661.86
594.593	9618.02
594.952	9763.56
595.311	9682.66
595.67	9702.99
596.029	9757.46
596.387	9714.97
596.746	9787.51
597.104	9737.57
597.463	9775.99
597.822	9747.74
598.18	9763.56
598.538	9751.58
598.897	9804.46
599.255	9681.07
599.613	9837.45
599.972	9783.9
600.33	9854.4
600.688	9792.93
601.046	9808.98
601.404	9876.32
601.762	9851.69
602.12	9899.15
602.478	9907.06
602.836	9865.02
603.194	9832.71
603.552	9909.54
603.91	9852.82
604.268	9902.08
604.625	9866.15
604.983	9848.07
605.341	9859.83
605.698	9961.52
606.056	9923.33
606.413	9881.97
606.771	9944.12
607.128	10015.08
607.485	9976.43
607.843	9934.63
608.2	9923.78
608.557	9988.86
608.914	9965.36
609.272	9935.98
609.629	9986.38
609.986	10011.46
610.343	10035.19
610.7	10080.61
611.057	10053.72
611.414	10067.5
611.771	10046.49
612.127	10067.96
612.484	10092.14
612.841	10106.37
613.198	10094.17
613.554	10090.78
613.911	10179.59
614.267	10156.77
614.624	10137.56
614.98	10106.15
615.337	10166.26
615.693	10189.76
616.05	10169.87
616.406	10177.78
616.762	10152.7
617.118	10126.03
617.475	10117.67
617.831	10185.24
618.187	10235.63
618.543	10225.69
618.899	10251.91
619.255	10271.79
619.611	10171.46
619.967	10247.84
620.323	10249.65
620.678	10250.1
621.034	10197.44
621.39	10240.38
621.746	10260.72
622.101	10345.46
622.457	10206.26
622.812	10232.47
623.168	10253.49
623.523	10262.3
623.879	10292.36
624.234	10296.65
624.589	10323.99
624.945	10356.54
625.3	10318.12
625.655	10287.38
626.01	10253.71
626.365	10257.1
626.72	10262.75
627.075	10259.36
627.43	10225.47
627.785	10269.31
628.14	10219.14
628.495	10216.88
628.85	10167.39
629.205	10232.92
629.559	10270.89
629.914	10174.17
630.269	10208.06
630.623	10185.92
630.978	10172.81
631.332	10215.07
631.687	10193.6
632.041	10120.38
632.396	10118.12
632.75	10105.24
633.104	10147.95
633.459	10098.01
633.813	10060.72
634.167	10030.67
634.521	10047.62
634.875	10124
635.229	10052.81
635.583	9988.41
635.937	10013.95
636.291	9971.46
636.645	9998.8
636.999	9986.15
637.352	9961.74
637.706	9952.48
638.06	9969.2
638.413	9901.86
638.767	9930.78
639.121	9920.16
639.474	9840.39
639.828	9919.03
640.181	9918.81
640.534	9916.55
640.888	9843.1
641.241	9800.84
641.594	9863.22
641.947	9820.28
642.301	9806.27
642.654	9786.61
643.007	9870.67
643.36	9768.98
643.713	9758.81
644.066	9834.52
644.419	9741.86
644.771	9687.4
645.124	9667.06
645.477	9665.71
645.83	9505.71
646.182	9519.72
646.535	9481.98
646.888	9476.33
647.24	9427.75
647.593	9456.67
647.945	9424.58
648.298	9370.12
648.65	9421.42
649.002	9434.07
649.355	9479.72
649.707	9389.56
650.059	9473.39
650.411	9518.37
650.763	9541.87
651.115	9671.13
651.467	9667.51
651.819	9696.21
652.171	9613.05
652.523	9584.58
652.875	9579.38
653.227	9489.44
653.578	9656.44
653.93	9635.65
654.282	9592.49
654.633	9545.26
654.985	9618.7
655.337	9613.96
655.688	9641.3
656.039	9632.71
656.391	9563.34
656.742	9622.09
657.094	9590.68
657.445	9654.41
657.796	9614.41
658.147	9561.3
658.498	9601.75
658.849	9586.61
659.2	9544.35
659.551	9551.81
659.902	9621.87
660.253	9541.87
660.604	9626.39
660.955	9556.78
661.306	9590
661.656	9553.17
662.007	9628.42
662.358	9646.95
662.708	9591.58
663.059	9620.51
663.409	9555.43
663.76	9608.98
664.11	9622.09
664.461	9664.8
664.811	9694.86
665.161	9626.39
665.511	9650.57
665.862	9636.55
666.212	9651.24
666.562	9623.22
666.912	9637.68
667.262	9615.09
667.612	9575.09
667.962	9651.24
668.312	9610.79
668.662	9618.02
669.011	9627.74
669.361	9571.47
669.711	9563.11
670.06	9604.01
670.41	9563.79
670.76	9560.4
671.109	9566.27
671.459	9529.66
671.808	9565.37
672.157	9552.49
672.507	9551.13
672.856	9480.85
673.205	9512.04
673.554	9531.25
673.904	9447.18
674.253	9578.02
674.602	9512.49
674.951	9357.69
675.3	9293.74
675.649	9500.96
675.998	9467.29
676.346	9454.41
676.695	9486.5
677.044	9408.76
677.393	9413.96
677.741	9440.18
678.09	9389.33
678.438	9387.97
678.787	9313.17
679.135	9408.99
679.484	9275.89
679.832	9320.86
680.181	9249.45
680.529	9347.75
680.877	9325.38
681.225	9269.11
681.573	9366.51
681.922	9267.3
682.27	9233.18
682.618	9250.12
682.966	9184.59
683.314	9302.33
683.661	9191.14
684.009	9068.21
684.357	9114.08
684.705	9094.87
685.053	9087.19
685.4	9059.62
685.748	9106.4
686.095	8998.15
686.443	8956.35
686.79	8969.23
687.138	8956.35
687.485	8915.22
687.832	8929.68
688.18	8978.04
688.527	8883.58
688.874	8825.5
689.221	8794.77
689.568	8849
689.915	8832.73
690.262	8727.43
690.609	8714.54
690.956	8681.55
691.303	8707.54
691.65	8629.8
691.997	8688.56
692.344	8569.01
692.69	8555.9
693.037	8603.59
693.383	8564.72
693.73	8561.78
694.077	8454.44
694.423	8463.93
694.769	8485.62
695.116	8429.81
695.462	8356.81
695.808	8357.04
696.155	8356.14
696.501	8339.19
696.847	8245.63
697.193	8262.35
697.539	8225.07
697.885	8194.78
698.231	8114.56
698.577	8174.22
698.923	8157.72
699.269	8092.87
699.614	8005.64
699.96	8016.03
700.306	8003.38
700.651	7961.12
700.997	7916.15
701.342	7938.97
701.688	7963.83
702.033	7872.99
702.379	7835.7
702.724	7841.57
703.069	7858.52
703.415	7759.32
703.76	7778.07
704.105	7737.4
704.45	7702.37
704.795	7625.99
705.14	7603.84
705.485	7623.73
705.83	7567.91
706.175	7580.79
706.52	7581.92
706.865	7551.64
707.209	7534.01
707.554	7473.22
707.899	7505.99
708.243	7495.37
708.588	7456.27
708.932	7362.04
709.277	7394.35
709.621	7386.9
709.966	7343.96
710.31	7309.61
710.654	7242.49
710.998	7240.69
711.342	7328.14
711.687	7261.02
712.031	7235.71
712.375	7162.72
712.719	7169.05
713.063	7232.1
713.407	7216.96
713.75	7154.36
714.094	7128.82
714.438	7134.02
714.782	7125.66
715.125	7091.31
715.469	7109.16
715.812	7035.72
716.156	7064.19
716.499	7080.01
716.843	7062.84
717.186	6995.04
717.53	7044.98
717.873	7017.64
718.216	6974.7
718.559	6997.3
718.902	6910.75
719.246	6910.3
719.589	6963.18
719.932	6883.63
720.275	6889.73
720.617	6919.34
720.96	6928.83
721.303	6887.02
721.646	6872.56
721.989	6844.54
722.331	6834.14
722.674	6800.02
723.016	6875.5
723.359	6875.05
723.701	6837.53
724.044	6859.9
724.386	6757.99
724.729	6779.68
725.071	6734.26
725.413	6798.21
725.755	6767.93
726.097	6759.12
726.439	6726.57
726.782	6666.92
727.124	6774.48
727.465	6765.22
727.807	6722.51
728.149	6729.51
728.491	6713.69
728.833	6729.51
729.175	6702.17
729.516	6693.13
729.858	6714.6
730.199	6763.18
730.541	6642.96
730.882	6670.53
731.224	6674.82
731.565	6713.92
731.906	6696.07
732.248	6743.52
732.589	6584.88
732.93	6661.72
733.271	6696.97
733.612	6687.03
733.953	6694.48
734.294	6659.68
734.635	6654.03
734.976	6666.01
735.317	6669.85
735.658	6678.21
735.999	6635.05
736.339	6633.92
736.68	6720.25
737.021	6657.42
737.361	6659.46
737.702	6692
738.042	6636.41
738.383	6661.04
738.723	6677.76
739.063	6729.06
739.404	6696.74
739.744	6715.05
740.084	6698.1
740.424	6708.27
740.764	6762.05
741.104	6799.57
741.444	6767.7
741.784	6722.51
742.124	6831.66
742.464	6730.42
742.804	6761.38
743.143	6783.52
743.483	6848.15
743.823	6783.97
744.162	6831.2
744.502	6835.05
744.841	6814.26
745.181	6836.4
745.52	6844.54
745.86	6897.87
746.199	6984.65
746.538	6974.03
746.877	7005.66
747.216	7068.71
747.556	6998.21
747.895	7033.46
748.234	7130.41
748.573	7120.69
748.911	7190.74
749.25	7244.53
749.589	7232.55
749.928	7305.54
750.267	7370.4
750.605	7430.28
750.944	7526.1
751.283	7547.57
751.621	7671.63
751.96	7666.44
752.298	7772.65
752.636	7794.57
752.975	7834.12
753.313	7882.93
753.651	8036.6
753.989	8118.63
754.327	8155.24
754.666	8213.32
755.004	8328.79
755.342	8432.29
755.679	8515.45
756.017	8563.14
756.355	8746.18
756.693	8791.6
757.031	8954.31
757.368	9015.1
757.706	9104.82
758.044	9222.33
758.381	9278.15
758.719	9444.92
759.056	9564.24
759.394	9677.46
759.731	9733.28
760.068	9836.32
760.405	9979.6
760.743	10085.36
761.08	10234.73
761.417	10393.37
761.754	10517.21
762.091	10569.86
762.428	10747.94
762.765	10814.38
763.102	10994.48
763.438	11032.9
763.775	11087.59
764.112	11292.56
764.449	11471.31
764.785	11527.13
765.122	11604.41
765.458	11700.23
765.795	11744.52
766.131	11930.05
766.467	12034.46
766.804	12156.94
767.14	12179.76
767.476	12351.96
767.812	12410.94
768.148	12547.21
768.485	12620.66
768.821	12663.14
769.157	12848.9
769.492	12867.43
769.828	13027.88
770.164	13047.76
770.5	13076.24
770.836	13238.04
771.171	13194.65
771.507	13285.95
771.842	13319.17
772.178	13415.21
772.513	13556
772.849	13501.54
773.184	13569.56
773.519	13714.87
773.855	13711.25
774.19	13694.07
774.525	13654.3
774.86	13831.92
775.195	13784.69
775.53	13888.19
775.865	13898.82
776.2	13928.42
776.535	13970.68
776.87	13940.62
777.205	13988.53
777.539	14029.21
777.874	14053.61
778.209	13912.15
778.543	14056.33
778.878	13992.15
779.212	14061.97
779.547	14087.96
779.881	14132.03
780.215	14085.48
780.55	14221.07
780.884	14149.2
781.218	14153.05
781.552	14127.06
781.886	14155.31
782.22	14130.9
782.554	14161.86
782.888	13991.92
783.222	14032.82
783.556	14033.28
783.889	13988.3
784.223	13878.48
784.557	13946.05
784.89	13983.78
785.224	13924.8
785.557	13949.66
785.891	13863.34
786.224	13953.28
786.558	14009.55
786.891	13827.63
787.224	13788.08
787.557	13814.98
787.891	13847.74
788.224	13774.75
788.557	13782.66
788.89	13859.72
789.223	13770.46
789.556	13866.95
789.888	13753.96
790.221	13660.63
790.554	13565.49
790.887	13642.55
791.219	13628.77
791.552	13609.56
791.884	13585.38
792.217	13507.64
792.549	13443.69
792.882	13440.3
793.214	13351.94
793.546	13482.33
793.879	13364.14
794.211	13336.34
794.543	13298.15
794.875	13309.45
795.207	13323.92
795.539	13253.41
795.871	13313.52
796.203	13150.81
796.535	13182
796.867	13102
797.198	13071.49
797.53	13099.97
797.862	13050.25
798.193	12998.5
798.525	13041.44
798.856	12990.82
799.188	12940.65
799.519	12858.62
799.85	12832.4
800.182	12801.67
800.513	12840.31
800.844	12804.61
801.175	12749.92
801.506	12786.08
801.837	12725.51
802.168	12681.45
802.499	12711.95
802.83	12592.86
803.161	12486.65
803.491	12590.15
803.822	12504.73
804.153	12535.01
804.483	12373.43
804.814	12438.51
805.145	12354.45
805.475	12400.55
805.805	12338.63
806.136	12372.53
806.466	12318.52
806.796	12297.95
807.126	12250.05
807.457	12153.78
807.787	12235.58
808.117	12116.72
808.447	12092.31
808.777	12107.45
809.107	11996.27
809.436	12056.6
809.766	12032.88
810.096	12068.35
810.426	11920.79
810.755	11981.58
811.085	11936.16
811.414	11910.39
811.744	11865.42
812.073	11781.81
812.403	11851.86
812.732	11703.84
813.061	11750.4
813.39	11722.38
813.719	11695.94
814.049	11739.55
814.378	11669.95
814.707	11723.96
815.036	11649.16
815.365	11630.63
815.693	11608.93
816.022	11554.92
816.351	11483.51
816.68	11495.94
817.008	11499.1
817.337	11380.01
817.665	11372.78
817.994	11368.26
818.322	11436.06
818.651	11303.4
818.979	11346.79
819.307	11366.45
819.636	11387.24
819.964	11256.62
820.292	11298.66
820.62	11234.03
820.948	11236.74
821.276	11218.43
821.604	11169.62
821.932	11307.92
822.259	11256.4
822.587	11223.86
822.915	11270.64
823.243	11233.57
823.57	11224.99
823.898	11223.86
824.225	11177.08
824.553	11214.82
824.88	11255.27
825.207	11242.16
825.535	11209.39
825.862	11265.21
826.189	11216.85
826.516	11257.75
826.843	11255.72
827.17	11331.2
827.497	11256.85
827.824	11299.34
828.151	11336.85
828.478	11221.37
828.805	11279.22
829.131	11252.11
829.458	11300.69
829.785	11192.22
830.111	11197.42
830.438	11289.17
830.764	11238.55
831.09	11248.49
831.417	11128.04
831.743	11227.25
832.069	11256.62
832.395	11143.41
832.722	11269.51
833.048	11112.22
833.374	11156.97
833.7	11148.83
834.026	11129.85
834.351	11204.42
834.677	11158.77
835.003	11137.76
835.329	11150.86
835.654	11161.26
835.98	11096.18
836.306	11098.89
836.631	11078.1
836.956	11104.31
837.282	11150.19
837.607	11032
837.932	11014.82
838.258	11069.29
838.583	11060.02
838.908	10975.73
839.233	10939.57
839.558	10922.85
839.883	10832.68
840.208	10864.32
840.533	10796.75
840.858	10878.56
841.182	10936.86
841.507	10870.42
841.832	10697.77
842.156	10773.47
842.481	10761.27
842.805	10690.76
843.13	10784.09
843.454	10701.39
843.778	10639.47
844.103	10619.58
844.427	10573.25
844.751	10598.34
845.075	10641.27
845.399	10507.49
845.723	10498.45
846.047	10502.75
846.371	10393.6
846.695	10408.29
847.019	10318.34
847.343	10246.48
847.666	10225.92
847.99	10178.24
848.313	10154.73
848.637	10059.59
848.96	10127.84
849.284	10138.01
849.607	10019.14
849.931	9968.07
850.254	9941.41
850.577	9848.3
850.9	9882.65
851.223	9850.79
851.546	9782.31
851.869	9706.16
852.192	9716.1
852.515	9650.79
852.838	9623
853.161	9705.03
853.483	9651.47
853.806	9544.58
854.129	9489.67
854.451	9414.87
854.774	9452.83
855.096	9446.28
855.419	9401.98
855.741	9447.18
856.063	9306.85
856.385	9367.64
856.708	9282.44
857.03	9326.28
857.352	9274.53
857.674	9172.39
857.996	9144.36
858.318	9070.02
858.64	9154.31
858.961	9187.07
859.283	9048.1
859.605	9033.63
859.926	9077.93
860.248	9048.32
860.57	8999.96
860.891	9027.53
861.212	8934.43
861.534	8995.44
861.855	8886.74
862.176	8917.93
862.498	8854.88
862.819	8874.31
863.14	8830.93
863.461	8817.14
863.782	8799.29
864.103	8803.13
864.424	8804.49
864.745	8786.63
865.065	8749.12
865.386	8741.44
865.707	8687.88
866.027	8721.55
866.348	8756.35
866.668	8707.31
866.989	8653.76
867.309	8598.62
867.63	8569.24
867.95	8656.47
868.27	8572.18
868.59	8565.85
868.91	8553.87
869.23	8590.93
869.55	8529.24
869.87	8536.7
870.19	8529.46
870.51	8529.46
870.83	8564.94
871.15	8454.89
871.469	8463.25
871.789	8466.42
872.109	8486.08
872.428	8412.41
872.748	8426.87
873.067	8396.36
873.386	8362.92
873.706	8376.02
874.025	8423.48
874.344	8362.92
874.663	8325.63
874.982	8335.35
875.301	8306.19
875.62	8240.21
875.939	8265.74
876.258	8269.58
876.577	8275.23
876.896	8286.99
877.214	8216.93
877.533	8225.29
877.852	8232.07
878.17	8203.82
878.489	8219.42
878.807	8183.03
879.125	8158.18
879.444	8106.43
879.762	8156.59
880.08	8118.63
880.398	8079.31
880.716	8068.91
881.034	8052.87
881.352	8066.43
881.67	8002.93
881.988	8029.37
882.306	8000.67
882.624	7997.73
882.941	7986.88
883.259	7981.46
883.577	7972.19
883.894	7904.62
884.212	7901.23
884.529	7822.14
884.846	7834.79
885.164	7835.47
885.481	7824.62
885.798	7852.87
886.115	7783.95
886.432	7764.97
886.75	7697.4
887.067	7739.88
887.383	7644.29
887.7	7727.45
888.017	7676.15
888.334	7638.19
888.651	7594.57
888.967	7632.99
889.284	7560.45
889.6	7567.23
889.917	7476.61
890.233	7511.19
890.55	7538.76
890.866	7472.09
891.182	7447.01
891.498	7424.18
891.815	7427.57
892.131	7363.85
892.447	7383.28
892.763	7351.42
893.079	7311.64
893.395	7258.76
893.71	7241.59
894.026	7259.44
894.342	7243.4
894.657	7130.18
894.973	7172.44
895.289	7173.57
895.604	7093.8
895.92	7055.61
896.235	7056.28
896.55	7094.47
896.865	7088.37
897.181	7126.34
897.496	7009.73
897.811	6996.62
898.126	6963.63
898.441	6909.17
898.756	6924.99
899.071	6867.81
899.386	6877.08
899.7	6798.89
900.015	6826.91
900.33	6722.05
900.644	6777.87
900.959	6748.72
901.273	6743.52
901.588	6679.12
901.902	6635.28
902.216	6678.21
902.531	6588.27
902.845	6546.24
903.159	6538.56
903.473	6574.71
903.787	6492.46
904.101	6432.57
904.415	6425.57
904.729	6400.93
905.042	6374.27
905.356	6404.32
905.67	6436.41
905.984	6349.86
906.297	6356.64
906.611	6273.48
906.924	6345.57
907.237	6320.48
907.551	6222.18
907.864	6222.86
908.177	6209.53
908.491	6142.64
908.804	6167.27
909.117	6072.13
909.43	6083.65
909.743	6094.95
910.056	6070.55
910.368	6071.9
910.681	5984.67
910.994	5965.46
911.307	5962.07
911.619	5945.13
911.932	5877.11
912.244	5866.71
912.557	5851.12
912.869	5820.61
913.181	5813.15
913.494	5767.05
913.806	5747.62
914.118	5708.97
914.43	5718.69
914.742	5667.62
915.054	5654.96
915.366	5624.91
915.678	5588.75
915.99	5564.35
916.302	5610.22
916.613	5523.67
916.925	5541.97
917.236	5565.25
917.548	5458.59
917.859	5480.05
918.171	5422.88
918.482	5397.8
918.794	5384.69
919.105	5399.38
919.416	5332.03
919.727	5357.8
920.038	5279.38
920.349	5226.73
920.66	5277.12
920.971	5233.73
921.282	5216.78
921.593	5175.65
921.903	5162.77
922.214	5202.55
922.525	5146.5
922.835	5143.34
923.146	5083.23
923.456	5045.94
923.767	5072.38
924.077	5034.87
924.387	5042.33
924.697	4999.39
925.008	5003.91
925.318	4996
925.628	4968.2
925.938	4933.4
926.248	4843.23
926.558	4883.46
926.867	4863.57
927.177	4825.38
927.487	4847.3
927.796	4801.88
928.106	4786.06
928.416	4747.42
928.725	4752.16
929.034	4698.15
929.344	4703.58
929.653	4715.1
929.962	4723.24
930.271	4633.52
930.581	4636.46
930.89	4631.94
931.199	4619.29
931.508	4615.44
931.817	4586.52
932.125	4561.66
932.434	4549.23
932.743	4530.25
933.051	4477.37
933.36	4432.4
933.669	4455
933.977	4399.86
934.286	4420.87
934.594	4438.73
934.902	4393.3
935.21	4392.4
935.519	4401.89
935.827	4330.71
936.135	4358.95
936.443	4309.24
936.751	4285.96
937.059	4287.09
937.367	4228.34
937.674	4226.53
937.982	4213.19
938.29	4172.97
938.597	4167.09
938.905	4141.78
939.213	4157.6
939.52	4118.28
939.827	4135.91
940.135	4105.17
940.442	4098.4
940.749	4055.46
941.056	4046.87
941.363	4021.33
941.67	3988.57
941.977	3982.47
942.284	3981.34
942.591	3941.56
942.898	3916.93
943.205	3937.72
943.511	3916.48
943.818	3868.12
944.125	3865.86
944.431	3840.32
944.738	3830.83
945.044	3766.65
945.35	3784.28
945.657	3794
945.963	3771.4
946.269	3758.74
946.575	3726.2
946.881	3701.34
947.187	3662.47
947.493	3679.65
947.799	3682.36
948.105	3673.55
948.41	3663.38
948.716	3617.5
949.022	3597.62
949.327	3619.99
949.633	3568.92
949.938	3545.64
950.244	3561.46
950.549	3536.83
950.854	3547.68
951.16	3537.51
951.465	3532.08
951.77	3453.89
952.075	3479.88
952.38	3467
952.685	3427.23
952.99	3411.86
953.294	3363.27
953.599	3425.19
953.904	3364.18
954.209	3360.11
954.513	3341.13
954.818	3311.07
955.122	3319.43
955.426	3316.49
955.731	3266.55
956.035	3301.81
956.339	3254.12
956.643	3255.71
956.948	3237.85
957.252	3231.75
957.556	3202.6
957.86	3235.82
958.163	3208.93
958.467	3195.37
958.771	3188.14
959.075	3172.54
959.378	3147.23
959.682	3118.53
959.985	3129.38
960.289	3083.28
960.592	3082.83
960.896	3083.51
961.199	3032.43
961.502	3088.25
961.805	3051.87
962.108	3018.2
962.411	3023.17
962.714	2997.63
963.017	2994.02
963.32	2996.28
963.623	2962.61
963.926	2955.83
964.228	2896.17
964.531	2905.21
964.833	2946.79
965.136	2898.65
965.438	2900.69
965.741	2884.42
966.043	2835.15
966.345	2823.17
966.648	2829.73
966.95	2831.99
967.252	2810.97
967.554	2775.04
967.856	2812.1
968.158	2814.59
968.46	2749.96
968.761	2770.97
969.063	2727.81
969.365	2719.67
969.666	2724.87
969.968	2687.36
970.269	2697.3
970.571	2691.88
970.872	2702.27
971.174	2656.85
971.475	2640.58
971.776	2625.89
972.077	2622.5
972.378	2619.79
972.679	2600.58
972.98	2557.64
973.281	2635.61
973.582	2559.68
973.883	2570.53
974.183	2540.24
974.484	2550.19
974.785	2530.75
975.085	2509.28
975.386	2497.31
975.686	2513.13
975.986	2503.18
976.287	2515.39
976.587	2456.4
976.887	2450.08
977.187	2448.95
977.487	2444.88
977.787	2408.5
978.087	2424.31
978.387	2417.76
978.687	2380.7
978.987	2413.24
979.286	2349.51
979.586	2378.67
979.885	2344.99
980.185	2354.71
980.484	2336.63
980.784	2349.06
981.083	2350.87
981.382	2298.89
981.682	2301.38
981.981	2282.62
982.28	2284.43
982.579	2248.95
982.878	2259.12
983.177	2244.88
983.475	2254.83
983.774	2211.67
984.073	2196.07
984.372	2180.03
984.67	2192.91
984.969	2197.2
985.267	2192
985.566	2183.87
985.864	2152.46
986.162	2191.55
986.461	2107.26
986.759	2128.73
987.057	2162.4
987.355	2114.94
987.653	2141.38
987.951	2129.18
988.249	2094.83
988.547	2067.49
988.844	2088.73
989.142	2061.16
989.44	2029.07
989.737	2005.34
990.035	2017.32
990.332	2023.65
990.63	1987.04
990.927	2022.07
991.224	1988.17
991.521	1960.6
991.819	1948.4
992.116	1992.01
992.413	1951.78
992.71	1940.03
993.006	1965.12
993.303	1925.34
993.6	1938.9
993.897	1918.34
994.193	1901.62
994.49	1879.7
994.787	1873.82
995.083	1866.14
995.379	1878.79
995.676	1871.56
995.972	1873.59
996.268	1848.51
996.565	1829.75
996.861	1809.87
997.157	1798.34
997.453	1825.46
997.749	1800.6
998.044	1824.1
998.34	1802.18
998.636	1773.94
998.932	1810.55
999.227	1734.62
999.523	1749.98
999.818	1720.6
1000.114	1740.04
1000.409	1723.32
1000.704	1714.28
1001	1702.75
1001.295	1683.09
1001.59	1695.75
1001.885	1687.39
1002.18	1667.5
1002.475	1666.37
1002.77	1657.1
1003.065	1626.14
1003.359	1660.72
1003.654	1639.48
1003.949	1601.29
1004.243	1615.3
1004.538	1578.01
1004.832	1591.34
1005.127	1591.12
1005.421	1605.13
1005.715	1574.17
1006.009	1560.38
1006.304	1564.45
1006.598	1549.99
1006.892	1521.06
1007.186	1537.78
1007.48	1494.17
1007.773	1498.92
1008.067	1498.01
1008.361	1490.78
1008.655	1476.09
1008.948	1464.11
1009.242	1466.83
1009.535	1487.84
1009.829	1451.23
1010.122	1440.61
1010.415	1448.75
1010.708	1420.95
1011.001	1411.23
1011.295	1410.33
1011.588	1385.25
1011.881	1404.91
1012.173	1368.3
1012.466	1347.51
1012.759	1366.94
1013.052	1359.03
1013.344	1360.61
1013.637	1364.23
1013.93	1331.46
1014.222	1319.03
1014.514	1339.82
1014.807	1343.21
1015.099	1325.13
1015.391	1302.31
1015.683	1283.78
1015.976	1276.55
1016.268	1258.7
1016.56	1242.65
1016.851	1262.31
1017.143	1259.37
1017.435	1255.31
1017.727	1198.81
1018.018	1230.45
1018.31	1239.94
1018.602	1223.22
1018.893	1240.62
1019.185	1213.73
1019.476	1214.4
1019.767	1194.29
1020.058	1164.91
1020.35	1194.74
1020.641	1161.3
1020.932	1159.49
1021.223	1157.68
1021.514	1155.2
1021.804	1146.83
1022.095	1126.27
1022.386	1155.2
1022.677	1141.64
1022.967	1099.83
1023.258	1110.45
1023.548	1120.85
1023.839	1099.83
1024.129	1096.89
1024.419	1095.76
1024.709	1046.95
1025	1079.49
1025.29	1063.45
1025.58	1045.59
1025.87	1029.1
1026.16	1043.11
1026.449	1018.48
1026.739	1035.42
1027.029	1023.45
1027.319	1013.5
1027.608	1027.97
1027.898	1011.02
1028.187	994.97
1028.477	991.13
1028.766	1002.21
1029.055	988.42
1029.344	1008.31
1029.634	983.22
1029.923	976.44
1030.212	990.45
1030.501	958.36
1030.79	957.69
1031.078	921.76
1031.367	926.95
1031.656	914.75
1031.945	934.86
1032.233	924.69
1032.522	938.93
1032.81	928.08
1033.099	944.81
1033.387	895.77
1033.675	897.8
1033.963	903
1034.251	886.28
1034.54	891.47
1034.828	865.03
1035.116	867.29
1035.403	871.36
1035.691	858.03
1035.979	845.37
1036.267	841.08
1036.554	834.3
1036.842	813.28
1037.129	825.26
1037.417	806.96
1037.704	812.15
1037.992	818.26
1038.279	815.54
1038.566	782.1
1038.853	782.1
1039.14	782.1
