Data from hue_200_FLMS001491_00073.txt Node
Date: Tue Feb 07 16:43:54 GMT 2017
User: dcchb
Spectrometer: FLMS00149
Trigger mode: 0
Integration Time (sec): 2.000000E-2
Scans to average: 10
Electric dark correction enabled: true
Nonlinearity correction enabled: false
Boxcar width: 0
XAxis mode: Wavelengths
Number of Pixels in Spectrum: 2048
>>>>>Begin Spectral Data<<<<<
341.393	-13.6
341.776	-13.6
342.16	-13.6
342.543	-51.79
342.927	-87.27
343.31	-59.25
343.693	-89.53
344.077	-60.15
344.46	-80.72
344.843	-43.21
345.226	-38.91
345.61	-36.65
345.993	-26.26
346.376	-14.73
346.759	16
347.142	40.18
347.525	30.69
347.908	60.07
348.291	89.45
348.674	90.8
349.057	122.21
349.44	143.46
349.823	138.49
350.206	153.4
350.588	177.13
350.971	199.5
351.354	233.85
351.737	242.21
352.119	237.47
352.502	267.97
352.884	268.65
353.267	276.33
353.65	282.89
354.032	285.83
354.414	295.77
354.797	316.11
355.179	301.19
355.562	336.67
355.944	312.04
356.326	328.31
356.709	333.96
357.091	336.22
357.473	333.73
357.855	324.24
358.238	331.93
358.62	322.66
359.002	349.1
359.384	351.59
359.766	341.19
360.148	348.88
360.53	343.45
360.912	344.58
361.294	321.53
361.676	328.08
362.057	338.48
362.439	334.86
362.821	342.1
363.203	324.69
363.584	320.4
363.966	325.6
364.348	297.35
364.729	336.22
365.111	329.44
365.493	321.53
365.874	285.15
366.256	336.45
366.637	314.75
367.019	303.45
367.4	323.56
367.781	305.71
368.163	293.28
368.544	307.07
368.925	302.77
369.306	307.52
369.688	330.57
370.069	328.54
370.45	302.55
370.831	300.29
371.212	327.18
371.593	305.26
371.974	312.27
372.355	304.36
372.736	321.08
373.117	315.43
373.498	322.44
373.879	309.33
374.26	321.31
374.641	315.66
375.021	292.83
375.402	298.93
375.783	338.25
376.163	333.51
376.544	321.98
376.925	321.08
377.305	344.58
377.686	336.9
378.066	325.82
378.447	325.37
378.827	299.16
379.208	336.22
379.588	321.76
379.968	328.99
380.349	333.73
380.729	327.86
381.109	347.52
381.489	329.44
381.87	331.25
382.25	329.89
382.63	337.58
383.01	326.73
383.39	338.25
383.77	342.77
384.15	341.19
384.53	359.27
384.91	330.8
385.29	359.27
385.67	340.06
386.049	350.23
386.429	343.23
386.809	357.24
387.189	349.55
387.568	364.69
387.948	356.56
388.328	346.16
388.707	356.33
389.087	357.69
389.466	340.74
389.846	338.71
390.225	370.34
390.605	352.49
390.984	359.27
391.363	375.09
391.743	377.57
392.122	375.77
392.501	380.96
392.881	368.08
393.26	352.72
393.639	389.55
394.018	376.67
394.397	371.02
394.776	371.25
395.155	385.94
395.534	400.17
395.913	369.44
396.292	432.26
396.671	391.59
397.05	386.16
397.429	399.72
397.808	386.39
398.186	411.7
398.565	408.53
398.944	403.11
399.323	408.31
399.701	409.66
400.08	386.61
400.458	411.02
400.837	411.7
401.215	412.6
401.594	430.68
401.972	431.13
402.351	431.13
402.729	435.88
403.107	444.47
403.486	432.26
403.864	447.63
404.242	418.48
404.62	466.61
404.999	432.49
405.377	441.53
405.755	466.84
406.133	463.9
406.511	453.96
406.889	470.68
407.267	460.51
407.645	481.98
408.023	460.28
408.401	481.53
408.779	505.26
409.156	519.94
409.534	517.23
409.912	512.26
410.29	524.69
410.667	551.81
411.045	558.81
411.422	557.46
411.8	545.71
412.178	585.7
412.555	580.96
412.933	583.45
413.31	584.58
413.687	604.24
414.065	627.06
414.442	621.64
414.819	631.58
415.197	648.3
415.574	660.05
415.951	655.31
416.328	651.24
416.705	684.91
417.082	685.82
417.46	707.28
417.837	735.31
418.214	733.27
418.591	718.81
418.967	737.34
419.344	750.67
419.721	757.23
420.098	753.61
420.475	789.32
420.852	798.58
421.228	826.38
421.605	818.69
421.982	856.66
422.358	895.53
422.735	864.12
423.111	868.41
423.488	907.05
423.864	931.46
424.241	934.85
424.617	956.09
424.994	959.48
425.37	968.29
425.746	997.45
426.123	1009.42
426.499	1019.14
426.875	1029.76
427.251	1051
427.627	1082.19
428.003	1105.92
428.379	1107.73
428.756	1113.83
429.132	1150.89
429.507	1128.52
429.883	1130.32
430.259	1165.35
430.635	1166.93
431.011	1194.73
431.387	1237.44
431.763	1235.86
432.138	1225.24
432.514	1271.79
432.89	1264.78
433.265	1315.63
433.641	1353.14
434.016	1348.85
434.392	1410.32
434.767	1419.36
435.143	1441.5
435.518	1455.74
435.894	1493.48
436.269	1529.63
436.644	1557.2
437.02	1582.29
437.395	1604.66
437.77	1636.07
438.145	1653.02
438.52	1692.12
438.895	1699.35
439.271	1700.03
439.646	1775.05
440.021	1766.92
440.395	1824.32
440.77	1820.93
441.145	1842.62
441.52	1893.69
441.895	1870.19
442.27	1899.57
442.645	1901.6
443.019	1964.43
443.394	1990.41
443.769	1988.38
444.143	2020.24
444.518	2065.44
444.892	2051.2
445.267	2049.85
445.641	2076.29
446.016	2113.12
446.39	2137.53
446.764	2150.64
447.139	2166.23
447.513	2197.41
447.887	2224.76
448.262	2198.09
448.636	2265.66
449.01	2249.16
449.384	2280.35
449.758	2273.12
450.132	2309.95
450.506	2371.42
450.88	2366.22
451.254	2381.14
451.628	2387.24
452.002	2435.6
452.376	2437.63
452.75	2452.77
453.123	2487.12
453.497	2548.37
453.871	2543.62
454.244	2601.47
454.618	2618.19
454.992	2663.16
455.365	2645.09
455.739	2771.64
456.112	2749.72
456.486	2756.27
456.859	2830.17
457.232	2839.66
457.606	2790.84
457.979	2873.33
458.352	2918.07
458.725	2946.55
459.099	2976.6
459.472	3047.34
459.845	3093.21
460.218	3097.96
460.591	3103.6
460.964	3124.85
461.337	3189.03
461.71	3245.97
462.083	3288.91
462.456	3309.7
462.829	3326.2
463.201	3375.46
463.574	3444.16
463.947	3423.37
464.32	3511.96
464.692	3506.31
465.065	3565.74
465.438	3629.24
465.81	3676.47
466.183	3728
466.555	3815.68
466.928	3816.13
467.3	3839.18
467.672	3871.49
468.045	3911.04
468.417	3968.44
468.789	3994.2
469.161	4032.85
469.534	4140.64
469.906	4203.24
470.278	4262.44
470.65	4279.17
471.022	4320.07
471.394	4424.02
471.766	4437.58
472.138	4490.69
472.51	4605.49
472.882	4626.95
473.253	4669.21
473.625	4748.99
473.997	4908.08
474.369	4858.59
474.74	4942.88
475.112	4980.17
475.484	5089.09
475.855	5167.51
476.227	5213.83
476.598	5341.74
476.97	5367.27
477.341	5511.9
477.713	5555.52
478.084	5586.93
478.455	5723.2
478.827	5812.01
479.198	5905.11
479.569	5915.06
479.94	6114.83
480.311	6162.73
480.682	6300.58
481.053	6416.51
481.424	6430.52
481.795	6509.84
482.166	6546.23
482.537	6636.62
482.908	6757.29
483.279	6821.7
483.65	6979.66
484.021	7065.99
484.391	7178.07
484.762	7204.74
485.133	7313.66
485.503	7368.13
485.874	7495.35
486.244	7586.2
486.615	7700.32
486.985	7821.9
487.356	7892.18
487.726	7948
488.097	8104.15
488.467	8092.85
488.837	8263.24
489.207	8345.27
489.578	8430.7
489.948	8500.98
490.318	8586.85
490.688	8612.61
491.058	8748.43
491.428	8796.34
491.798	8962.43
492.168	9042.43
492.538	9117.23
492.908	9086.72
493.278	9263.44
493.648	9244.23
494.017	9378.69
494.387	9430.67
494.757	9502.53
495.126	9551.57
495.496	9609.65
495.866	9638.12
496.235	9623.43
496.605	9789.53
496.974	9764.9
497.344	9842.18
497.713	9907.27
498.082	9976.19
498.452	9971.45
498.821	10104.32
499.19	10030.65
499.559	10174.83
499.928	10190.42
500.298	10240.82
500.667	10306.58
501.036	10212.57
501.405	10335.96
501.774	10304.77
502.143	10387.93
502.512	10402.85
502.88	10516.97
503.249	10447.82
503.618	10535.73
503.987	10573.24
504.356	10641.03
504.724	10628.38
505.093	10597.42
505.462	10685.33
505.83	10714.03
506.199	10754.7
506.567	10880.12
506.936	10918.99
507.304	10896.62
507.672	10944.3
508.041	10920.12
508.409	10912.21
508.777	11031.76
509.145	11106.11
509.514	11113.56
509.882	11053.23
510.25	10989.5
510.618	11101.59
510.986	11146.11
511.354	11176.39
511.722	11234.46
512.09	11310.62
512.458	11208.93
512.826	11329.83
513.193	11356.27
513.561	11251.64
513.929	11325.08
514.297	11390.39
514.664	11427.91
515.032	11452.99
515.4	11424.29
515.767	11520.56
516.135	11477.85
516.502	11410.51
516.869	11536.6
517.237	11455.7
517.604	11416.38
517.972	11539.32
518.339	11528.24
518.706	11470.16
519.073	11539.32
519.44	11512.65
519.808	11542.7
520.175	11546.32
520.542	11612.31
520.909	11674.68
521.276	11575.7
521.643	11606.21
522.009	11637.84
522.376	11749.48
522.743	11574.79
523.11	11714.45
523.477	11772.3
523.843	11670.16
524.21	11781.79
524.577	11834.9
524.943	11836.26
525.31	11767.33
525.676	11883.49
526.043	11839.19
526.409	11739.08
526.776	11924.16
527.142	11817.5
527.508	11868.35
527.874	11909.93
528.241	11881.45
528.607	11811.85
528.973	11902.92
529.339	11804.84
529.705	11851.62
530.071	11837.16
530.437	11833.09
530.803	11787.44
531.169	11774.34
531.535	11677.16
531.901	11742.93
532.267	11662.93
532.632	11706.54
532.998	11595.36
533.364	11645.3
533.73	11613.89
534.095	11647.79
534.461	11642.82
534.826	11602.36
535.192	11509.71
535.557	11516.49
535.923	11430.39
536.288	11463.39
536.653	11440.11
537.019	11337.74
537.384	11358.08
537.749	11319.89
538.114	11240.11
538.479	11147.01
538.845	11196.5
539.21	11121.93
539.575	11182.94
539.94	11085.09
540.305	11055.71
540.67	11015.71
541.034	10938.65
541.399	10914.92
541.764	10794.25
542.129	10820.92
542.494	10726.68
542.858	10723.97
543.223	10693.69
543.587	10667.93
543.952	10574.82
544.316	10530.98
544.681	10558.32
545.045	10473.81
545.41	10490.08
545.774	10349.06
546.138	10318.33
546.503	10307.94
546.867	10200.82
547.231	10293.7
547.595	10147.26
547.959	10162.63
548.324	10093.03
548.688	10038.11
549.052	10041.73
549.416	9990.43
549.779	9943.2
550.143	9803.77
550.507	9895.06
550.871	9839.02
551.235	9790.21
551.599	9770.1
551.962	9732.13
552.326	9728.06
552.689	9635.64
553.053	9526.71
553.417	9582.3
553.78	9578.91
554.143	9514.28
554.507	9450.1
554.87	9415.3
555.234	9419.14
555.597	9397.9
555.96	9392.48
556.323	9359.26
556.686	9321.07
557.05	9344.57
557.413	9272.48
557.776	9226.83
558.139	9273.16
558.502	9202.88
558.865	9171.02
559.228	9185.7
559.59	9194.97
559.953	9160.17
560.316	9124.01
560.679	9146.16
561.041	9164.69
561.404	9093.73
561.767	9148.87
562.129	9038.59
562.492	9073.84
562.854	9044.24
563.217	8996.56
563.579	8999.27
563.941	9042.21
564.304	8995.65
564.666	9064.13
565.028	9056.89
565.39	8962.43
565.753	8981.64
566.115	9013.05
566.477	9013.96
566.839	8929.21
567.201	9041.75
567.563	9011.92
567.925	8981.42
568.287	9002.88
568.648	8961.98
569.01	8991.81
569.372	9013.05
569.734	8985.48
570.095	8998.59
570.457	8999.5
570.819	9087.85
571.18	8984.58
571.542	9044.69
571.903	8933.28
572.265	8964.69
572.626	8976.67
572.987	8970.34
573.349	9006.95
573.71	8967.63
574.071	9037.91
574.432	9046.05
574.794	9042.43
575.155	8979.38
575.516	8945.49
575.877	8985.26
576.238	8988.65
576.599	9065.71
576.96	9039.72
577.32	8989.78
577.681	9037.91
578.042	9027.52
578.403	9027.06
578.763	9067.97
579.124	8986.39
579.485	9034.3
579.845	9089.89
580.206	8975.54
580.566	9015.99
580.927	8979.16
581.287	8985.71
581.648	8977.35
582.008	9039.95
582.368	8950
582.728	9026.84
583.089	9048.99
583.449	8982.09
583.809	8942.32
584.169	9022.32
584.529	8907.75
584.889	8986.61
585.249	8913.4
585.609	8933.28
585.969	8941.64
586.329	8826.62
586.688	8930.57
587.048	8982.77
587.408	8881.98
587.768	8918.82
588.127	8874.75
588.487	8941.87
588.846	8891.48
589.206	8895.32
589.565	8822.1
589.925	8878.59
590.284	8855.77
590.643	8846.5
591.003	8835.88
591.362	8914.53
591.721	8829.1
592.08	8860.29
592.44	8887.63
592.799	8821.42
593.158	8793.85
593.517	8842.44
593.876	8764.7
594.235	8831.36
594.593	8785.26
594.952	8764.02
595.311	8763.34
595.67	8797.01
596.029	8793.4
596.387	8823
596.746	8822.55
597.104	8748.43
597.463	8717.02
597.822	8814.87
598.18	8720.41
598.538	8722.44
598.897	8817.58
599.255	8763.12
599.613	8793.62
599.972	8766.28
600.33	8775.09
600.688	8761.31
601.046	8735.1
601.404	8754.53
601.762	8724.47
602.12	8731.03
602.478	8761.54
602.836	8740.74
603.194	8626.85
603.552	8666.85
603.91	8719.28
604.268	8734.19
604.625	8637.24
604.983	8700.52
605.341	8630.47
605.698	8694.42
606.056	8722.89
606.413	8708.88
606.771	8710.24
607.128	8719.05
607.485	8677.92
607.843	8648.09
608.2	8708.2
608.557	8731.25
608.914	8657.36
609.272	8721.76
609.629	8676.57
609.986	8789.33
610.343	8747.07
610.7	8790.23
611.057	8777.35
611.414	8710.92
611.771	8768.31
612.127	8796.34
612.484	8706.4
612.841	8804.92
613.198	8681.09
613.554	8760.18
613.911	8797.69
614.267	8804.92
614.624	8816.9
614.98	8757.02
615.337	8770.12
615.693	8848.31
616.05	8767.18
616.406	8857.13
616.762	8848.31
617.118	8820.97
617.475	8787.98
617.831	8865.26
618.187	8843.57
618.543	8830.23
618.899	8854.64
619.255	8867.07
619.611	8849.67
619.967	8825.94
620.323	8850.35
620.678	8868.43
621.034	8896.9
621.39	8872.94
621.746	8858.93
622.101	8925.82
622.457	8827.97
622.812	8825.94
623.168	8890.57
623.523	8880.4
623.879	8891.25
624.234	8850.57
624.589	8913.17
624.945	8846.73
625.3	8871.14
625.655	8844.24
626.01	8808.77
626.365	8844.24
626.72	8832.04
627.075	8847.63
627.43	8861.19
627.785	8775.09
628.14	8893.28
628.495	8884.47
628.85	8812.83
629.205	8798.37
629.559	8888.31
629.914	8777.13
630.269	8812.61
630.623	8814.64
630.978	8792.95
631.332	8768.99
631.687	8741.65
632.041	8750.24
632.396	8773.29
632.75	8747.07
633.104	8791.82
633.459	8742.1
633.813	8712.95
634.167	8674.76
634.521	8632.5
634.875	8649.67
635.229	8651.26
635.583	8574.2
635.937	8624.82
636.291	8579.39
636.645	8606.96
636.999	8596.79
637.352	8631.37
637.706	8525.84
638.06	8606.51
638.413	8572.39
638.767	8550.69
639.121	8503.91
639.474	8516.57
639.828	8497.59
640.181	8514.76
640.534	8465.27
640.888	8542.11
641.241	8411.49
641.594	8471.83
641.947	8505.95
642.301	8423.92
642.654	8462.56
643.007	8474.76
643.36	8464.37
643.713	8476.57
644.066	8500.53
644.419	8370.58
644.771	8333.75
645.124	8318.83
645.477	8238.61
645.83	8216.92
646.182	8189.35
646.535	8197.26
646.888	8216.69
647.24	8144.6
647.593	8189.35
647.945	8137.6
648.298	8192.06
648.65	8100.31
649.002	8119.74
649.355	8181.21
649.707	8143.92
650.059	8149.57
650.411	8265.73
650.763	8277.25
651.115	8351.15
651.467	8294.88
651.819	8256.46
652.171	8372.84
652.523	8233.41
652.875	8300.3
653.227	8268.21
653.578	8388.66
653.93	8335.33
654.282	8342.56
654.633	8209.23
654.985	8325.61
655.337	8309.57
655.688	8327.87
656.039	8369.91
656.391	8333.75
656.742	8300.08
657.094	8356.8
657.445	8377.36
657.796	8350.47
658.147	8322.45
658.498	8315.67
658.849	8334.2
659.2	8356.57
659.551	8353.64
659.902	8362.68
660.253	8322.45
660.604	8323.81
660.955	8331.26
661.306	8380.98
661.656	8379.62
662.007	8381.43
662.358	8362.68
662.708	8373.3
663.059	8383.92
663.409	8366.07
663.76	8438.15
664.11	8394.09
664.461	8435.22
664.811	8476.12
665.161	8491.71
665.511	8438.83
665.862	8445.39
666.212	8456.91
666.562	8434.54
666.912	8427.08
667.262	8456.23
667.612	8450.81
667.962	8434.31
668.312	8424.59
668.662	8523.35
669.011	8446.97
669.361	8439.28
669.711	8432.73
670.06	8459.62
670.41	8339.63
670.76	8398.61
671.109	8383.69
671.459	8324.03
671.808	8410.36
672.157	8382.56
672.507	8325.16
672.856	8379.4
673.205	8311.15
673.554	8390.25
673.904	8267.31
674.253	8329
674.602	8385.05
674.951	8197.48
675.3	8218.95
675.649	8265.5
675.998	8289.91
676.346	8252.62
676.695	8285.39
677.044	8229.57
677.393	8235
677.741	8312.96
678.09	8217.82
678.438	8191.15
678.787	8257.37
679.135	8238.16
679.484	8129.91
679.832	8186.64
680.181	8116.13
680.529	8178.95
680.877	8136.24
681.225	8099.63
681.573	8190.48
681.922	8038.39
682.27	8087.2
682.618	8079.97
682.966	8051.5
683.314	8070.03
683.661	8031.16
684.009	7948.9
684.357	7974.89
684.705	7949.81
685.053	7988
685.4	7939.18
685.748	7828.45
686.095	7877.72
686.443	7868.68
686.79	7895.34
687.138	7804.27
687.485	7808.34
687.832	7850.15
688.18	7817.83
688.527	7764.05
688.874	7683.15
689.221	7664.61
689.568	7650.6
689.915	7700.77
690.262	7595.46
690.609	7651.73
690.956	7579.87
691.303	7595.69
691.65	7536.03
691.997	7548.46
692.344	7494.45
692.69	7472.53
693.037	7418.52
693.383	7404.28
693.73	7473.21
694.077	7343.49
694.423	7365.19
694.769	7292.65
695.116	7265.98
695.462	7288.35
695.808	7265.3
696.155	7249.03
696.501	7204.97
696.847	7230.05
697.193	7160
697.539	7192.08
697.885	7084.07
698.231	7119.54
698.577	7077.96
698.923	7054.01
699.269	6991.41
699.614	7002.49
699.96	6907.35
700.306	6928.36
700.651	6896.73
700.997	6826.67
701.342	6903.96
701.688	6863.96
702.033	6749.84
702.379	6828.03
702.724	6751.19
703.069	6760.46
703.415	6700.57
703.76	6653.12
704.105	6653.57
704.45	6671.42
704.795	6644.75
705.14	6550.97
705.485	6538.54
705.83	6525.21
706.175	6531.09
706.52	6541.03
706.865	6520.24
707.209	6504.19
707.554	6436.62
707.899	6406.34
708.243	6420.58
708.588	6377.42
708.932	6336.97
709.277	6308.27
709.621	6369.96
709.966	6308.04
710.31	6311.43
710.654	6278.89
710.998	6298.1
711.342	6204.09
711.687	6221.94
712.031	6174.94
712.375	6201.6
712.719	6169.74
713.063	6213.13
713.407	6135.16
713.75	6134.03
714.094	6122.06
714.438	6162.96
714.782	6136.07
715.125	6070.31
715.469	6070.31
715.812	6091.1
716.156	6085.22
716.499	6014.04
716.843	6011.32
717.186	6014.94
717.53	6054.04
717.873	6069.85
718.216	5977.88
718.559	5985.34
718.902	5926.36
719.246	5985.79
719.589	5972
719.932	5941.72
720.275	5918.67
720.617	5933.59
720.96	5921.16
721.303	5927.94
721.646	5898.79
721.989	5917.32
722.331	5902.4
722.674	5875.74
723.016	5873.7
723.359	5871.22
723.701	5938.33
724.044	5939.46
724.386	5811.1
724.729	5913.7
725.071	5873.02
725.413	5895.17
725.755	5889.07
726.097	5890.42
726.439	5845.45
726.782	5869.86
727.124	5879.35
727.465	5812.23
727.807	5828.73
728.149	5819.92
728.491	5822.4
728.833	5859.46
729.175	5819.92
729.516	5801.16
729.858	5838.67
730.199	5827.6
730.541	5826.02
730.882	5809.07
731.224	5849.97
731.565	5843.65
731.906	5807.26
732.248	5856.3
732.589	5793.25
732.93	5826.7
733.271	5803.87
733.612	5817.88
733.953	5821.27
734.294	5839.13
734.635	5805.68
734.976	5865.34
735.317	5791.9
735.658	5820.6
735.999	5818.34
736.339	5825.79
736.68	5858.79
737.021	5868.28
737.361	5909.41
737.702	5882.29
738.042	5874.15
738.383	5884.77
738.723	5890.65
739.063	5949.18
739.404	5935.17
739.744	5928.84
740.084	5924.55
740.424	5968.16
740.764	5957.32
741.104	5972.46
741.444	5966.35
741.784	5973.13
742.124	6054.49
742.464	5993.25
742.804	5984.66
743.143	6105.56
743.483	6062.17
743.823	6075.28
744.162	6129.29
744.502	6170.87
744.841	6207.7
745.181	6260.58
745.52	6226.69
745.86	6274.82
746.199	6308.27
746.538	6327.02
746.877	6425.33
747.216	6426.68
747.556	6480.47
747.895	6529.05
748.234	6561.59
748.573	6647.47
748.911	6686.34
749.25	6752.77
749.589	6794.13
749.928	6887.69
750.267	6923.39
750.605	7020.79
750.944	7074.8
751.283	7101.47
751.621	7208.13
751.96	7296.71
752.298	7443.83
752.636	7496.48
752.975	7642.47
753.313	7670.04
753.651	7849.47
753.989	7914.78
754.327	8024.61
754.666	8062.57
755.004	8235
755.342	8413.07
755.679	8503.46
756.017	8608.32
756.355	8768.54
756.693	8923.56
757.031	9087.85
757.368	9154.29
757.706	9360.84
758.044	9484.23
758.381	9671.12
758.719	9850.55
759.056	10032.01
759.394	10170.99
759.731	10340.7
760.068	10484.65
760.405	10662.73
760.743	10774.59
761.08	11035.15
761.417	11175.93
761.754	11316.04
762.091	11495.02
762.428	11753.09
762.765	11828.12
763.102	12118.74
763.438	12212.97
763.775	12377.26
764.112	12610.47
764.449	12761.66
764.785	12959.84
765.122	13028.09
765.458	13258.82
765.795	13372.04
766.131	13538.81
766.467	13718.92
766.804	13911.91
767.14	14004.34
767.476	14255.63
767.812	14252.24
768.148	14528.39
768.485	14617.43
768.821	14686.35
769.157	14968.6
769.492	15070.07
769.828	15195.49
770.164	15190.52
770.5	15360.46
770.836	15450.17
771.171	15490.17
771.507	15723.39
771.842	15797.51
772.178	15882.93
772.513	16056.03
772.849	16194.79
773.184	16189.81
773.519	16287.89
773.855	16389.13
774.19	16467.55
774.525	16542.35
774.86	16722.91
775.195	16800.42
775.53	16760.42
775.865	16836.8
776.2	16771.27
776.535	16753.87
776.87	16943.92
777.205	17012.62
777.539	16956.8
777.874	17093.97
778.209	17019.85
778.543	17086.06
778.878	17051.26
779.212	17164.93
779.547	17231.59
779.881	17354.98
780.215	17313.4
780.55	17461.19
780.884	17307.53
781.218	17387.98
781.552	17502.55
781.886	17366.28
782.22	17302.78
782.554	17441.53
782.888	17365.6
783.222	17306.62
783.556	17414.41
783.889	17325.38
784.223	17260.97
784.557	17321.54
784.89	17354.98
785.224	17322.89
785.557	17295.77
785.891	17297.58
786.224	17363.34
786.558	17273.18
786.891	17267.3
787.224	17275.89
787.557	17203.8
787.891	17208.09
788.224	17234.31
788.557	17222.1
788.89	17317.69
789.223	17281.31
789.556	17211.48
789.888	17218.04
790.221	17107.98
790.554	16987.76
790.887	17099.62
791.219	17081.99
791.552	17039.51
791.884	16975.1
792.217	16959.29
792.549	17008.32
792.882	16931.04
793.214	16911.15
793.546	16859.4
793.879	16847.42
794.211	16742.57
794.543	16817.82
794.875	16753.64
795.207	16839.29
795.539	16683.81
795.871	16764.04
796.203	16623.02
796.535	16538.73
796.867	16491.5
797.198	16459.41
797.53	16506.87
797.862	16398.62
798.193	16456.93
798.525	16335.57
798.856	16357.27
799.188	16271.39
799.519	16244.73
799.85	16083.15
800.182	16120.44
800.513	16213.54
800.844	16055.35
801.175	16144.17
801.506	16059.2
801.837	16028.46
802.168	15949.59
802.499	15966.54
802.83	15871.86
803.161	15879.31
803.491	15876.38
803.822	15901.91
804.153	15868.92
804.483	15715.25
804.814	15677.51
805.145	15631.41
805.475	15677.96
805.805	15574.24
806.136	15611.52
806.466	15521.58
806.796	15556.16
807.126	15428.93
807.457	15349.61
807.787	15440.46
808.117	15301.93
808.447	15298.76
808.777	15353.45
809.107	15264.87
809.436	15238.2
809.766	15289.5
810.096	15106.68
810.426	15120.24
810.755	15196.62
811.085	15137.41
811.414	15118.2
811.744	15061.48
812.073	14948.49
812.403	14984.2
812.732	14962.05
813.061	14966.57
813.39	14870.08
813.719	14822.62
814.049	14891.77
814.378	14820.36
814.707	14758.67
815.036	14782.39
815.365	14691.55
815.693	14590.53
816.022	14656.97
816.351	14639.57
816.68	14484.1
817.008	14602.74
817.337	14493.59
817.665	14436.19
817.994	14485.68
818.322	14417.21
818.651	14449.97
818.979	14339.92
819.307	14438.45
819.636	14375.4
819.964	14263.09
820.292	14296.98
820.62	14324.33
820.948	14385.34
821.276	14305.8
821.604	14286.14
821.932	14322.97
822.259	14262.18
822.587	14304.21
822.915	14215.18
823.243	14356.42
823.57	14326.81
823.898	14295.85
824.225	14255.85
824.553	14301.95
824.88	14221.5
825.207	14270.32
825.535	14303.76
825.862	14347.38
826.189	14186.93
826.516	14310.99
826.843	14356.19
827.17	14360.71
827.497	14333.59
827.824	14226.48
828.151	14334.72
828.478	14332.91
828.805	14273.25
829.131	14216.98
829.458	14261.96
829.785	14220.15
830.111	14291.33
830.438	14373.59
830.764	14277.1
831.09	14377.66
831.417	14235.74
831.743	14346.25
832.069	14237.1
832.395	14313.71
832.722	14307.38
833.048	14272.8
833.374	14283.2
833.7	14197.1
834.026	14160.72
834.351	14283.2
834.677	14176.31
835.003	14221.96
835.329	14141.73
835.654	14098.8
835.98	14185.57
836.306	14203.2
836.631	14007.27
836.956	14113.26
837.282	14138.57
837.607	14109.42
837.932	14011.34
838.258	14060.6
838.583	13996.43
838.908	13960.72
839.233	13997.78
839.558	13974.05
839.883	13911.91
840.208	13835.07
840.533	13867.84
840.858	13890.67
841.182	13790.78
841.507	13907.39
841.832	13726.6
842.156	13759.82
842.481	13775.87
842.805	13665.81
843.13	13616.55
843.454	13598.7
843.778	13617.9
844.103	13518.7
844.427	13559.38
844.751	13559.83
845.075	13477.8
845.399	13361.19
845.723	13353.73
846.047	13423.33
846.371	13245.71
846.695	13274.86
847.019	13091.59
847.343	13226.73
847.666	13072.61
847.99	13021.99
848.313	12993.51
848.637	12987.86
848.96	12972.27
849.284	12837.36
849.607	12838.49
849.931	12806.63
850.254	12705.16
850.577	12671.71
850.9	12551.94
851.223	12486.18
851.546	12393.3
851.869	12324.83
852.192	12449.12
852.515	12277.37
852.838	12290.71
853.161	12258.39
853.483	12152.18
853.806	12211.84
854.129	12090.04
854.451	12109.47
854.774	12095.68
855.096	11986.99
855.419	11918.74
855.741	11984.5
856.063	11857.27
856.385	11903.6
856.708	11797.39
857.03	11782.47
857.352	11773.43
857.674	11807.1
857.996	11692.53
858.318	11582.7
858.64	11673.32
858.961	11573.66
859.283	11551.29
859.605	11519.88
859.926	11480.11
860.248	11497.06
860.57	11465.87
860.891	11390.17
861.212	11381.13
861.534	11295.25
861.855	11283.73
862.176	11312.65
862.498	11291.86
862.819	11282.37
863.14	11208.7
863.461	11264.52
863.782	11233.11
864.103	11156.5
864.424	11188.82
864.745	11144.3
865.065	11074.02
865.386	11016.62
865.707	11040.12
866.027	11048.25
866.348	11110.4
866.668	10972.55
866.989	10999.89
867.309	10916.28
867.63	10979.78
867.95	10946.11
868.27	10944.08
868.59	10912.89
868.91	10869.95
869.23	10831.99
869.55	10823.85
869.87	10830.41
870.19	10731.43
870.51	10799.9
870.83	10838.54
871.15	10702.73
871.469	10728.94
871.789	10733.46
872.109	10732.56
872.428	10736.4
872.748	10659.34
873.067	10668.15
873.386	10684.65
873.706	10602.39
874.025	10603.97
874.344	10607.36
874.663	10609.85
874.982	10508.16
875.301	10514.26
875.62	10525.78
875.939	10492.56
876.258	10450.3
876.577	10470.64
876.896	10429.74
877.214	10427.93
877.533	10423.19
877.852	10354.49
878.17	10437.42
878.489	10381.61
878.807	10434.71
879.125	10334.15
879.444	10303.19
879.762	10361.27
880.08	10346.13
880.398	10255.73
880.716	10254.6
881.034	10270.42
881.352	10216.64
881.67	10205.11
881.988	10150.65
882.306	10218.45
882.624	10109.52
882.941	10096.19
883.259	10065
883.577	10034.04
883.894	10031.78
884.212	10051.9
884.529	10010.09
884.846	9975.06
885.164	9975.74
885.481	9945.01
885.798	9934.84
886.115	9844.44
886.432	9774.39
886.75	9814.16
887.067	9785.69
887.383	9774.62
887.7	9762.86
888.017	9732.81
888.334	9775.29
888.651	9653.72
888.967	9652.13
889.284	9622.3
889.6	9583.66
889.917	9485.58
890.233	9595.86
890.55	9445.13
890.866	9535.3
891.182	9429.31
891.498	9434.29
891.815	9371.69
892.131	9354.97
892.447	9338.02
892.763	9315.87
893.079	9289.88
893.395	9266.38
893.71	9244.91
894.026	9214.18
894.342	9215.31
894.657	9104.13
894.973	9127.4
895.289	9124.46
895.604	9082.88
895.92	9035.88
896.235	8958.14
896.55	9011.7
896.865	8976.22
897.181	8922.43
897.496	8980.29
897.811	8848.54
898.126	8858.26
898.441	8754.08
898.756	8778.48
899.071	8721.31
899.386	8775.77
899.7	8704.14
900.015	8567.42
900.33	8542.33
900.644	8495.55
900.959	8536
901.273	8504.59
901.588	8425.72
901.902	8456.23
902.216	8406.52
902.531	8385.73
902.845	8380.08
903.159	8292.62
903.473	8256.24
903.787	8163.81
904.101	8197.26
904.415	8244.49
904.729	8143.25
905.042	8096.47
905.356	8117.48
905.67	8040.88
905.984	8086.52
906.297	8043.59
906.611	7976.47
906.924	7900.99
907.237	7932.18
907.551	7937.15
907.864	7873.42
908.177	7848.56
908.491	7799.75
908.804	7759.53
909.117	7647.21
909.43	7666.87
909.743	7590.49
910.056	7608.8
910.368	7540.78
910.681	7570.15
910.994	7529.25
911.307	7531.96
911.619	7451.29
911.932	7461
912.244	7386.43
912.557	7379.88
912.869	7324.06
913.181	7297.17
913.494	7296.71
913.806	7257.39
914.118	7160.22
914.43	7140.56
914.742	7156.38
915.054	7087.23
915.366	7127.91
915.678	7090.84
915.99	7087.91
916.302	7065.08
916.613	6973.79
916.925	7011.75
917.236	6968.81
917.548	6915.93
917.859	6899.21
918.171	6810.4
918.482	6745.54
918.794	6776.28
919.105	6732.44
919.416	6747.8
919.727	6720.23
920.038	6669.39
920.349	6671.42
920.66	6604.76
920.971	6609.5
921.282	6617.41
921.593	6529.73
921.903	6558.66
922.214	6505.55
922.525	6428.26
922.835	6456.96
923.146	6408.38
923.456	6418.77
923.767	6369.28
924.077	6355.04
924.387	6298.55
924.697	6239.79
925.008	6288.38
925.318	6218.55
925.628	6199.12
925.938	6198.44
926.248	6137.2
926.558	6176.52
926.867	6097.65
927.177	6106.46
927.487	6076.41
927.796	6053.36
928.106	5972
928.416	5978.56
928.725	5964.77
929.034	5883.87
929.344	5957.54
929.653	5932.91
929.962	5935.62
930.271	5819.47
930.581	5850.2
930.89	5768.85
931.199	5761.61
931.508	5776.3
931.817	5786.7
932.125	5743.08
932.434	5662.63
932.743	5650.43
933.051	5623.31
933.36	5591.68
933.669	5599.81
933.977	5562.3
934.286	5555.74
934.594	5585.35
934.902	5527.27
935.21	5402.53
935.519	5452.92
935.827	5436.65
936.135	5426.03
936.443	5343.77
936.751	5351.46
937.059	5348.29
937.367	5321.85
937.674	5314.17
937.982	5270.78
938.29	5215.41
938.597	5239.37
938.905	5198.01
939.213	5184.23
939.52	5174.74
939.827	5113.5
940.135	5086.83
940.442	5120.73
940.749	5089.09
941.056	5087.96
941.363	4987.85
941.67	5010.67
941.977	4992.37
942.284	4942.65
942.591	4983.56
942.898	4918.7
943.205	4893.16
943.511	4878.25
943.818	4881.64
944.125	4861.07
944.431	4838.47
944.738	4788.76
945.044	4766.16
945.35	4729.55
945.657	4712.15
945.963	4715.31
946.269	4670.12
946.575	4653.85
946.881	4645.49
947.187	4663.11
947.493	4635.77
947.799	4598.93
948.105	4559.39
948.41	4593.96
948.716	4551.93
949.022	4506.05
949.327	4497.47
949.633	4433.29
949.938	4474.19
950.244	4464.92
950.549	4367.3
950.854	4381.76
951.16	4365.04
951.465	4337.24
951.77	4384.02
952.075	4342.44
952.38	4376.57
952.685	4348.54
952.99	4267.64
953.294	4260.64
953.599	4228.77
953.904	4202.56
954.209	4176.57
954.513	4189.68
954.818	4131.6
955.122	4168.21
955.426	4140.87
955.731	4138.15
956.035	4064.26
956.339	4105.39
956.643	4067.87
956.948	4040.98
957.252	4057.7
957.556	4016.35
957.86	4004.82
958.163	3975.22
958.467	3984.03
958.771	3935.67
959.075	3938.39
959.378	3913.75
959.682	3881.21
959.985	3897.03
960.289	3870.59
960.592	3854.32
960.896	3859.74
961.199	3839.18
961.502	3806.41
961.805	3793.53
962.108	3726.87
962.411	3729.8
962.714	3722.35
963.017	3699.07
963.32	3722.12
963.623	3695.45
963.926	3639.86
964.228	3627.43
964.531	3619.75
964.833	3666.08
965.136	3543.59
965.438	3582.24
965.741	3570.26
966.043	3542.69
966.345	3534.1
966.648	3486.19
966.95	3483.93
967.252	3521.9
967.554	3474.89
967.856	3487.55
968.158	3421.34
968.46	3403.48
968.761	3415.69
969.063	3399.42
969.365	3398.96
969.666	3359.64
969.968	3340.43
970.269	3295.92
970.571	3392.86
970.872	3316.25
971.174	3319.42
971.475	3282.58
971.776	3253.88
972.077	3272.64
972.378	3236.93
972.679	3269.48
972.98	3255.69
973.281	3218.4
973.582	3224.73
973.883	3198.52
974.183	3151.51
974.484	3144.73
974.785	3128.24
975.085	3146.54
975.386	3153.77
975.686	3086.2
975.986	3070.61
976.287	3078.75
976.587	3028.35
976.887	3064.28
977.187	3058.63
977.487	3012.08
977.787	3006.88
978.087	2971.63
978.387	2989.71
978.687	2997.17
978.987	2941.35
979.286	2933.89
979.586	2945.19
979.885	2891.18
980.185	2869.03
980.484	2878.3
980.784	2847.79
981.083	2863.16
981.382	2875.14
981.682	2830.62
981.981	2813.44
982.28	2806.21
982.579	2773.22
982.878	2786.78
983.177	2796.27
983.475	2755.59
983.774	2739.55
984.073	2714.46
984.372	2686.89
984.67	2720.11
984.969	2727.8
985.267	2701.13
985.566	2667.91
985.864	2658.19
986.162	2690.51
986.461	2612.77
986.759	2608.93
987.057	2575.26
987.355	2586.1
987.653	2596.95
987.951	2609.15
988.249	2554.01
988.547	2549.04
988.844	2552.88
989.142	2530.51
989.44	2491.19
989.737	2520.57
990.035	2506.11
990.332	2493.68
990.63	2537.74
990.927	2479.44
991.224	2469.95
991.521	2438.54
991.819	2435.83
992.116	2391.53
992.413	2412.55
992.71	2396.05
993.006	2402.61
993.303	2373.68
993.6	2331.2
993.897	2360.12
994.193	2352.21
994.49	2329.39
994.787	2304.08
995.083	2290.07
995.379	2280.35
995.676	2262.95
995.972	2272.44
996.268	2258.2
996.565	2262.05
996.861	2237.41
997.157	2271.08
997.453	2204.65
997.749	2192.22
998.044	2236.06
998.34	2177.75
998.636	2185.44
998.932	2167.36
999.227	2123.74
999.523	2165.55
999.818	2115.61
1000.114	2107.7
1000.409	2095.72
1000.704	2092.33
1001	2072.22
1001.295	2077.64
1001.59	2095.04
1001.885	2089.17
1002.18	2046.91
1002.475	2039.23
1002.77	2030.19
1003.065	1987.7
1003.359	1991.54
1003.654	1987.93
1003.949	1975.5
1004.243	1932.56
1004.538	1932.34
1004.832	1973.47
1005.127	1928.04
1005.421	1911.77
1005.715	1937.31
1006.009	1918.55
1006.304	1911.55
1006.598	1883.98
1006.892	1861.38
1007.186	1850.53
1007.48	1816.18
1007.773	1865.22
1008.067	1821.83
1008.361	1816.18
1008.655	1806.01
1008.948	1776.86
1009.242	1799.91
1009.535	1780.25
1009.829	1773.24
1010.122	1763.75
1010.415	1761.72
1010.708	1740.7
1011.001	1722.85
1011.295	1717.65
1011.588	1699.35
1011.881	1674.26
1012.173	1679.91
1012.466	1689.86
1012.759	1690.99
1013.052	1641.95
1013.344	1637.65
1013.637	1631.55
1013.93	1627.94
1014.222	1617.77
1014.514	1585.23
1014.807	1587.71
1015.099	1615.73
1015.391	1578
1015.683	1552.91
1015.976	1563.76
1016.268	1543.87
1016.56	1525.79
1016.851	1540.26
1017.143	1518.56
1017.435	1544.1
1017.727	1484.44
1018.018	1491.67
1018.31	1497.55
1018.602	1478.11
1018.893	1481.5
1019.185	1449.41
1019.476	1453.48
1019.767	1447.83
1020.058	1430.2
1020.35	1406.02
1020.641	1353.59
1020.932	1399.02
1021.223	1391.11
1021.514	1367.38
1021.804	1347.72
1022.095	1392.46
1022.386	1382.07
1022.677	1355.18
1022.967	1331.9
1023.258	1330.09
1023.548	1318.79
1023.839	1328.96
1024.129	1323.54
1024.419	1293.26
1024.709	1266.37
1025	1270.43
1025.29	1278.79
1025.58	1272.92
1025.87	1268.85
1026.16	1256.2
1026.449	1226.82
1026.739	1236.54
1027.029	1219.13
1027.319	1188.17
1027.608	1226.14
1027.898	1204.67
1028.187	1184.79
1028.477	1172.81
1028.766	1187.05
1029.055	1148.63
1029.344	1155.18
1029.634	1155.63
1029.923	1177.55
1030.212	1158.12
1030.501	1127.39
1030.79	1130.1
1031.078	1083.54
1031.367	1115.18
1031.656	1104.56
1031.945	1114.28
1032.233	1088.97
1032.522	1064.34
1032.81	1096.88
1033.099	1078.12
1033.387	1092.36
1033.675	1061.85
1033.963	1048.97
1034.251	1020.04
1034.54	1054.17
1034.828	1027.73
1035.116	1020.5
1035.403	1023.66
1035.691	1026.37
1035.979	1004.45
1036.267	982.53
1036.554	985.47
1036.842	988.63
1037.129	1010.55
1037.417	979.82
1037.704	965.36
1037.992	967.84
1038.279	955.41
1038.566	953.15
1038.853	953.15
1039.14	953.15
