Data from hue_40_FLMS001491_15.txt Node
Date: Mon Feb 06 15:07:31 GMT 2017
User: dcchb
Spectrometer: FLMS00149
Trigger mode: 0
Integration Time (sec): 2.000000E-2
Scans to average: 10
Electric dark correction enabled: true
Nonlinearity correction enabled: false
Boxcar width: 0
XAxis mode: Wavelengths
Number of Pixels in Spectrum: 2048
>>>>>Begin Spectral Data<<<<<
341.393	-11.23
341.776	-11.23
342.16	-11.23
342.543	-47.84
342.927	-70.44
343.31	-67.05
343.693	-69.76
344.077	-80.83
344.46	-40.15
344.843	-39.25
345.226	-48.52
345.61	-25.92
345.993	-19.14
346.376	-5.35
346.759	-8.97
347.142	35.32
347.525	47.53
347.908	37.36
348.291	79.39
348.674	97.02
349.057	108.32
349.44	124.36
349.823	134.3
350.206	140.86
350.588	188.99
350.971	215.88
351.354	217.01
351.737	223.79
352.119	259.05
352.502	257.92
352.884	251.36
353.267	294.3
353.65	297.92
354.032	285.26
354.414	306.5
354.797	305.6
355.179	301.98
355.562	315.99
355.944	319.84
356.326	345.82
356.709	333.17
357.091	340.4
357.473	326.16
357.855	334.98
358.238	333.62
358.62	349.67
359.002	325.71
359.384	339.5
359.766	345.37
360.148	341.08
360.53	334.07
360.912	337.24
361.294	339.27
361.676	315.32
362.057	339.04
362.439	346.95
362.821	323.9
363.203	327.52
363.584	340.17
363.966	341.08
364.348	338.14
364.729	318.48
365.111	320.29
365.493	317.35
365.874	330.46
366.256	318.48
366.637	292.72
367.019	299.95
367.4	320.97
367.781	311.7
368.163	333.62
368.544	304.02
368.925	313.51
369.306	294.98
369.688	295.43
370.069	314.19
370.45	320.74
370.831	309.89
371.212	313.51
371.593	323.68
371.974	294.53
372.355	327.07
372.736	301.08
373.117	321.19
373.498	322.55
373.879	325.26
374.26	310.12
374.641	317.12
375.021	321.42
375.402	306.5
375.783	316.9
376.163	332.04
376.544	314.64
376.925	325.94
377.305	299.05
377.686	325.94
378.066	323.45
378.447	308.76
378.827	337.01
379.208	332.49
379.588	326.84
379.968	347.63
380.349	328.42
380.729	328.42
381.109	315.77
381.489	326.16
381.87	351.93
382.25	335.88
382.63	336.78
383.01	363.68
383.39	329.55
383.77	318.93
384.15	325.94
384.53	325.49
384.91	337.91
385.29	342.43
385.67	332.94
386.049	345.6
386.429	333.62
386.809	335.43
387.189	348.99
387.568	342.89
387.948	350.57
388.328	357.12
388.707	352.38
389.087	358.48
389.466	357.12
389.846	369.55
390.225	369.55
390.605	377.01
390.984	366.61
391.363	346.5
391.743	352.38
392.122	364.35
392.501	353.06
392.881	369.55
393.26	382.21
393.639	352.15
394.018	357.12
394.397	349.67
394.776	376.11
395.155	363
395.534	360.29
395.913	353.51
396.292	368.42
396.671	374.52
397.05	406.16
397.429	386.05
397.808	375.88
398.186	377.24
398.565	373.85
398.944	386.28
399.323	379.72
399.701	379.5
400.08	381.53
400.458	397.57
400.837	377.01
401.215	398.03
401.594	395.99
401.972	398.93
402.351	388.31
402.729	408.87
403.107	383.11
403.486	393.51
403.864	408.65
404.242	404.35
404.62	424.69
404.999	398.7
405.377	409.55
405.755	419.27
406.133	436.9
406.511	419.72
406.889	421.08
407.267	424.24
407.645	433.51
408.023	421.3
408.401	407.74
408.779	415.43
409.156	422.66
409.534	426.73
409.912	435.77
410.29	411.81
410.667	450.68
411.045	437.57
411.422	454.97
411.8	466.95
412.178	468.31
412.555	461.75
412.933	459.49
413.31	457.23
413.687	472.83
414.065	469.44
414.442	480.06
414.819	467.4
415.197	467.18
415.574	469.89
415.951	473.28
416.328	480.06
416.705	492.71
417.082	478.93
417.46	481.64
417.837	479.38
418.214	498.81
418.591	495.65
418.967	498.36
419.344	518.25
419.721	517.12
420.098	505.59
420.475	500.17
420.852	523.22
421.228	511.7
421.605	515.76
421.982	517.12
422.358	543.56
422.735	531.58
423.111	506.5
423.488	525.03
423.864	533.39
424.241	559.83
424.617	555.08
424.994	535.65
425.37	526.16
425.746	546.5
426.123	568.19
426.499	541.3
426.875	567.06
427.251	561.64
427.627	576.1
428.003	583.56
428.379	567.06
428.756	585.14
429.132	589.89
429.507	596.67
429.883	603.9
430.259	611.13
430.635	625.59
431.011	630.79
431.387	636.44
431.763	656.55
432.138	628.98
432.514	625.82
432.89	625.59
433.265	637.57
433.641	644.12
434.016	647.06
434.392	657
434.767	657.23
435.143	658.58
435.518	676.21
435.894	677.79
436.269	669.43
436.644	696.32
437.02	682.76
437.395	700.84
437.77	716.89
438.145	710.56
438.52	724.8
438.895	714.4
439.271	719.15
439.646	727.51
440.021	733.16
440.395	723.89
440.77	729.54
441.145	716.44
441.52	734.74
441.895	748.07
442.27	723.22
442.645	747.4
443.019	752.82
443.394	776.1
443.769	744.01
444.143	768.86
444.518	778.13
444.892	763.44
445.267	772.25
445.641	775.64
446.016	785.13
446.39	795.08
446.764	792.59
447.139	802.76
447.513	802.54
447.887	805.7
448.262	804.12
448.636	808.18
449.01	842.99
449.384	814.74
449.758	832.82
450.132	833.27
450.506	845.02
450.88	861.29
451.254	859.71
451.628	866.71
452.002	857.45
452.376	861.06
452.75	869.2
453.123	896.54
453.497	910.33
453.871	883.21
454.244	913.72
454.618	917.56
454.992	922.98
455.365	939.48
455.739	943.32
456.112	987.39
456.486	983.32
456.859	965.02
457.232	950.1
457.606	985.36
457.979	988.07
458.352	1005.69
458.725	1053.38
459.099	1013.15
459.472	1043.66
459.845	1059.25
460.218	1067.61
460.591	1097.22
460.964	1095.64
461.337	1135.41
461.71	1124.33
462.083	1138.8
462.456	1133.83
462.829	1159.59
463.201	1151.45
463.574	1174.5
463.947	1195.29
464.32	1194.62
464.692	1203.43
465.065	1224.22
465.438	1247.5
465.81	1285.46
466.183	1311
466.555	1286.14
466.928	1304.9
467.3	1325.69
467.672	1352.58
468.045	1358.45
468.417	1337.89
468.789	1388.06
469.161	1403.88
469.534	1433.93
469.906	1466.47
470.278	1465.79
470.65	1516.41
471.022	1528.84
471.394	1560.48
471.766	1593.93
472.138	1614.72
472.51	1663.3
472.882	1670.31
473.253	1679.8
473.625	1757.54
473.997	1759.57
474.369	1775.62
474.74	1853.58
475.112	1889.96
475.484	1941.71
475.855	1952.34
476.227	1958.44
476.598	2037.31
476.97	2068.26
477.341	2145.55
477.713	2209.28
478.084	2230.52
478.455	2305.32
478.827	2363.4
479.198	2398.43
479.569	2433.9
479.94	2545.54
480.311	2589.16
480.682	2638.65
481.053	2773.56
481.424	2797.96
481.795	2865.98
482.166	2964.51
482.537	3020.33
482.908	3125.86
483.279	3179.65
483.65	3263.71
484.021	3364.05
484.391	3466.65
484.762	3506.42
485.133	3565.17
485.503	3663.03
485.874	3758.16
486.244	3877.71
486.615	3966.07
486.985	4069.34
487.356	4224.14
487.726	4261.65
488.097	4344.14
488.467	4396.11
488.837	4576
489.207	4633.62
489.578	4747.74
489.948	4863.9
490.318	4965.36
490.688	5080.84
491.058	5159.48
491.428	5314.51
491.798	5384.34
492.168	5495.75
492.538	5602.86
492.908	5729.41
493.278	5869.52
493.648	5916.75
494.017	6031.78
494.387	6116.97
494.757	6307.25
495.126	6370.52
495.496	6453.23
495.866	6528.94
496.235	6626.56
496.605	6850.51
496.974	6899.78
497.344	6923.73
497.713	6984.52
498.082	7120.11
498.452	7285.98
498.821	7244.4
499.19	7438.29
499.559	7542.47
499.928	7574.11
500.298	7704.5
500.667	7853.65
501.036	7854.33
501.405	7982.91
501.774	8012.97
502.143	8161.44
502.512	8194.21
502.88	8341.32
503.249	8316.24
503.618	8489.11
503.987	8576.12
504.356	8643.91
504.724	8734.98
505.093	8752.83
505.462	8881.19
505.83	8908.76
506.199	9030.79
506.567	9113.5
506.936	9230.34
507.304	9310.33
507.672	9370.67
508.041	9431.69
508.409	9532.7
508.777	9681.62
509.145	9723.43
509.514	9713.04
509.882	9784.67
510.25	9841.17
510.618	10002.97
510.986	9970.88
511.354	10114.61
511.722	10136.75
512.09	10294.94
512.458	10274.83
512.826	10442.51
513.193	10501.26
513.561	10542.39
513.929	10653.8
514.297	10650.86
514.664	10751.65
515.032	10919.56
515.4	10984.64
515.767	10946
516.135	11137.86
516.502	11057.63
516.869	11249.72
517.237	11260.79
517.604	11208.14
517.972	11474.35
518.339	11511.18
518.706	11485.42
519.073	11569.71
519.44	11682.25
519.808	11756.37
520.175	11841.34
520.542	11942.81
520.909	12017.38
521.276	12022.35
521.643	12188
522.009	12255.57
522.376	12270.71
522.743	12416.24
523.11	12420.76
523.477	12608.1
523.843	12641.77
524.21	12772.84
524.577	12838.6
524.943	12941.43
525.31	12997.02
525.676	13184.58
526.043	13185.49
526.409	13250.57
526.776	13366.5
527.142	13437.68
527.508	13560.39
527.874	13543.22
528.241	13693.5
528.607	13757.45
528.973	13907.95
529.339	13880.84
529.705	14032.24
530.071	14064.56
530.437	14195.86
530.803	14208.28
531.169	14345.91
531.535	14296.64
531.901	14365.12
532.267	14481.72
532.632	14500.71
532.998	14611.89
533.364	14667.03
533.73	14783.41
534.095	14954.03
534.461	14924.65
534.826	15074.02
535.192	14963.97
535.557	15098.88
535.923	15082.39
536.288	15216.17
536.653	15302.04
537.019	15256.84
537.384	15370.06
537.749	15439.44
538.114	15449.16
538.479	15516.72
538.845	15636.72
539.21	15607.8
539.575	15740.45
539.94	15831.74
540.305	16036.26
540.67	15803.5
541.034	15958.75
541.399	15941.57
541.764	16214.33
542.129	16101.57
542.494	16230.38
542.858	16215.92
543.223	16345.18
543.587	16383.82
543.952	16390.6
544.316	16500.2
544.681	16509.92
545.045	16633.08
545.41	16693.87
545.774	16684.6
546.138	16800.08
546.503	16847.54
546.867	16815.9
547.231	16982
547.595	17019.96
547.959	17033.3
548.324	17002.79
548.688	17101.09
549.052	17235.55
549.416	17232.61
549.779	17306.06
550.143	17344.02
550.507	17501.76
550.871	17553.06
551.235	17600.29
551.599	17669.66
551.962	17807.51
552.326	17776.55
552.689	17853.39
553.053	17777.68
553.417	17847.74
553.78	18061.97
554.143	18118.01
554.507	18077.56
554.87	18195.3
555.234	18412.69
555.597	18235.98
555.96	18384.9
556.323	18428.29
556.686	18415.86
557.05	18629.19
557.413	18612.46
557.776	18629.64
558.139	18781.72
558.502	18767.94
558.865	18927.48
559.228	19055.61
559.59	19099.68
559.953	19127.03
560.316	19283.86
560.679	19220.36
561.041	19375.15
561.404	19527.24
561.767	19644.75
562.129	19474.59
562.492	19733.34
562.854	19739.44
563.217	19776.05
563.579	19795.71
563.941	19924.52
564.304	20011.3
564.666	20166.55
565.028	20254.91
565.39	20238.18
565.753	20388.46
566.115	20372.87
566.477	20576.48
566.839	20648.34
567.201	20712.07
567.563	20662.8
567.925	20892.18
568.287	20733.76
568.648	20947.09
569.01	21098.5
569.372	21111.83
569.734	21130.59
570.095	21310.92
570.457	21317.25
570.819	21491.48
571.18	21472.27
571.542	21601.08
571.903	21612.61
572.265	21818.25
572.626	21808.76
572.987	21864.13
573.349	22053.05
573.71	21983.9
574.071	22253.72
574.432	22369.2
574.794	22542.53
575.155	22428.86
575.516	22429.99
575.877	22674.28
576.238	22776.19
576.599	23000.82
576.96	22940.03
577.32	23067.49
577.681	23211.89
578.042	23236.75
578.403	23413.24
578.763	23490.98
579.124	23683.29
579.485	23861.82
579.845	23941.81
580.206	24039.66
580.566	24105.65
580.927	24230.85
581.287	24423.84
581.648	24482.59
582.008	24748.57
582.368	24768.23
582.728	25004.84
583.089	25108.11
583.449	25269.01
583.809	25389.69
584.169	25767.98
584.529	25597.36
584.889	26007.3
585.249	26022.89
585.609	26211.13
585.969	26506.04
586.329	26546.49
586.688	26716.66
587.048	26993.03
587.408	26998.23
587.768	27276.19
588.127	27444.32
588.487	27638.67
588.846	27903.97
589.206	27883.86
589.565	28211.08
589.925	28542.14
590.284	28502.15
590.643	28736.49
591.003	29011.29
591.362	29214.9
591.721	29418.51
592.08	29434.55
592.44	29818.04
592.799	29962.22
593.158	30172.61
593.517	30303.68
593.876	30500.06
594.235	30632.49
594.593	30823.67
594.952	31033.38
595.311	31137.78
595.67	31432.69
596.029	31808.05
596.387	31904.54
596.746	32201.48
597.104	32129.85
597.463	32260.01
597.822	32574.36
598.18	32634.92
598.538	32786.55
598.897	33126.21
599.255	33097.73
599.613	33586.31
599.972	33579.75
600.33	33772.74
600.688	33634.67
601.046	34025.62
601.404	34271.71
601.762	34300.41
602.12	34549.67
602.478	34647.75
602.836	34873.96
603.194	34671.48
603.552	35003.44
603.91	34951.69
604.268	35354.17
604.625	35246.83
604.983	35616.08
605.341	35563.88
605.698	35791.45
606.056	36125.67
606.413	36058.11
606.771	36182.4
607.128	36310.3
607.485	36074.15
607.843	36447.02
608.2	36731.76
608.557	36990.06
608.914	36823.96
609.272	37142.37
609.629	37199.77
609.986	37423.72
610.343	37520.21
610.7	37832.52
611.057	37801.11
611.414	37826.65
611.771	37866.42
612.127	38234.09
612.484	38090.37
612.841	38318.84
613.198	38221.66
613.554	38509.11
613.911	38600.64
614.267	38786.85
614.624	38665.49
614.98	38952.72
615.337	39223.45
615.693	39041.3
616.05	39116.78
616.406	39453.5
616.762	39420.73
617.118	39377.11
617.475	39399.03
617.831	39616.88
618.187	39657.56
618.543	39719.48
618.899	40050.32
619.255	40039.02
619.611	40118.56
619.967	40249.63
620.323	40249.86
620.678	40119.92
621.034	40189.75
621.39	40243.98
621.746	40089.86
622.101	40763.74
622.457	40482.85
622.812	40624.77
623.168	40726.91
623.523	40630.41
623.879	40835.83
624.234	40583.18
624.589	40966.68
624.945	40782.05
625.3	40925.55
625.655	40930.29
626.01	40962.61
626.365	40950.63
626.72	41045.09
627.075	41001.7
627.43	41022.95
627.785	41036.05
628.14	41157.86
628.495	41167.58
628.85	41255.03
629.205	41064.53
629.559	41428.13
629.914	41208.25
630.269	41255.48
630.623	41156.05
630.978	41019.11
631.332	41193.11
631.687	41160.8
632.041	41222.72
632.396	41344.29
632.75	41061.36
633.104	41254.58
633.459	41160.57
633.813	41189.95
634.167	40979.33
634.521	41145.43
634.875	41184.52
635.229	41139.55
635.583	41024.3
635.937	40935.49
636.291	40956.51
636.645	41083.28
636.999	41048.48
637.352	41060.69
637.706	40860.01
638.06	41024.98
638.413	40866.57
638.767	40897.98
639.121	40857.53
639.474	40672.9
639.828	40710.86
640.181	40813.91
640.534	40791.09
640.888	40727.59
641.241	40519.23
641.594	40600.58
641.947	40899.56
642.301	40720.81
642.654	40747.25
643.007	40691.88
643.36	40603.52
643.713	40622.96
644.066	40625.22
644.419	40524.65
644.771	40151.56
645.124	39824.56
645.477	39885.8
645.83	39627.28
646.182	39461.18
646.535	39407.62
646.888	39474.29
647.24	39223.45
647.593	39422.99
647.945	39388.87
648.298	39326.49
648.65	39244.01
649.002	38993.17
649.355	39365.82
649.707	39112.71
650.059	39383.22
650.411	39712.47
650.763	39816.88
651.115	40141.39
651.467	40136.64
651.819	40026.14
652.171	39943.88
652.523	39928.29
652.875	39908.17
653.227	39729.2
653.578	40008.74
653.93	39829.31
654.282	39740.72
654.633	39639.25
654.985	39793.6
655.337	39714.51
655.688	39725.35
656.039	39866.37
656.391	39380.96
656.742	39507.28
657.094	39607.39
657.445	39748.63
657.796	39546.38
658.147	39467.28
658.498	39628.63
658.849	39625.24
659.2	39578.69
659.551	39534.17
659.902	39602.42
660.253	39659.37
660.604	39576.21
660.955	39519.71
661.306	39539.6
661.656	39433.61
662.007	39528.97
662.358	39359.49
662.708	39427.96
663.059	39512.93
663.409	39153.39
663.76	39535.53
664.11	39496.21
664.461	39407.4
664.811	39526.49
665.161	39412.82
665.511	39422.31
665.862	39470.45
666.212	39554.28
666.562	39601.29
666.912	39389.32
667.262	39333.05
667.612	39334.18
667.962	39364.01
668.312	39342.99
668.662	39489.88
669.011	39374.18
669.361	39354.52
669.711	39278.13
670.06	39150.23
670.41	39134.86
670.76	39130.79
671.109	39221.41
671.459	39167.63
671.808	39126.5
672.157	39205.14
672.507	38838.6
672.856	38938.26
673.205	38864.81
673.554	39016.67
673.904	38935.77
674.253	39270.22
674.602	38935.09
674.951	38492.17
675.3	38332.85
675.649	38929.44
675.998	38858.48
676.346	38899.39
676.695	38969.44
677.044	38737.58
677.393	38776.9
677.741	38795.89
678.09	38718.37
678.438	38775.32
678.787	38685.61
679.135	38693.29
679.484	38446.52
679.832	38605.84
680.181	38383.92
680.529	38602.45
680.877	38432.28
681.225	38463.01
681.573	38615.55
681.922	38208.56
682.27	38219.63
682.618	38324.49
682.966	38226.64
683.314	38246.75
683.661	38228.67
684.009	37920.88
684.357	38017.15
684.705	37862.13
685.053	37930.15
685.4	37674.33
685.748	37622.13
686.095	37661.91
686.443	37474.11
686.79	37565.64
687.138	37537.16
687.485	37473.89
687.832	37261.92
688.18	37481.34
688.527	37203.39
688.874	37108.93
689.221	37014.92
689.568	36910.96
689.915	36886.78
690.262	36720.69
690.609	36850.4
690.956	36664.64
691.303	36624.42
691.65	36428.49
691.997	36483.86
692.344	36153.92
692.69	36269.85
693.037	36161.38
693.383	36048.16
693.73	36170.87
694.077	35872.8
694.423	35872.8
694.769	35756.64
695.116	35736.98
695.462	35709.19
695.808	35596.42
696.155	35572.02
696.501	35389.87
696.847	35347.62
697.193	34991.47
697.539	35297.67
697.885	34934.07
698.231	34881.64
698.577	35024.23
698.923	34938.14
699.269	34697.01
699.614	34483.01
699.96	34337.92
700.306	34451.82
700.651	34366.62
700.997	34243.92
701.342	34167.99
701.688	34050.7
702.033	33972.74
702.379	34082.79
702.724	33864.49
703.069	33880.08
703.415	33538.17
703.76	33580.88
704.105	33621.79
704.45	33581.56
704.795	33276.94
705.14	33186.77
705.485	33220.67
705.83	33024.51
706.175	33196.71
706.52	33020.9
706.865	33017.51
707.209	33006.21
707.554	32750.62
707.899	32906.78
708.243	32709.72
708.588	32514.7
708.932	32399.9
709.277	32342.5
709.621	32423.85
709.966	32219.79
710.31	32293.23
710.654	32122.39
710.998	32078.55
711.342	32123.52
711.687	31892.57
712.031	31796.52
712.375	31803.98
712.719	31759.24
713.063	31778.22
713.407	31742.51
713.75	31551.11
714.094	31431.79
714.438	31358.79
714.782	31524.67
715.125	31324.67
715.469	31416.87
715.812	31174.17
716.156	30979.82
716.499	31099.37
716.843	31061.85
717.186	30833.84
717.53	30979.14
717.873	31011.91
718.216	30940.95
718.559	30726.49
718.902	30318.37
719.246	30721.07
719.589	30432.49
719.932	30361.08
720.275	30380.97
720.617	30408.76
720.96	30318.14
721.303	30275.43
721.646	30387.07
721.989	30004.48
722.331	30251.48
722.674	30136.91
723.016	30140.75
723.359	30027.3
723.701	30077.25
724.044	29820.3
724.386	29645.39
724.729	29877.03
725.071	29750.02
725.413	29740.76
725.755	29717.48
726.097	29634.32
726.439	29492.63
726.782	29484.49
727.124	29634.55
727.465	29443.82
727.807	29297.38
728.149	29247.66
728.491	29238.4
728.833	29383.25
729.175	29133.54
729.516	29104.16
729.858	29043.15
730.199	29108.91
730.541	29030.27
730.882	29078.4
731.224	29133.99
731.565	28861.01
731.906	28885.86
732.248	29002.02
732.589	28740.56
732.93	28762.03
733.271	28704.63
733.612	28731.29
733.953	28791.4
734.294	28567.46
734.635	28301.25
734.976	28539.21
735.317	28356.61
735.658	28393.67
735.999	28374.92
736.339	28447.01
736.68	28385.31
737.021	28212.44
737.361	28178.31
737.702	28272.32
738.042	28141.7
738.383	28129.73
738.723	28039.11
739.063	28108.26
739.404	27986.45
739.744	27814.71
740.084	27885.89
740.424	27930.86
740.764	27811.54
741.104	27810.41
741.444	27732.45
741.784	27614.26
742.124	27640.93
742.464	27602.73
742.804	27615.16
743.143	27487.71
743.483	27604.77
743.823	27347.37
744.162	27452.46
744.502	27398.67
744.841	27204.33
745.181	27442.29
745.52	27199.36
745.86	27294.27
746.199	27161.62
746.538	27136.31
746.877	27212.24
747.216	27165.01
747.556	27019.25
747.895	27016.54
748.234	26881.4
748.573	26870.1
748.911	26894.96
749.25	26817.44
749.589	26586.72
749.928	26682.98
750.267	26685.7
750.605	26576.32
750.944	26502.42
751.283	26488.41
751.621	26420.39
751.96	26372.03
752.298	26390.79
752.636	26299.49
752.975	26264.46
753.313	26086.84
753.651	26278.93
753.989	26138.14
754.327	26102.89
754.666	25974.08
755.004	26001.87
755.342	25924.59
755.679	25926.62
756.017	25749.68
756.355	25799.84
756.693	25603.47
757.031	25644.82
757.368	25544.03
757.706	25496.35
758.044	25478.95
758.381	25544.71
758.719	25351.72
759.056	25393.98
759.394	25263.14
759.731	25143.14
760.068	25148.79
760.405	25071.73
760.743	24979.3
761.08	24958.06
761.417	24803.94
761.754	24686.43
762.091	24723.04
762.428	24542.25
762.765	24472.2
763.102	24585.86
763.438	24472.87
763.775	24355.36
764.112	24281.24
764.449	24216.16
764.785	24134.8
765.122	24082.38
765.458	23852.78
765.795	23879.67
766.131	23886.22
766.467	23688.26
766.804	23645.32
767.14	23542.5
767.476	23538.43
767.812	23412.79
768.148	23457.08
768.485	23229.06
768.821	23122.63
769.157	23126.47
769.492	23048.28
769.828	23075.4
770.164	22858.45
770.5	22866.81
770.836	22797.66
771.171	22634.5
771.507	22591.34
771.842	22457.56
772.178	22455.3
772.513	22202.65
772.849	22230.22
773.184	22122.43
773.519	22227.51
773.855	22038.59
774.19	21963.79
774.525	21877.01
774.86	21970.11
775.195	21863.45
775.53	21699.16
775.865	21728.76
776.2	21489.45
776.535	21392.95
776.87	21325.39
777.205	21261.88
777.539	21080.42
777.874	21197.71
778.209	20950.48
778.543	20968.56
778.878	20873.65
779.212	20810.37
779.547	20728.57
779.881	20773.08
780.215	20639.75
780.55	20570.38
780.884	20444.5
781.218	20493.77
781.552	20417.84
781.886	20311.4
782.22	20166.77
782.554	20164.29
782.888	19963.84
783.222	19905.31
783.556	19902.82
783.889	19791.64
784.223	19660.57
784.557	19558.43
784.89	19624.87
785.224	19501.48
785.557	19310.07
785.891	19403.4
786.224	19306.91
786.558	19269.85
786.891	19125.22
787.224	19002.51
787.557	19028.72
787.891	18950.31
788.224	18873.92
788.557	18919.12
788.89	18830.31
789.223	18685.68
789.556	18620.15
789.888	18582.41
790.221	18540.83
790.554	18386.93
790.887	18398.23
791.219	18289.53
791.552	18263.09
791.884	18214.05
792.217	18212.25
792.549	18051.35
792.882	17897.45
793.214	17818.13
793.546	17988.75
793.879	17820.39
794.211	17729.32
794.543	17791.69
794.875	17696.78
795.207	17727.29
795.539	17616.78
795.871	17555.77
796.203	17401.19
796.535	17400.74
796.867	17312.61
797.198	17241.2
797.53	17239.84
797.862	17078.72
798.193	17150.35
798.525	16991.49
798.856	17085.05
799.188	16881.89
799.519	16828.78
799.85	16716.02
800.182	16711.95
800.513	16674.21
800.844	16530.26
801.175	16595.79
801.506	16558.28
801.837	16443.71
802.168	16539.3
802.499	16332.3
802.83	16379.07
803.161	16245.29
803.491	16165.52
803.822	16219.53
804.153	16170.72
804.483	16024.28
804.814	15998.07
805.145	15935.02
805.475	15949.26
805.805	15914.23
806.136	15772.99
806.466	15847.11
806.796	15860.67
807.126	15761.46
807.457	15594.46
807.787	15684.86
808.117	15540.68
808.447	15541.58
808.777	15656.61
809.107	15508.82
809.436	15484.18
809.766	15369.38
810.096	15420
810.426	15272.89
810.755	15401.93
811.085	15277.18
811.414	15211.2
811.744	15091.65
812.073	15081.03
812.403	14976.4
812.732	14911.99
813.061	14967.36
813.39	14855.73
813.719	14797.2
814.049	14947.47
814.378	14882.84
814.707	14799.91
815.036	14820.7
815.365	14636.52
815.693	14631.32
816.022	14612.57
816.351	14521.27
816.68	14486.7
817.008	14530.31
817.337	14350.43
817.665	14342.29
817.994	14303.65
818.322	14334.83
818.651	14269.53
818.979	14224.78
819.307	14309.07
819.636	14178.68
819.964	14072.02
820.292	14105.91
820.62	14168.51
820.948	14101.17
821.276	14086.71
821.604	14106.14
821.932	14081.28
822.259	14075.63
822.587	14092.13
822.915	14019.81
823.243	14016.43
823.57	13999.93
823.898	14046.93
824.225	14006.71
824.553	13995.41
824.88	14075.63
825.207	14108.63
825.535	13989.76
825.862	14011.23
826.189	13932.36
826.516	13992.25
826.843	14114.28
827.17	14029.31
827.497	14102.3
827.824	14048.51
828.151	14034.96
828.478	13952.25
828.805	14117.44
829.131	14026.59
829.458	13991.57
829.785	13967.39
830.111	14009.42
830.438	14035.63
830.764	13937.11
831.09	14052.36
831.417	13938.24
831.743	14008.52
832.069	13920.61
832.395	13942.75
832.722	13964.45
833.048	13927.39
833.374	13934.85
833.7	13814.85
834.026	13849.88
834.351	13912.02
834.677	13749.77
835.003	13897.11
835.329	13795.87
835.654	13732.82
835.98	13698.69
836.306	13704.12
836.631	13754.51
836.956	13649.2
837.282	13719.71
837.607	13734.85
837.932	13582.31
838.258	13628.41
838.583	13597
838.908	13536.66
839.233	13566.72
839.558	13479.72
839.883	13380.96
840.208	13336.9
840.533	13445.14
840.858	13431.81
841.182	13407.18
841.507	13419.83
841.832	13325.6
842.156	13290.12
842.481	13297.57
842.805	13223.68
843.13	13139.39
843.454	13146.17
843.778	13166.5
844.103	13164.92
844.427	13096.22
844.751	13121.08
845.075	13043.57
845.399	13038.15
845.723	12959.96
846.047	12945.04
846.371	12853.97
846.695	12834.08
847.019	12684.93
847.343	12694.43
847.666	12673.64
847.99	12653.3
848.313	12573.75
848.637	12457.82
848.96	12513.87
849.284	12405.85
849.607	12354.1
849.931	12310.71
850.254	12276.36
850.577	12209.69
850.9	12120.43
851.223	12080.2
851.546	11973.09
851.869	11921.57
852.192	12030.49
852.515	11920.21
852.838	11883.15
853.161	11835.47
853.483	11773.77
853.806	11695.58
854.129	11685.64
854.451	11653.78
854.774	11631.63
855.096	11630.73
855.419	11510.5
855.741	11561.8
856.063	11475.02
856.385	11414.91
856.708	11373.33
857.03	11285.65
857.352	11322.26
857.674	11314.58
857.996	11315.71
858.318	11197.74
858.64	11159.1
858.961	11197.29
859.283	11040.01
859.605	11125.88
859.926	11103.28
860.248	11024.87
860.57	10965.88
860.891	11073.9
861.212	10978.31
861.534	10906.45
861.855	10892.89
862.176	10881.14
862.498	10949.16
862.819	10877.98
863.14	10737.42
863.461	10841.37
863.782	10785.1
864.103	10796.4
864.424	10684.76
864.745	10701.48
865.065	10684.08
865.386	10623.97
865.707	10617.87
866.027	10710.07
866.348	10556.86
866.668	10611.77
866.989	10552.34
867.309	10489.74
867.63	10466.46
867.95	10518.44
868.27	10475.05
868.59	10464.88
868.91	10491.09
869.23	10423.07
869.55	10365.9
869.87	10428.95
870.19	10334.49
870.51	10384.88
870.83	10391.21
871.15	10322.96
871.469	10345.56
871.789	10348.05
872.109	10298.1
872.428	10239.35
872.748	10333.13
873.067	10240.71
873.386	10268.28
873.706	10244.77
874.025	10218.33
874.344	10207.71
874.663	10179.69
874.982	10098.11
875.301	10144.44
875.62	10115.96
875.939	10114.15
876.258	10081.39
876.577	10080.48
876.896	10011.11
877.214	10041.16
877.533	10032.12
877.852	10003.88
878.17	9938.79
878.489	9986.02
878.807	9962.29
879.125	9909.19
879.444	9884.33
879.762	9859.47
880.08	9939.92
880.398	9882.52
880.716	9829.87
881.034	9809.08
881.352	9802.98
881.67	9777.21
881.988	9797.55
882.306	9719.36
882.624	9680.95
882.941	9643.66
883.259	9663.09
883.577	9612.47
883.894	9544.9
884.212	9594.62
884.529	9568.41
884.846	9572.93
885.164	9546.94
885.481	9500.61
885.798	9495.19
886.115	9450.22
886.432	9439.14
886.75	9461.97
887.067	9407.05
887.383	9359.6
887.7	9417.22
888.017	9218.36
888.334	9327.51
888.651	9268.53
888.967	9289.77
889.284	9177.91
889.6	9156.67
889.917	9163.67
890.233	9229.66
890.55	9093.16
890.866	9098.14
891.182	9069.66
891.498	9061.98
891.815	9061.3
892.131	8994.64
892.447	8944.69
892.763	8951.47
893.079	8881.42
893.395	8889.1
893.71	8857.24
894.026	8794.42
894.342	8840.74
894.657	8683.01
894.973	8745.15
895.289	8709.22
895.604	8710.12
895.92	8610.24
896.235	8632.39
896.55	8610.01
896.865	8522.11
897.181	8583.35
897.496	8525.5
897.811	8505.38
898.126	8480.07
898.441	8454.31
898.756	8475.33
899.071	8354.43
899.386	8380.87
899.7	8337.25
900.015	8350.13
900.33	8237.37
900.644	8218.16
900.959	8206.41
901.273	8196.24
901.588	8154.88
901.902	8097.71
902.216	8106.75
902.531	8085.51
902.845	8024.27
903.159	7980.2
903.473	7967.77
903.787	7937.72
904.101	7927.09
904.415	7918.73
904.729	7820.2
905.042	7774.33
905.356	7799.19
905.67	7840.77
905.984	7800.77
906.297	7747.66
906.611	7686.2
906.924	7686.2
907.237	7638.29
907.551	7621.57
907.864	7573.88
908.177	7541.79
908.491	7450.5
908.804	7467.9
909.117	7424.28
909.43	7363.04
909.743	7328.24
910.056	7339.76
910.368	7329.6
910.681	7270.39
910.994	7254.12
911.307	7216.6
911.619	7185.64
911.932	7174.35
912.244	7129.37
912.557	7082.82
912.869	7043.95
913.181	7059.09
913.494	7054.57
913.806	7022.26
914.118	6926.67
914.43	6874.69
914.742	6910.62
915.054	6930.06
915.366	6862.26
915.678	6818.42
915.99	6793.34
916.302	6759.21
916.613	6711.98
916.925	6706.11
917.236	6774.81
917.548	6683.06
917.859	6676.05
918.171	6545.66
918.482	6538.2
918.794	6563.51
919.105	6521.26
919.416	6425.21
919.727	6475.83
920.038	6477.19
920.349	6379.56
920.66	6399.22
920.971	6373.91
921.282	6334.59
921.593	6239.68
921.903	6197.87
922.214	6234.48
922.525	6217.99
922.835	6219.57
923.146	6149.74
923.456	6074.49
923.767	6097.76
924.077	6105.67
924.387	6059.35
924.697	5986.81
925.008	6014.15
925.318	6038.78
925.628	5982.51
925.938	5936.41
926.248	5883.08
926.558	5891.67
926.867	5844.44
927.177	5860.93
927.487	5805.57
927.796	5772.12
928.106	5770.31
928.416	5756.08
928.725	5713.82
929.034	5677.21
929.344	5730.77
929.653	5653.03
929.962	5637.44
930.271	5640.15
930.581	5611.22
930.89	5533.94
931.199	5497.78
931.508	5521.28
931.817	5514.95
932.125	5454.84
932.434	5425.92
932.743	5386.37
933.051	5371.68
933.36	5359.25
933.669	5368.97
933.977	5286.03
934.286	5278.12
934.594	5318.12
934.902	5238.8
935.21	5208.07
935.519	5225.92
935.827	5206.94
936.135	5126.94
936.443	5127.17
936.751	5090.78
937.059	5072.93
937.367	5056.21
937.674	5061.86
937.982	5028.86
938.29	5019.83
938.597	5065.93
938.905	4975.53
939.213	4925.36
939.52	4896.21
939.827	4936.66
940.135	4923.33
940.442	4855.99
940.749	4842.43
941.056	4849.66
941.363	4787.74
941.67	4755.2
941.977	4746.39
942.284	4683.56
942.591	4736.22
942.898	4665.71
943.205	4682.89
943.511	4676.33
943.818	4647.18
944.125	4564.7
944.431	4591.81
944.738	4572.15
945.044	4602.44
945.35	4569.22
945.657	4518.14
945.963	4487.41
946.269	4479.5
946.575	4469.33
946.881	4442.44
947.187	4472.5
947.493	4386.85
947.799	4448.54
948.105	4368.54
948.41	4324.7
948.716	4347.98
949.022	4341.65
949.327	4326.51
949.633	4246.29
949.938	4258.94
950.244	4251.26
950.549	4227.53
950.854	4203.8
951.16	4191.82
951.465	4185.05
951.77	4153.63
952.075	4098.27
952.38	4102.11
952.685	4122.45
952.99	4076.8
953.294	4099.62
953.599	4055.11
953.904	4009
954.209	4003.13
954.513	3977.82
954.818	3982.11
955.122	3948.89
955.426	3901.89
955.731	3913.19
956.035	3879.97
956.339	3877.71
956.643	3879.52
956.948	3859.86
957.252	3848.11
957.556	3803.13
957.86	3824.6
958.163	3802.23
958.467	3755.23
958.771	3739.86
959.075	3784.38
959.378	3748.45
959.682	3728.33
959.985	3705.28
960.289	3668
960.592	3633.2
960.896	3669.13
961.199	3585.29
961.502	3625.29
961.805	3589.81
962.108	3545.51
962.411	3566.98
962.714	3532.63
963.017	3559.3
963.32	3502.8
963.623	3515.91
963.926	3489.24
964.228	3470.49
964.531	3464.16
964.833	3443.14
965.136	3428.46
965.438	3409.7
965.741	3393.88
966.043	3366.08
966.345	3373.99
966.648	3362.47
966.95	3329.02
967.252	3335.12
967.554	3322.24
967.856	3332.64
968.158	3261.45
968.46	3250.15
968.761	3259.42
969.063	3219.2
969.365	3245.18
969.666	3203.15
969.968	3210.16
970.269	3174.45
970.571	3208.8
970.872	3185.98
971.174	3155.24
971.475	3105.75
971.776	3075.92
972.077	3094.23
972.378	3112.53
972.679	3054.23
972.98	3045.19
973.281	3037.28
973.582	3065.98
973.883	3013.55
974.183	3037.5
974.484	2983.72
974.785	2970.16
975.085	2985.75
975.386	2961.57
975.686	2942.37
975.986	2940.78
976.287	2901.24
976.587	2898.75
976.887	2834.8
977.187	2910.73
977.487	2865.08
977.787	2851.52
978.087	2866.21
978.387	2823.95
978.687	2836.83
978.987	2810.17
979.286	2800.22
979.586	2797.74
979.885	2766.1
980.185	2787.57
980.484	2724.29
980.784	2740.34
981.083	2703.5
981.382	2706.67
981.682	2723.16
981.981	2696.27
982.28	2685.65
982.579	2648.59
982.878	2645.42
983.177	2623.73
983.475	2615.6
983.774	2609.49
984.073	2601.58
984.372	2588.7
984.67	2583.05
984.969	2567.91
985.267	2591.64
985.566	2543.51
985.864	2547.8
986.162	2558.2
986.461	2494.92
986.759	2504.19
987.057	2467.8
987.355	2469.84
987.653	2465.32
987.951	2463.51
988.249	2440.91
988.547	2450.85
988.844	2415.83
989.142	2432.32
989.44	2409.95
989.737	2370.86
990.035	2401.59
990.332	2369.27
990.63	2374.47
990.927	2332.66
991.224	2302.38
991.521	2321.82
991.819	2304.64
992.116	2323.17
992.413	2336.73
992.71	2275.04
993.006	2288.37
993.303	2279.78
993.6	2245.21
993.897	2237.3
994.193	2235.72
994.49	2234.59
994.787	2223.06
995.083	2195.95
995.379	2162.27
995.676	2160.24
995.972	2149.17
996.268	2151.88
996.565	2148.49
996.861	2122.73
997.157	2124.53
997.453	2084.99
997.749	2113.24
998.044	2062.39
998.34	2076.63
998.636	2082.95
998.932	2068.49
999.227	2045.21
999.523	2030.53
999.818	2058.1
1000.114	2024.65
1000.409	2014.71
1000.704	2017.64
1001	2022.62
1001.295	2011.77
1001.59	1974.48
1001.885	1981.71
1002.18	1968.61
1002.475	1949.85
1002.77	1926.57
1003.065	1916.63
1003.359	1879.34
1003.654	1881.15
1003.949	1904.2
1004.243	1897.2
1004.538	1873.92
1004.832	1862.17
1005.127	1891.77
1005.421	1828.72
1005.715	1826.92
1006.009	1815.84
1006.304	1811.77
1006.598	1798.89
1006.892	1791.89
1007.186	1786.69
1007.48	1766.35
1007.773	1748.73
1008.067	1750.99
1008.361	1735.62
1008.655	1721.16
1008.948	1729.29
1009.242	1701.04
1009.535	1674.38
1009.829	1701.49
1010.122	1656.98
1010.415	1696.3
1010.708	1668.73
1011.001	1631.89
1011.295	1640.93
1011.588	1613.81
1011.881	1626.92
1012.173	1593.48
1012.466	1583.98
1012.759	1609.97
1013.052	1600.71
1013.344	1580.37
1013.637	1581.05
1013.93	1561.39
1014.222	1550.76
1014.514	1532.46
1014.807	1513.03
1015.099	1518
1015.391	1492.23
1015.683	1495.62
1015.976	1506.02
1016.268	1492.91
1016.56	1482.07
1016.851	1492.46
1017.143	1454.04
1017.435	1468.96
1017.727	1443.2
1018.018	1428.73
1018.31	1439.81
1018.602	1418.56
1018.893	1389.19
1019.185	1417.89
1019.476	1416.3
1019.767	1406.81
1020.058	1377.89
1020.35	1361.16
1020.641	1356.42
1020.932	1336.53
1021.223	1327.27
1021.514	1306.7
1021.804	1330.43
1022.095	1294.95
1022.386	1309.87
1022.677	1275.97
1022.967	1303.77
1023.258	1276.65
1023.548	1274.84
1023.839	1276.2
1024.129	1275.74
1024.419	1238.68
1024.709	1236.2
1025	1235.29
1025.29	1235.29
1025.58	1217.21
1025.87	1198.01
1026.16	1209.76
1026.449	1205.46
1026.739	1189.87
1027.029	1182.86
1027.319	1178.8
1027.608	1160.49
1027.898	1175.86
1028.187	1151.68
1028.477	1130.44
1028.766	1148.29
1029.055	1106.03
1029.344	1130.89
1029.634	1120.49
1029.923	1117.33
1030.212	1082.3
1030.501	1075.07
1030.79	1059.25
1031.078	1089.76
1031.367	1070.78
1031.656	1046.82
1031.945	1073.71
1032.233	1078.01
1032.522	1031.91
1032.81	1061.06
1033.099	1056.54
1033.387	1018.35
1033.675	1009.99
1033.963	1014.51
1034.251	1000.72
1034.54	1028.52
1034.828	1012.02
1035.116	991.46
1035.403	975.19
1035.691	969.31
1035.979	979.03
1036.267	969.31
1036.554	970.89
1036.842	960.05
1037.129	917.11
1037.417	937.45
1037.704	931.12
1037.992	929.31
1038.279	927.96
1038.566	908.75
1038.853	908.75
1039.14	908.75
