Data from hue_50_FLMS001491_96.txt Node
Date: Mon Feb 06 15:11:22 GMT 2017
User: dcchb
Spectrometer: FLMS00149
Trigger mode: 0
Integration Time (sec): 2.000000E-2
Scans to average: 10
Electric dark correction enabled: true
Nonlinearity correction enabled: false
Boxcar width: 0
XAxis mode: Wavelengths
Number of Pixels in Spectrum: 2048
>>>>>Begin Spectral Data<<<<<
341.393	-34.91
341.776	-34.91
342.16	-34.91
342.543	-71.52
342.927	-69.04
343.31	-50.06
343.693	-49.83
344.077	-49.15
344.46	-65.87
344.843	-47.34
345.226	-33.33
345.61	-29.72
345.993	-41.69
346.376	-18.42
346.759	8.47
347.142	18.64
347.525	41.69
347.908	56.61
348.291	75.37
348.674	79.43
349.057	105.19
349.44	127.12
349.823	130.05
350.206	167.11
350.588	203.5
350.971	206.89
351.354	235.36
351.737	247.34
352.119	236.72
352.502	274.23
352.884	277.85
353.267	288.92
353.65	284.63
354.032	300.9
354.414	313.33
354.797	314.91
355.179	320.56
355.562	309.71
355.944	334.34
356.326	344.51
356.709	352.65
357.091	356.71
357.473	339.09
357.855	355.81
358.238	344.28
358.62	346.54
359.002	364.17
359.384	336.15
359.766	352.87
360.148	341.57
360.53	365.08
360.912	345.19
361.294	350.84
361.676	358.07
362.057	342.02
362.439	336.6
362.821	339.31
363.203	348.8
363.584	343.15
363.966	342.93
364.348	344.74
364.729	340.67
365.111	315.81
365.493	313.78
365.874	320.78
366.256	305.42
366.637	321.91
367.019	329.6
367.4	339.54
367.781	309.94
368.163	328.01
368.544	349.71
368.925	314
369.306	317.62
369.688	319.65
370.069	321.01
370.45	354.68
370.831	334.12
371.212	320.56
371.593	290.5
371.974	319.65
372.355	324.85
372.736	333.89
373.117	321.46
373.498	341.12
373.879	334.57
374.26	327.56
374.641	328.92
375.021	332.99
375.402	319.65
375.783	333.66
376.163	313.78
376.544	334.57
376.925	325.53
377.305	331.63
377.686	345.19
378.066	337.73
378.447	334.57
378.827	335.7
379.208	327.56
379.588	321.69
379.968	328.47
380.349	368.24
380.729	355.36
381.109	339.77
381.489	355.13
381.87	318.07
382.25	326.88
382.63	343.15
383.01	351.97
383.39	360.33
383.77	353.1
384.15	347.67
384.53	350.39
384.91	360.1
385.29	367.33
385.67	364.4
386.049	365.75
386.429	356.04
386.809	349.93
387.189	361.01
387.568	388.8
387.948	365.75
388.328	385.41
388.707	361.46
389.087	381.12
389.466	359.2
389.846	384.96
390.225	368.46
390.605	387.45
390.984	383.83
391.363	377.28
391.743	373.21
392.122	381.35
392.501	378.86
392.881	407.56
393.26	398.75
393.639	390.61
394.018	406.2
394.397	380.22
394.776	392.19
395.155	398.97
395.534	402.81
395.913	385.19
396.292	403.04
396.671	393.1
397.05	387.45
397.429	381.35
397.808	410.27
398.186	417.5
398.565	397.16
398.944	426.77
399.323	419.54
399.701	410.5
400.08	420.44
400.458	429.03
400.837	429.93
401.215	436.94
401.594	441.68
401.972	421.12
402.351	437.39
402.729	416.15
403.107	430.38
403.486	411.63
403.864	436.94
404.242	433.1
404.62	422.47
404.999	421.34
405.377	438.75
405.755	438.75
406.133	452.3
406.511	442.14
406.889	437.39
407.267	465.19
407.645	463.38
408.023	467.45
408.401	462.7
408.779	451.4
409.156	472.64
409.534	460.67
409.912	483.94
410.29	480.1
410.667	489.37
411.045	499.53
411.422	480.1
411.8	492.98
412.178	506.09
412.555	493.43
412.933	490.72
413.31	479.2
413.687	506.31
414.065	503.83
414.442	514.45
414.819	510.38
415.197	498.4
415.574	518.97
415.951	543.6
416.328	526.2
416.705	547.9
417.082	513.09
417.46	542.92
417.837	551.96
418.214	538.63
418.591	556.48
418.967	550.61
419.344	601.68
419.721	563.94
420.098	576.6
420.475	573.21
420.852	565.07
421.228	576.14
421.605	557.39
421.982	580.44
422.358	605.97
422.735	582.47
423.111	586.09
423.488	588.8
423.864	590.15
424.241	589.02
424.617	606.2
424.994	625.41
425.37	602.58
425.746	610.49
426.123	631.28
426.499	636.03
426.875	619.53
427.251	633.09
427.627	645.07
428.003	641
428.379	656.82
428.756	643.49
429.132	675.8
429.507	670.15
429.883	672.41
430.259	660.66
430.635	684.16
431.011	685.74
431.387	695.69
431.763	713.09
432.138	694.56
432.514	728.23
432.89	743.6
433.265	743.37
433.641	718.06
434.016	745.86
434.392	734.78
434.767	762.8
435.143	743.82
435.518	753.31
435.894	760.54
436.269	773.43
436.644	777.49
437.02	774.78
437.395	792.18
437.77	807.32
438.145	814.33
438.52	810.94
438.895	808
439.271	812.75
439.646	818.62
440.021	841.9
440.395	829.02
440.77	850.03
441.145	824.95
441.52	855.01
441.895	869.69
442.27	878.06
442.645	873.08
443.019	874.44
443.394	875.57
443.769	892.52
444.143	854.55
444.518	906.3
444.892	892.29
445.267	915.34
445.641	913.99
446.016	933.2
446.39	916.7
446.764	913.54
447.139	920.77
447.513	937.49
447.887	931.84
448.262	932.74
448.636	925.96
449.01	951.95
449.384	967.77
449.758	982.69
450.132	973.65
450.506	984.95
450.88	987.88
451.254	1001.22
451.628	1011.16
452.002	1029.46
452.376	1005.51
452.75	1017.71
453.123	1023.81
453.497	1048.22
453.871	1077.82
454.244	1085.28
454.618	1079.18
454.992	1101.33
455.365	1128.67
455.739	1102.23
456.112	1131.38
456.486	1129.12
456.859	1147.2
457.232	1175.22
457.606	1167.54
457.979	1183.36
458.352	1218.39
458.725	1196.24
459.099	1220.87
459.472	1240.53
459.845	1225.62
460.218	1259.97
460.591	1264.71
460.964	1308.1
461.337	1300.42
461.71	1361.43
462.083	1330.02
462.456	1350.81
462.829	1353.75
463.201	1354.43
463.574	1387.42
463.947	1404.14
464.32	1430.58
464.692	1435.33
465.065	1479.4
465.438	1478.72
465.81	1496.8
466.183	1506.74
466.555	1533.63
466.928	1570.24
467.3	1566.85
467.672	1577.7
468.045	1617.92
468.417	1638.49
468.789	1681.88
469.161	1663.35
469.534	1723.46
469.906	1776.11
470.278	1772.72
470.65	1792.61
471.022	1833.96
471.394	1887.3
471.766	1886.39
472.138	1928.65
472.51	1996.44
472.882	2010.23
473.253	2058.82
473.625	2066.05
473.997	2142.2
474.369	2142.43
474.74	2170.45
475.112	2239.6
475.484	2290.9
475.855	2333.61
476.227	2392.82
476.598	2466.94
476.97	2530.22
477.341	2561.4
477.713	2620.38
478.084	2668.52
478.455	2734.73
478.827	2779.93
479.198	2923.2
479.569	2951.9
479.94	3063.99
480.311	3079.35
480.682	3199.58
481.053	3283.42
481.424	3367.48
481.795	3433.47
482.166	3542.84
482.537	3560.02
482.908	3701.48
483.279	3809.28
483.65	3904.64
484.021	4076.16
484.391	4096.95
484.762	4212.43
485.133	4237.52
485.503	4372.65
485.874	4520.22
486.244	4646.09
486.615	4749.82
486.985	4910.49
487.356	4978.97
487.726	5114.1
488.097	5256.02
488.467	5352.74
488.837	5496.69
489.207	5607.65
489.578	5724.26
489.948	5887.42
490.318	5998.83
490.688	6150.69
491.058	6221.64
491.428	6394.97
491.798	6511.13
492.168	6754.06
492.538	6782.76
492.908	6964.68
493.278	7103.43
493.648	7178.91
494.017	7437.43
494.387	7496.64
494.757	7655.96
495.126	7823.64
495.496	7953.8
495.866	8020.47
496.235	8204.19
496.605	8264.53
496.974	8462.26
497.344	8637.4
497.713	8772.54
498.082	8878.07
498.452	9000.1
498.821	9120.33
499.19	9212.53
499.559	9422.69
499.928	9548.79
500.298	9664.72
500.667	9812.51
501.036	9811.38
501.405	9978.83
501.774	10047.31
502.143	10249.56
502.512	10355.32
502.88	10489.78
503.249	10539.95
503.618	10728.42
503.987	10819.26
504.356	10933.38
504.724	11124.34
505.093	11153.72
505.462	11254.51
505.83	11377.67
506.199	11523.65
506.567	11715.06
506.936	11705.57
507.304	11884.77
507.672	11954.37
508.041	12040.25
508.409	12266.01
508.777	12377.64
509.145	12519.33
509.514	12520.24
509.882	12677.29
510.25	12756.39
510.618	12940.56
510.986	13030.5
511.354	13115.7
511.722	13318.63
512.09	13449.02
512.458	13465.07
512.826	13599.08
513.193	13687.21
513.561	13736.7
513.929	13877.26
514.297	14030.48
514.664	14140.53
515.032	14267.31
515.4	14457.36
515.767	14458.49
516.135	14673.17
516.502	14503.23
516.869	14803.79
517.237	14959.49
517.604	14888.76
517.972	15121.3
518.339	15220.5
518.706	15241.07
519.073	15369.2
519.44	15526.26
519.808	15664.33
520.175	15763.54
520.542	15989.07
520.909	15996.98
521.276	15999.92
521.643	16219.57
522.009	16278.1
522.376	16438.1
522.743	16570.98
523.11	16696.4
523.477	16838.09
523.843	16937.52
524.21	17167.8
524.577	17271.98
524.943	17326.44
525.31	17428.36
525.676	17552.87
526.043	17767.78
526.409	17866.76
526.776	17967.55
527.142	18114.89
527.508	18232.4
527.874	18287.09
528.241	18444.83
528.607	18545.84
528.973	18652.5
529.339	18782.22
529.705	18845.49
530.071	19010.01
530.437	19089.33
530.803	19269.66
531.169	19424.24
531.535	19295.2
531.901	19547.4
532.267	19615.64
532.632	19739.48
532.998	19785.81
533.364	19802.08
533.73	20006.37
534.095	20188.06
534.461	20216.3
534.826	20292.91
535.192	20406.13
535.557	20482.51
535.923	20544.43
536.288	20595.5
536.653	20821.26
537.019	20718.66
537.384	20795.5
537.749	20952.1
538.114	20957.98
538.479	21086.11
538.845	21135.83
539.21	21220.35
539.575	21261.47
539.94	21359.1
540.305	21493.79
540.67	21495.82
541.034	21646.1
541.399	21563.39
541.764	21786.21
542.129	21797.73
542.494	21904.17
542.858	21979.87
543.223	22046.54
543.587	22155.24
543.952	22098.51
544.316	22253.77
544.681	22232.3
545.045	22385.97
545.41	22472.74
545.774	22549.12
546.138	22602.91
546.503	22560.2
546.867	22765.62
547.231	22877.25
547.595	22869.34
547.959	23145.95
548.324	23055.1
548.688	23131.26
549.052	23241.76
549.416	23314.08
549.779	23282.21
550.143	23310.23
550.507	23630.9
550.871	23674.07
551.235	23527.18
551.599	23801.52
551.962	23875.64
552.326	23983.66
552.689	24126.48
553.053	24120.38
553.417	24091.23
553.78	24384.78
554.143	24302.52
554.507	24436.98
554.87	24409.19
555.234	24736.41
555.597	24560.15
555.96	24801.72
556.323	24882.62
556.686	24985.67
557.05	25067.25
557.413	25210.52
557.776	25173.91
558.139	25387.02
558.502	25476.73
558.865	25407.13
559.228	25632.66
559.59	25682.15
559.953	25698.19
560.316	26066.55
560.679	25982.48
561.041	26156.71
561.404	26255.02
561.767	26381.34
562.129	26408.23
562.492	26679.86
562.854	26755.79
563.217	26650.03
563.579	26833.31
563.941	26967.99
564.304	27057.93
564.666	27272.16
565.028	27363.46
565.39	27454.76
565.753	27510.35
566.115	27566.85
566.477	27797.12
566.839	27859.04
567.201	27979.49
567.563	28043.22
567.925	28062.88
568.287	28207.96
568.648	28207.28
569.01	28466.26
569.372	28596.65
569.734	28451.34
570.095	28704.44
570.457	28819.02
570.819	29001.84
571.18	28892.69
571.542	29148.27
571.903	29198.89
572.265	29261.26
572.626	29401.6
572.987	29476.17
573.349	29656.51
573.71	29720.69
574.071	29832.77
574.432	29970.85
574.794	30105.99
575.155	30268.47
575.516	30119.55
575.877	30201.13
576.238	30444.06
576.599	30536.94
576.96	30573.77
577.32	30729.02
577.681	30861.45
578.042	31025.06
578.403	31069.35
578.763	31039.97
579.124	31259.86
579.485	31462.34
579.845	31522.22
580.206	31568.55
580.566	31578.04
580.927	31756.11
581.287	31987.52
581.648	31755.44
582.008	32122.43
582.368	31969.89
582.728	32279.94
583.089	32349.77
583.449	32408.98
583.809	32581.86
584.169	32644.68
584.529	32635.19
584.889	32975.07
585.249	32802.87
585.609	32874.5
585.969	33139.13
586.329	33345.9
586.688	33430.42
587.048	33342.51
587.408	33430.19
587.768	33569.17
588.127	33698.44
588.487	33630.19
588.846	33894.81
589.206	33933.01
589.565	34085.54
589.925	34217.97
590.284	34130.52
590.643	34341.81
591.003	34568.47
591.362	34663.61
591.721	34750.61
592.08	34741.35
592.44	34899.99
592.799	34957.16
593.158	35143.37
593.517	35169.81
593.876	35455.23
594.235	35315.79
594.593	35527.99
594.952	35638.27
595.311	35478.5
595.67	35676.69
596.029	35964.37
596.387	36151.48
596.746	36100.41
597.104	36094.76
597.463	36078.26
597.822	36322.55
598.18	36277.8
598.538	36390.79
598.897	36584.01
599.255	36400.51
599.613	36999.82
599.972	36717.34
600.33	36955.75
600.688	36763.67
601.046	37037.78
601.404	37367.04
601.762	37303.31
602.12	37432.8
602.478	37422.86
602.836	37692
603.194	37485.46
603.552	37574.04
603.91	37471.67
604.268	37859.68
604.625	37843.19
604.983	37943.52
605.341	37859.23
605.698	38131.09
606.056	38194.59
606.413	38191.2
606.771	38256.28
607.128	38446.56
607.485	38316.85
607.843	38398.88
608.2	38648.14
608.557	38757.06
608.914	38668.25
609.272	38992.76
609.629	39003.16
609.986	39070.5
610.343	38957.73
610.7	39404.5
611.057	39363.6
611.414	39359.53
611.771	39408.34
612.127	39664.83
612.484	39567.89
612.841	39749.35
613.198	39597.04
613.554	39666.64
613.911	40142.33
614.267	40000.42
614.624	40038.16
614.98	40045.16
615.337	40312.95
615.693	40244.93
616.05	40292.16
616.406	40455.77
616.762	40301.65
617.118	40363.8
617.475	40473.17
617.831	40701.19
618.187	40648.54
618.543	40752.26
618.899	41002.42
619.255	41039.26
619.611	40857.8
619.967	41029.99
620.323	41225.47
620.678	40854.18
621.034	40993.16
621.39	41021.86
621.746	40993.39
622.101	41511.79
622.457	41120.16
622.812	41321.74
623.168	41369.87
623.523	41364.9
623.879	41604.89
624.234	41250.78
624.589	41436.76
624.945	41453.94
625.3	41516.76
625.655	41529.64
626.01	41676.53
626.365	41541.62
626.72	41476.54
627.075	41530.32
627.43	41632.01
627.785	41526.93
628.14	41629.53
628.495	41567.61
628.85	41746.36
629.205	41434.05
629.559	41666.59
629.914	41571.45
630.269	41664.55
630.623	41564.22
630.978	41648.51
631.332	41627.49
631.687	41773.48
632.041	41525.8
632.396	41676.08
632.75	41686.02
633.104	41583.65
633.459	41595.4
633.813	41461.17
634.167	41553.14
634.521	41540.26
634.875	41525.35
635.229	41441.96
635.583	41283.55
635.937	41296.2
636.291	41355.41
636.645	41277.67
636.999	41286.26
637.352	41358.35
637.706	41237.67
638.06	41272.93
638.413	41235.19
638.767	41114.96
639.121	41259.37
639.474	40997.23
639.828	40966.27
640.181	41062.99
640.534	41291.68
640.888	40895.53
641.241	40838.36
641.594	41080.61
641.947	40963.56
642.301	40907.29
642.654	40926.27
643.007	40881.52
643.36	40961.07
643.713	40866.16
644.066	41034.51
644.419	40669.55
644.771	40506.84
645.124	40256.23
645.477	40152.73
645.83	39892.4
646.182	39837.71
646.535	39571.95
646.888	39782.8
647.24	39456.25
647.593	39710.48
647.945	39589.58
648.298	39430.49
648.65	39425.97
649.002	39226.43
649.355	39477.72
649.707	39287.22
650.059	39456.7
650.411	39938.5
650.763	39975.56
651.115	40438.6
651.467	40218.04
651.819	40317.7
652.171	40155.67
652.523	39956.8
652.875	40120.41
653.227	39820.99
653.578	40269.34
653.93	40093.75
654.282	39895.34
654.633	39856.69
654.985	40045.39
655.337	40071.38
655.688	39916.35
656.039	40106.86
656.391	39740.54
656.742	39792.51
657.094	39844.04
657.445	39833.87
657.796	39737.37
658.147	39582.35
658.498	39771.5
658.849	39851.72
659.2	39805.17
659.551	39681.1
659.902	39878.61
660.253	39747.09
660.604	39679.52
660.955	39668.22
661.306	39787.99
661.656	39637.26
662.007	39667.32
662.358	39633.2
662.708	39662.57
663.059	39590.03
663.409	39399.98
663.76	39762.46
664.11	39578.96
664.461	39713.65
664.811	39561.56
665.161	39614.89
665.511	39447.89
665.862	39464.16
666.212	39775.56
666.562	39623.7
666.912	39562.24
667.262	39481.79
667.612	39422.81
667.962	39496.48
668.312	39431.84
668.662	39588.22
669.011	39534.44
669.361	39549.36
669.711	39468.68
670.06	39392.52
670.41	39386.87
670.76	39357.5
671.109	39400.43
671.459	39457.38
671.808	39305.75
672.157	39346.65
672.507	39163.38
672.856	39131.29
673.205	39125.19
673.554	39304.84
673.904	39138.97
674.253	39178.52
674.602	39246.76
674.951	38593.22
675.3	38433.9
675.649	39011.97
675.998	38964.96
676.346	38990.95
676.695	39162.25
677.044	38906.89
677.393	38955.47
677.741	39014.91
678.09	38877.28
678.438	38837.28
678.787	38975.36
679.135	38878.86
679.484	38675.25
679.832	38923.16
680.181	38668.02
680.529	38690.85
680.877	38605.88
681.225	38661.02
681.573	38856.27
681.922	38446.79
682.27	38143.29
682.618	38287.02
682.966	38291.99
683.314	38319.56
683.661	38409.95
684.009	38155.04
684.357	38030.75
684.705	38154.59
685.053	38069.62
685.4	37938.32
685.748	37953.47
686.095	37793.92
686.443	37590.09
686.79	37538.11
687.138	37676.41
687.485	37563.42
687.832	37474.83
688.18	37464.44
688.527	37225.12
688.874	37297.21
689.221	37272.58
689.568	37125.69
689.915	36966.82
690.262	37112.36
690.609	36921.63
690.956	36843.66
691.303	36820.16
691.65	36616.33
691.997	36528.64
692.344	36416.56
692.69	36442.32
693.037	36368.42
693.383	36171.59
693.73	36228.99
694.077	36064.25
694.423	36097.92
694.769	35949.22
695.116	35945.16
695.462	35766.63
695.808	35632.4
696.155	35752.85
696.501	35490.48
696.847	35594.66
697.193	35245.51
697.539	35349.92
697.885	35163.03
698.231	35041
698.577	35053.2
698.923	35055.91
699.269	34785.64
699.614	34706.77
699.96	34637.17
700.306	34661.57
700.651	34537.51
700.997	34370.96
701.342	34262.49
701.688	34236.27
702.033	34196.95
702.379	34122.38
702.724	34094.58
703.069	34160.8
703.415	33729.17
703.76	33731.2
704.105	33751.32
704.45	33576.18
704.795	33470.42
705.14	33441.72
705.485	33304.32
705.83	33150.88
706.175	33153.14
706.52	33087.83
706.865	32976.2
707.209	32951.56
707.554	32948.85
707.899	32892.81
708.243	32724.22
708.588	32676.99
708.932	32499.37
709.277	32420.5
709.621	32515.64
709.966	32209.21
710.31	32429.99
710.654	32124.69
710.998	32248.53
711.342	32265.25
711.687	32098.03
712.031	31898.48
712.375	31826.85
712.719	31909.1
713.063	31806.28
713.407	31957.46
713.75	31694.19
714.094	31740.52
714.438	31538.27
714.782	31562.9
715.125	31504.37
715.469	31514.31
715.812	31267.31
716.156	31203.36
716.499	31127.43
716.843	31184.6
717.186	30970.82
717.53	31267.31
717.873	31130.82
718.216	30974.89
718.559	31001.56
718.902	30658.29
719.246	30763.82
719.589	30704.39
719.932	30570.38
720.275	30545.52
720.617	30641.34
720.96	30437.96
721.303	30398.86
721.646	30334.68
721.989	30179.21
722.331	30224.85
722.674	30234.35
723.016	30307.79
723.359	30153.67
723.701	30092.66
724.044	29998.65
724.386	29806.11
724.729	30064.41
725.071	29853.79
725.413	29772.21
725.755	29830.97
726.097	29746.9
726.439	29646.34
726.782	29585.1
727.124	29710.52
727.465	29527.02
727.807	29501.48
728.149	29409.96
728.491	29274.6
728.833	29329.06
729.175	29146.47
729.516	29196.18
729.858	29153.02
730.199	29075.28
730.541	29047.03
730.882	29074.6
731.224	29048.84
731.565	28919.35
731.906	28922.06
732.248	28976.98
732.589	28867.15
732.93	28813.14
733.271	28772.24
733.612	28793.03
733.953	28781.28
734.294	28570.89
734.635	28546.26
734.976	28603.43
735.317	28448.4
735.658	28512.58
735.999	28453.15
736.339	28376.77
736.68	28548.29
737.021	28385.36
737.361	28256.55
737.702	28434.17
738.042	28244.57
738.383	28165.7
738.723	28240.27
739.063	28037.34
739.404	28131.8
739.744	28030.79
740.084	27964.12
740.424	28021.3
740.764	27832.83
741.104	27979.26
741.444	27846.16
741.784	27679.84
742.124	27629.44
742.464	27634.64
742.804	27633.06
743.143	27620.18
743.483	27655.88
743.823	27551.48
744.162	27461.31
744.502	27622.66
744.841	27364.14
745.181	27489.11
745.52	27371.14
745.86	27394.42
746.199	27259.74
746.538	27266.29
746.877	27242.56
747.216	27171.38
747.556	27254.76
747.895	27203.47
748.234	27073.07
748.573	27028.1
748.911	26958.5
749.25	27085.95
749.589	26873.3
749.928	26813.19
750.267	26809.8
750.605	26752.86
750.944	26668.56
751.283	26581.11
751.621	26590.15
751.96	26464.5
752.298	26494.78
752.636	26482.58
752.975	26457.27
753.313	26249.59
753.651	26319.87
753.989	26169.14
754.327	26145.64
754.666	25996.72
755.004	26033.33
755.342	26145.41
755.679	26048.69
756.017	25851.18
756.355	26005.98
756.693	25920.79
757.031	25935.7
757.368	25679.89
757.706	25643.96
758.044	25589.04
758.381	25601.02
758.719	25450.52
759.056	25481.25
759.394	25363.06
759.731	25220.01
760.068	25181.15
760.405	25197.42
760.743	25019.12
761.08	25104.31
761.417	24903.86
761.754	24808.27
762.091	24835.84
762.428	24746.13
762.765	24640.82
763.102	24608.05
763.438	24509.98
763.775	24356.99
764.112	24444.44
764.449	24309.3
764.785	24172.58
765.122	24051.01
765.458	24095.07
765.795	23994.51
766.131	24005.58
766.467	23819.6
766.804	23871.12
767.14	23620.51
767.476	23655.31
767.812	23536.22
768.148	23511.36
768.485	23432.04
768.821	23270.01
769.157	23208.54
769.492	23229.11
769.828	23154.08
770.164	22998.83
770.5	22970.13
770.836	22914.76
771.171	22779.85
771.507	22720.65
771.842	22521.78
772.178	22615.79
772.513	22496.7
772.849	22382.58
773.184	22340.99
773.519	22263.93
773.855	22147.33
774.19	22119.08
774.525	22034.56
774.86	22096.26
775.195	21894
775.53	21868.46
775.865	21633.22
776.2	21578.08
776.535	21517.51
776.87	21431.64
777.205	21345.54
777.539	21206.11
777.874	21376.05
778.209	21155.26
778.543	21124.08
778.878	21049.28
779.212	20908.94
779.547	20869.85
779.881	20844.31
780.215	20730.64
780.55	20758.66
780.884	20604.09
781.218	20587.14
781.552	20567.48
781.886	20359.35
782.22	20241.61
782.554	20277.77
782.888	20022.19
783.222	19989.64
783.556	19880.95
783.889	19991.9
784.223	19709.65
784.557	19680.05
784.89	19785.13
785.224	19598.92
785.557	19445.7
785.891	19474.86
786.224	19416.78
786.558	19379.72
786.891	19290.91
787.224	19115.09
787.557	19117.35
787.891	19058.37
788.224	19073.06
788.557	19021.99
788.89	18884.81
789.223	18895.44
789.556	18704.71
789.888	18739.28
790.221	18671.94
790.554	18623.35
790.887	18532.73
791.219	18354.21
791.552	18394.21
791.884	18335.45
792.217	18262.23
792.549	18146.3
792.882	18167.77
793.214	18006.42
793.546	17934.78
793.879	17836.25
794.211	17819.08
794.543	17835.12
794.875	17712.64
795.207	17737.5
795.539	17705.64
795.871	17622.02
796.203	17497.73
796.535	17381.58
796.867	17424.51
797.198	17307.91
797.53	17306.32
797.862	17083.28
798.193	17194.46
798.525	17115.82
798.856	17174.12
799.188	16869.27
799.519	16883.74
799.85	16879.67
800.182	16822.04
800.513	16810.29
800.844	16665.21
801.175	16716.51
801.506	16618.43
801.837	16687.13
802.168	16455.27
802.499	16461.6
802.83	16468.83
803.161	16395.16
803.491	16317.42
803.822	16266.13
804.153	16247.6
804.483	16021.16
804.814	16027.71
805.145	16004.89
805.475	16041.5
805.805	16040.37
806.136	15981.39
806.466	15968.96
806.796	15843.31
807.126	15752.02
807.457	15695.52
807.787	15756.53
808.117	15609.19
808.447	15587.5
808.777	15646.26
809.107	15586.14
809.436	15528.97
809.766	15455.3
810.096	15374.4
810.426	15340.05
810.755	15437.22
811.085	15334.85
811.414	15355.64
811.744	15164.01
812.073	15128.75
812.403	15162.43
812.732	15086.04
813.061	15043.11
813.39	14970.79
813.719	14964.24
814.049	15027.29
814.378	14897.35
814.707	14857.8
815.036	14899.83
815.365	14754.75
815.693	14661.65
816.022	14657.13
816.351	14662.55
816.68	14425.5
817.008	14617.13
817.337	14392.05
817.665	14367.42
817.994	14507.98
818.322	14387.98
818.651	14319.28
818.979	14274.99
819.307	14401.77
819.636	14348.21
819.964	14225.73
820.292	14269.57
820.62	14253.52
820.948	14242.9
821.276	14234.54
821.604	14159.29
821.932	14148.44
822.259	14265.73
822.587	14267.31
822.915	14109.35
823.243	14237.7
823.57	14080.42
823.898	14213.52
824.225	14121.32
824.553	14103.7
824.88	14144.83
825.207	14099.63
825.535	14132.85
825.862	14152.51
826.189	14119.06
826.516	14096.92
826.843	14213.3
827.17	14135.11
827.497	14074.32
827.824	14115
828.151	14098.5
828.478	14118.16
828.805	14156.58
829.131	14092.62
829.458	14131.04
829.785	14009.01
830.111	14027.77
830.438	14051.49
830.764	14071.16
831.09	14055.79
831.417	14012.4
831.743	14003.36
832.069	14056.47
832.395	13947.54
832.722	13978.05
833.048	13959.75
833.374	13964.27
833.7	13835.23
834.026	13907.09
834.351	13990.71
834.677	13908.22
835.003	13903.93
835.329	13859.41
835.654	13863.93
835.98	13760.88
836.306	13783.48
836.631	13866.87
836.956	13756.59
837.282	13793.2
837.607	13655.57
837.932	13727.21
838.258	13759.53
838.583	13647.66
838.908	13654.67
839.233	13684.72
839.558	13581.68
839.883	13531.73
840.208	13541.68
840.533	13496.48
840.858	13477.05
841.182	13482.24
841.507	13434.79
841.832	13410.38
842.156	13425.52
842.481	13413.55
842.805	13260.56
843.13	13264.4
843.454	13215.36
843.778	13225.98
844.103	13208.81
844.427	13328.12
844.751	13164.06
845.075	13237.96
845.399	13075.02
845.723	13018.53
846.047	13028.02
846.371	12973.78
846.695	12912.09
847.019	12785.09
847.343	12746.9
847.666	12706.67
847.99	12665.77
848.313	12706.67
848.637	12520.91
848.96	12570.63
849.284	12549.39
849.607	12441.59
849.931	12386.23
850.254	12277.76
850.577	12332.9
850.9	12218.1
851.223	12180.81
851.546	12116.4
851.869	12029.4
852.192	12042.73
852.515	11889.29
852.838	11871.67
853.161	11933.81
853.483	11864.43
853.806	11810.42
854.129	11791.89
854.451	11645.23
854.774	11669.41
855.096	11558
855.419	11622.63
855.741	11562.97
856.063	11537.89
856.385	11507.83
856.708	11470.09
857.03	11365.46
857.352	11405.69
857.674	11302.87
857.996	11343.32
858.318	11265.35
858.64	11289.53
858.961	11224.68
859.283	11201.63
859.605	11159.59
859.926	11166.6
860.248	11204.56
860.57	11051.8
860.891	11042.08
861.212	11026.04
861.534	10965.93
861.855	10950.56
862.176	11043.44
862.498	10946.49
862.819	11001.41
863.14	10880.28
863.461	10861.07
863.782	10792.15
864.103	10839.15
864.424	10746.72
864.745	10809.09
865.065	10774.29
865.386	10705.37
865.707	10715.76
866.027	10692.26
866.348	10669.44
866.668	10700.4
866.989	10657.91
867.309	10561.64
867.63	10696.33
867.95	10568.87
868.27	10614.3
868.59	10532.04
868.91	10505.6
869.23	10544.02
869.55	10369.78
869.87	10467.63
870.19	10461.98
870.51	10416.34
870.83	10445.71
871.15	10387.86
871.469	10390.57
871.789	10397.58
872.109	10359.61
872.428	10252.05
872.748	10342.44
873.067	10303.57
873.386	10235.78
873.706	10259.96
874.025	10214.31
874.344	10236.68
874.663	10218.83
874.982	10108.1
875.301	10182.9
875.62	10117.81
875.939	10094.99
876.258	10080.3
876.577	10094.08
876.896	10103.58
877.214	10005.73
877.533	9992.39
877.852	10063.13
878.17	10078.27
878.489	10042.11
878.807	9992.17
879.125	10007.53
879.444	9976.35
879.762	9969.79
880.08	9944.94
880.398	9844.6
880.716	9924.37
881.034	9842.11
881.352	9864.94
881.67	9796.69
881.988	9875.33
882.306	9855.9
882.624	9746.3
882.941	9745.62
883.259	9700.87
883.577	9637.37
883.894	9671.5
884.212	9668.79
884.529	9695.45
884.846	9622.91
885.164	9514.89
885.481	9539.98
885.798	9557.6
886.115	9499.52
886.432	9467.43
886.75	9482.8
887.067	9504.95
887.383	9429.02
887.7	9412.29
888.017	9340.88
888.334	9440.99
888.651	9389.7
888.967	9273.09
889.284	9334.78
889.6	9262.24
889.917	9181.57
890.233	9172.98
890.55	9144.05
890.866	9214.56
891.182	9163.49
891.498	9008.69
891.815	9142.47
892.131	9057.95
892.447	8979.99
892.763	8969.37
893.079	8989.93
893.395	8952.19
893.71	8922.82
894.026	8932.99
894.342	8893.21
894.657	8850.73
894.973	8835.36
895.289	8800.33
895.604	8824.97
895.92	8711.97
896.235	8699.77
896.55	8678.53
896.865	8702.26
897.181	8630.62
897.496	8662.94
897.811	8532.54
898.126	8504.07
898.441	8561.7
898.756	8505.65
899.071	8483.96
899.386	8453.68
899.7	8369.84
900.015	8383.62
900.33	8270.63
900.644	8242.38
900.959	8277.18
901.273	8327.13
901.588	8173.01
901.902	8177.3
902.216	8150.41
902.531	8140.24
902.845	8081.93
903.159	8053.23
903.473	8009.17
903.787	7969.17
904.101	7971.65
904.415	7935.72
904.729	7892.79
905.042	7926.46
905.356	7884.88
905.67	7791.09
905.984	7821.38
906.297	7828.83
906.611	7733.24
906.924	7718.55
907.237	7703.19
907.551	7642.62
907.864	7594.94
908.177	7648.05
908.491	7613.47
908.804	7549.97
909.117	7450.99
909.43	7489.63
909.743	7376.42
910.056	7356.98
910.368	7394.95
910.681	7358.56
910.994	7292.12
911.307	7284.89
911.619	7208.74
911.932	7203.77
912.244	7179.59
912.557	7165.8
912.869	7135.74
913.181	7107.95
913.494	7134.61
913.806	6978.91
914.118	6989.08
914.43	7003.32
914.742	6881.29
915.054	6917.67
915.366	6926.03
915.678	6879.93
915.99	6875.64
916.302	6796.09
916.613	6724.23
916.925	6744.57
917.236	6750.22
917.548	6706.83
917.859	6704.12
918.171	6622.31
918.482	6637.23
918.794	6591.58
919.105	6599.94
919.416	6553.39
919.727	6553.61
920.038	6522.43
920.349	6455.31
920.66	6444.46
920.971	6384.8
921.282	6421.19
921.593	6334.64
921.903	6321.98
922.214	6317.91
922.525	6285.82
922.835	6267.29
923.146	6179.84
923.456	6206.05
923.767	6186.39
924.077	6206.5
924.387	6089.44
924.697	6070.91
925.008	6052.61
925.318	6059.84
925.628	6057.13
925.938	6037.02
926.248	5990.46
926.558	5964.02
926.867	5879.73
927.177	5917.02
927.487	5884.25
927.796	5856.23
928.106	5814.2
928.416	5800.41
928.725	5780.53
929.034	5741.43
929.344	5797.25
929.653	5678.38
929.962	5685.84
930.271	5654.2
930.581	5606.52
930.89	5606.52
931.199	5574.88
931.508	5557.93
931.817	5525.84
932.125	5504.6
932.434	5477.94
932.743	5418.28
933.051	5372.18
933.36	5429.8
933.669	5425.73
933.977	5337.83
934.286	5339.18
934.594	5386.41
934.902	5289.47
935.21	5252.86
935.519	5285.85
935.827	5250.37
936.135	5180.77
936.443	5147.32
936.751	5157.27
937.059	5104.61
937.367	5090.83
937.674	5089.24
937.982	5145.74
938.29	5064.84
938.597	5037.72
938.905	5009.7
939.213	5015.35
939.52	4958.85
939.827	4999.53
940.135	4969.47
940.442	4936.03
940.749	4963.82
941.056	4915.69
941.363	4868.91
941.67	4831.85
941.977	4856.26
942.284	4796.37
942.591	4797.27
942.898	4749.82
943.205	4743.49
943.511	4716.6
943.818	4673.89
944.125	4675.47
944.431	4661.69
944.738	4656.94
945.044	4605.19
945.35	4581.91
945.657	4599.54
945.963	4580.78
946.269	4517.96
946.575	4488.58
946.881	4482.26
947.187	4452.43
947.493	4417.85
947.799	4475.7
948.105	4440.22
948.41	4392.54
948.716	4414.91
949.022	4356.16
949.327	4339.89
949.633	4278.87
949.938	4317.06
950.244	4307.8
950.549	4253.79
950.854	4268.02
951.16	4221.02
951.465	4194.35
951.77	4188.03
952.075	4174.47
952.38	4118.2
952.685	4137.63
952.99	4090.4
953.294	4099.89
953.599	4069.84
953.904	4074.36
954.209	4092.21
954.513	4086.33
954.818	4039.1
955.122	3976.28
955.426	3961.59
955.731	3967.24
956.035	3977.41
956.339	3902.61
956.643	3945.77
956.948	3889.95
957.252	3862.61
957.556	3858.09
957.86	3838.88
958.163	3845.89
958.467	3777.41
958.771	3773.35
959.075	3795.27
959.378	3753.23
959.682	3742.61
959.985	3705.78
960.289	3719.11
960.592	3676.85
960.896	3679.34
961.199	3668.27
961.502	3627.36
961.805	3652.9
962.108	3596.63
962.411	3629.62
962.714	3566.57
963.017	3563.86
963.32	3586.46
963.623	3520.47
963.926	3547.14
964.228	3468.27
964.531	3494.03
964.833	3523.86
965.136	3404.32
965.438	3443.86
965.741	3422.17
966.043	3394.83
966.345	3437.08
966.648	3394.6
966.95	3380.36
967.252	3364.54
967.554	3347.37
967.856	3350.99
968.158	3285
968.46	3252.91
968.761	3282.29
969.063	3247.26
969.365	3270.31
969.666	3273.7
969.968	3270.99
970.269	3242.74
970.571	3212.01
970.872	3218.56
971.174	3153.02
971.475	3147.15
971.776	3110.99
972.077	3167.26
972.378	3137.88
972.679	3131.1
972.98	3112.12
973.281	3090.43
973.582	3049.75
973.883	3074.38
974.183	3033.71
974.484	3030.77
974.785	2992.8
975.085	2977.89
975.386	3035.29
975.686	2984.44
975.986	2951.9
976.287	2938.11
976.587	2934.73
976.887	2967.94
977.187	2908.06
977.487	2892.01
977.787	2884.1
978.087	2864.67
978.387	2816.08
978.687	2830.77
978.987	2823.09
979.286	2791
979.586	2802.07
979.885	2815.63
980.185	2777.22
980.484	2778.8
980.784	2737.67
981.083	2766.37
981.382	2730.44
981.682	2759.36
981.981	2726.14
982.28	2726.82
982.579	2667.61
982.878	2698.12
983.177	2640.27
983.475	2675.75
983.774	2629.65
984.073	2629.65
984.372	2601.63
984.67	2586.49
984.969	2603.21
985.267	2554.4
985.566	2557.56
985.864	2593.94
986.162	2537.45
986.461	2518.92
986.759	2543.77
987.057	2492.7
987.355	2503.55
987.653	2504.68
987.951	2481.63
988.249	2478.01
988.547	2462.65
988.844	2464.91
989.142	2441.4
989.44	2424.68
989.737	2385.59
990.035	2390.78
990.332	2392.37
990.63	2396.89
990.927	2374.51
991.224	2325.93
991.521	2317.34
991.819	2324.12
992.116	2338.36
992.413	2331.35
992.71	2312.37
993.006	2300.62
993.303	2298.13
993.6	2264.69
993.897	2279.6
994.193	2274.86
994.49	2241.86
994.787	2217
995.083	2216.78
995.379	2210.9
995.676	2202.77
995.972	2162.09
996.268	2189.43
996.565	2168.42
996.861	2169.55
997.157	2146.72
997.453	2127.74
997.749	2138.59
998.044	2159.83
998.34	2126.61
998.636	2128.42
998.932	2114.63
999.227	2079.83
999.523	2052.49
999.818	2055.65
1000.114	2026.27
1000.409	2014.98
1000.704	2018.14
1001	2008.2
1001.295	2004.58
1001.59	1995.54
1001.885	1997.35
1002.18	1986.95
1002.475	1944.24
1002.77	1988.76
1003.065	1928.88
1003.359	1959.84
1003.654	1943.56
1003.949	1882.78
1004.243	1920.06
1004.538	1883.23
1004.832	1897.92
1005.127	1885.26
1005.421	1877.35
1005.715	1855.43
1006.009	1825.83
1006.304	1831.03
1006.598	1829.22
1006.892	1831.25
1007.186	1796
1007.48	1776.56
1007.773	1775.21
1008.067	1787.86
1008.361	1792.83
1008.655	1747.64
1008.948	1758.71
1009.242	1744.02
1009.535	1701.76
1009.829	1705.83
1010.122	1671.26
1010.415	1674.87
1010.708	1659.5
1011.001	1665.61
1011.295	1657.92
1011.588	1620.64
1011.881	1608.43
1012.173	1662.22
1012.466	1641.2
1012.759	1612.27
1013.052	1618.38
1013.344	1590.81
1013.637	1593.74
1013.93	1565.72
1014.222	1560.52
1014.514	1569.56
1014.807	1550.58
1015.099	1520.3
1015.391	1567.53
1015.683	1540.64
1015.976	1544.93
1016.268	1532.05
1016.56	1489.11
1016.851	1478.04
1017.143	1506.97
1017.435	1489.34
1017.727	1489.79
1018.018	1470.58
1018.31	1453.63
1018.602	1429.23
1018.893	1429.23
1019.185	1413.86
1019.476	1423.13
1019.767	1412.96
1020.058	1382.9
1020.35	1395.33
1020.641	1372.51
1020.932	1391.26
1021.223	1360.53
1021.514	1337.7
1021.804	1355.56
1022.095	1339.96
1022.386	1328.44
1022.677	1317.14
1022.967	1309.23
1023.258	1295.22
1023.548	1328.89
1023.839	1296.35
1024.129	1278.95
1024.419	1273.75
1024.709	1273.07
1025	1246.41
1025.29	1241.21
1025.58	1250.93
1025.87	1240.31
1026.16	1222.45
1026.449	1221.78
1026.739	1190.14
1027.029	1191.49
1027.319	1195.11
1027.608	1189.46
1027.898	1172.29
1028.187	1169.12
1028.477	1136.35
1028.766	1152.63
1029.055	1151.5
1029.344	1152.4
1029.634	1131.83
1029.923	1125.28
1030.212	1112.85
1030.501	1114.43
1030.79	1109.01
1031.078	1107.43
1031.367	1075.56
1031.656	1065.17
1031.945	1101.33
1032.233	1045.96
1032.522	1053.19
1032.81	1026.53
1033.099	1069.24
1033.387	1050.93
1033.675	1028.56
1033.963	1024.72
1034.251	1029.69
1034.54	1019.3
1034.828	995.79
1035.116	1003.02
1035.403	971.61
1035.691	977.26
1035.979	950.37
1036.267	984.27
1036.554	969.58
1036.842	968.22
1037.129	957.6
1037.417	960.77
1037.704	942.24
1037.992	935.46
1038.279	934.33
1038.566	919.41
1038.853	919.41
1039.14	919.41
