Data from hue_34_FLMS001491_00040.txt Node
Date: Tue Feb 07 17:25:33 GMT 2017
User: dcchb
Spectrometer: FLMS00149
Trigger mode: 0
Integration Time (sec): 2.000000E-2
Scans to average: 10
Electric dark correction enabled: true
Nonlinearity correction enabled: false
Boxcar width: 0
XAxis mode: Wavelengths
Number of Pixels in Spectrum: 2048
>>>>>Begin Spectral Data<<<<<
341.393	-30.07
341.776	-30.07
342.16	-30.07
342.543	-30.52
342.927	-64.65
343.31	-65.55
343.693	-74.59
344.077	-68.26
344.46	-61.03
344.843	-65.32
345.226	-23.74
345.61	-43.4
345.993	-10.86
346.376	-6.57
346.759	3.38
347.142	11.51
347.525	50.15
347.908	65.75
348.291	78.4
348.674	95.12
349.057	115.01
349.44	130.15
349.823	146.65
350.206	174.67
350.588	202.69
350.971	200.21
351.354	236.82
351.737	253.76
352.119	246.99
352.502	270.26
352.884	273.43
353.267	302.58
353.65	286.76
354.032	302.8
354.414	303.03
354.797	306.87
355.179	346.42
355.562	330.15
355.944	341.9
356.326	329.02
356.709	325.4
357.091	332.41
357.473	329.92
357.855	316.59
358.238	329.92
358.62	355.68
359.002	339.19
359.384	347.32
359.766	350.03
360.148	356.59
360.53	344.61
360.912	338.96
361.294	334.21
361.676	322.69
362.057	347.77
362.439	345.29
362.821	329.02
363.203	326.98
363.584	336.93
363.966	327.66
364.348	325.63
364.729	333.76
365.111	322.92
365.493	332.18
365.874	307.32
366.256	313.42
366.637	331.95
367.019	307.32
367.4	317.27
367.781	319.75
368.163	307.1
368.544	313.88
368.925	304.16
369.306	313.88
369.688	339.64
370.069	303.48
370.45	310.26
370.831	307.55
371.212	304.16
371.593	314.55
371.974	308
372.355	306.42
372.736	326.76
373.117	328.56
373.498	328.79
373.879	337.38
374.26	297.15
374.641	305.51
375.021	325.18
375.402	343.93
375.783	334.21
376.163	345.29
376.544	325.63
376.925	326.08
377.305	328.79
377.686	347.1
378.066	327.21
378.447	347.32
378.827	336.7
379.208	326.3
379.588	341.9
379.968	328.34
380.349	323.14
380.729	336.7
381.109	338.96
381.489	331.05
381.87	321.56
382.25	343.25
382.63	345.06
383.01	369.92
383.39	341.67
383.77	338.73
384.15	349.13
384.53	344.16
384.91	361.33
385.29	352.07
385.67	336.02
386.049	337.38
386.429	350.49
386.809	352.52
387.189	345.74
387.568	361.11
387.948	357.94
388.328	339.19
388.707	353.42
389.087	369.47
389.466	366.3
389.846	359.52
390.225	379.41
390.605	355
390.984	378.73
391.363	381.9
391.743	358.17
392.122	356.13
392.501	379.64
392.881	382.12
393.26	370.15
393.639	360.88
394.018	351.62
394.397	376.02
394.776	381.22
395.155	388.9
395.534	371.28
395.913	383.93
396.292	379.18
396.671	381.22
397.05	363.82
397.429	388.45
397.808	378.73
398.186	384.83
398.565	388.68
398.944	391.39
399.323	398.39
399.701	392.07
400.08	392.29
400.458	384.16
400.837	376.47
401.215	398.62
401.594	409.47
401.972	383.93
402.351	396.59
402.729	376.02
403.107	415.79
403.486	403.82
403.864	403.82
404.242	402.24
404.62	402.91
404.999	422.12
405.377	398.39
405.755	418.28
406.133	424.61
406.511	411.95
406.889	431.84
407.267	407.21
407.645	431.61
408.023	424.61
408.401	443.82
408.779	415.57
409.156	440.88
409.534	423.93
409.912	433.87
410.29	441.33
410.667	449.92
411.045	452.86
411.422	465.28
411.8	451.05
412.178	459.41
412.555	467.77
412.933	450.14
413.31	461.22
413.687	472.52
414.065	454.66
414.442	504.15
414.819	467.32
415.197	473.65
415.574	468.9
415.951	469.8
416.328	485.85
416.705	482.23
417.082	460.31
417.46	479.97
417.837	500.76
418.214	511.38
418.591	486.3
418.967	495.57
419.344	480.88
419.721	502.12
420.098	513.19
420.475	519.07
420.852	527.2
421.228	523.36
421.605	527.88
421.982	520.42
422.358	533.76
422.735	516.58
423.111	533.98
423.488	521.55
423.864	528.79
424.241	551.16
424.617	534.66
424.994	543.02
425.37	536.02
425.746	566.75
426.123	544.15
426.499	551.38
426.875	565.85
427.251	565.17
427.627	560.65
428.003	568.11
428.379	569.91
428.756	581.44
429.132	565.62
429.507	577.82
429.883	595
430.259	592.06
430.635	587.09
431.011	589.35
431.387	608.78
431.763	597.94
432.138	625.96
432.514	616.47
432.89	640.42
433.265	634.77
433.641	622.12
434.016	641.78
434.392	650.59
434.767	672.96
435.143	658.5
435.518	666.41
435.894	675
436.269	644.49
436.644	662.34
437.02	677.93
437.395	661.44
437.77	678.61
438.145	695.11
438.52	686.75
438.895	705.73
439.271	726.52
439.646	706.86
440.021	725.84
440.395	708.67
440.77	738.5
441.145	706.41
441.52	740.98
441.895	729.23
442.27	757.93
442.645	742.11
443.019	747.76
443.394	744.37
443.769	747.54
444.143	747.76
444.518	757.48
444.892	741.21
445.267	769.01
445.641	782.11
446.016	775.11
446.39	769.23
446.764	780.53
447.139	778.72
447.513	803.35
447.887	810.13
448.262	803.81
448.636	769.46
449.01	798.16
449.384	829.34
449.758	813.75
450.132	825.95
450.506	819.85
450.88	830.47
451.254	830.25
451.628	829.79
452.002	849.68
452.376	861.88
452.75	852.39
453.123	871.83
453.497	858.27
453.871	880.19
454.244	917.93
454.618	882
454.992	894.65
455.365	887.19
455.739	949.34
456.112	923.13
456.486	924.48
456.859	917.93
457.232	964.71
457.606	951.15
457.979	966.29
458.352	978.27
458.725	987.98
459.099	975.33
459.472	1013.97
459.845	1021.88
460.218	1006.74
460.591	1022.78
460.964	1041.31
461.337	1070.24
461.71	1087.87
462.083	1115.21
462.456	1078.38
462.829	1100.3
463.201	1119.05
463.574	1136.68
463.947	1132.16
464.32	1152.95
464.692	1148.2
465.065	1164.48
465.438	1212.61
465.81	1212.61
466.183	1209.9
466.555	1226.17
466.928	1227.3
467.3	1250.12
467.672	1278.6
468.045	1314.3
468.417	1305.04
468.789	1328.09
469.161	1336
469.534	1379.61
469.906	1402.89
470.278	1397.24
470.65	1427.29
471.022	1435.65
471.394	1484.47
471.766	1484.69
472.138	1509.32
472.51	1532.6
472.882	1557.69
473.253	1592.49
473.625	1593.62
473.997	1684.69
474.369	1696.89
474.74	1672.26
475.112	1689.66
475.484	1754.06
475.855	1786.15
476.227	1822.99
476.598	1879.48
476.97	1900.73
477.341	1929.43
477.713	2002.19
478.084	1984.79
478.455	2063.43
478.827	2094.17
479.198	2136.2
479.569	2190.21
479.94	2290.55
480.311	2277.44
480.682	2357.21
481.053	2455.74
481.424	2487.15
481.795	2513.82
482.166	2587.49
482.537	2637.66
482.908	2700.48
483.279	2760.14
483.65	2812.79
484.021	2879.01
484.391	2968.5
484.762	2971.89
485.133	3089.4
485.503	3152.22
485.874	3201.94
486.244	3248.71
486.615	3389.5
486.985	3410.74
487.356	3492.32
487.726	3537.29
488.097	3681.02
488.467	3671.53
488.837	3827
489.207	3882.6
489.578	3966.44
489.948	4040.78
490.318	4109.93
490.688	4155.36
491.058	4284.62
491.428	4363.26
491.798	4424.5
492.168	4524.61
492.538	4590.6
492.908	4705.85
493.278	4739.97
493.648	4780.2
494.017	4896.58
494.387	4984.04
494.757	5055.22
495.126	5136.12
495.496	5142
495.866	5246.85
496.235	5359.39
496.605	5346.06
496.974	5447.07
497.344	5540.18
497.713	5561.2
498.082	5661.31
498.452	5698.37
498.821	5749.89
499.19	5787.63
499.559	5877.12
499.928	5932.71
500.298	5997.12
500.667	6072.59
501.036	6064.69
501.405	6195.76
501.774	6222.42
502.143	6287.73
502.512	6332.47
502.88	6410.89
503.249	6452.25
503.618	6493.6
503.987	6511.45
504.356	6596.87
504.724	6716.87
505.093	6700.37
505.462	6708.96
505.83	6763.2
506.199	6850.88
506.567	6949.41
506.936	6968.62
507.304	7067.6
507.672	7121.83
508.041	7090.19
508.409	7182.4
508.777	7286.8
509.145	7282.51
509.514	7319.34
509.882	7379.9
510.25	7341.94
510.618	7482.05
510.986	7450.19
511.354	7569.05
511.722	7669.61
512.09	7679.11
512.458	7721.82
512.826	7710.97
513.193	7799.55
513.561	7872.32
513.929	7929.04
514.297	7936.95
514.664	7970.85
515.032	8060.56
515.4	8082.71
515.767	8141.92
516.135	8208.58
516.502	8176.95
516.869	8261.01
517.237	8384.62
517.604	8283.16
517.972	8343.72
518.339	8423.49
518.706	8444.06
519.073	8514.34
519.44	8484.96
519.808	8587.33
520.175	8609.25
520.542	8664.16
520.909	8668.91
521.276	8701.9
521.643	8769.47
522.009	8832.97
522.376	8941.67
522.743	8905.51
523.11	9035.23
523.477	9100.99
523.843	9198.16
524.21	9215.34
524.577	9218.95
524.943	9331.04
525.31	9351.83
525.676	9446.07
526.043	9469.12
526.409	9461.43
526.776	9567.64
527.142	9624.82
527.508	9658.94
527.874	9799.05
528.241	9768.32
528.607	9842.66
528.973	9856.68
529.339	9959.5
529.705	10047.63
530.071	10070.68
530.437	10107.06
530.803	10123.11
531.169	10164.92
531.535	10191.13
531.901	10195.65
532.267	10244.91
532.632	10361.75
532.998	10354.97
533.364	10491.91
533.73	10526.49
534.095	10524.23
534.461	10587.05
534.826	10690.33
535.192	10640.38
535.557	10816.42
535.923	10748.18
536.288	10786.37
536.653	10892.58
537.019	10838.34
537.384	10921.28
537.749	10921.96
538.114	11007.83
538.479	10981.62
538.845	11090.77
539.21	11140.71
539.575	11189.3
539.94	11180.03
540.305	11361.95
540.67	11322.4
541.034	11359.91
541.399	11366.24
541.764	11412.34
542.129	11464.32
542.494	11493.24
542.858	11556.07
543.223	11515.16
543.587	11609.85
543.952	11679.68
544.316	11721.71
544.681	11789.73
545.045	11862.95
545.41	11887.81
545.774	11940.46
546.138	11960.35
546.503	11944.3
546.867	12064.53
547.231	12099.1
547.595	12194.69
547.959	12163.96
548.324	12183.85
548.688	12182.94
549.052	12265.88
549.416	12311.75
549.779	12407.34
550.143	12397.4
550.507	12422.26
550.871	12518.98
551.235	12592.42
551.599	12666.77
551.962	12660.22
552.326	12637.85
552.689	12754.9
553.053	12757.39
553.417	12768.69
553.78	12987.44
554.143	12879.87
554.507	12979.98
554.87	12947.67
555.234	13087.55
555.597	12963.26
555.96	13061.79
556.323	13113.99
556.686	13108.34
557.05	13238.73
557.413	13290.03
557.776	13316.92
558.139	13331.61
558.502	13361.67
558.865	13416.13
559.228	13489.12
559.59	13614.54
559.953	13505.85
560.316	13697.48
560.679	13700.87
561.041	13694.54
561.404	13846.18
561.767	13910.81
562.129	13865.38
562.492	13979.05
562.854	13967.98
563.217	13944.25
563.579	14124.81
563.941	14121.87
564.304	14164.36
564.666	14242.32
565.028	14296.79
565.39	14349.67
565.753	14419.72
566.115	14484.8
566.477	14428.31
566.839	14591.47
567.201	14629.88
567.563	14614.97
567.925	14720.73
568.287	14711.01
568.648	14699.71
569.01	14891.57
569.372	14886.83
569.734	14922.76
570.095	15054.05
570.457	15044.11
570.819	15134.28
571.18	15198.91
571.542	15236.42
571.903	15321.39
572.265	15387.15
572.626	15439.13
572.987	15562.51
573.349	15500.6
573.71	15697.88
574.071	15819.68
574.432	15808.38
574.794	15998.21
575.155	16099.9
575.516	16003.63
575.877	16149.17
576.238	16333.34
576.599	16473
576.96	16465.99
577.32	16555.93
577.681	16667.8
578.042	16760
578.403	16901.69
578.763	17010.61
579.124	17185.3
579.485	17376.03
579.845	17490.6
580.206	17642.23
580.566	17720.42
580.927	17951.83
581.287	18022.56
581.648	18163.35
582.008	18429.33
582.368	18573.51
582.728	18750
583.089	18768.76
583.449	19099.6
583.809	19169.65
584.169	19483.99
584.529	19588.4
584.889	19939.35
585.249	20039.91
585.609	20261.15
585.969	20600.35
586.329	20726.22
586.688	20988.59
587.048	21241.01
587.408	21416.6
587.768	21529.82
588.127	21720.54
588.487	22031.5
588.846	22401.43
589.206	22510.35
589.565	22813.85
589.925	23050.45
590.284	23275.31
590.643	23512.59
591.003	23773.37
591.362	24167.49
591.721	24442.96
592.08	24663.07
592.44	24917.52
592.799	25151.41
593.158	25293.78
593.517	25575.13
593.876	25895.12
594.235	26106.64
594.593	26365.62
594.952	26672.05
595.311	26858.26
595.67	27158.37
596.029	27504.8
596.387	27767.62
596.746	28068.63
597.104	28143.2
597.463	28333.7
597.822	28893.69
598.18	28879
598.538	29214.58
598.897	29464.75
599.255	29671.07
599.613	30140.44
599.972	30148.57
600.33	30513.76
600.688	30615.9
601.046	30929.12
601.404	31277.36
601.762	31286.62
602.12	31694.75
602.478	31775.42
602.836	32239.14
603.194	32166.37
603.552	32548.73
603.91	32552.12
604.268	32899.46
604.625	32955.5
604.983	33294.25
605.341	33333.12
605.698	33721.81
606.056	33892.43
606.413	34067.79
606.771	34335.13
607.128	34528.12
607.485	34443.6
607.843	34746.19
608.2	35088.55
608.557	35296.23
608.914	35250.13
609.272	35616
609.629	35819.61
609.986	36023.9
610.343	36026.16
610.7	36336.88
611.057	36410.1
611.414	36611.9
611.771	36605.35
612.127	36994.27
612.484	37060.71
612.841	37354.03
613.198	37230.87
613.554	37387.25
613.911	37689.62
614.267	37773.23
614.624	37854.36
614.98	37973.9
615.337	38350.84
615.693	38361.24
616.05	38397.62
616.406	38764.39
616.762	38718.06
617.118	38771.4
617.475	38757.84
617.831	39110.82
618.187	39093.87
618.543	39377.71
618.899	39440.08
619.255	39471.49
619.611	39613.86
619.967	39911.48
620.323	39938.37
620.678	39837.81
621.034	39855.89
621.39	39982.44
621.746	40041.64
622.101	40537.68
622.457	40164.13
622.812	40248.42
623.168	40444.57
623.523	40511.24
623.879	40599.37
624.234	40466.72
624.589	40535.19
624.945	40880.72
625.3	40751.68
625.655	40874.39
626.01	41016.08
626.365	40970.89
626.72	40890.44
627.075	41021.05
627.43	41025.12
627.785	40948.51
628.14	41124.78
628.495	41247.04
628.85	41174.95
629.205	41063.54
629.559	41377.88
629.914	41303.08
630.269	41312.8
630.623	41290.43
630.978	41212.46
631.332	41337.2
631.687	41592.79
632.041	41260.82
632.396	41613.35
632.75	41364.55
633.104	41360.93
633.459	41246.13
633.813	41335.17
634.167	41434.83
634.521	41448.16
634.875	41453.81
635.229	41402.74
635.583	41246.58
635.937	41279.58
636.291	41368.39
636.645	41220.14
636.999	41228.51
637.352	41466.69
637.706	41273.25
638.06	41256.98
638.413	41094.27
638.767	41087.49
639.121	41278.9
639.474	40988.74
639.828	41137.89
640.181	41122.07
640.534	41235.06
640.888	41060.83
641.241	40865.58
641.594	41187.6
641.947	41103.76
642.301	41002.3
642.654	41032.35
643.007	41050.21
643.36	40993.71
643.713	40882.3
644.066	41288.84
644.419	40802.75
644.771	40731.12
645.124	40386.95
645.477	40382.43
645.83	40175.2
646.182	39838.94
646.535	39775.66
646.888	39919.61
647.24	39722.11
647.593	39861.76
647.945	39909.9
648.298	39699.73
648.65	39572.96
649.002	39478.5
649.355	39595.78
649.707	39772.5
650.059	39967.07
650.411	40325.03
650.763	40199.83
651.115	40605.02
651.467	40595.08
651.819	40570.22
652.171	40549.65
652.523	40415.42
652.875	40415.87
653.227	40212.71
653.578	40620.39
653.93	40370.22
654.282	40251.36
654.633	40184.92
654.985	40193.05
655.337	40332.26
655.688	40395.99
656.039	40354.86
656.391	40160.74
656.742	40157.35
657.094	40155.31
657.445	40369.77
657.796	40278.7
658.147	40176.78
658.498	40237.8
658.849	40258.59
659.2	40134.75
659.551	40005.49
659.902	40182.66
660.253	40062.44
660.604	40159.61
660.955	39950.8
661.306	40254.97
661.656	40083.9
662.007	40082.77
662.358	40046.62
662.708	40268.76
663.059	40045.94
663.409	39784.25
663.76	40098.37
664.11	40035.32
664.461	40073.96
664.811	40063.79
665.161	40099.95
665.511	39938.6
665.862	39834.19
666.212	39948.77
666.562	40198.02
666.912	39938.37
667.262	39896.34
667.612	39895.89
667.962	40033.28
668.312	39901.76
668.662	40115.54
669.011	39988.09
669.361	39872.61
669.711	39865.6
670.06	39836.23
670.41	39836.23
670.76	39706.29
671.109	40030.35
671.459	39838.94
671.808	39694.54
672.157	39932.04
672.507	39398.05
672.856	39601.2
673.205	39781.31
673.554	39789.22
673.904	39704.48
674.253	39714.2
674.602	39602.79
674.951	39189.46
675.3	38908.12
675.649	39611.6
675.998	39539.29
676.346	39640.98
676.695	39718.26
677.044	39430.14
677.393	39540.19
677.741	39454.77
678.09	39489.34
678.438	39550.36
678.787	39442.34
679.135	39416.35
679.484	39213.42
679.832	39258.39
680.181	39087.09
680.529	39256.13
680.877	39046.87
681.225	38975.01
681.573	39284.6
681.922	38942.01
682.27	38947.44
682.618	38964.16
682.966	38887.32
683.314	38933.88
683.661	38719.42
684.009	38679.42
684.357	38563.94
684.705	38479.65
685.053	38558.97
685.4	38502.93
685.748	38222.26
686.095	38291.18
686.443	38250.96
686.79	38173.22
687.138	38327.79
687.485	38249.38
687.832	38193.56
688.18	38116.27
688.527	37914.02
688.874	38013
689.221	37884.19
689.568	37693.01
689.915	37482.84
690.262	37712.44
690.609	37509.96
690.956	37321.04
691.303	37415.73
691.65	37206.69
691.997	37241.27
692.344	36925.79
692.69	37046.92
693.037	37149.29
693.383	36659.13
693.73	36839.47
694.077	36552.92
694.423	36657.33
694.769	36611
695.116	36524
695.462	36510.66
695.808	36135.53
696.155	36330.33
696.501	36028.19
696.847	35980.73
697.193	35828.65
697.539	35937.57
697.885	35818.25
698.231	35594.98
698.577	35510.01
698.923	35479.96
699.269	35326.06
699.614	35191.15
699.96	35192.73
700.306	35291.94
700.651	35028.44
700.997	34929.24
701.342	34945.96
701.688	34814.66
702.033	34680.66
702.379	34636.14
702.724	34578.51
703.069	34636.14
703.415	34325.41
703.76	34279.99
704.105	34222.59
704.45	34228.01
704.795	34030.28
705.14	33950.96
705.485	33988.02
705.83	33830.06
706.175	33825.99
706.52	33751.19
706.865	33684.98
707.209	33578.09
707.554	33490.86
707.899	33515.71
708.243	33309.39
708.588	33228.49
708.932	33122.96
709.277	33076.18
709.621	33119.57
709.966	32831.44
710.31	32899.23
710.654	32593.71
710.998	32728.39
711.342	32676.87
711.687	32573.14
712.031	32422.86
712.375	32330.21
712.719	32395.52
713.063	32340.38
713.407	32457.89
713.75	32313.49
714.094	32364.78
714.438	32052.93
714.782	32053.15
715.125	32033.04
715.469	32033.27
715.812	31803.67
716.156	31748.98
716.499	31719.38
716.843	31718.93
717.186	31601.41
717.53	31673.73
717.873	31794.63
718.216	31400.52
718.559	31454.53
718.902	31196.45
719.246	31322.33
719.589	31305.83
719.932	31091.15
720.275	31104.7
720.617	31042.56
720.96	31067.87
721.303	31055.21
721.646	30874.2
721.989	30746.75
722.331	30975.89
722.674	30816.8
723.016	30885.73
723.359	30667.2
723.701	30765.5
724.044	30433.76
724.386	30418.4
724.729	30561.22
725.071	30303.37
725.413	30438.28
725.755	30389.47
726.097	30239.64
726.439	30045.98
726.782	30102.7
727.124	30350.83
727.465	30116.26
727.807	30079.87
728.149	30035.58
728.491	29923.49
728.833	30074.9
729.175	29884.62
729.516	29771.18
729.858	29761.69
730.199	29881.69
730.541	29724.18
730.882	29795.36
731.224	29733.67
731.565	29535.48
731.906	29516.72
732.248	29560.79
732.589	29331.87
732.93	29378.2
733.271	29357.41
733.612	29286.45
733.953	29419.78
734.294	29125.32
734.635	29175.26
734.976	29190.86
735.317	29137.98
735.658	28965.78
735.999	28973.91
736.339	29024.76
736.68	29000.81
737.021	29060.46
737.361	28766.69
737.702	29000.58
738.042	28872.9
738.383	28705.9
738.723	28860.47
739.063	28689.18
739.404	28674.71
739.744	28602.85
740.084	28400.37
740.424	28521.5
740.764	28535.73
741.104	28642.17
741.444	28490.99
741.784	28399.01
742.124	28289.41
742.464	28449.63
742.804	28240.15
743.143	28232.24
743.483	28246.93
743.823	28123.31
744.162	28091.22
744.502	28239.02
744.841	28026.37
745.181	28129.19
745.52	27982.98
745.86	28049.64
746.199	27884.45
746.538	28011.23
746.877	28037.21
747.216	27972.13
747.556	27785.02
747.895	27768.75
748.234	27621.63
748.573	27672.93
748.911	27618.47
749.25	27488.3
749.589	27418.25
749.928	27468.87
750.267	27424.58
750.605	27363.11
750.944	27350
751.283	27241.98
751.621	27189.33
751.96	27134.87
752.298	27076.11
752.636	27169.89
752.975	27026.39
753.313	27000.63
753.651	27022.33
753.989	26912.05
754.327	26984.81
754.666	26678.61
755.004	26698.27
755.342	26689.45
755.679	26787.3
756.017	26619.4
756.355	26566.74
756.693	26461.21
757.031	26510.25
757.368	26347.77
757.706	26307.99
758.044	26222.57
758.381	26308.45
758.719	26159.3
759.056	26162.69
759.394	26108.68
759.731	25875.01
760.068	25843.37
760.405	25774.68
760.743	25681.57
761.08	25771.74
761.417	25597.05
761.754	25603.38
762.091	25494.23
762.428	25430.28
762.765	25320.22
763.102	25364.97
763.438	25139.44
763.775	25089.72
764.112	25049.95
764.449	25205.88
764.785	25027.35
765.122	24881.14
765.458	24640.47
765.795	24725.66
766.131	24686.79
766.467	24604.31
766.804	24541.26
767.14	24364.54
767.476	24274.38
767.812	24301.72
768.148	24153.48
768.485	24113.93
768.821	23993.03
769.157	24048.17
769.492	23878.23
769.828	23917.55
770.164	23625.81
770.5	23587.16
770.836	23547.16
771.171	23457
771.507	23369.31
771.842	23240.05
772.178	23287.96
772.513	23105.14
772.849	23134.74
773.184	22947.86
773.519	22921.42
773.855	22812.95
774.19	22716.68
774.525	22663.34
774.86	22729.33
775.195	22640.29
775.53	22435.55
775.865	22401.66
776.2	22366.86
776.535	22163.02
776.87	22148.33
777.205	22072.17
777.539	21988.33
777.874	21966.41
778.209	21838.73
778.543	21737.04
778.878	21772.07
779.212	21521
779.547	21469.7
779.881	21565.29
780.215	21241.01
780.55	21299.54
780.884	21183.84
781.218	21193.55
781.552	21202.82
781.886	20971.64
782.22	20958.98
782.554	20751.08
782.888	20727.58
783.222	20575.26
783.556	20581.59
783.889	20534.14
784.223	20295.27
784.557	20304.99
784.89	20373.91
785.224	20187.25
785.557	20076.97
785.891	20065
786.224	19923.98
786.558	20057.76
786.891	19740.71
787.224	19650.32
787.557	19671.56
787.891	19567.61
788.224	19660.49
788.557	19588.17
788.89	19474.73
789.223	19385.46
789.556	19348.18
789.888	19319.03
790.221	19179.14
790.554	19120.84
790.887	18956.32
791.219	19122.65
791.552	18895.08
791.884	18834.74
792.217	18787.97
792.549	18524.7
792.882	18525.37
793.214	18502.32
793.546	18545.26
793.879	18449.9
794.211	18313.85
794.543	18423.68
794.875	18405.15
795.207	18332.61
795.539	18222.56
795.871	18164.25
796.203	18118.61
796.535	18011.04
796.867	17920.42
797.198	17881.78
797.53	17875.45
797.862	17772.63
798.193	17894.88
798.525	17683.59
798.856	17722.23
799.188	17431.84
799.519	17412.64
799.85	17369.25
800.182	17416.7
800.513	17371.28
800.844	17171.29
801.175	17302.13
801.506	17298.97
801.837	17210.83
802.168	17134.45
802.499	16994.12
802.83	16895.81
803.161	16903.04
803.491	16988.24
803.822	16809.94
804.153	16698.08
804.483	16630.51
804.814	16652.66
805.145	16562.71
805.475	16588.02
805.805	16472.55
806.136	16487.01
806.466	16430.51
806.796	16507.8
807.126	16267.13
807.457	16245.66
807.787	16153.91
808.117	16202.5
808.447	16161.14
808.777	16158.21
809.107	16052.22
809.436	15960.24
809.766	16059.9
810.096	15896.07
810.426	15848.61
810.755	15826.46
811.085	15874.82
811.414	15795.5
811.744	15696.52
812.073	15550.31
812.403	15589.86
812.732	15549.41
813.061	15530.2
813.39	15500.37
813.719	15418.11
814.049	15459.01
814.378	15432.12
814.707	15333.37
815.036	15335.63
815.365	15227.61
815.693	15159.81
816.022	15145.12
816.351	15114.39
816.68	15110.77
817.008	15060.61
817.337	14995.07
817.665	14907.62
817.994	14944.45
818.322	14841.18
818.651	14857.67
818.979	14798.01
819.307	14837.11
819.636	14777.45
819.964	14708.98
820.292	14788.52
820.62	14678.02
820.948	14702.2
821.276	14700.39
821.604	14672.14
821.932	14660.62
822.259	14724.57
822.587	14615.87
822.915	14659.04
823.243	14644.8
823.57	14599.15
823.898	14625.82
824.225	14555.08
824.553	14618.36
824.88	14619.49
825.207	14562.77
825.535	14535.87
825.862	14588.75
826.189	14549.21
826.516	14529.77
826.843	14602.31
827.17	14624.69
827.497	14574.74
827.824	14511.69
828.151	14644.12
828.478	14509.43
828.805	14681.63
829.131	14513.5
829.458	14560.73
829.785	14525.03
830.111	14494.75
830.438	14451.81
830.764	14505.37
831.09	14503.33
831.417	14446.84
831.743	14543.56
832.069	14481.86
832.395	14322.77
832.722	14557.12
833.048	14397.8
833.374	14365.26
833.7	14366.84
834.026	14363.9
834.351	14365.26
834.677	14335.2
835.003	14426.95
835.329	14315.09
835.654	14236.67
835.98	14169.56
836.306	14309.21
836.631	14193.28
836.956	14284.58
837.282	14263.79
837.607	14233.74
837.932	14247.07
838.258	14194.41
838.583	14217.92
838.908	14008.88
839.233	14099.73
839.558	14008.88
839.883	13986.06
840.208	14014.08
840.533	13936.79
840.858	13915.55
841.182	13935.89
841.507	13929.56
841.832	13845.95
842.156	13827.64
842.481	13860.41
842.805	13765.95
843.13	13735.44
843.454	13798.04
843.778	13656.58
844.103	13726.4
844.427	13599.85
844.751	13592.17
845.075	13551.27
845.399	13533.87
845.723	13514.21
846.047	13373.65
846.371	13325.51
846.695	13288.45
847.019	13296.13
847.343	13175.01
847.666	13114.44
847.99	12993.99
848.313	13030.15
848.637	13015.24
848.96	12932.08
849.284	12931.4
849.607	12731.85
849.931	12755.81
850.254	12654.57
850.577	12638.75
850.9	12523.95
851.223	12539.32
851.546	12499.32
851.869	12375.03
852.192	12493.44
852.515	12348.59
852.838	12309.04
853.161	12293.9
853.483	12181.36
853.806	12136.84
854.129	12145.43
854.451	12074.7
854.774	12030.86
855.096	12022.95
855.419	11976.85
855.741	11977.3
856.063	11872.67
856.385	11841.71
856.708	11850.52
857.03	11858.66
857.352	11833.12
857.674	11730.75
857.996	11672.9
858.318	11634.93
858.64	11647.82
858.961	11612.56
859.283	11546.12
859.605	11542.06
859.926	11524.65
860.248	11481.04
860.57	11418.44
860.891	11406.24
861.212	11372.57
861.534	11422.96
861.855	11252.35
862.176	11337.99
862.498	11345
862.819	11267.71
863.14	11265
863.461	11250.31
863.782	11192.69
864.103	11222.74
864.424	11203.76
864.745	11204.21
865.065	11094.38
865.386	11062.07
865.707	11178.67
866.027	11081.05
866.348	11080.6
866.668	11035.18
866.989	10935.07
867.309	10918.12
867.63	10914.28
867.95	10924.44
868.27	10896.42
868.59	10914.5
868.91	10860.94
869.23	10913.82
869.55	10755.64
869.87	10815.97
870.19	10803.09
870.51	10797.67
870.83	10827.72
871.15	10759.25
871.469	10702.98
871.789	10775.97
872.109	10749.99
872.428	10734.84
872.748	10648.52
873.067	10670.67
873.386	10641.97
873.706	10629.54
874.025	10577.79
874.344	10536.88
874.663	10564.91
874.982	10519.26
875.301	10476.09
875.62	10453.27
875.939	10482.65
876.258	10557.22
876.577	10460.05
876.896	10411.24
877.214	10352.71
877.533	10352.71
877.852	10341.41
878.17	10344.57
878.489	10331.69
878.807	10340.28
879.125	10330.79
879.444	10366.04
879.762	10289.43
880.08	10329.43
880.398	10206.05
880.716	10206.27
881.034	10134.18
881.352	10192.03
881.67	10195.88
881.988	10145.48
882.306	10094.86
882.624	10012.38
882.941	9958.14
883.259	10024.36
883.577	9950.91
883.894	9958.59
884.212	9975.54
884.529	9893.29
884.846	9932.61
885.164	9862.33
885.481	9898.26
885.798	9869.78
886.115	9724.7
886.432	9853.29
886.75	9866.17
887.067	9733.97
887.383	9716.34
887.7	9772.84
888.017	9625.04
888.334	9574.88
888.651	9651.71
888.967	9644.93
889.284	9648.55
889.6	9547.31
889.917	9547.08
890.233	9469.57
890.55	9465.95
890.866	9510.24
891.182	9449.23
891.498	9400.19
891.815	9404.71
892.131	9355.45
892.447	9343.02
892.763	9329.46
893.079	9331.94
893.395	9255.11
893.71	9256.24
894.026	9142.57
894.342	9157.26
894.657	9121.33
894.973	9091.72
895.289	9092.63
895.604	9068.22
895.92	8960.2
896.235	8981.9
896.55	8941.67
896.865	8911.16
897.181	8915.46
897.496	8860.32
897.811	8840.66
898.126	8817.83
898.441	8749.36
898.756	8767.44
899.071	8746.2
899.386	8712.75
899.7	8612.87
900.015	8640.66
900.33	8581.68
900.644	8508.24
900.959	8510.5
901.273	8577.61
901.588	8474.11
901.902	8471.85
902.216	8432.31
902.531	8376.49
902.845	8413.32
903.159	8309.37
903.473	8321.12
903.787	8291.07
904.101	8232.99
904.415	8189.6
904.729	8192.31
905.042	8079.77
905.356	8160.9
905.67	8122.26
905.984	8055.59
906.297	8071.64
906.611	8036.38
906.924	7996.84
907.237	7909.83
907.551	7944.41
907.864	7861.02
908.177	7852.89
908.491	7812.44
908.804	7744.19
909.117	7709.39
909.43	7688.37
909.743	7655.15
910.056	7596.62
910.368	7628.94
910.681	7581.93
910.994	7569.05
911.307	7499.9
911.619	7503.74
911.932	7473.69
912.244	7390.75
912.557	7386.46
912.869	7352.79
913.181	7370.41
913.494	7299.23
913.806	7302.39
914.118	7223.75
914.43	7229.85
914.742	7211.77
915.054	7159.12
915.366	7159.57
915.678	7084.32
915.99	7011.55
916.302	7049.97
916.613	7004.55
916.925	6977.66
917.236	6991.67
917.548	6913.25
917.859	6867.6
918.171	6860.6
918.482	6854.95
918.794	6784.44
919.105	6826.7
919.416	6749.41
919.727	6742.63
920.038	6717.55
920.349	6675.52
920.66	6660.38
920.971	6626.03
921.282	6591.22
921.593	6540.6
921.903	6529.98
922.214	6498.57
922.525	6473.49
922.835	6444.79
923.146	6404.56
923.456	6399.59
923.767	6351.91
924.077	6374.51
924.387	6304.9
924.697	6279.82
925.008	6243.44
925.318	6229.43
925.628	6213.16
925.938	6184.68
926.248	6125.25
926.558	6097.23
926.867	6089.54
927.177	6098.13
927.487	6000.28
927.796	6024.01
928.106	5963.9
928.416	5963.22
928.725	5973.39
929.034	5962.31
929.344	5907.85
929.653	5900.62
929.962	5837.12
930.271	5859.94
930.581	5824.24
930.89	5718.48
931.199	5785.37
931.508	5697.69
931.817	5742.66
932.125	5644.58
932.434	5700.85
932.743	5596.22
933.051	5585.15
933.36	5564.81
933.669	5515.1
933.977	5542.44
934.286	5494.3
934.594	5481.42
934.902	5438.03
935.21	5407.3
935.519	5386.06
935.827	5429.22
936.135	5339.73
936.443	5342.67
936.751	5308.32
937.059	5299.73
937.367	5270.81
937.674	5229.9
937.982	5278.49
938.29	5202.56
938.597	5241.2
938.905	5156.69
939.213	5135.67
939.52	5112.17
939.827	5108.33
940.135	5037.59
940.442	5065.39
940.749	5065.39
941.056	5050.25
941.363	4980.87
941.67	4982.45
941.977	4940.19
942.284	4931.38
942.591	4872.85
942.898	4891.83
943.205	4898.84
943.511	4840.31
943.818	4847.09
944.125	4803.48
944.431	4817.71
944.738	4778.62
945.044	4737.49
945.35	4680.99
945.657	4683.93
945.963	4671.5
946.269	4648.68
946.575	4692.74
946.881	4626.76
947.187	4564.61
947.493	4560.32
947.799	4582.01
948.105	4534.56
948.41	4506.31
948.716	4518.96
949.022	4521.67
949.327	4509.47
949.633	4427.44
949.938	4415.69
950.244	4417.95
950.549	4399.42
950.854	4373.2
951.16	4329.36
951.465	4324.17
951.77	4273.77
952.075	4334.11
952.38	4226.54
952.685	4301.79
952.99	4212.98
953.294	4220.67
953.599	4179.31
953.904	4181.12
954.209	4139.09
954.513	4109.26
954.818	4129.82
955.122	4114
955.426	4070.16
955.731	4122.59
956.035	4077.62
956.339	4056.6
956.643	4043.95
956.948	3964.4
957.252	3990.84
957.556	3987.23
957.86	3950.16
958.163	3942.26
958.467	3932.09
958.771	3924.18
959.075	3911.75
959.378	3865.65
959.682	3877.85
959.985	3832.2
960.289	3863.84
960.592	3794.46
960.896	3769.6
961.199	3773.9
961.502	3762.82
961.805	3761.92
962.108	3712.2
962.411	3709.72
962.714	3698.19
963.017	3692.09
963.32	3645.54
963.623	3638.99
963.926	3662.94
964.228	3602.38
964.531	3564.86
964.833	3593.34
965.136	3560.12
965.438	3616.84
965.741	3494.36
966.043	3522.15
966.345	3483.06
966.648	3531.64
966.95	3495.04
967.252	3408.48
967.554	3433.34
967.856	3420.46
968.158	3386.56
968.46	3393.79
968.761	3384.08
969.063	3379.56
969.365	3347.69
969.666	3314.47
969.968	3306.57
970.269	3317.41
970.571	3289.16
970.872	3275.61
971.174	3245.55
971.475	3243.29
971.776	3271.09
972.077	3255.04
972.378	3216.17
972.679	3217.08
972.98	3188.15
973.281	3144.99
973.582	3128.94
973.883	3127.59
974.183	3120.13
974.484	3102.28
974.785	3106.57
975.085	3085.78
975.386	3133.69
975.686	3059.11
975.986	3025.9
976.287	3014.14
976.587	3008.04
976.887	3000.13
977.187	3040.36
977.487	2957.42
977.787	2943.64
978.087	2968.27
978.387	2961.72
978.687	2949.51
978.987	2909.29
979.286	2890.98
979.586	2895.28
979.885	2893.7
980.185	2865.9
980.484	2850.08
980.784	2787.71
981.083	2798.56
981.382	2828.61
981.682	2792.68
981.981	2768.5
982.28	2775.51
982.579	2768.05
982.878	2767.14
983.177	2789.97
983.475	2705
983.774	2699.12
984.073	2709.97
984.372	2723.08
984.67	2674.49
984.969	2677.2
985.267	2668.84
985.566	2653.7
985.864	2607.6
986.162	2614.61
986.461	2618.9
986.759	2623.42
987.057	2592.46
987.355	2555.62
987.653	2540.94
987.951	2599.47
988.249	2547.72
988.547	2523.54
988.844	2514.04
989.142	2503.2
989.44	2505.68
989.737	2460.03
990.035	2476.98
990.332	2473.82
990.63	2424.33
990.927	2407.15
991.224	2415.06
991.521	2415.52
991.819	2421.17
992.116	2379.13
992.413	2399.92
992.71	2369.64
993.006	2340.72
993.303	2347.49
993.6	2354.27
993.897	2341.62
994.193	2318.79
994.49	2312.47
994.787	2292.13
995.083	2282.64
995.379	2292.35
995.676	2274.05
995.972	2265.01
996.268	2223.43
996.565	2237.22
996.861	2196.76
997.157	2215.07
997.453	2191.79
997.749	2181.62
998.044	2182.75
998.34	2153.15
998.636	2164.67
998.932	2136.2
999.227	2117.44
999.523	2118.35
999.818	2103.43
1000.114	2120.16
1000.409	2091.68
1000.704	2079.25
1001	2081.97
1001.295	2034.96
1001.59	2034.73
1001.885	2046.71
1002.18	2022.98
1002.475	2045.13
1002.77	2006.94
1003.065	1999.71
1003.359	1985.02
1003.654	1976.66
1003.949	1952.25
1004.243	1965.36
1004.538	1928.75
1004.832	1951.35
1005.127	1911.57
1005.421	1878.35
1005.715	1904.12
1006.009	1876.32
1006.304	1872.7
1006.598	1884.23
1006.892	1861.18
1007.186	1845.14
1007.48	1808.53
1007.773	1842.88
1008.067	1815.31
1008.361	1810.56
1008.655	1798.58
1008.948	1796.1
1009.242	1754.97
1009.535	1766.04
1009.829	1737.79
1010.122	1742.76
1010.415	1740.51
1010.708	1709.55
1011.001	1738.25
1011.295	1706.16
1011.588	1721.52
1011.881	1649.89
1012.173	1671.13
1012.466	1691.69
1012.759	1650.34
1013.052	1646.5
1013.344	1629.55
1013.637	1638.81
1013.93	1622.32
1014.222	1604.69
1014.514	1620.28
1014.807	1613.28
1015.099	1584.58
1015.391	1576.22
1015.683	1561.07
1015.976	1549.78
1016.268	1524.47
1016.56	1556.56
1016.851	1521.08
1017.143	1532.83
1017.435	1504.13
1017.727	1497.35
1018.018	1497.57
1018.31	1482.21
1018.602	1456.44
1018.893	1440.85
1019.185	1448.08
1019.476	1442.43
1019.767	1451.47
1020.058	1434.75
1020.35	1419.38
1020.641	1411.02
1020.932	1432.26
1021.223	1393.85
1021.514	1358.37
1021.804	1365.6
1022.095	1394.98
1022.386	1344.58
1022.677	1345.71
1022.967	1315.66
1023.258	1324.02
1023.548	1302.78
1023.839	1313.4
1024.129	1284.25
1024.419	1274.08
1024.709	1282.44
1025	1294.19
1025.29	1240.86
1025.58	1275.21
1025.87	1280.4
1026.16	1228.65
1026.449	1244.02
1026.739	1208.54
1027.029	1235.43
1027.319	1205.15
1027.608	1200.63
1027.898	1212.38
1028.187	1167.64
1028.477	1192.04
1028.766	1207.41
1029.055	1159.73
1029.344	1137.81
1029.634	1144.14
1029.923	1147.98
1030.212	1133.97
1030.501	1128.09
1030.79	1117.47
1031.078	1122.44
1031.367	1103.23
1031.656	1098.94
1031.945	1115.89
1032.233	1094.42
1032.522	1056.23
1032.81	1081.99
1033.099	1054.42
1033.387	1056.23
1033.675	1063.01
1033.963	1051.94
1034.251	1043.12
1034.54	1051.26
1034.828	1020.52
1035.116	1014.65
1035.403	1023.46
1035.691	1009.22
1035.979	1021.88
1036.267	1022.78
1036.554	993.63
1036.842	981.43
1037.129	967.42
1037.417	961.54
1037.704	964.48
1037.992	976.23
1038.279	953.41
1038.566	948.89
1038.853	948.89
1039.14	948.89
