Data from hue_130_FLMS001491_00037.txt Node
Date: Tue Feb 07 16:57:32 GMT 2017
User: dcchb
Spectrometer: FLMS00149
Trigger mode: 0
Integration Time (sec): 2.000000E-2
Scans to average: 10
Electric dark correction enabled: true
Nonlinearity correction enabled: false
Boxcar width: 0
XAxis mode: Wavelengths
Number of Pixels in Spectrum: 2048
>>>>>Begin Spectral Data<<<<<
341.393	1.65
341.776	1.65
342.16	1.65
342.543	-60.27
342.927	-77.44
343.31	-75.18
343.693	-85.58
344.077	-62.53
344.46	-52.58
344.843	-55.97
345.226	-53.26
345.61	-22.53
345.993	-8.52
346.376	-0.16
346.759	-8.29
347.142	34.19
347.525	54.08
347.908	63.35
348.291	67.19
348.674	86.85
349.057	118.94
349.44	120.52
349.823	145.83
350.206	168.2
350.588	194.42
350.971	214.53
351.354	221.31
351.737	245.26
352.119	262.89
352.502	281.87
352.884	290.91
353.267	268.09
353.65	288.88
354.032	287.07
354.414	285.03
354.797	309.22
355.179	320.06
355.562	322.32
355.944	318.93
356.326	335.43
356.709	326.62
357.091	337.24
357.473	352.83
357.855	340.63
358.238	344.02
358.62	341.98
359.002	339.5
359.384	355.09
359.766	322.32
360.148	356.67
360.53	340.63
360.912	341.53
361.294	323.45
361.676	340.4
362.057	350.34
362.439	322.32
362.821	334.07
363.203	337.91
363.584	351.47
363.966	346.28
364.348	306.5
364.729	322.55
365.111	328.65
365.493	316.45
365.874	312.83
366.256	323.45
366.637	325.71
367.019	313.06
367.4	315.99
367.781	321.42
368.163	317.8
368.544	311.7
368.925	312.6
369.306	336.33
369.688	319.61
370.069	306.96
370.45	330.01
370.831	327.75
371.212	322.55
371.593	327.75
371.974	320.06
372.355	318.03
372.736	311.02
373.117	304.92
373.498	317.58
373.879	313.06
374.26	327.75
374.641	323.68
375.021	310.12
375.402	321.87
375.783	326.39
376.163	348.99
376.544	311.02
376.925	315.54
377.305	351.7
377.686	325.71
378.066	301.53
378.447	324.58
378.827	337.01
379.208	319.38
379.588	345.82
379.968	337.91
380.349	333.4
380.729	323.9
381.109	329.33
381.489	339.5
381.87	328.42
382.25	326.39
382.63	360.29
383.01	335.88
383.39	349.89
383.77	353.28
384.15	333.85
384.53	360.06
384.91	370.91
385.29	322.1
385.67	353.73
386.049	357.12
386.429	340.17
386.809	344.24
387.189	345.15
387.568	346.28
387.948	355.54
388.328	362.32
388.707	350.57
389.087	357.12
389.466	360.51
389.846	375.65
390.225	389.89
390.605	365.71
390.984	368.65
391.363	375.65
391.743	388.08
392.122	388.31
392.501	357.12
392.881	390.12
393.26	380.85
393.639	388.53
394.018	396.67
394.397	396.44
394.776	370
395.155	407.97
395.534	390.12
395.913	380.17
396.292	381.3
396.671	408.87
397.05	391.92
397.429	378.37
397.808	400.29
398.186	402.77
398.565	391.47
398.944	380.17
399.323	400.06
399.701	404.13
400.08	415.43
400.458	410.91
400.837	395.77
401.215	426.27
401.594	422.66
401.972	398.25
402.351	414.52
402.729	421.3
403.107	417.46
403.486	421.53
403.864	409.33
404.242	429.44
404.62	424.69
404.999	436.67
405.377	431.47
405.755	423.11
406.133	444.58
406.511	426.05
406.889	438.25
407.267	429.89
407.645	453.62
408.023	414.3
408.401	450.91
408.779	464.01
409.156	465.14
409.534	457.69
409.912	468.53
410.29	466.95
410.667	483.45
411.045	456.33
411.422	460.62
411.8	465.14
412.178	474.63
412.555	495.42
412.933	481.64
413.31	482.32
413.687	497.68
414.065	504.01
414.442	501.3
414.819	495.2
415.197	494.52
415.574	513.05
415.951	502.88
416.328	492.49
416.705	522.54
417.082	494.75
417.46	520.73
417.837	510.57
418.214	523.22
418.591	525.48
418.967	492.49
419.344	538.59
419.721	531.81
420.098	540.17
420.475	549.21
420.852	553.95
421.228	552.37
421.605	552.15
421.982	552.6
422.358	547.85
422.735	570.23
423.111	548.76
423.488	582.88
423.864	559.83
424.241	569.77
424.617	562.77
424.994	584.24
425.37	576.1
425.746	596.67
426.123	592.15
426.499	615.87
426.875	598.92
427.251	620.85
427.627	613.16
428.003	626.27
428.379	618.36
428.756	635.08
429.132	652.03
429.507	624.91
429.883	647.74
430.259	646.61
430.635	653.84
431.011	651.13
431.387	659.94
431.763	671.24
432.138	674.18
432.514	671.24
432.89	684.8
433.265	693.16
433.641	707.17
434.016	679.15
434.392	696.55
434.767	719.37
435.143	726.15
435.518	718.7
435.894	720.73
436.269	744.46
436.644	756.21
437.02	741.29
437.395	743.78
437.77	756.66
438.145	767.73
438.52	793.5
438.895	815.19
439.271	791.46
439.646	783.33
440.021	802.31
440.395	817.45
440.77	800.28
441.145	796.66
441.52	817.45
441.895	832.59
442.27	834.4
442.645	844.79
443.019	817.45
443.394	854.51
443.769	840.5
444.143	854.51
444.518	870.1
444.892	867.62
445.267	856.09
445.641	848.86
446.016	869.43
446.39	883.66
446.764	867.62
447.139	898.13
447.513	902.65
447.887	899.93
448.262	913.94
448.636	938.8
449.01	908.07
449.384	941.51
449.758	972.47
450.132	954.62
450.506	943.32
450.88	945.58
451.254	960.05
451.628	971.34
452.002	987.16
452.376	1002.76
452.75	992.59
453.123	1008.18
453.497	1007.95
453.871	1042.08
454.244	1052.92
454.618	1048.4
454.992	1058.12
455.365	1078.91
455.739	1088.18
456.112	1067.16
456.486	1101.28
456.859	1124.33
457.232	1150.55
457.606	1124.33
457.979	1128.18
458.352	1143.32
458.725	1213.82
459.099	1174.28
459.472	1209.3
459.845	1221.51
460.218	1240.49
460.591	1258.79
460.964	1264.44
461.337	1279.13
461.71	1294.95
462.083	1316.65
462.456	1324.1
462.829	1336.08
463.201	1370.88
463.574	1374.05
463.947	1398.23
464.32	1412.69
464.692	1414.72
465.065	1445.68
465.438	1457.66
465.81	1489.97
466.183	1488.39
466.555	1533.82
466.928	1548.28
467.3	1576.3
467.672	1580.82
468.045	1649.07
468.417	1635.73
468.789	1682.29
469.161	1689.74
469.534	1718.9
469.906	1756.18
470.278	1781.27
470.65	1820.59
471.022	1858.33
471.394	1867.37
471.766	1903.3
472.138	1933.13
472.51	2003.63
472.882	2049.51
473.253	2034.14
473.625	2085.89
473.997	2197.53
474.369	2209.73
474.74	2245.89
475.112	2307.58
475.484	2330.4
475.855	2403.4
476.227	2420.12
476.598	2505.32
476.97	2581.7
477.341	2666.44
477.713	2709.38
478.084	2711.41
478.455	2852.42
478.827	2898.3
479.198	2994.12
479.569	3016.04
479.94	3134.68
480.311	3181.91
480.682	3347.78
481.053	3406.08
481.424	3466.19
481.795	3595.23
482.166	3694.44
482.537	3739.18
482.908	3864.15
483.279	3920.42
483.65	4049.46
484.021	4207.87
484.391	4240.19
484.762	4360.41
485.133	4479.5
485.503	4584.13
485.874	4736.67
486.244	4845.37
486.615	4962.65
486.985	5049.66
487.356	5221.18
487.726	5335.75
488.097	5437.44
488.467	5554.73
488.837	5764.21
489.207	5858.45
489.578	5980.25
489.948	6152.23
490.318	6258.21
490.688	6375.72
491.058	6467.02
491.428	6674.47
491.798	6827.46
492.168	6998.3
492.538	7089.15
492.908	7267.45
493.278	7413.44
493.648	7438.75
494.017	7701.11
494.387	7762.13
494.757	7885.06
495.126	8026.53
495.496	8096.13
495.866	8300.42
496.235	8394.2
496.605	8466.06
496.974	8596.68
497.344	8757.35
497.713	8901.08
498.082	9007.29
498.452	9122.99
498.821	9234.86
499.19	9264.01
499.559	9442.76
499.928	9557.33
500.298	9611.12
500.667	9788.74
501.036	9804.56
501.405	9987.6
501.774	10008.4
502.143	10145.34
502.512	10217.66
502.88	10361.38
503.249	10366.58
503.618	10479.12
503.987	10566.8
504.356	10647.47
504.724	10749.62
505.093	10823.74
505.462	10863.51
505.83	10965.66
506.199	11102.6
506.567	11208.14
506.936	11157.74
507.304	11370.39
507.672	11427.57
508.041	11520.67
508.409	11603.61
508.777	11622.36
509.145	11791.62
509.514	11746.43
509.882	11801.57
510.25	11813.32
510.618	11984.61
510.986	11918.63
511.354	12045.4
511.722	12108.68
512.09	12208.56
512.458	12157.49
512.826	12293.08
513.193	12392.97
513.561	12332.63
513.929	12500.31
514.297	12608.78
514.664	12639.74
515.032	12658.95
515.4	12793.86
515.767	12813.29
516.135	12817.59
516.502	12713.63
516.869	12973.06
517.237	12928.09
517.604	12932.84
517.972	12980.52
518.339	13065.26
518.706	13040.41
519.073	13147.97
519.44	13190.68
519.808	13181.64
520.175	13281.98
520.542	13367.63
520.909	13332.83
521.276	13378.02
521.643	13400.4
522.009	13473.61
522.376	13588.87
522.743	13582.54
523.11	13664.57
523.477	13710.44
523.843	13745.02
524.21	13823.66
524.577	13905.69
524.943	13851.46
525.31	13921.96
525.676	13989.53
526.043	14006.48
526.409	14030.89
526.776	14127.38
527.142	14020.94
527.508	14005.58
527.874	14150.66
528.241	14211.22
528.607	14158.34
528.973	14215.74
529.339	14216.65
529.705	14345.91
530.071	14378.9
530.437	14269.98
530.803	14316.3
531.169	14310.2
531.535	14243.54
531.901	14168.29
532.267	14280.15
532.632	14352.91
532.998	14339.13
533.364	14438.56
533.73	14261.39
534.095	14314.95
534.461	14290.99
534.826	14307.72
535.192	14342.07
535.557	14377.77
535.923	14346.36
536.288	14356.08
536.653	14333.93
537.019	14211
537.384	14243.09
537.749	14238.57
538.114	14178
538.479	14156.76
538.845	14082.41
539.21	14096.2
539.575	14154.73
539.94	14104.56
540.305	14094.62
540.67	14051
541.034	14023.43
541.399	13970.78
541.764	14035.41
542.129	13976.2
542.494	13893.04
542.858	13843.77
543.223	13886.49
543.587	13867.95
543.952	13851.01
544.316	13770.33
544.681	13757.67
545.045	13737.56
545.41	13782.53
545.774	13714.29
546.138	13699.37
546.503	13663.21
546.867	13609.66
547.231	13648.75
547.595	13587.96
547.959	13539.38
548.324	13549.54
548.688	13566.72
549.052	13503.44
549.416	13423.67
549.779	13445.59
550.143	13372.83
550.507	13359.49
550.871	13284.47
551.235	13316.78
551.599	13313.62
551.962	13293.51
552.326	13243.79
552.689	13298.93
553.053	13223.9
553.417	13098.26
553.78	13327.86
554.143	13189.78
554.507	13156.11
554.87	13133.28
555.234	13225.26
555.597	13134.64
555.96	13086.28
556.323	13125.15
556.686	13063
557.05	13168.09
557.413	13078.14
557.776	13055.32
558.139	13169.67
558.502	13027.3
558.865	13046.96
559.228	13106.39
559.59	13050.57
559.953	13038.6
560.316	13098.94
560.679	13122.89
561.041	13148.43
561.404	13088.77
561.767	13176
562.129	13058.26
562.492	13147.07
562.854	13128.76
563.217	13053.74
563.579	13110.69
563.941	13140.74
564.304	13239.5
564.666	13211.47
565.028	13233.39
565.39	13257.8
565.753	13241.98
566.115	13273.85
566.477	13289.66
566.839	13269.78
567.201	13363.56
567.563	13305.03
567.925	13334.41
568.287	13302.77
568.648	13269.1
569.01	13430
569.372	13410.79
569.734	13390.45
570.095	13414.41
570.457	13452.15
570.819	13354.75
571.18	13409.21
571.542	13474.52
571.903	13494.86
572.265	13571.92
572.626	13481.98
572.987	13480.17
573.349	13516.55
573.71	13475.42
574.071	13509.32
574.432	13533.73
574.794	13634.51
575.155	13541.41
575.516	13496.44
575.877	13646.94
576.238	13635.87
576.599	13632.25
576.96	13633.16
577.32	13664.57
577.681	13615.98
578.042	13582.54
578.403	13637.68
578.763	13580.96
579.124	13633.16
579.485	13709.99
579.845	13611.69
580.206	13551.13
580.566	13635.42
580.927	13611.01
581.287	13634.97
581.648	13594.74
582.008	13670.67
582.368	13676.77
582.728	13633.84
583.089	13685.81
583.449	13605.59
583.809	13590.67
584.169	13587.74
584.529	13626.83
584.889	13645.36
585.249	13620.5
585.609	13565.59
585.969	13636.55
586.329	13528.3
586.688	13493.95
587.048	13477.46
587.408	13505.48
587.768	13433.16
588.127	13510.22
588.487	13385.71
588.846	13550.9
589.206	13504.35
589.565	13475.2
589.925	13513.16
590.284	13498.02
590.643	13538.7
591.003	13473.61
591.362	13509.32
591.721	13507.06
592.08	13519.04
592.44	13397.01
592.799	13522.2
593.158	13536.44
593.517	13375.99
593.876	13435.2
594.235	13337.8
594.593	13474.07
594.952	13451.69
595.311	13360.17
595.67	13379.15
596.029	13535.99
596.387	13467.51
596.746	13418.02
597.104	13354.97
597.463	13367.63
597.822	13410.34
598.18	13366.72
598.538	13325.37
598.897	13367.85
599.255	13254.19
599.613	13462.99
599.972	13339.83
600.33	13390.9
600.688	13307.29
601.046	13388.19
601.404	13414.86
601.762	13357.01
602.12	13424.8
602.478	13383.45
602.836	13422.54
603.194	13352.49
603.552	13388.42
603.91	13315.43
604.268	13338.93
604.625	13269.55
604.983	13315.43
605.341	13202.66
605.698	13326.05
606.056	13368.08
606.413	13365.14
606.771	13329.21
607.128	13374.41
607.485	13411.7
607.843	13396.1
608.2	13382.77
608.557	13420.28
608.914	13401.53
609.272	13440.4
609.629	13504.57
609.986	13537.12
610.343	13409.44
610.7	13571.47
611.057	13495.08
611.414	13440.85
611.771	13503.22
612.127	13583.22
612.484	13546.16
612.841	13547.51
613.198	13572.6
613.554	13524.91
613.911	13585.7
614.267	13522.88
614.624	13601.29
614.98	13629.77
615.337	13646.94
615.693	13706.6
616.05	13564.46
616.406	13633.84
616.762	13641.97
617.118	13643.55
617.475	13582.99
617.831	13705.25
618.187	13672.03
618.543	13739.6
618.899	13785.7
619.255	13735.3
619.611	13722.42
619.967	13764.45
620.323	13696.21
620.678	13781.18
621.034	13749.77
621.39	13726.04
621.746	13718.13
622.101	13919.48
622.457	13769.43
622.812	13777.34
623.168	13719.94
623.523	13810.1
623.879	13816.66
624.234	13690.33
624.589	13719.71
624.945	13719.26
625.3	13761.52
625.655	13777.56
626.01	13732.36
626.365	13787.28
626.72	13742.76
627.075	13753.16
627.43	13829.54
627.785	13701.63
628.14	13738.47
628.495	13787.05
628.85	13767.84
629.205	13722.87
629.559	13786.37
629.914	13659.37
630.269	13712.93
630.623	13672.71
630.978	13609.66
631.332	13654.17
631.687	13659.6
632.041	13707.73
632.396	13649.66
632.75	13653.04
633.104	13498.47
633.459	13467.97
633.813	13608.53
634.167	13597.23
634.521	13602.2
634.875	13567.4
635.229	13607.4
635.583	13441.3
635.937	13446.04
636.291	13504.12
636.645	13481.75
636.999	13436.55
637.352	13521.52
637.706	13437.68
638.06	13345.93
638.413	13364.24
638.767	13284.02
639.121	13317.91
639.474	13241.08
639.828	13269.55
640.181	13266.39
640.534	13283.34
640.888	13322.88
641.241	13227.97
641.594	13207.41
641.947	13273.85
642.301	13218.48
642.654	13223
643.007	13251.7
643.36	13268.65
643.713	13207.86
644.066	13208.31
644.419	13134.19
644.771	13029.11
645.124	13049.22
645.477	12996.34
645.83	12889.22
646.182	12857.81
646.535	12843.8
646.888	12866.85
647.24	12775.33
647.593	12779.62
647.945	12712.28
648.298	12642.9
648.65	12705.95
649.002	12678.38
649.355	12749.79
649.707	12624.37
650.059	12807.64
650.411	12986.4
650.763	12968.09
651.115	13024.13
651.467	13008.99
651.819	13053.51
652.171	13061.42
652.523	12997.69
652.875	12957.7
653.227	12907.08
653.578	13036.56
653.93	13003.12
654.282	12896.91
654.633	12933.06
654.985	12867.53
655.337	13006.06
655.688	13029.56
656.039	13043.57
656.391	12978.94
656.742	12984.81
657.094	12975.1
657.445	12895.1
657.796	12909.34
658.147	12963.8
658.498	13006.28
658.849	13097.81
659.2	13023.68
659.551	12995.66
659.902	12988.2
660.253	13070.24
660.604	13072.5
660.955	12988.2
661.306	13037.69
661.656	13026.62
662.007	12990.92
662.358	12998.82
662.708	13057.13
663.059	13051.48
663.409	12934.42
663.76	13010.35
664.11	12979.39
664.461	13011.48
664.811	13034.3
665.161	13055.09
665.511	12992.95
665.862	12978.49
666.212	13080.18
666.562	13075.21
666.912	13137.35
667.262	13065.94
667.612	13046.96
667.962	13029.56
668.312	13039.05
668.662	13139.39
669.011	13072.5
669.361	12976
669.711	13080.63
670.06	13034.98
670.41	12968.32
670.76	12938.26
671.109	13082.66
671.459	12956.11
671.808	12959.73
672.157	12990.46
672.507	12950.01
672.856	12925.38
673.205	12858.72
673.554	12955.66
673.904	12884.7
674.253	12913.4
674.602	12922.22
674.951	12744.59
675.3	12687.65
675.649	12869.34
675.998	12861.2
676.346	12937.13
676.695	12926.96
677.044	12755.89
677.393	12761.54
677.741	12783.24
678.09	12778.72
678.438	12772.84
678.787	12828.21
679.135	12775.1
679.484	12671.83
679.832	12766.51
680.181	12608.1
680.529	12711.83
680.877	12656.91
681.225	12618.5
681.573	12790.02
681.922	12586.18
682.27	12571.72
682.618	12540.08
682.966	12561.55
683.314	12525.17
683.661	12517.03
684.009	12510.7
684.357	12429.57
684.705	12427.09
685.053	12397.94
685.4	12359.75
685.748	12293.08
686.095	12327.2
686.443	12264.15
686.79	12239.07
687.138	12287.66
687.485	12193.65
687.832	12110.49
688.18	12100.09
688.527	12095.12
688.874	12051.51
689.221	12011.28
689.568	12034.56
689.915	11974.9
690.262	11957.5
690.609	11993.43
690.956	11845.86
691.303	11819.65
691.65	11822.13
691.997	11865.07
692.344	11714.79
692.69	11738.07
693.037	11637.73
693.383	11596.6
693.73	11641.8
694.077	11567.22
694.423	11510.28
694.769	11477.28
695.116	11440
695.462	11419.43
695.808	11404.74
696.155	11424.63
696.501	11331.75
696.847	11241.36
697.193	11218.98
697.539	11257.63
697.885	11142.6
698.231	11095.15
698.577	11133.79
698.923	11069.38
699.269	11002.95
699.614	10841.37
699.96	10897.19
700.306	10957.3
700.651	10853.34
700.997	10828.71
701.342	10801.37
701.688	10804.98
702.033	10687.47
702.379	10676.63
702.724	10658.77
703.069	10618.32
703.415	10515.95
703.76	10555.05
704.105	10521.15
704.45	10454.48
704.795	10452.9
705.14	10379.23
705.485	10388.5
705.83	10287.94
706.175	10321.83
706.52	10317.77
706.865	10250.42
707.209	10230.99
707.554	10233.7
707.899	10250.87
708.243	10185.11
708.588	10125
708.932	10033.93
709.277	10028.96
709.621	10011.56
709.966	9912.8
710.31	9990.32
710.654	9892.92
710.998	9875.97
711.342	9870.09
711.687	9871.22
712.031	9820.6
712.375	9772.7
712.719	9846.82
713.063	9802.98
713.407	9789.42
713.75	9757.78
714.094	9685.69
714.438	9631.23
714.782	9689.99
715.125	9598.24
715.469	9706.71
715.812	9572.25
716.156	9604.34
716.499	9578.35
716.843	9520.72
717.186	9541.74
717.53	9567.5
717.873	9497.22
718.216	9490.44
718.559	9504.45
718.902	9413.83
719.246	9503.78
719.589	9450.67
719.932	9358.92
720.275	9407.96
720.617	9367.73
720.96	9366.38
721.303	9331.12
721.646	9418.13
721.989	9283.67
722.331	9344.23
722.674	9295.19
723.016	9302.65
723.359	9297.45
723.701	9329.54
724.044	9213.16
724.386	9256.1
724.729	9271.24
725.071	9283.22
725.413	9248.42
725.755	9212.48
726.097	9182.2
726.439	9149.66
726.782	9146.5
727.124	9200.05
727.465	9160.96
727.807	9171.58
728.149	9180.39
728.491	9167.29
728.833	9155.76
729.175	9172.26
729.516	9167.06
729.858	9139.94
730.199	9107.85
730.541	9136.33
730.882	9119.38
731.224	9144.46
731.565	9115.99
731.906	9081.41
732.248	9089.32
732.589	9039.15
732.93	9068.08
733.271	9075.76
733.612	9139.27
733.953	9072.83
734.294	9051.36
734.635	9039.83
734.976	9054.07
735.317	9029.89
735.658	9102.2
735.999	9067.18
736.339	9036.44
736.68	9085.26
737.021	9085.48
737.361	9011.13
737.702	9114.41
738.042	9095.65
738.383	9033.96
738.723	9129.55
739.063	9068.53
739.404	9179.26
739.744	9105.14
740.084	9102.88
740.424	9152.82
740.764	9198.7
741.104	9198.02
741.444	9143.78
741.784	9160.28
742.124	9160.73
742.464	9238.25
742.804	9215.2
743.143	9241.18
743.483	9238.92
743.823	9237.79
744.162	9272.14
744.502	9350.79
744.841	9325.25
745.181	9376.1
745.52	9375.64
745.86	9416.77
746.199	9471.91
746.538	9531.8
746.877	9541.51
747.216	9655.64
747.556	9660.61
747.895	9708.74
748.234	9699.02
748.573	9752.58
748.911	9861.28
749.25	9846.82
749.589	9864.22
749.928	9982.41
750.267	10090.65
750.605	10099.01
750.944	10180.14
751.283	10202.06
751.621	10315.73
751.96	10383.98
752.298	10547.14
752.636	10589.4
752.975	10653.12
753.313	10733.35
753.651	10865.1
753.989	10989.16
754.327	11036.84
754.666	11127.46
755.004	11242.03
755.342	11363.61
755.679	11474.35
756.017	11633.21
756.355	11788.69
756.693	11814.22
757.031	12060.09
757.368	12117.94
757.706	12279.07
758.044	12420.99
758.381	12570.14
758.719	12603.58
759.056	12782.11
759.394	12903.91
759.731	13049.22
760.068	13199.72
760.405	13347.52
760.743	13533.05
761.08	13693.04
761.417	13834.28
761.754	13990.66
762.091	14111.79
762.428	14287.6
762.765	14367.83
763.102	14544.32
763.438	14682.62
763.775	14806.01
764.112	15032.67
764.449	15205.55
764.785	15305.43
765.122	15363.73
765.458	15580.68
765.795	15602.82
766.131	15827.68
766.467	15918.52
766.804	15982.93
767.14	16115.13
767.476	16426.53
767.812	16379.3
768.148	16553.76
768.485	16565.51
768.821	16655.68
769.157	16838.5
769.492	16994.43
769.828	17076.46
770.164	17062.67
770.5	17243.69
770.836	17341.31
771.171	17430.57
771.507	17450.46
771.842	17480.51
772.178	17639.15
772.513	17794.4
772.849	17734.07
773.184	17796.89
773.519	17908.3
773.855	18018.58
774.19	17993.95
774.525	18023.78
774.86	18160.72
775.195	18212.25
775.53	18200.27
775.865	18211.57
776.2	18194.85
776.535	18177.9
776.87	18315.75
777.205	18248.86
777.539	18266.93
777.874	18438
778.209	18346.03
778.543	18426.48
778.878	18354.84
779.212	18492.47
779.547	18429.87
779.881	18483.88
780.215	18467.61
780.55	18550.32
780.884	18404.78
781.218	18569.07
781.552	18543.99
781.886	18463.77
782.22	18420.83
782.554	18468.51
782.888	18354.84
783.222	18360.27
783.556	18387.84
783.889	18414.05
784.223	18208.86
784.557	18207.95
784.89	18298.12
785.224	18189.87
785.557	18201.85
785.891	18210.89
786.224	18209.54
786.558	18205.47
786.891	18121.63
787.224	18073.27
787.557	18106.94
787.891	18051.57
788.224	18080.73
788.557	18137.45
788.89	18017
789.223	18253.15
789.556	17975.42
789.888	17927.96
790.221	17866.95
790.554	17843.9
790.887	17823.78
791.219	17736.33
791.552	17752.15
791.884	17696.55
792.217	17644.35
792.549	17640.96
792.882	17588.31
793.214	17588.53
793.546	17600.96
793.879	17491.81
794.211	17353.29
794.543	17395.32
794.875	17322.33
795.207	17483.68
795.539	17418.37
795.871	17378.14
796.203	17263.35
796.535	17203.23
796.867	17125.95
797.198	17122.56
797.53	17056.35
797.862	16965.27
798.193	17134.08
798.525	16871.72
798.856	16961.21
799.188	16788.78
799.519	16780.65
799.85	16704.04
800.182	16663.14
800.513	16718.73
800.844	16543.82
801.175	16620.65
801.506	16606.64
801.837	16604.61
802.168	16511.5
802.499	16412.29
802.83	16438.28
803.161	16397.38
803.491	16338.17
803.822	16372.3
804.153	16449.58
804.483	16169.14
804.814	16143.15
805.145	16192.64
805.475	16135.24
805.805	16053.43
806.136	16145.86
806.466	16088.91
806.796	15922.82
807.126	15864.29
807.457	15932.53
807.787	15873.78
808.117	15791.75
808.447	15769.37
808.777	15836.72
809.107	15715.82
809.436	15651.18
809.766	15676.27
810.096	15580.9
810.426	15553.56
810.755	15607.57
811.085	15591.3
811.414	15555.37
811.744	15424.07
812.073	15456.61
812.403	15423.85
812.732	15244.64
813.061	15286
813.39	15333.9
813.719	15201.48
814.049	15291.19
814.378	15247.35
814.707	15130.29
815.036	15130.07
815.365	15100.24
815.693	14998.77
816.022	14978.43
816.351	14924.65
816.68	14883.3
817.008	15006.91
817.337	14780.7
817.665	14780.92
817.994	14800.81
818.322	14828.38
818.651	14653.47
818.979	14756.97
819.307	14781.83
819.636	14690.08
819.964	14646.24
820.292	14712.45
820.62	14749.74
820.948	14602.17
821.276	14640.59
821.604	14682.17
821.932	14618.44
822.259	14678.55
822.587	14613.02
822.915	14554.49
823.243	14540.25
823.57	14523.53
823.898	14589.97
824.225	14524.66
824.553	14591.33
824.88	14530.76
825.207	14557.65
825.535	14639.23
825.862	14674.26
826.189	14525.11
826.516	14527.37
826.843	14667.03
827.17	14652.57
827.497	14586.81
827.824	14548.16
828.151	14631.1
828.478	14587.03
828.805	14679.01
829.131	14594.72
829.458	14587.94
829.785	14525.56
830.111	14547.48
830.438	14618.67
830.764	14587.48
831.09	14605.34
831.417	14563.76
831.743	14647.14
832.069	14529.63
832.395	14465.9
832.722	14651.66
833.048	14444.89
833.374	14549.07
833.7	14504.1
834.026	14549.97
834.351	14423.42
834.677	14431.78
835.003	14454.61
835.329	14477.88
835.654	14405.57
835.98	14332.8
836.306	14390.2
836.631	14384.55
836.956	14420.03
837.282	14419.13
837.607	14391.33
837.932	14268.85
838.258	14284.67
838.583	14260.94
838.908	14168.51
839.233	14218.45
839.558	14213.48
839.883	14145.01
840.208	14078.8
840.533	14093.03
840.858	14152.92
841.182	14132.13
841.507	14152.24
841.832	14072.69
842.156	13933.04
842.481	14023.2
842.805	13966.94
843.13	13904.79
843.454	13865.69
843.778	13845.58
844.103	13790.67
844.427	13748.64
844.751	13803.32
845.075	13784.11
845.399	13688.75
845.723	13567.62
846.047	13584.12
846.371	13477.68
846.695	13505.03
847.019	13411.47
847.343	13390.23
847.666	13275.65
847.99	13324.47
848.313	13234.75
848.637	13163.34
848.96	13121.53
849.284	13110.23
849.607	13023.91
849.931	13023.68
850.254	12881.54
850.577	12815.1
850.9	12739.17
851.223	12734.2
851.546	12676.12
851.869	12489.69
852.192	12569.23
852.515	12435.45
852.838	12438.16
853.161	12467.54
853.483	12452.85
853.806	12294.89
854.129	12365.62
854.451	12232.07
854.774	12242.01
855.096	12153.88
855.419	12181.22
855.741	12158.85
856.063	12102.13
856.385	12006.99
856.708	11926.08
857.03	12049.02
857.352	11981.9
857.674	11926.31
857.996	11868.69
858.318	11802.47
858.64	11791.85
858.961	11661.01
859.283	11677.28
859.605	11673.44
859.926	11726.99
860.248	11611.29
860.57	11563.61
860.891	11600.44
861.212	11500.79
861.534	11480.45
861.855	11479.32
862.176	11464.18
862.498	11438.87
862.819	11548.47
863.14	11335.37
863.461	11359.77
863.782	11352.31
864.103	11334.01
864.424	11343.95
864.745	11352.54
865.065	11153.9
865.386	11190.06
865.707	11244.07
866.027	11211.98
866.348	11161.59
866.668	11240.23
866.989	11208.14
867.309	11142.15
867.63	11115.94
867.95	11109.61
868.27	11037.97
868.59	11117.74
868.91	11030.97
869.23	11012.89
869.55	10905.77
869.87	11049.95
870.19	10999.33
870.51	10986.67
870.83	10960.91
871.15	10864.19
871.469	10879.56
871.789	10869.84
872.109	10874.81
872.428	10799.33
872.748	10823.06
873.067	10769.5
873.386	10819
873.706	10761.37
874.025	10742.84
874.344	10769.73
874.663	10746.23
874.982	10699.68
875.301	10754.14
875.62	10715.04
875.939	10586.23
876.258	10613.12
876.577	10621.49
876.896	10593.01
877.214	10527.48
877.533	10552.79
877.852	10593.92
878.17	10588.49
878.489	10561.83
878.807	10538.55
879.125	10442.73
879.444	10492.9
879.762	10427.82
880.08	10451.1
880.398	10459.91
880.716	10398.89
881.034	10388.27
881.352	10352.11
881.67	10362.28
881.988	10387.14
882.306	10246.13
882.624	10246.35
882.941	10199.8
883.259	10179.46
883.577	10119.35
883.894	10108.05
884.212	10158
884.529	10145.57
884.846	10109.86
885.164	10079.58
885.481	10080.03
885.798	10016.08
886.115	9984.44
886.432	9956.42
886.75	9991.9
887.067	9952.35
887.383	9910.09
887.7	9894.27
888.017	9847.27
888.334	9875.52
888.651	9830.55
888.967	9805.46
889.284	9802.75
889.6	9793.26
889.917	9680.27
890.233	9709.19
890.55	9638.46
890.866	9665.13
891.182	9583.55
891.498	9575.64
891.815	9471.23
892.131	9536.09
892.447	9461.29
892.763	9412.25
893.079	9412.25
893.395	9430.78
893.71	9440.73
894.026	9342.88
894.342	9297.45
894.657	9239.38
894.973	9235.53
895.289	9296.55
895.604	9233.5
895.92	9141.98
896.235	9099.72
896.55	9047.52
896.865	9048.65
897.181	9045.93
897.496	8990.12
897.811	9012.26
898.126	8907.63
898.441	8902.21
898.756	8821.76
899.071	8801.87
899.386	8860.18
899.7	8829.22
900.015	8687.53
900.33	8683.23
900.644	8687.07
900.959	8699.05
901.273	8562.78
901.588	8613.63
901.902	8556.23
902.216	8474.2
902.531	8426.74
902.845	8476.46
903.159	8462.22
903.473	8484.37
903.787	8324.37
904.101	8316.46
904.415	8289.34
904.729	8253.86
905.042	8210.25
905.356	8260.64
905.67	8169.35
905.984	8184.49
906.297	8145.17
906.611	8092.06
906.924	8108.11
907.237	8048.67
907.551	7940.2
907.864	7935.68
908.177	7927.09
908.491	7924.38
908.804	7881.67
909.117	7842.35
909.43	7786.53
909.743	7784.72
910.056	7754.89
910.368	7691.17
910.681	7673.54
910.994	7582.7
911.307	7570.49
911.619	7535.01
911.932	7544.96
912.244	7497.27
912.557	7554.45
912.869	7462.25
913.181	7433.1
913.494	7385.87
913.806	7412.98
914.118	7278.07
914.43	7238.07
914.742	7265.42
915.054	7200.11
915.366	7187.45
915.678	7192.2
915.99	7115.82
916.302	7159.43
916.613	7054.8
916.925	7123.05
917.236	7050.05
917.548	7047.79
917.859	7006.21
918.171	6901.36
918.482	6865.88
918.794	6892.54
919.105	6911.75
919.416	6829.04
919.727	6849.83
920.038	6810.06
920.349	6780.23
920.66	6704.3
920.971	6763.96
921.282	6678.54
921.593	6591.08
921.903	6656.17
922.214	6587.24
922.525	6567.36
922.835	6570.75
923.146	6512.67
923.456	6454.36
923.767	6412.78
924.077	6416.85
924.387	6357.42
924.697	6348.38
925.008	6332.79
925.318	6334.82
925.628	6275.61
925.938	6274.48
926.248	6236.74
926.558	6213.69
926.867	6225.67
927.177	6161.94
927.487	6136.63
927.796	6098.67
928.106	6094.6
928.416	6116.07
928.725	6014.38
929.034	6019.57
929.344	6012.12
929.653	6027.71
929.962	5926.02
930.271	5884.89
930.581	5898.22
930.89	5887.15
931.199	5845.79
931.508	5796.98
931.817	5784.1
932.125	5807.15
932.434	5787.72
932.743	5691.45
933.051	5643.09
933.36	5681.96
933.669	5655.74
933.977	5641.5
934.286	5601.28
934.594	5653.93
934.902	5517.89
935.21	5563.31
935.519	5507.72
935.827	5524.67
936.135	5436.54
936.443	5419.14
936.751	5422.53
937.059	5395.18
937.367	5383.88
937.674	5372.81
937.982	5405.13
938.29	5330.78
938.597	5335.75
938.905	5232.93
939.213	5239.71
939.52	5252.14
939.827	5220.5
940.135	5164.45
940.442	5155.42
940.749	5149.77
941.056	5170.56
941.363	5097.11
941.67	5108.18
941.977	5048.3
942.284	5014.18
942.591	4986.83
942.898	5001.07
943.205	4974.63
943.511	4964.69
943.818	4979.83
944.125	4909.09
944.431	4816.44
944.738	4898.25
945.044	4884.01
945.35	4817.8
945.657	4797.91
945.963	4774.18
946.269	4712.49
946.575	4742.09
946.881	4700.51
947.187	4695.77
947.493	4654.86
947.799	4682.89
948.105	4660.51
948.41	4605.83
948.716	4606.5
949.022	4611.02
949.327	4536.45
949.633	4517.47
949.938	4561.31
950.244	4548.88
950.549	4481.53
950.854	4480.63
951.16	4498.71
951.465	4454.64
951.77	4416.23
952.075	4426.39
952.38	4317.92
952.685	4322.44
952.99	4327.87
953.294	4333.06
953.599	4305.27
953.904	4300.3
954.209	4262.78
954.513	4247.42
954.818	4172.39
955.122	4204.71
955.426	4179.62
955.731	4165.38
956.035	4151.37
956.339	4155.22
956.643	4134.43
956.948	4083.58
957.252	4062.79
957.556	4064.6
957.86	4017.82
958.163	4048.78
958.467	4042.45
958.771	4032.73
959.075	3929.46
959.378	3964.71
959.682	3945.05
959.985	3957.03
960.289	3923.81
960.592	3907.99
960.896	3872.96
961.199	3891.72
961.502	3852.85
961.805	3824.6
962.108	3812.63
962.411	3792.06
962.714	3776.92
963.017	3753.42
963.32	3741.44
963.623	3723.14
963.926	3720.2
964.228	3697.6
964.531	3671.39
964.833	3685.17
965.136	3636.81
965.438	3606.98
965.741	3609.24
966.043	3632.74
966.345	3573.08
966.648	3581.22
966.95	3562.46
967.252	3505.29
967.554	3501.67
967.856	3498.06
968.158	3487.21
968.46	3486.76
968.761	3436.14
969.063	3470.26
969.365	3457.15
969.666	3423.48
969.968	3409.47
970.269	3343.49
970.571	3390.26
970.872	3382.81
971.174	3319.76
971.475	3387.1
971.776	3329.7
972.077	3279.98
972.378	3265.3
972.679	3252.19
972.98	3253.09
973.281	3240.44
973.582	3221.68
973.883	3225.97
974.183	3187.56
974.484	3186.43
974.785	3164.06
975.085	3168.12
975.386	3152.76
975.686	3103.72
975.986	3132.19
976.287	3123.83
976.587	3090.61
976.887	3053.55
977.187	3105.98
977.487	3064.17
977.787	3018.3
978.087	2998.64
978.387	3012.87
978.687	3005.87
978.987	2971.74
979.286	2942.82
979.586	2956.83
979.885	2916.83
980.185	2938.3
980.484	2933.55
980.784	2903.27
981.083	2910.95
981.382	2854.91
981.682	2889.26
981.981	2874.57
982.28	2856.94
982.579	2802.71
982.878	2822.82
983.177	2844.52
983.475	2776.27
983.774	2778.75
984.073	2739.89
984.372	2755.03
984.67	2758.87
984.969	2750.28
985.267	2735.37
985.566	2720.45
985.864	2711.64
986.162	2700.56
986.461	2662.6
986.759	2676.84
987.057	2662.15
987.355	2621.24
987.653	2602.94
987.951	2612.66
988.249	2627.12
988.547	2600.68
988.844	2546.9
989.142	2567.69
989.44	2530.63
989.737	2557.29
990.035	2541.92
990.332	2522.04
990.63	2516.61
990.927	2480.23
991.224	2489.72
991.521	2475.71
991.819	2457.41
992.116	2482.49
992.413	2475.49
992.71	2411.53
993.006	2413.34
993.303	2399.33
993.6	2375.83
993.897	2388.26
994.193	2338.09
994.49	2377.86
994.787	2355.94
995.083	2315.26
995.379	2355.71
995.676	2310.97
995.972	2272.33
996.268	2287.24
996.565	2270.07
996.861	2305.32
997.157	2243.4
997.453	2224.19
997.749	2259.45
998.044	2231.88
998.34	2214.25
998.636	2189.17
998.932	2201.59
999.227	2164.08
999.523	2158.88
999.818	2155.95
1000.114	2127.7
1000.409	2140.58
1000.704	2130.64
1001	2102.61
1001.295	2077.76
1001.59	2093.57
1001.885	2078.89
1002.18	2078.66
1002.475	2069.39
1002.77	2063.75
1003.065	2050.19
1003.359	2012
1003.654	2016.97
1003.949	2003.18
1004.243	1995.95
1004.538	1977.87
1004.832	1967.7
1005.127	1972
1005.421	1968.61
1005.715	1937.87
1006.009	1917.99
1006.304	1911.66
1006.598	1919.57
1006.892	1882.06
1007.186	1879.12
1007.48	1887.48
1007.773	1856.52
1008.067	1845.67
1008.361	1833.24
1008.655	1825.33
1008.948	1788.05
1009.242	1787.14
1009.535	1788.27
1009.829	1800.93
1010.122	1758.67
1010.415	1739.46
1010.708	1759.12
1011.001	1758.67
1011.295	1727.93
1011.588	1711.89
1011.881	1712.57
1012.173	1740.82
1012.466	1706.24
1012.759	1692.91
1013.052	1689.52
1013.344	1671.89
1013.637	1667.6
1013.93	1639.12
1014.222	1656.52
1014.514	1636.41
1014.807	1605.23
1015.099	1620.14
1015.391	1609.07
1015.683	1601.16
1015.976	1576.3
1016.268	1571.55
1016.56	1598.45
1016.851	1566.81
1017.143	1548.5
1017.435	1540.6
1017.727	1523.19
1018.018	1531.33
1018.31	1512.12
1018.602	1509.64
1018.893	1516.87
1019.185	1487.94
1019.476	1489.75
1019.767	1440.71
1020.058	1452.46
1020.35	1430.99
1020.641	1435.29
1020.932	1405.91
1021.223	1405.01
1021.514	1389.41
1021.804	1388.96
1022.095	1392.35
1022.386	1359.81
1022.677	1376.98
1022.967	1360.26
1023.258	1362.07
1023.548	1358.45
1023.839	1341.73
1024.129	1312.13
1024.419	1328.17
1024.709	1299.7
1025	1296.99
1025.29	1282.07
1025.58	1303.09
1025.87	1269.42
1026.16	1247.04
1026.449	1277.33
1026.739	1268.96
1027.029	1243.65
1027.319	1252.24
1027.608	1220.83
1027.898	1228.06
1028.187	1225.8
1028.477	1210.66
1028.766	1188.29
1029.055	1195.52
1029.344	1167.72
1029.634	1158.23
1029.923	1171.79
1030.212	1161.85
1030.501	1144
1030.79	1142.87
1031.078	1137.44
1031.367	1111.91
1031.656	1108.97
1031.945	1136.31
1032.233	1108.52
1032.522	1101.51
1032.81	1100.83
1033.099	1081.4
1033.387	1086.14
1033.675	1060.38
1033.963	1074.39
1034.251	1070.32
1034.54	1034.62
1034.828	1059.03
1035.116	1052.47
1035.403	1047.05
1035.691	1028.52
1035.979	1018.8
1036.267	997.11
1036.554	1006.82
1036.842	994.85
1037.129	998.24
1037.417	966.15
1037.704	966.6
1037.992	973.83
1038.279	953.27
1038.566	958.69
1038.853	958.69
1039.14	958.69
