Data from hue_130_FLMS001491_00080.txt Node
Date: Tue Feb 07 16:58:05 GMT 2017
User: dcchb
Spectrometer: FLMS00149
Trigger mode: 0
Integration Time (sec): 2.000000E-2
Scans to average: 10
Electric dark correction enabled: true
Nonlinearity correction enabled: false
Boxcar width: 0
XAxis mode: Wavelengths
Number of Pixels in Spectrum: 2048
>>>>>Begin Spectral Data<<<<<
341.393	0.64
341.776	0.64
342.16	0.64
342.543	-59.93
342.927	-46.37
343.31	-66.93
343.693	-78.91
344.077	-59.02
344.46	-61.28
344.843	-53.37
345.226	-48.85
345.61	-22.41
345.993	-33.26
346.376	-13.83
346.759	13.74
347.142	46.06
347.525	20.75
347.908	58.04
348.291	84.25
348.674	102.33
349.057	112.72
349.44	120.18
349.823	125.38
350.206	159.05
350.588	178.03
350.971	192.72
351.354	214.42
351.737	235.21
352.119	233.85
352.502	244.24
352.884	269.33
353.267	279.72
353.65	281.53
354.032	298.03
354.414	299.61
354.797	315.43
355.179	320.18
355.562	343.45
355.944	336.67
356.326	318.37
356.709	292.83
357.091	334.86
357.473	337.35
357.855	351.13
358.238	330.12
358.62	338.03
359.002	328.76
359.384	343.68
359.766	342.55
360.148	329.89
360.53	337.8
360.912	329.21
361.294	333.96
361.676	337.58
362.057	328.54
362.439	333.06
362.821	312.49
363.203	313.85
363.584	314.75
363.966	301.64
364.348	335.54
364.729	316.11
365.111	311.14
365.493	290.8
365.874	321.98
366.256	324.24
366.637	306.39
367.019	296
367.4	327.63
367.781	317.92
368.163	315.2
368.544	324.47
368.925	290.8
369.306	323.11
369.688	304.81
370.069	323.56
370.45	323.11
370.831	287.63
371.212	314.98
371.593	301.42
371.974	308.2
372.355	313.85
372.736	306.16
373.117	306.16
373.498	297.58
373.879	306.62
374.26	317.46
374.641	303
375.021	318.14
375.402	301.42
375.783	307.29
376.163	303.23
376.544	322.21
376.925	322.89
377.305	326.5
377.686	332.15
378.066	323.11
378.447	327.63
378.827	335.09
379.208	331.93
379.588	318.82
379.968	332.38
380.349	335.32
380.729	316.33
381.109	330.8
381.489	342.1
381.87	345.03
382.25	343.68
382.63	354.98
383.01	347.29
383.39	326.73
383.77	340.74
384.15	337.12
384.53	367.63
384.91	346.39
385.29	342.1
385.67	343
386.049	327.86
386.429	347.07
386.809	359.27
387.189	347.52
387.568	361.98
387.948	341.64
388.328	370.34
388.707	357.01
389.087	350.23
389.466	348.42
389.846	363.11
390.225	346.62
390.605	364.24
390.984	332.15
391.363	357.24
391.743	371.02
392.122	369.67
392.501	383.22
392.881	349.33
393.26	371.47
393.639	373.06
394.018	376.9
394.397	375.77
394.776	384.81
395.155	358.59
395.534	367.86
395.913	396.56
396.292	388.42
396.671	384.58
397.05	384.81
397.429	381.19
397.808	394.98
398.186	379.16
398.565	376.22
398.944	385.26
399.323	383.22
399.701	385.48
400.08	372.15
400.458	397.01
400.837	407.18
401.215	397.91
401.594	388.42
401.972	391.36
402.351	400.17
402.729	401.75
403.107	405.14
403.486	407.63
403.864	415.77
404.242	393.85
404.62	397.46
404.999	405.6
405.377	404.69
405.755	426.39
406.133	410.57
406.511	407.18
406.889	409.66
407.267	419.38
407.645	416.44
408.023	423.9
408.401	459.83
408.779	434.75
409.156	434.52
409.534	435.88
409.912	443.11
410.29	453.51
410.667	430.91
411.045	445.6
411.422	438.82
411.8	464.58
412.178	455.31
412.555	472.94
412.933	455.09
413.31	452.38
413.687	487.85
414.065	482.88
414.442	467.52
414.819	468.19
415.197	481.98
415.574	493.96
415.951	462.32
416.328	473.62
416.705	486.27
417.082	479.49
417.46	507.06
417.837	483.79
418.214	492.15
418.591	506.84
418.967	481.98
419.344	509.32
419.721	496.67
420.098	494.41
420.475	530.57
420.852	520.62
421.228	521.75
421.605	548.19
421.982	523.11
422.358	527.4
422.735	526.5
423.111	534.63
423.488	540.73
423.864	525.59
424.241	527.63
424.617	540.51
424.994	544.8
425.37	551.58
425.746	565.59
426.123	546.38
426.499	565.14
426.875	557.68
427.251	565.14
427.627	585.48
428.003	587.51
428.379	566.72
428.756	612.14
429.132	599.49
429.507	604.69
429.883	620.73
430.259	605.14
430.635	611.47
431.011	633.39
431.387	620.51
431.763	630
432.138	641.52
432.514	637.23
432.89	661.18
433.265	651.24
433.641	634.74
434.016	664.35
434.392	649.43
434.767	665.02
435.143	671.13
435.518	688.3
435.894	704.35
436.269	697.57
436.644	700.05
437.02	729.2
437.395	707.74
437.77	725.14
438.145	715.19
438.52	730.33
438.895	726.94
439.271	740.5
439.646	730.56
440.021	739.6
440.395	759.94
440.77	746.38
441.145	774.4
441.52	765.59
441.895	783.21
442.27	803.33
442.645	775.76
443.019	795.19
443.394	792.93
443.769	793.38
444.143	767.62
444.518	798.58
444.892	805.59
445.267	834.51
445.641	827.05
446.016	820.28
446.39	801.07
446.764	841.29
447.139	814.63
447.513	870.67
447.887	823.89
448.262	865.7
448.636	855.75
449.01	860.27
449.384	878.35
449.758	900.72
450.132	891.23
450.506	876.54
450.88	895.3
451.254	895.75
451.628	887.84
452.002	907.73
452.376	900.5
452.75	919.71
453.123	920.84
453.497	954.28
453.871	943.44
454.244	988.41
454.618	961.06
454.992	980.27
455.365	989.76
455.739	1013.04
456.112	1009.65
456.486	1022.53
456.859	1035.18
457.232	1030.44
457.606	1051.91
457.979	1044
458.352	1095.07
458.725	1078.57
459.099	1080.83
459.472	1119.25
459.845	1133.71
460.218	1118.12
460.591	1158.35
460.964	1155.18
461.337	1186.59
461.71	1210.1
462.083	1231.56
462.456	1227.04
462.829	1237.21
463.201	1254.16
463.574	1280.6
463.947	1321.28
464.32	1295.52
464.692	1293.93
465.065	1311.34
465.438	1348.4
465.81	1373.25
466.183	1389.75
466.555	1423.42
466.928	1409.86
467.3	1428.62
467.672	1453.03
468.045	1489.86
468.417	1508.62
468.789	1511.33
469.161	1523.99
469.534	1599.01
469.906	1616.19
470.278	1634.49
470.65	1641.95
471.022	1709.52
471.394	1741.15
471.766	1752.23
472.138	1761.49
472.51	1829.51
472.882	1864.77
473.253	1897.99
473.625	1974.82
473.997	1991.32
474.369	2025.67
474.74	2041.26
475.112	2118.55
475.484	2150.64
475.855	2207.81
476.227	2251.42
476.598	2325.09
476.97	2350.4
477.341	2431.53
477.713	2481.47
478.084	2512.66
478.455	2614.58
478.827	2657.74
479.198	2740.68
479.569	2812.31
479.94	2883.27
480.311	2964.63
480.682	3067.45
481.053	3138.18
481.424	3204.62
481.795	3288.46
482.166	3391.28
482.537	3479.19
482.908	3592.86
483.279	3678.96
483.65	3785.62
484.021	3898.61
484.391	3954.43
484.762	4085.5
485.133	4116.01
485.503	4261.99
485.874	4366.62
486.244	4480.07
486.615	4579.5
486.985	4689.78
487.356	4870.79
487.726	4959.83
488.097	5077.56
488.467	5195.3
488.837	5345.81
489.207	5449.08
489.578	5638.45
489.948	5670.99
490.318	5820.6
490.688	5894.49
491.058	6110.98
491.428	6227.59
491.798	6362.5
492.168	6493.35
492.538	6623.51
492.908	6678.65
493.278	6889.95
493.648	6981.02
494.017	7086.1
494.387	7231.86
494.757	7309.14
495.126	7449.48
495.496	7523.83
495.866	7665.29
496.235	7780.77
496.605	7986.87
496.974	8041.1
497.344	8192.06
497.713	8274.99
498.082	8383.47
498.452	8479.96
498.821	8604.48
499.19	8666.4
499.559	8783.91
499.928	8893.28
500.298	9002.43
500.667	9080.62
501.036	9151.36
501.405	9350.22
501.774	9322.88
502.143	9398.13
502.512	9493.49
502.88	9633.38
503.249	9740.94
503.618	9757.22
503.987	9897.32
504.356	9943.42
504.724	10012.35
505.093	10052.12
505.462	10164.44
505.83	10172.35
506.199	10265
506.567	10482.17
506.936	10484.88
507.304	10581.6
507.672	10588.15
508.041	10696.4
508.409	10788.37
508.777	10810.07
509.145	10988.37
509.514	10991.76
509.882	10991.98
510.25	11104.98
510.618	11115.82
510.986	11242.83
511.354	11242.6
511.722	11331.19
512.09	11316.04
512.458	11435.82
512.826	11487.11
513.193	11550.84
513.561	11542.48
513.929	11610.73
514.297	11692.53
514.664	11713.32
515.032	11825.18
515.4	11829.7
515.767	11851.85
516.135	11897.72
516.502	11891.62
516.869	12085.74
517.237	12011.62
517.604	11997.61
517.972	12096.36
518.339	12118.74
518.706	12075.57
519.073	12094.33
519.44	12188.56
519.808	12350.82
520.175	12267.88
520.542	12387.43
520.909	12316.7
521.276	12338.62
521.643	12380.88
522.009	12500.42
522.376	12562.79
522.743	12630.36
523.11	12533.41
523.477	12692.96
523.843	12705.16
524.21	12750.81
524.577	12754.2
524.943	12763.01
525.31	12853.18
525.676	12909
526.043	12872.84
526.409	12913.29
526.776	13055.43
527.142	12919.39
527.508	12998.49
527.874	13006.4
528.241	13003.68
528.607	13018.6
528.973	13032.84
529.339	13087.98
529.705	13120.06
530.071	13092.95
530.437	13158.71
530.803	13160.06
531.169	13111.25
531.535	13066.96
531.901	13058.6
532.267	13140.63
532.632	13157.58
532.998	13046.17
533.364	13140.4
533.73	13134.53
534.095	13146.5
534.461	13113.06
534.826	13127.52
535.192	13115.32
535.557	13130.46
535.923	13041.42
536.288	13050.01
536.653	12986.73
537.019	12921.65
537.384	12979.96
537.749	12919.39
538.114	12937.24
538.479	12932.95
538.845	12915.32
539.21	12815.89
539.575	12805.27
539.94	12861.99
540.305	12812.5
540.67	12753.97
541.034	12711.04
541.399	12810.47
541.764	12753.75
542.129	12715.78
542.494	12680.75
542.858	12681.66
543.223	12544.94
543.587	12607.08
543.952	12522.11
544.316	12530.25
544.681	12497.48
545.045	12507.43
545.41	12479.4
545.774	12361.89
546.138	12463.36
546.503	12394.89
546.867	12280.54
547.231	12277.6
547.595	12305.17
547.959	12283.25
548.324	12277.6
548.688	12146.53
549.052	12144.5
549.416	12107.21
549.779	12090.94
550.143	11994.22
550.507	12074.44
550.871	12100.43
551.235	12026.08
551.599	12078.96
551.962	11937.95
552.326	11921.45
552.689	11961.68
553.053	11823.38
553.417	11850.04
553.78	11986.31
554.143	11830.16
554.507	11863.83
554.87	11720.1
555.234	11870.15
555.597	11777.73
555.96	11691.63
556.323	11768.91
556.686	11761.68
557.05	11744.06
557.413	11770.27
557.776	11794.22
558.139	11767.33
558.502	11682.81
558.865	11641.46
559.228	11759.65
559.59	11685.3
559.953	11695.02
560.316	11725.75
560.679	11680.1
561.041	11795.35
561.404	11774.34
561.767	11776.82
562.129	11674.9
562.492	11768.24
562.854	11706.09
563.217	11654.79
563.579	11658.41
563.941	11739.99
564.304	11786.09
564.666	11797.16
565.028	11779.31
565.39	11751.74
565.753	11761.68
566.115	11849.14
566.477	11876.26
566.839	11810.95
567.201	11860.66
567.563	11833.77
567.925	11893.88
568.287	11849.36
568.648	11833.32
569.01	11960.1
569.372	11956.71
569.734	11881
570.095	11885.29
570.457	11943.6
570.819	11913.32
571.18	11933.2
571.542	11961.9
571.903	11985.41
572.265	11986.54
572.626	11917.16
572.987	11999.87
573.349	12007.55
573.71	12086.42
574.071	12004.16
574.432	12085.97
574.794	12140.43
575.155	12110.37
575.516	12099.3
575.877	12073.31
576.238	12119.64
576.599	12127.32
576.96	11976.59
577.32	12016.82
577.681	12142.01
578.042	12066.08
578.403	12055.01
578.763	12147.43
579.124	12117.83
579.485	12128
579.845	12209.81
580.206	12111.5
580.566	12121.9
580.927	12023.37
581.287	12129.36
581.648	12131.62
582.008	12184.5
582.368	12119.41
582.728	12127.1
583.089	12001.68
583.449	12053.88
583.809	12101.79
584.169	12087.32
584.529	12027.89
584.889	12133.2
585.249	12034.9
585.609	12081
585.969	11982.69
586.329	12066.53
586.688	12042.35
587.048	12029.47
587.408	11914.22
587.768	11942.92
588.127	11947.89
588.487	11946.76
588.846	11983.37
589.206	11920.55
589.565	11942.24
589.925	12038.96
590.284	11896.37
590.643	11872.87
591.003	11909.25
591.362	11976.82
591.721	11915.35
592.08	11812.98
592.44	11868.57
592.799	11886.65
593.158	11824.05
593.517	11875.35
593.876	11829.48
594.235	11833.09
594.593	11855.47
594.952	11929.14
595.311	11790.16
595.67	11838.97
596.029	11853.66
596.387	11974.56
596.746	11920.55
597.104	11849.59
597.463	11865.63
597.822	11867.89
598.18	11787.22
598.538	11785.86
598.897	11882.36
599.255	11774.79
599.613	11907.22
599.972	11787.9
600.33	11825.18
600.688	11813.43
601.046	11801.23
601.404	11843.49
601.762	11835.13
602.12	11865.63
602.478	11847.56
602.836	11796.26
603.194	11753.09
603.552	11856.82
603.91	11769.37
604.268	11853.88
604.625	11762.81
604.983	11788.8
605.341	11790.61
605.698	11818.4
606.056	11923.94
606.413	11814.79
606.771	11852.08
607.128	11843.26
607.485	11708.58
607.843	11822.7
608.2	11880.78
608.557	11897.95
608.914	11871.28
609.272	11860.89
609.629	11933.88
609.986	11994.67
610.343	11863.83
610.7	11989.47
611.057	11932.53
611.414	11898.85
611.771	11869.93
612.127	12010.26
612.484	11989.92
612.841	12040.09
613.198	11852.98
613.554	11929.36
613.911	12024.73
614.267	12042.58
614.624	11963.03
614.98	11986.08
615.337	12083.48
615.693	11996.7
616.05	11939.3
616.406	12043.26
616.762	11995.57
617.118	12025.18
617.475	12049.36
617.831	12132.29
618.187	12084.61
618.543	12022.47
618.899	12113.99
619.255	12115.8
619.611	12100.88
619.967	12125.06
620.323	12177.26
620.678	12143.82
621.034	12128.23
621.39	12168.9
621.746	12175.23
622.101	12291.16
622.457	12137.49
622.812	12208.9
623.168	12188.56
623.523	12208.9
623.879	12117.61
624.234	12104.72
624.589	12208
624.945	12102.46
625.3	12244.16
625.655	12118.51
626.01	12185.4
626.365	12123.03
626.72	12070.15
627.075	12158.96
627.43	12097.72
627.785	12024.5
628.14	12092.52
628.495	12121.45
628.85	12212.29
629.205	12107.66
629.559	12098.17
629.914	12006.87
630.269	12068.34
630.623	12043.03
630.978	12019.75
631.332	12073.54
631.687	12090.26
632.041	11912.86
632.396	12059.08
632.75	11970.72
633.104	12004.16
633.459	11953.32
633.813	11909.7
634.167	11972.3
634.521	11935.24
634.875	11940.89
635.229	12001.68
635.583	11826.31
635.937	11955.58
636.291	11873.54
636.645	11875.35
636.999	11810.27
637.352	11944.95
637.706	11781.79
638.06	11806.43
638.413	11778.86
638.767	11805.75
639.121	11842.81
639.474	11751.51
639.828	11714.9
640.181	11771.63
640.534	11688.24
640.888	11714.68
641.241	11632.42
641.594	11683.04
641.947	11723.94
642.301	11695.24
642.654	11702.93
643.007	11730.95
643.36	11630.16
643.713	11672.42
644.066	11681.46
644.419	11557.17
644.771	11474.01
645.124	11438.07
645.477	11363.05
645.83	11354.24
646.182	11322.15
646.535	11246.44
646.888	11364.63
647.24	11318.08
647.593	11244.63
647.945	11302.26
648.298	11200.79
648.65	11179.78
649.002	11146.56
649.355	11250.74
649.707	11186.56
650.059	11352.65
650.411	11361.69
650.763	11484.85
651.115	11575.92
651.467	11450.5
651.819	11514.23
652.171	11455.02
652.523	11369.38
652.875	11427
653.227	11397.62
653.578	11540.22
653.93	11477.17
654.282	11414.12
654.633	11474.68
654.985	11469.71
655.337	11465.64
655.688	11485.53
656.039	11563.95
656.391	11355.59
656.742	11416.61
657.094	11446.44
657.445	11532.54
657.796	11431.75
658.147	11474.91
658.498	11519.88
658.849	11473.33
659.2	11502.48
659.551	11462.48
659.902	11514.23
660.253	11529.6
660.604	11495.02
660.955	11518.52
661.306	11536.6
661.656	11531.18
662.007	11550.84
662.358	11564.17
662.708	11567.11
663.059	11579.99
663.409	11444.85
663.76	11583.38
664.11	11539.09
664.461	11601.91
664.811	11631.97
665.161	11582.93
665.511	11526.43
665.862	11498.19
666.212	11501.35
666.562	11513.55
666.912	11532.99
667.262	11530.28
667.612	11517.39
667.962	11520.78
668.312	11544.74
668.662	11604.62
669.011	11570.27
669.361	11559.2
669.711	11506.1
670.06	11457.06
670.41	11486.21
670.76	11503.38
671.109	11552.87
671.459	11502.25
671.808	11523.72
672.157	11521.01
672.507	11495.7
672.856	11401.01
673.205	11462.48
673.554	11526.66
673.904	11469.49
674.253	11484.85
674.602	11475.59
674.951	11245.09
675.3	11256.16
675.649	11387.45
675.998	11453.44
676.346	11377.96
676.695	11407.12
677.044	11353.11
677.393	11307
677.741	11358.3
678.09	11309.94
678.438	11262.71
678.787	11345.87
679.135	11290.06
679.484	11241.92
679.832	11219.1
680.181	11137.29
680.529	11216.84
680.877	11154.47
681.225	11203.73
681.573	11260.68
681.922	11144.52
682.27	11149.27
682.618	11088.03
682.966	11090.06
683.314	11066.11
683.661	11071.53
684.009	11088.93
684.357	10962.83
684.705	10987.01
685.053	10964.87
685.4	10973.91
685.748	10919.9
686.095	10881.71
686.443	10822.72
686.79	10820.69
687.138	10786.79
687.485	10789.28
687.832	10757.87
688.18	10771.65
688.527	10693.69
688.874	10725.33
689.221	10692.78
689.568	10736.17
689.915	10589.06
690.262	10488.04
690.609	10564.2
690.956	10528.72
691.303	10490.53
691.65	10501.83
691.997	10465.67
692.344	10400.36
692.69	10326.01
693.037	10379.8
693.383	10235.62
693.73	10261.61
694.077	10230.65
694.423	10185.45
694.769	10119.24
695.116	10154.04
695.462	10027.04
695.808	10055.74
696.155	10037.21
696.501	9947.49
696.847	9998.34
697.193	9919.47
697.539	9884.9
697.885	9858
698.231	9785.01
698.577	9781.85
698.923	9792.69
699.269	9691.68
699.614	9651.68
699.96	9647.61
700.306	9635.18
700.651	9603.55
700.997	9496.21
701.342	9523.32
701.688	9530.78
702.033	9456.66
702.379	9527.16
702.724	9367.39
703.069	9408.98
703.415	9294.63
703.76	9304.57
704.105	9259.15
704.45	9270.9
704.795	9201.07
705.14	9206.95
705.485	9176.21
705.83	9165.82
706.175	9100.51
706.52	9128.76
706.865	9097.57
707.209	9027.74
707.554	9003.79
707.899	9058.93
708.243	8992.26
708.588	8987.97
708.932	8889.67
709.277	8867.75
709.621	8819.16
709.966	8740.97
710.31	8811.03
710.654	8735.1
710.998	8715.66
711.342	8721.76
711.687	8703.91
712.031	8646.96
712.375	8651.71
712.719	8659.62
713.063	8648.32
713.407	8624.14
713.75	8594.99
714.094	8613.29
714.438	8571.26
714.782	8552.73
715.125	8475.67
715.469	8586.85
715.812	8495.55
716.156	8492.62
716.499	8433.63
716.843	8468.89
717.186	8433.63
717.53	8399.51
717.873	8455.78
718.216	8419.4
718.559	8388.21
718.902	8328.33
719.246	8390.92
719.589	8284.26
719.932	8258.5
720.275	8296.46
720.617	8290.14
720.96	8236.35
721.303	8305.95
721.646	8347.31
721.989	8295.56
722.331	8226.63
722.674	8237.03
723.016	8268.21
723.359	8273.64
723.701	8251.04
724.044	8180.76
724.386	8183.92
724.729	8196.35
725.071	8176.01
725.413	8202
725.755	8242
726.097	8192.96
726.439	8086.75
726.782	8153.64
727.124	8169.46
727.465	8127.65
727.807	8103.47
728.149	8152.29
728.491	8142.79
728.833	8154.55
729.175	8089.69
729.516	8082.23
729.858	8086.52
730.199	8109.35
730.541	8091.5
730.882	8038.84
731.224	8093.53
731.565	8057.6
731.906	8047.66
732.248	8076.81
732.589	8039.52
732.93	7968.34
733.271	8080.42
733.612	8045.85
733.953	8023.02
734.294	8012.4
734.635	8010.37
734.976	8111.83
735.317	8003.59
735.658	7988.67
735.999	8073.87
736.339	8080.88
736.68	8056.24
737.021	8024.83
737.361	8010.59
737.702	8050.82
738.042	8076.58
738.383	8124.04
738.723	8121.1
739.063	8065.06
739.404	8109.57
739.744	8128.78
740.084	8125.17
740.424	8170.14
740.764	8098.95
741.104	8144.15
741.444	8167.2
741.784	8115.9
742.124	8160.2
742.464	8190.93
742.804	8207.65
743.143	8252.62
743.483	8272.96
743.823	8250.81
744.162	8223.92
744.502	8292.62
744.841	8282.23
745.181	8415.33
745.52	8391.15
745.86	8460.53
746.199	8428.66
746.538	8575.1
746.877	8571.71
747.216	8556.34
747.556	8633.63
747.895	8638.15
748.234	8782.78
748.573	8760.63
748.911	8792.49
749.25	8887.41
749.589	8961.53
749.928	8969.21
750.267	9086.95
750.605	9154.52
750.944	9122.88
751.283	9239.49
751.621	9417.11
751.96	9445.13
752.298	9449.65
752.636	9577.11
752.975	9636.99
753.313	9798.12
753.651	9886.25
753.989	9935.29
754.327	9995.85
754.666	10110.88
755.004	10271.78
755.342	10441.49
755.679	10470.87
756.017	10577.53
756.355	10726.46
756.693	10877.41
757.031	11074.47
757.368	11116.73
757.706	11267.46
758.044	11442.59
758.381	11559.2
758.719	11604.17
759.056	11838.97
759.394	11980.89
759.731	12064.05
760.068	12166.19
760.405	12372.51
760.743	12570.7
761.08	12693.18
761.417	12847.76
761.754	13042.33
762.091	13193.51
762.428	13297.69
762.765	13334.07
763.102	13671.46
763.438	13726.6
763.775	13866.26
764.112	14015.86
764.449	14185.8
764.785	14326.81
765.122	14428.73
765.458	14571.33
765.795	14678.67
766.131	14886.12
766.467	15004.99
766.804	15018.09
767.14	15153.91
767.476	15370.63
767.812	15394.36
768.148	15473.22
768.485	15666.21
768.821	15719.32
769.157	15934
769.492	16054.9
769.828	16144.62
770.164	16193.43
770.5	16309.59
770.836	16373.09
771.171	16428.45
771.507	16517.26
771.842	16564.27
772.178	16689.91
772.513	16789.57
772.849	16759.06
773.184	16891.72
773.519	17070.02
773.855	17024.59
774.19	17066.85
774.525	17119.51
774.86	17183.91
775.195	17292.16
775.53	17227.08
775.865	17361.08
776.2	17335.77
776.535	17339.61
776.87	17402.66
777.205	17425.71
777.539	17441.08
777.874	17505.49
778.209	17459.84
778.543	17500.74
778.878	17492.38
779.212	17507.97
779.547	17463.91
779.881	17610.79
780.215	17503
780.55	17533.51
780.884	17599.04
781.218	17542.55
781.552	17642.88
781.886	17654.63
782.22	17561.53
782.554	17618.93
782.888	17370.57
783.222	17488.54
783.556	17418.26
783.889	17357.47
784.223	17390.01
784.557	17421.65
784.89	17530.34
785.224	17382.55
785.557	17341.87
785.891	17385.49
786.224	17366.96
786.558	17417.35
786.891	17290.35
787.224	17277.92
787.557	17215.55
787.891	17205.61
788.224	17305.04
788.557	17264.59
788.89	17291.93
789.223	17281.09
789.556	17137.36
789.888	17109.79
790.221	17053.07
790.554	16935.56
790.887	16923.58
791.219	17005.39
791.552	16973.75
791.884	16926.52
792.217	16825.28
792.549	16892.17
792.882	16754.32
793.214	16762.91
793.546	16749.35
793.879	16671.84
794.211	16551.84
794.543	16653.31
794.875	16598.84
795.207	16615.57
795.539	16561.1
795.871	16531.5
796.203	16449.92
796.535	16368.11
796.867	16442.01
797.198	16379.41
797.53	16337.61
797.862	16233.2
798.193	16200.44
798.525	16269.36
798.856	16239.98
799.188	16008.12
799.519	16007.67
799.85	15965.19
800.182	16045.86
800.513	16022.36
800.844	15831.18
801.175	15967.9
801.506	15954.57
801.837	15864.4
802.168	15795.7
802.499	15762.93
802.83	15710.5
803.161	15686.1
803.491	15628.02
803.822	15672.09
804.153	15528.81
804.483	15499.44
804.814	15431.42
805.145	15471.87
805.475	15412.66
805.805	15423.05
806.136	15316.39
806.466	15363.62
806.796	15276.17
807.126	15101.71
807.457	15177.86
807.787	15107.36
808.117	15108.26
808.447	15045.44
808.777	15072.33
809.107	15000.24
809.436	15002.28
809.766	15022.16
810.096	14933.35
810.426	14807.7
810.755	14980.81
811.085	14843.64
811.414	14862.62
811.744	14654.94
812.073	14665.79
812.403	14714.37
812.732	14614.04
813.061	14686.13
813.39	14614.94
813.719	14558.22
814.049	14687.71
814.378	14567.48
814.707	14515.06
815.036	14560.93
815.365	14440.26
815.693	14306.25
816.022	14338.11
816.351	14307.15
816.68	14294.72
817.008	14256.08
817.337	14113.71
817.665	14155.97
817.994	14221.5
818.322	14153.71
818.651	14104.9
818.979	14039.14
819.307	14052.47
819.636	14055.86
819.964	14070.55
820.292	13999.82
820.62	14027.39
820.948	13917.78
821.276	14045.24
821.604	13973.6
821.932	14007.27
822.259	14048.4
822.587	13978.8
822.915	13948.29
823.243	13976.77
823.57	13926.37
823.898	13930.44
824.225	13991.45
824.553	13844.34
824.88	13972.25
825.207	13962.98
825.535	13909.65
825.862	14004.34
826.189	13898.8
826.516	13947.39
826.843	13986.93
827.17	14011.79
827.497	14012.7
827.824	13942.87
828.151	14003.43
828.478	13946.71
828.805	14025.13
829.131	13999.82
829.458	13927.95
829.785	13941.74
830.111	13929.53
830.438	14007.72
830.764	13969.99
831.09	14020.38
831.417	13915.52
831.743	13995.52
832.069	13935.86
832.395	13892.25
832.722	13894.73
833.048	13829.88
833.374	13899.93
833.7	13875.75
834.026	13923.66
834.351	13895.86
834.677	13856.32
835.003	13884.79
835.329	13854.96
835.654	13793.27
835.98	13701.07
836.306	13782.42
836.631	13709.88
836.956	13797.56
837.282	13757.34
837.607	13748.75
837.932	13666.49
838.258	13640.5
838.583	13660.39
838.908	13544.01
839.233	13581.3
839.558	13498.36
839.883	13549.66
840.208	13493.39
840.533	13446.16
840.858	13460.17
841.182	13500.17
841.507	13538.36
841.832	13353.05
842.156	13339.49
842.481	13337.46
842.805	13289.1
843.13	13403.45
843.454	13332.49
843.778	13163.45
844.103	13252.04
844.427	13154.87
844.751	13209.78
845.075	13121.65
845.399	13086.62
845.723	13086.17
846.047	13057.92
846.371	12977.47
846.695	12932.5
847.019	12812.28
847.343	12852.95
847.666	12748.1
847.99	12589.23
848.313	12686.4
848.637	12515.11
848.96	12592.39
849.284	12537.03
849.607	12422.68
849.931	12382
850.254	12345.4
850.577	12303.59
850.9	12184.72
851.223	12185.63
851.546	12084.84
851.869	11979.3
852.192	12058.4
852.515	12005.74
852.838	11900.21
853.161	11918.06
853.483	11912.41
853.806	11796.94
854.129	11850.04
854.451	11706.77
854.774	11716.03
855.096	11722.59
855.419	11669.26
855.741	11646.21
856.063	11517.17
856.385	11527.79
856.708	11501.58
857.03	11483.05
857.352	11443.95
857.674	11420.67
857.996	11384.52
858.318	11326.21
858.64	11345.42
858.961	11304.97
859.283	11271.98
859.605	11215.26
859.926	11215.71
860.248	11179.32
860.57	11055.49
860.891	11093
861.212	11039.67
861.534	11057.07
861.855	11007.35
862.176	10974.81
862.498	10984.3
862.819	10996.28
863.14	10962.38
863.461	10908.82
863.782	10904.3
864.103	10900.46
864.424	10893.23
864.745	10891.65
865.065	10784.08
865.386	10809.62
865.707	10775.72
866.027	10678.32
866.348	10729.39
866.668	10707.25
866.989	10667.25
867.309	10589.28
867.63	10636.06
867.95	10652.33
868.27	10509.74
868.59	10590.87
868.91	10594.93
869.23	10564.2
869.55	10506.12
869.87	10500.47
870.19	10549.28
870.51	10501.15
870.83	10516.74
871.15	10401.72
871.469	10456.63
871.789	10472.22
872.109	10387.48
872.428	10398.1
872.748	10491.89
873.067	10352
873.386	10439.91
873.706	10376.18
874.025	10277.2
874.344	10275.17
874.663	10282.63
874.982	10214.15
875.301	10227.71
875.62	10219.12
875.939	10181.16
876.258	10174.15
876.577	10151.56
876.896	10185.68
877.214	10116.08
877.533	10156.75
877.852	10111.1
878.17	10226.58
878.489	10109.97
878.807	10168.73
879.125	10042.63
879.444	10073.82
879.762	9999.69
880.08	9976.19
880.398	10001.05
880.716	9979.58
881.034	9966.25
881.352	9957.66
881.67	9872.92
881.988	9934.61
882.306	9904.1
882.624	9791.79
882.941	9781.17
883.259	9778.23
883.577	9821.17
883.894	9726.93
884.212	9761.06
884.529	9699.14
884.846	9678.12
885.164	9728.52
885.481	9601.06
885.798	9676.99
886.115	9545.7
886.432	9563.32
886.75	9542.98
887.067	9559.71
887.383	9475.64
887.7	9546.83
888.017	9491.91
888.334	9501.4
888.651	9459.37
888.967	9378.47
889.284	9335.31
889.6	9325.81
889.917	9272.03
890.233	9252.6
890.55	9218.47
890.866	9299.83
891.182	9213.5
891.498	9178.7
891.815	9145.71
892.131	9190
892.447	9074.75
892.763	9033.39
893.079	9062.32
893.395	8999.95
893.71	8996.78
894.026	8969.44
894.342	8922.89
894.657	8876.11
894.973	8867.75
895.289	8849.67
895.604	8873.85
895.92	8751.59
896.235	8740.07
896.55	8701.65
896.865	8713.4
897.181	8709.11
897.496	8666.85
897.811	8562.44
898.126	8597.7
898.441	8533.74
898.756	8543.24
899.071	8460.53
899.386	8468.66
899.7	8340.08
900.015	8320.19
900.33	8294.43
900.644	8341.66
900.959	8253.3
901.273	8315.67
901.588	8176.69
901.902	8249.46
902.216	8156.81
902.531	8108.9
902.845	8119.29
903.159	8044.94
903.473	8001.33
903.787	7961.33
904.101	7968.11
904.415	7961.1
904.729	7964.27
905.042	7906.64
905.356	7875
905.67	7868.68
905.984	7795.46
906.297	7767.66
906.611	7728.57
906.924	7775.12
907.237	7711.85
907.551	7698.74
907.864	7671.85
908.177	7619.87
908.491	7555.24
908.804	7558.18
909.117	7479.08
909.43	7442.25
909.743	7424.17
910.056	7431.63
910.368	7411.97
910.681	7363.38
910.994	7294.91
911.307	7287.22
911.619	7250.84
911.932	7228.47
912.244	7202.48
912.557	7210.62
912.869	7100.56
913.181	7121.13
913.494	7106.44
913.806	7074.8
914.118	7036.61
914.43	6927.46
914.742	6995.48
915.054	6970.62
915.366	6939.44
915.678	6927.23
915.99	6890.62
916.302	6825.31
916.613	6784.41
916.925	6808.14
917.236	6749.84
917.548	6704.41
917.859	6711.19
918.171	6677.07
918.482	6661.25
918.794	6653.57
919.105	6550.75
919.416	6503.52
919.727	6559.11
920.038	6470.97
920.349	6479.79
920.66	6453.35
920.971	6453.35
921.282	6386.46
921.593	6373.58
921.903	6368.38
922.214	6287.7
922.525	6313.69
922.835	6304.2
923.146	6248.83
923.456	6225.56
923.767	6172.45
924.077	6203.86
924.387	6183.07
924.697	6124.54
925.008	6088.16
925.318	6062.62
925.628	6080.7
925.938	5983.08
926.248	5984.66
926.558	5942.17
926.867	5969.97
927.177	5909.86
927.487	5893.81
927.796	5805.23
928.106	5885.9
928.416	5794.16
928.725	5796.19
929.034	5781.05
929.344	5789.64
929.653	5773.59
929.962	5714.84
930.271	5673.71
930.581	5630.09
930.89	5594.84
931.199	5626.7
931.508	5612.24
931.817	5566.14
932.125	5538.8
932.434	5516.42
932.743	5485.92
933.051	5424.45
933.36	5409.08
933.669	5441.4
933.977	5388.74
934.286	5399.82
934.594	5383.32
934.902	5359.59
935.21	5303.32
935.519	5309.87
935.827	5300.38
936.135	5245.7
936.443	5230.78
936.751	5251.8
937.059	5180.84
937.367	5190.33
937.674	5133.83
937.982	5165.7
938.29	5107.62
938.597	5116.21
938.905	5026.27
939.213	5020.62
939.52	4974.74
939.827	5013.84
940.135	4940.39
940.442	4985.59
940.749	4954.63
941.056	4964.8
941.363	4871.69
941.67	4901.98
941.977	4845.03
942.284	4801.19
942.591	4820.85
942.898	4751.02
943.205	4784.24
943.511	4729.78
943.818	4782.2
944.125	4690
944.431	4709.66
944.738	4657.91
945.044	4654.98
945.35	4633.28
945.657	4611.36
945.963	4579.72
946.269	4544.7
946.575	4540.4
946.881	4512.38
947.187	4574.98
947.493	4545.6
947.799	4505.38
948.105	4476
948.41	4444.13
948.716	4414.53
949.022	4380.63
949.327	4416.11
949.633	4364.81
949.938	4362.78
950.244	4339.28
950.549	4294.76
950.854	4296.79
951.16	4262.9
951.465	4253.18
951.77	4213.18
952.075	4157.81
952.38	4160.53
952.685	4141.77
952.99	4142
953.294	4165.5
953.599	4084.14
953.904	4080.98
954.209	4056.8
954.513	4066.29
954.818	4006.41
955.122	4037.37
955.426	3981.1
955.731	3977.48
956.035	3985.62
956.339	4000.98
956.643	3948.78
956.948	3920.08
957.252	3878.5
957.556	3898.39
957.86	3872.17
958.163	3939.52
958.467	3871.27
958.771	3822.68
959.075	3818.39
959.378	3775.9
959.682	3758.28
959.985	3785.85
960.289	3812.74
960.592	3750.59
960.896	3743.14
961.199	3711.5
961.502	3704.94
961.805	3699.52
962.108	3673.08
962.411	3627.21
962.714	3619.75
963.017	3630.82
963.32	3643.25
963.623	3576.13
963.926	3543.59
964.228	3554.67
964.531	3530.49
964.833	3528.68
965.136	3505.63
965.438	3536.14
965.741	3476.25
966.043	3447.78
966.345	3450.71
966.648	3438.29
966.95	3421.34
967.252	3404.84
967.554	3387.44
967.856	3356.03
968.158	3322.58
968.46	3387.89
968.761	3363.26
969.063	3308.57
969.365	3264.96
969.666	3272.64
969.968	3247.78
970.269	3255.92
970.571	3251.62
970.872	3229.93
971.174	3200.55
971.475	3173.89
971.776	3166.43
972.077	3176.82
972.378	3153.55
972.679	3149.93
972.98	3125.53
973.281	3143.15
973.582	3099.54
973.883	3090.95
974.183	3061.12
974.484	3085.07
974.785	3071.29
975.085	3015.25
975.386	3028.8
975.686	2964.17
975.986	3031.06
976.287	2973.44
976.587	2969.37
976.887	2965.98
977.187	2924.63
977.487	2911.97
977.787	2924.63
978.087	2900.9
978.387	2884.85
978.687	2856.38
978.987	2849.83
979.286	2835.59
979.586	2827.45
979.885	2841.69
980.185	2826.1
980.484	2802.14
980.784	2806.21
981.083	2797.4
981.382	2764.63
981.682	2762.82
981.981	2717.17
982.28	2763.05
982.579	2712.88
982.878	2681.47
983.177	2678.31
983.475	2689.38
983.774	2665.42
984.073	2644.63
984.372	2632.66
984.67	2632.66
984.969	2639.66
985.267	2612.09
985.566	2581.81
985.864	2572.77
986.162	2559.66
986.461	2538.87
986.759	2528.93
987.057	2527.57
987.355	2506.11
987.653	2474.47
987.951	2485.09
988.249	2497.29
988.547	2471.76
988.844	2485.77
989.142	2484.41
989.44	2441.25
989.737	2432.44
990.035	2400.12
990.332	2425.66
990.63	2389.05
990.927	2406.22
991.224	2392.21
991.521	2354.47
991.819	2360.12
992.116	2340.24
992.413	2345.88
992.71	2315.6
993.006	2316.96
993.303	2322.38
993.6	2306.56
993.897	2294.13
994.193	2295.94
994.49	2269.05
994.787	2233.57
995.083	2251.88
995.379	2248.03
995.676	2206.45
995.972	2227.24
996.268	2227.92
996.565	2222.27
996.861	2160.35
997.157	2164.65
997.453	2159.9
997.749	2147.92
998.044	2155.38
998.34	2112.67
998.636	2125.33
998.932	2110.86
999.227	2108.83
999.523	2093.46
999.818	2075.61
1000.114	2096.85
1000.409	2050.07
1000.704	2039.23
1001	2019.11
1001.295	2024.09
1001.59	2012.11
1001.885	1998.55
1002.18	2015.95
1002.475	1948.38
1002.77	1983.63
1003.065	1945.44
1003.359	1931.43
1003.654	1921.49
1003.949	1909.29
1004.243	1928.95
1004.538	1915.39
1004.832	1882.85
1005.127	1865.45
1005.421	1866.58
1005.715	1871.09
1006.009	1847.14
1006.304	1842.4
1006.598	1837.2
1006.892	1808.95
1007.186	1819.12
1007.48	1809.4
1007.773	1783.87
1008.067	1773.24
1008.361	1766.24
1008.655	1774.15
1008.948	1755.62
1009.242	1766.46
1009.535	1762.4
1009.829	1735.96
1010.122	1730.53
1010.415	1671.1
1010.708	1683.53
1011.001	1689.4
1011.295	1679.46
1011.588	1683.98
1011.881	1652.12
1012.173	1666.13
1012.466	1623.87
1012.759	1643.76
1013.052	1624.1
1013.344	1623.42
1013.637	1625.68
1013.93	1581.84
1014.222	1578.67
1014.514	1556.07
1014.807	1561.5
1015.099	1583.64
1015.391	1548.17
1015.683	1548.84
1015.976	1529.18
1016.268	1532.12
1016.56	1517.66
1016.851	1510.2
1017.143	1503.42
1017.435	1485.79
1017.727	1498.22
1018.018	1441.95
1018.31	1454.38
1018.602	1437.66
1018.893	1447.38
1019.185	1431.33
1019.476	1427.94
1019.767	1424.33
1020.058	1400.37
1020.35	1411.45
1020.641	1369.64
1020.932	1382.29
1021.223	1378.23
1021.514	1366.48
1021.804	1351.79
1022.095	1324.44
1022.386	1354.95
1022.677	1297.55
1022.967	1323.99
1023.258	1264.33
1023.548	1298.45
1023.839	1292.13
1024.129	1284.9
1024.419	1272.92
1024.709	1278.57
1025	1269.75
1025.29	1245.8
1025.58	1237.67
1025.87	1214.84
1026.16	1219.59
1026.449	1205.8
1026.739	1212.58
1027.029	1195.18
1027.319	1187.5
1027.608	1193.15
1027.898	1198.34
1028.187	1156.99
1028.477	1179.81
1028.766	1149.31
1029.055	1122.87
1029.344	1115.63
1029.634	1111.79
1029.923	1122.41
1030.212	1109.53
1030.501	1097.33
1030.79	1096.88
1031.078	1075.86
1031.367	1074.28
1031.656	1066.82
1031.945	1077.44
1032.233	1075.64
1032.522	1054.62
1032.81	1050.33
1033.099	1027.5
1033.387	1043.77
1033.675	1057.1
1033.963	1008.52
1034.251	1046.48
1034.54	1042.19
1034.828	981.17
1035.116	1003.77
1035.403	991.57
1035.691	1003.1
1035.979	989.08
1036.267	985.47
1036.554	969.42
1036.842	932.14
1037.129	953.6
1037.417	940.95
1037.704	943.89
1037.992	935.98
1038.279	924.23
1038.566	920.39
1038.853	920.39
1039.14	920.39
