Data from hue_180_FLMS001491_00036.txt Node
Date: Tue Feb 07 16:46:54 GMT 2017
User: dcchb
Spectrometer: FLMS00149
Trigger mode: 0
Integration Time (sec): 2.000000E-2
Scans to average: 10
Electric dark correction enabled: true
Nonlinearity correction enabled: false
Boxcar width: 0
XAxis mode: Wavelengths
Number of Pixels in Spectrum: 2048
>>>>>Begin Spectral Data<<<<<
341.393	-19.96
341.776	-19.96
342.16	-19.96
342.543	-58.15
342.927	-68.54
343.31	-62.44
343.693	-59.5
344.077	-59.73
344.46	-54.98
344.843	-48.66
345.226	-49.56
345.61	-24.7
345.993	-27.19
346.376	6.71
346.759	-19.51
347.142	11.68
347.525	29.53
347.908	65.46
348.291	86.93
348.674	105.01
349.057	100.94
349.44	120.38
349.823	152.24
350.206	161.96
350.588	202.41
350.971	198.79
351.354	217.55
351.737	251.67
352.119	252.8
352.502	267.94
352.884	269.3
353.267	276.76
353.65	291.9
354.032	292.58
354.414	301.39
354.797	303.65
355.179	312.24
355.562	316.08
355.944	310.88
356.326	324.21
356.709	323.54
357.091	351.78
357.473	317.21
357.855	335.06
358.238	338
358.62	321.95
359.002	335.29
359.384	346.81
359.766	348.62
360.148	349.07
360.53	333.93
360.912	333.93
361.294	327.83
361.676	347.72
362.057	335.06
362.439	335.74
362.821	327.15
363.203	332.35
363.584	333.93
363.966	334.84
364.348	329.64
364.729	310.88
365.111	308.62
365.493	306.36
365.874	321.28
366.256	319.02
366.637	313.14
367.019	313.59
367.4	310.43
367.781	321.28
368.163	318.34
368.544	317.21
368.925	305.91
369.306	332.12
369.688	311.56
370.069	315.85
370.45	325.34
370.831	316.31
371.212	302.29
371.593	326.93
371.974	337.77
372.355	323.31
372.736	313.37
373.117	306.59
373.498	316.98
373.879	312.69
374.26	317.89
374.641	319.24
375.021	323.76
375.402	331.9
375.783	314.72
376.163	341.39
376.544	313.59
376.925	329.64
377.305	308.85
377.686	320.37
378.066	347.94
378.447	324.67
378.827	317.89
379.208	333.03
379.588	333.71
379.968	345.68
380.349	355.17
380.729	339.81
381.109	352.69
381.489	340.94
381.87	348.62
382.25	355.63
382.63	349.98
383.01	335.06
383.39	336.19
383.77	327.83
384.15	332.35
384.53	359.92
384.91	356.53
385.29	362.63
385.67	356.76
386.049	349.07
386.429	367.83
386.809	363.99
387.189	363.76
387.568	347.26
387.948	344.1
388.328	348.85
388.707	340.49
389.087	362.41
389.466	374.61
389.846	373.25
390.225	348.85
390.605	347.49
390.984	376.19
391.363	381.61
391.743	354.95
392.122	348.17
392.501	372.12
392.881	389.52
393.26	378.22
393.639	375.29
394.018	383.42
394.397	382.29
394.776	407.6
395.155	380.71
395.534	380.03
395.913	385.46
396.292	401.05
396.671	382.07
397.05	387.94
397.429	394.95
397.808	393.37
398.186	401.27
398.565	420.94
398.944	418.22
399.323	427.94
399.701	413.93
400.08	416.19
400.458	426.36
400.837	421.84
401.215	436.08
401.594	417.55
401.972	411.44
402.351	437.43
402.729	422.29
403.107	423.42
403.486	437.66
403.864	431.78
404.242	431.78
404.62	434.04
404.999	452.8
405.377	431.1
405.755	459.58
406.133	445.34
406.511	464.55
406.889	468.62
407.267	462.06
407.645	470.2
408.023	486.24
408.401	483.08
408.779	493.02
409.156	489.41
409.534	504.55
409.912	517.43
410.29	528.5
410.667	515.4
411.045	500.71
411.422	506.13
411.8	538.22
412.178	539.35
412.555	560.82
412.933	565.11
413.31	576.64
413.687	582.96
414.065	582.96
414.442	574.38
414.819	578.22
415.197	608.5
415.574	615.28
415.951	587.03
416.328	604.43
416.705	606.92
417.082	634.04
417.46	624.77
417.837	656.64
418.214	662.74
418.591	669.29
418.967	686.69
419.344	669.52
419.721	690.08
420.098	671.1
420.475	713.58
420.852	694.37
421.228	732.57
421.605	713.13
421.982	729.18
422.358	728.5
422.735	754.03
423.111	766.01
423.488	773.69
423.864	768.27
424.241	794.03
424.617	810.08
424.994	799.91
425.37	831.32
425.746	829.06
426.123	856.18
426.499	844.65
426.875	883.97
427.251	903.86
427.627	844.88
428.003	892.34
428.379	921.04
428.756	930.53
429.132	926.01
429.507	930.75
429.883	926.68
430.259	981.37
430.635	957.87
431.011	967.14
431.387	1014.14
431.763	1025.67
432.138	1036.29
432.514	1033.35
432.89	1025.44
433.265	1103.4
433.641	1047.59
434.016	1079.9
434.392	1114.48
434.767	1157.41
435.143	1124.42
435.518	1159.67
435.894	1152.44
436.269	1211.2
436.644	1226.79
437.02	1227.02
437.395	1241.48
437.77	1246.9
438.145	1290.74
438.52	1279.9
438.895	1309.05
439.271	1308.82
439.646	1344.53
440.021	1365.09
440.395	1352.44
440.77	1383.85
441.145	1401.47
441.52	1414.58
441.895	1462.49
442.27	1443.06
442.645	1462.04
443.019	1491.64
443.394	1486.44
443.769	1528.7
444.143	1523.73
444.518	1551.3
444.892	1554.69
445.267	1545.43
445.641	1574.35
446.016	1578.64
446.39	1597.85
446.764	1593.33
447.139	1584.07
447.513	1618.19
447.887	1652.09
448.262	1635.37
448.636	1656.83
449.01	1688.7
449.384	1694.35
449.758	1687.12
450.132	1746.55
450.506	1727.57
450.88	1770.96
451.254	1743.61
451.628	1807.57
452.002	1801.01
452.376	1804.85
452.75	1865.19
453.123	1888.69
453.497	1915.59
453.871	1921.01
454.244	1935.02
454.618	1960.33
454.992	2008.69
455.365	2020.44
455.739	2062.47
456.112	2062.93
456.486	2073.55
456.859	2090.27
457.232	2148.35
457.606	2141.34
457.979	2132.98
458.352	2203.49
458.725	2248.01
459.099	2217.72
459.472	2306.31
459.845	2289.81
460.218	2324.84
460.591	2396.25
460.964	2365.97
461.337	2431.73
461.71	2463.37
462.083	2488
462.456	2546.76
462.829	2553.76
463.201	2558.28
463.574	2591.27
463.947	2656.36
464.32	2688.9
464.692	2702.23
465.065	2752.4
465.438	2781.1
465.81	2822.68
466.183	2894.77
466.555	2946.52
466.928	2938.84
467.3	2964.37
467.672	2993.3
468.045	3094.99
468.417	3113.29
468.789	3119.17
469.161	3193.07
469.534	3239.62
469.906	3313.29
470.278	3336.11
470.65	3383.8
471.022	3459.5
471.394	3484.58
471.766	3518.93
472.138	3572.49
472.51	3679.15
472.882	3706.95
473.253	3777.01
473.625	3878.47
473.997	3925.25
474.369	3952.59
474.74	4064.68
475.112	4137
475.484	4190.33
475.855	4291.34
476.227	4331.11
476.598	4423.77
476.97	4504.67
477.341	4610.66
477.713	4698.56
478.084	4703.99
478.455	4857.2
478.827	4904.89
479.198	5099
479.569	5071.43
479.94	5301.26
480.311	5342.84
480.682	5463.29
481.053	5545.77
481.424	5628.71
481.795	5756.39
482.166	5811.53
482.537	5933.33
482.908	6038.41
483.279	6177.39
483.65	6281.57
484.021	6397.95
484.391	6525.86
484.762	6653.77
485.133	6671.17
485.503	6745.97
485.874	6945.06
486.244	7054.43
486.615	7132.85
486.985	7258.04
487.356	7395.67
487.726	7483.8
488.097	7637.47
488.467	7690.57
488.837	7874.3
489.207	7967.4
489.578	8146.61
489.948	8180.96
490.318	8348.41
490.688	8258.02
491.058	8419.82
491.428	8599.03
491.798	8664.11
492.168	8869.75
492.538	8954.95
492.908	9015.29
493.278	9063.65
493.648	9147.03
494.017	9281.04
494.387	9423.18
494.757	9423.64
495.126	9514.71
495.496	9589.06
495.866	9666.12
496.235	9817.52
496.605	9927.35
496.974	9895.94
497.344	10038.31
497.713	10060
498.082	10166.89
498.452	10261.13
498.821	10267.68
499.19	10343.61
499.559	10371.63
499.928	10462.48
500.298	10524.4
500.667	10568.69
501.036	10529.6
501.405	10649.37
501.774	10670.61
502.143	10747.44
502.512	10786.09
502.88	10847.33
503.249	10837.38
503.618	10927.78
503.987	10910.38
504.356	10994.22
504.724	10969.58
505.093	11100.65
505.462	11158.05
505.83	11203.7
506.199	11295.9
506.567	11349.46
506.936	11344.26
507.304	11439.85
507.672	11420.65
508.041	11438.5
508.409	11420.87
508.777	11552.39
509.145	11642.56
509.514	11612.28
509.882	11659.74
510.25	11652.28
510.618	11799.39
510.986	11766.17
511.354	11913.97
511.722	11849.11
512.09	11964.36
512.458	11941.08
512.826	11945.38
513.193	11939.28
513.561	11964.81
513.929	12027.86
514.297	12151.7
514.664	12213.39
515.032	12125.49
515.4	12186.73
515.767	12176.33
516.135	12233.28
516.502	12168.87
516.869	12365.25
517.237	12318.7
517.604	12245.03
517.972	12372.49
518.339	12322.77
518.706	12338.81
519.073	12386.5
519.44	12324.8
519.808	12472.14
520.175	12475.53
520.542	12487.51
520.909	12507.4
521.276	12532.03
521.643	12567.28
522.009	12643.21
522.376	12617.22
522.743	12593.27
523.11	12650.67
523.477	12746.71
523.843	12785.36
524.21	12791.46
524.577	12810.89
524.943	12842.3
525.31	12870.33
525.676	12871
526.043	12857.22
526.409	12837.33
526.776	12932.02
527.142	12884.79
527.508	12919.82
527.874	13033.94
528.241	12902.87
528.607	12859.03
528.973	12990.55
529.339	12885.69
529.705	12957.78
530.071	12966.82
530.437	12904
530.803	12973.15
531.169	12913.04
531.535	12784.68
531.901	12825.13
532.267	12887.27
532.632	12859.93
532.998	12896.54
533.364	12903.09
533.73	12843.66
534.095	12912.36
534.461	12823.32
534.826	12836.43
535.192	12712.59
535.557	12769.76
535.923	12720.5
536.288	12698.13
536.653	12708.75
537.019	12649.77
537.384	12676.88
537.749	12609.77
538.114	12505.36
538.479	12532.03
538.845	12544.01
539.21	12420.62
539.575	12453.61
539.94	12333.16
540.305	12385.82
540.67	12308.76
541.034	12349.21
541.399	12326.16
541.764	12087.97
542.129	12154.41
542.494	12194.41
542.858	12093.85
543.223	12035.09
543.587	12052.04
543.952	11948.54
544.316	11916.68
544.681	11940.18
545.045	11860.86
545.41	11844.36
545.774	11785.61
546.138	11740.64
546.503	11757.81
546.867	11629.91
547.231	11688.21
547.595	11617.25
547.959	11667.42
548.324	11522.56
548.688	11500.64
549.052	11510.14
549.416	11419.06
549.779	11431.04
550.143	11329.12
550.507	11407.54
550.871	11324.15
551.235	11291.61
551.599	11231.05
551.962	11260.2
552.326	11216.13
552.689	11232.18
553.053	11040.77
553.417	11038.06
553.78	11139.75
554.143	10998.74
554.507	11082.12
554.87	11022.92
555.234	11050.71
555.597	11013.2
555.96	10970.26
556.323	10966.42
556.686	10878.51
557.05	10876.25
557.413	10931.39
557.776	10862.69
558.139	10918.06
558.502	10804.62
558.865	10800.1
559.228	10865.86
559.59	10787.89
559.953	10815.46
560.316	10819.31
560.679	10799.65
561.041	10844.39
561.404	10817.5
561.767	10909.02
562.129	10787.67
562.492	10810.94
562.854	10744.96
563.217	10729.82
563.579	10722.81
563.941	10799.65
564.304	10732.3
564.666	10881.68
565.028	10784.96
565.39	10749.48
565.753	10792.64
566.115	10748.12
566.477	10800.1
566.839	10852.98
567.201	10881.9
567.563	10817.95
567.925	10955.8
568.287	10819.76
568.648	10822.02
569.01	10879.87
569.372	10927.33
569.734	10756.93
570.095	10899.98
570.457	10941.56
570.819	10864.95
571.18	10860.89
571.542	10916.03
571.903	10839.19
572.265	10934.33
572.626	10988.12
572.987	10931.17
573.349	10991.5
573.71	11021.79
574.071	10968.23
574.432	10999.19
574.794	10974.1
575.155	10920.09
575.516	10918.06
575.877	11038.74
576.238	10972.3
576.599	11066.53
576.96	10963.48
577.32	10960.32
577.681	11042.12
578.042	10941.11
578.403	10968.23
578.763	10969.36
579.124	10947.44
579.485	10977.27
579.845	11046.64
580.206	11005.29
580.566	10956.93
580.927	10926.2
581.287	11048.23
581.648	10930.26
582.008	11016.36
582.368	10927.33
582.728	11068.11
583.089	10955.12
583.449	10915.35
583.809	10959.87
584.169	10963.26
584.529	10897.72
584.889	10973.2
585.249	10889.59
585.609	10841
585.969	10938.4
586.329	10885.52
586.688	10895.24
587.048	10851.4
587.408	10777.73
587.768	10827.44
588.127	10811.62
588.487	10819.31
588.846	10843.94
589.206	10755.58
589.565	10738.4
589.925	10804.17
590.284	10802.81
590.643	10827.89
591.003	10757.61
591.362	10793.32
591.721	10805.52
592.08	10766.88
592.44	10805.75
592.799	10832.19
593.158	10670.16
593.517	10735.92
593.876	10784.5
594.235	10708.12
594.593	10733.43
594.952	10669.48
595.311	10661.8
595.67	10704.51
596.029	10682.81
596.387	10764.62
596.746	10662.25
597.104	10619.99
597.463	10664.73
597.822	10709.48
598.18	10674.9
598.538	10644.85
598.897	10720.33
599.255	10617.28
599.613	10764.39
599.972	10633.77
600.33	10717.39
600.688	10581.12
601.046	10691.85
601.404	10680.33
601.762	10662.25
602.12	10687.33
602.478	10721.91
602.836	10683.49
603.194	10575.02
603.552	10574.34
603.91	10586.77
604.268	10691.17
604.625	10547
604.983	10609.14
605.341	10584.74
605.698	10658.18
606.056	10622.93
606.413	10597.39
606.771	10669.25
607.128	10702.02
607.485	10647.33
607.843	10675.35
608.2	10638.75
608.557	10734.56
608.914	10716.94
609.272	10723.94
609.629	10721
609.986	10755.58
610.343	10649.37
610.7	10855.46
611.057	10794.22
611.414	10667.67
611.771	10732.08
612.127	10686.43
612.484	10825.41
612.841	10752.19
613.198	10720.55
613.554	10759.19
613.911	10826.31
614.267	10786.31
614.624	10792.41
614.98	10722.13
615.337	10839.87
615.693	10798.74
616.05	10753.77
616.406	10869.47
616.762	10831.96
617.118	10843.03
617.475	10804.84
617.831	10889.13
618.187	10878.06
618.543	10850.27
618.899	10947.89
619.255	10859.76
619.611	10863.15
619.967	10910.83
620.323	10930.49
620.678	10875.12
621.034	10841.68
621.39	10835.8
621.746	10869.93
622.101	10924.84
622.457	10799.65
622.812	10895.46
623.168	10859.3
623.523	10875.8
623.879	10896.14
624.234	10912.64
624.589	10844.39
624.945	10882.81
625.3	10907.44
625.655	11023.37
626.01	10854.79
626.365	10875.58
626.72	10883.94
627.075	10846.2
627.43	10838.51
627.785	10821.11
628.14	10831.73
628.495	10820.44
628.85	10812.53
629.205	10806.88
629.559	10844.39
629.914	10823.83
630.269	10838.29
630.623	10756.26
630.978	10746.54
631.332	10763.94
631.687	10835.35
632.041	10732.98
632.396	10745.41
632.75	10742.25
633.104	10717.39
633.459	10603.27
633.813	10651.63
634.167	10634.68
634.521	10673.1
634.875	10676.03
635.229	10695.02
635.583	10590.61
635.937	10584.28
636.291	10519.2
636.645	10587
636.999	10550.39
637.352	10543.61
637.706	10508.35
638.06	10574.11
638.413	10509.26
638.767	10540.44
639.121	10471.52
639.474	10467.22
639.828	10448.69
640.181	10551.74
640.534	10530.5
640.888	10432.65
641.241	10396.04
641.594	10409.15
641.947	10459.54
642.301	10304.29
642.654	10410.73
643.007	10387.9
643.36	10412.76
643.713	10295.48
644.066	10388.13
644.419	10402.59
644.771	10342.03
645.124	10248.93
645.477	10170.74
645.83	10105.88
646.182	10078.08
646.535	9975.94
646.888	10077.18
647.24	10000.34
647.593	9984.98
647.945	10013.68
648.298	9963.28
648.65	9932.32
649.002	9914.7
649.355	10058.87
649.707	10024.98
650.059	9984.98
650.411	10122.6
650.763	10124.86
651.115	10246.67
651.467	10248.93
651.819	10162.83
652.171	10144.3
652.523	10185.2
652.875	10196.95
653.227	10085.77
653.578	10239.21
653.93	10205.99
654.282	10202.37
654.633	10158.76
654.985	10132.77
655.337	10196.05
655.688	10225.2
656.039	10203.28
656.391	10186.33
656.742	10185.2
657.094	10212.54
657.445	10219.1
657.796	10168.7
658.147	10188.36
658.498	10180.23
658.849	10184.29
659.2	10219.32
659.551	10236.27
659.902	10138.87
660.253	10180.23
660.604	10260.45
660.955	10274.46
661.306	10170.06
661.656	10183.84
662.007	10174.8
662.358	10246.21
662.708	10279.21
663.059	10256.16
663.409	10205.08
663.76	10209.15
664.11	10223.84
664.461	10275.37
664.811	10226.1
665.161	10177.29
665.511	10194.46
665.862	10225.65
666.212	10241.24
666.562	10243.28
666.912	10195.37
667.262	10259.77
667.612	10221.58
667.962	10225.2
668.312	10227.01
668.662	10247.12
669.011	10197.63
669.361	10208.02
669.711	10228.36
670.06	10224.29
670.41	10190.62
670.76	10144.52
671.109	10199.21
671.459	10171.64
671.808	10157.85
672.157	10249.6
672.507	10101.36
672.856	10097.97
673.205	10143.62
673.554	10143.62
673.904	10082.38
674.253	10143.17
674.602	10155.37
674.951	10016.62
675.3	9927.13
675.649	10162.6
675.998	10025.43
676.346	10051.64
676.695	10097.07
677.044	10018.87
677.393	10089.61
677.741	10043.28
678.09	10010.51
678.438	9991.98
678.787	10066.56
679.135	9979.55
679.484	9953.11
679.832	9989.27
680.181	9883.06
680.529	9905.21
680.877	9901.14
681.225	9928.71
681.573	9935.49
681.922	9863.4
682.27	9810.52
682.618	9788.6
682.966	9815.94
683.314	9795.6
683.661	9829.28
684.009	9717.64
684.357	9763.06
684.705	9714.93
685.053	9702.95
685.4	9712.44
685.748	9577.98
686.095	9576.4
686.443	9573.46
686.79	9565.33
687.138	9549.73
687.485	9533.92
687.832	9532.33
688.18	9502.28
688.527	9440.36
688.874	9452.11
689.221	9357.65
689.568	9407.14
689.915	9352.9
690.262	9326.01
690.609	9300.25
690.956	9324.66
691.303	9357.65
691.65	9263.41
691.997	9179.12
692.344	9214.38
692.69	9120.59
693.037	9141.61
693.383	8992.91
693.73	9062.97
694.077	9010.77
694.423	8987.49
694.769	8999.24
695.116	8975.06
695.462	8911.56
695.808	8921.95
696.155	8908.4
696.501	8763.99
696.847	8786.82
697.193	8732.81
697.539	8733.71
697.885	8684.67
698.231	8658.23
698.577	8643.32
698.923	8595.18
699.269	8586.37
699.614	8517.45
699.96	8552.25
700.306	8500.27
700.651	8444.23
700.997	8449.65
701.342	8386.6
701.688	8430.89
702.033	8325.36
702.379	8312.25
702.724	8278.36
703.069	8313.16
703.415	8190.67
703.76	8242.88
704.105	8218.92
704.45	8201.07
704.795	8089.66
705.14	8122.88
705.485	8094.41
705.83	8036.1
706.175	7997.23
706.52	7980.96
706.865	8003.56
707.209	7983.45
707.554	7918.14
707.899	7922.43
708.243	7868.42
708.588	7863.9
708.932	7770.57
709.277	7842.44
709.621	7800.63
709.966	7750.69
710.31	7732.61
710.654	7711.59
710.998	7688.99
711.342	7690.12
711.687	7698.26
712.031	7678.6
712.375	7632.95
712.719	7644.47
713.063	7567.41
713.407	7616
713.75	7591.37
714.094	7537.58
714.438	7502.33
714.782	7508.43
715.125	7497.36
715.469	7513.4
715.812	7400.86
716.156	7403.35
716.499	7483.8
716.843	7456.91
717.186	7385.72
717.53	7417.81
717.873	7429.11
718.216	7396.57
718.559	7370.58
718.902	7295.33
719.246	7362
719.589	7330.58
719.932	7303.69
720.275	7256.91
720.617	7337.36
720.96	7291.94
721.303	7291.04
721.646	7282.68
721.989	7240.42
722.331	7257.14
722.674	7257.37
723.016	7280.19
723.359	7288.55
723.701	7244.26
724.044	7234.09
724.386	7116.8
724.729	7232.51
725.071	7169.23
725.413	7256.69
725.755	7194.09
726.097	7132.4
726.439	7152.51
726.782	7142.79
727.124	7139.63
727.465	7115.67
727.807	7120.65
728.149	7072.96
728.491	7113.64
728.833	7098.05
729.175	7079.74
729.516	7108.67
729.858	7097.37
730.199	7086.52
730.541	7126.75
730.882	7121.1
731.224	7091.04
731.565	7052.63
731.906	7099.63
732.248	7121.32
732.589	7081.33
732.93	7087.65
733.271	7097.37
733.612	7049.69
733.953	7139.63
734.294	7107.99
734.635	7079.29
734.976	7076.81
735.317	7008.33
735.658	7100.76
735.999	7061.44
736.339	7077.94
736.68	7108.22
737.021	7170.59
737.361	7079.52
737.702	7100.99
738.042	7130.82
738.383	7091.72
738.723	7098.27
739.063	7134.43
739.404	7170.36
739.744	7097.37
740.084	7166.75
740.424	7190.25
740.764	7157.03
741.104	7234.32
741.444	7183.7
741.784	7166.29
742.124	7240.42
742.464	7215.78
742.804	7322.67
743.143	7250.81
743.483	7330.13
743.823	7289.46
744.162	7327.19
744.502	7349.34
744.841	7320.87
745.181	7433.18
745.52	7368.1
745.86	7520.41
746.199	7436.8
746.538	7498.72
746.877	7623.91
747.216	7608.99
747.556	7603.35
747.895	7668.65
748.234	7715.66
748.573	7763.79
748.911	7816.22
749.25	7878.14
749.589	7881.3
749.928	7968.31
750.267	8062.77
750.605	8071.36
750.944	8164.01
751.283	8245.14
751.621	8305.02
751.96	8360.39
752.298	8437.22
752.636	8539.37
752.975	8557.9
753.313	8662.3
753.651	8824.78
753.989	8848.74
754.327	8978
754.666	9069.3
755.004	9204.66
755.342	9342.28
755.679	9429.96
756.017	9535.27
756.355	9709.5
756.693	9817.52
757.031	9993.11
757.368	10077.4
757.706	10200.34
758.044	10331.86
758.381	10562.59
758.719	10624.28
759.056	10771.85
759.394	10954.67
759.731	11045.29
760.068	11217.71
760.405	11310.14
760.743	11369.8
761.08	11694.09
761.417	11710.36
761.754	11972.5
762.091	12154.86
762.428	12316.44
762.765	12352.37
763.102	12592.82
763.438	12798.69
763.775	12886.82
764.112	13040.04
764.449	13296.98
764.785	13339.01
765.122	13560.48
765.458	13654.71
765.795	13818.78
766.131	13928.83
766.467	14089.5
766.804	14163.17
767.14	14307.8
767.476	14586.21
767.812	14575.82
768.148	14768.58
768.485	14938.97
768.821	14929.71
769.157	15098.29
769.492	15153.88
769.828	15512.97
770.164	15383.03
770.5	15537.37
770.836	15663.92
771.171	15731.49
771.507	15825.95
771.842	15924.93
772.178	16046.06
772.513	16181.65
772.849	16319.95
773.184	16345.71
773.519	16288.09
773.855	16434.98
774.19	16585.93
774.525	16693.73
774.86	16678.13
775.195	16722.88
775.53	16768.3
775.865	16870.9
776.2	16853.05
776.535	16830.22
776.87	17011.01
777.205	17034.96
777.539	16995.87
777.874	17109.54
778.209	17039.71
778.543	17160.83
778.878	17208.97
779.212	17231.11
779.547	17140.95
779.881	17364.67
780.215	17267.95
780.55	17351.11
780.884	17407.38
781.218	17344.11
781.552	17411.9
781.886	17392.47
782.22	17433.82
782.554	17402.18
782.888	17284.67
783.222	17343.65
783.556	17319.02
783.889	17261.17
784.223	17251.23
784.557	17355.41
784.89	17356.76
785.224	17276.99
785.557	17381.17
785.891	17295.97
786.224	17210.1
786.558	17404.22
786.891	17200.16
787.224	17190.89
787.557	17189.99
787.891	17204.67
788.224	17238.35
788.557	17241.51
788.89	17168.74
789.223	17152.7
789.556	17107.73
789.888	17134.39
790.221	17023.66
790.554	16981.18
790.887	17046.03
791.219	16953.83
791.552	16994.74
791.884	16915.19
792.217	16950.44
792.549	16837.68
792.882	16754.52
793.214	16685.59
793.546	16754.97
793.879	16649.66
794.211	16598.14
794.543	16705.03
794.875	16582.32
795.207	16641.07
795.539	16645.59
795.871	16638.81
796.203	16537.8
796.535	16424.81
796.867	16450.8
797.198	16401.98
797.53	16463.23
797.862	16280.41
798.193	16399.95
798.525	16241.76
798.856	16238.37
799.188	16117.02
799.519	16132.39
799.85	16076.79
800.182	16069.56
800.513	15983.92
800.844	15967.19
801.175	16070.24
801.506	16065.5
801.837	15917.7
802.168	15942.79
802.499	15838.83
802.83	15769.91
803.161	15820.76
803.491	15764.49
803.822	15722.91
804.153	15695.56
804.483	15693.53
804.814	15479.97
805.145	15568.11
805.475	15633.42
805.805	15401.33
806.136	15470.48
806.466	15435.23
806.796	15363.82
807.126	15387.1
807.457	15313.65
807.787	15312.07
808.117	15270.49
808.447	15164.73
808.777	15223.94
809.107	15109.59
809.436	15197.5
809.766	15091.96
810.096	15000.44
810.426	15059.65
810.755	15072.53
811.085	15089.93
811.414	14976.94
811.744	14882.02
812.073	14806.32
812.403	14833.66
812.732	14844.51
813.061	14775.81
813.39	14703.5
813.719	14729.49
814.049	14784.4
814.378	14760.22
814.707	14643.39
815.036	14621.92
815.365	14552.99
815.693	14561.35
816.022	14587.79
816.351	14464.86
816.68	14372.43
817.008	14454.46
817.337	14340.34
817.665	14296.28
817.994	14414.69
818.322	14290.4
818.651	14252.44
818.979	14164.98
819.307	14241.36
819.636	14233
819.964	14156.62
820.292	14232.78
820.62	14184.64
820.948	14140.57
821.276	14211.76
821.604	14104.42
821.932	14191.19
822.259	14207.01
822.587	14274.81
822.915	14169.5
823.243	14186.68
823.57	14160.24
823.898	14191.87
824.225	14134.47
824.553	14139.67
824.88	14225.09
825.207	14139.9
825.535	14144.19
825.862	14211.76
826.189	14189.84
826.516	14220.12
826.843	14259.22
827.17	14180.35
827.497	14246.56
827.824	14253.79
828.151	14284.75
828.478	14229.16
828.805	14314.58
829.131	14204.53
829.458	14234.13
829.785	14178.31
830.111	14171.08
830.438	14302.15
830.764	14224.19
831.09	14285.2
831.417	14216.05
831.743	14353
832.069	14182.16
832.395	14171.53
832.722	14211.31
833.048	14074.59
833.374	14161.82
833.7	14146.68
834.026	14176.05
834.351	14171.08
834.677	14136.96
835.003	14204.53
835.329	14144.42
835.654	14034.81
835.98	13995.04
836.306	14012.67
836.631	13948.72
836.956	14074.59
837.282	14044.53
837.607	13917.3
837.932	13999.56
838.258	13917.76
838.583	13886.12
838.908	13827.59
839.233	13908.04
839.558	13852.67
839.883	13692.22
840.208	13739.91
840.533	13790.75
840.858	13809.51
841.182	13686.8
841.507	13757.31
841.832	13640.7
842.156	13678.89
842.481	13563.64
842.805	13622.85
843.13	13567.93
843.454	13527.26
843.778	13515.96
844.103	13376.07
844.427	13450.88
844.751	13459.01
845.075	13372.91
845.399	13300.82
845.723	13236.87
846.047	13340.6
846.371	13159.36
846.695	13200.26
847.019	13062.18
847.343	12977.44
847.666	12899.25
847.99	12933.37
848.313	12912.13
848.637	12790.33
848.96	12825.81
849.284	12700.61
849.607	12655.87
849.931	12633.27
850.254	12544.68
850.577	12523.89
850.9	12415.87
851.223	12430.34
851.546	12385.37
851.869	12293.17
852.192	12361.86
852.515	12142.21
852.838	12079.16
853.161	12197.12
853.483	12163.45
853.806	12096.56
854.129	12040.52
854.451	12036.22
854.774	11966.39
855.096	11892.72
855.419	11873.97
855.741	11833.06
856.063	11779.73
856.385	11780.64
856.708	11699.06
857.03	11762.11
857.352	11679.85
857.674	11648.66
857.996	11572.73
858.318	11545.16
858.64	11556.24
858.961	11493.41
859.283	11405.28
859.605	11393.3
859.926	11348.33
860.248	11374.09
860.57	11342.23
860.891	11289.58
861.212	11289.58
861.534	11243.02
861.855	11188.11
862.176	11168.22
862.498	11126.19
862.819	11193.08
863.14	11152.4
863.461	11153.08
863.782	11084.38
864.103	11088.23
864.424	11006.87
864.745	11022.46
865.065	10980.21
865.386	10922.81
865.707	10949.25
866.027	10895.46
866.348	10929.81
866.668	10969.58
866.989	10912.41
867.309	10812.53
867.63	10879.42
867.95	10855.01
868.27	10748.35
868.59	10827.67
868.91	10782.92
869.23	10704.73
869.55	10676.71
869.87	10784.05
870.19	10760.55
870.51	10676.71
870.83	10702.02
871.15	10577.5
871.469	10712.87
871.789	10650.72
872.109	10614.57
872.428	10581.12
872.748	10589.71
873.067	10571.85
873.386	10607.56
873.706	10582.93
874.025	10454.34
874.344	10483.27
874.663	10466.09
874.982	10473.1
875.301	10428.81
875.62	10468.81
875.939	10343.61
876.258	10354.91
876.577	10327.57
876.896	10388.36
877.214	10329.15
877.533	10367.79
877.852	10301.13
878.17	10290.96
878.489	10234.91
878.807	10292.99
879.125	10253.45
879.444	10258.64
879.762	10158.08
880.08	10221.58
880.398	10193.11
880.716	10222.26
881.034	10116.05
881.352	10113.34
881.67	10090.96
881.988	10104.52
882.306	10041.25
882.624	9997.63
882.941	9960.35
883.259	9930.06
883.577	9893.91
883.894	9860.69
884.212	9909.95
884.529	9898.65
884.846	9855.26
885.164	9818.88
885.481	9817.75
885.798	9837.18
886.115	9692.1
886.432	9742.05
886.75	9687.81
887.067	9709.05
887.383	9649.62
887.7	9689.39
888.017	9653.46
888.334	9559.45
888.651	9583.41
888.967	9569.4
889.284	9495.27
889.6	9463.64
889.917	9452.11
890.233	9392.9
890.55	9404.88
890.866	9416.18
891.182	9331.21
891.498	9384.99
891.815	9316.97
892.131	9259.8
892.447	9254.15
892.763	9216.18
893.079	9243.08
893.395	9193.81
893.71	9097.09
894.026	9121.05
894.342	9062.29
894.657	9040.14
894.973	9079.24
895.289	9006.7
895.604	8961.5
895.92	8872.69
896.235	8830.66
896.55	8869.07
896.865	8900.94
897.181	8831.79
897.496	8853.71
897.811	8793.82
898.126	8756.31
898.441	8722.64
898.756	8696.2
899.071	8658.01
899.386	8655.52
899.7	8545.92
900.015	8496.66
900.33	8453.94
900.644	8475.64
900.959	8518.8
901.273	8395.41
901.588	8438.35
901.902	8334.17
902.216	8354.29
902.531	8331.24
902.845	8282.88
903.159	8251.01
903.473	8215.76
903.787	8126.72
904.101	8180.51
904.415	8095.76
904.729	8096.21
905.042	8043.79
905.356	7935.77
905.67	8022.54
905.984	7989.32
906.297	7921.53
906.611	7898.93
906.924	7880.17
907.237	7837.24
907.551	7842.44
907.864	7797.46
908.177	7775.09
908.491	7781.42
908.804	7642.67
909.117	7640.18
909.43	7628.88
909.743	7573.52
910.056	7591.14
910.368	7549.56
910.681	7506.62
910.994	7512.27
911.307	7414.42
911.619	7385.05
911.932	7396.35
912.244	7317.48
912.557	7328.32
912.869	7262.11
913.181	7284.71
913.494	7258.95
913.806	7188.89
914.118	7171.27
914.43	7081.1
914.742	7095.56
915.054	7057.82
915.366	7044.49
915.678	7075.45
915.99	6984.6
916.302	6935.79
916.613	6960.88
916.925	6875.68
917.236	6933.98
917.548	6839.3
917.859	6846.76
918.171	6807.66
918.482	6803.14
918.794	6660.55
919.105	6691.73
919.416	6670.49
919.727	6706.87
920.038	6579.19
920.349	6621.68
920.66	6535.12
920.971	6565.86
921.282	6552.98
921.593	6461.23
921.903	6416.71
922.214	6433.88
922.525	6422.81
922.835	6357.05
923.146	6285.87
923.456	6355.47
923.767	6304.17
924.077	6235.47
924.387	6277.96
924.697	6247.22
925.008	6190.5
925.318	6135.14
925.628	6218.3
925.938	6118.64
926.248	6050.84
926.558	6144.85
926.867	6035.7
927.177	6028.92
927.487	6037.06
927.796	5947.8
928.106	5978.76
928.416	5955.48
928.725	5864.86
929.034	5872.77
929.344	5882.94
929.653	5852.66
929.962	5775.14
930.271	5785.31
930.581	5765.43
930.89	5738.54
931.199	5746.67
931.508	5735.6
931.817	5719.1
932.125	5679.55
932.434	5606.34
932.743	5592.32
933.051	5563.17
933.36	5545.09
933.669	5537.86
933.977	5508.94
934.286	5467.36
934.594	5451.09
934.902	5443.63
935.21	5413.57
935.519	5351.65
935.827	5376.96
936.135	5411.31
936.443	5364.99
936.751	5308.04
937.059	5295.38
937.367	5292.22
937.674	5246.57
937.982	5185.33
938.29	5205.89
938.597	5180.13
938.905	5143.75
939.213	5152.56
939.52	5091.32
939.827	5078.21
940.135	5077.31
940.442	5006.35
940.749	5002.51
941.056	5037.76
941.363	4918.9
941.67	4938.1
941.977	4932
942.284	4921.61
942.591	4911.89
942.898	4878.22
943.205	4857.2
943.511	4811.55
943.818	4804.77
944.125	4765.23
944.431	4764.32
944.738	4704.44
945.044	4721.39
945.35	4729.07
945.657	4653.14
945.963	4666.7
946.269	4653.37
946.575	4636.87
946.881	4561.62
947.187	4615.63
947.493	4570.2
947.799	4552.58
948.105	4540.37
948.41	4567.04
948.716	4481.39
949.022	4431.68
949.327	4478.68
949.633	4438.46
949.938	4397.55
950.244	4403.66
950.549	4370.44
950.854	4348.29
951.16	4397.1
951.465	4346.71
951.77	4308.29
952.075	4278.91
952.38	4299.03
952.685	4250.44
952.99	4224.9
953.294	4186.26
953.599	4195.98
953.904	4191.46
954.209	4169.31
954.513	4133.83
954.818	4092.03
955.122	4113.95
955.426	4107.39
955.731	4116.43
956.035	4057.68
956.339	4064.68
956.643	4055.42
956.948	4013.61
957.252	4008.41
957.556	4028.98
957.86	3947.85
958.163	3945.59
958.467	3978.58
958.771	3912.59
959.075	3903.56
959.378	3915.08
959.682	3857.46
959.985	3848.42
960.289	3838.02
960.592	3790.34
960.896	3787.4
961.199	3812.26
961.502	3783.56
961.805	3746.27
962.108	3715.09
962.411	3689.55
962.714	3738.59
963.017	3686.61
963.32	3690.45
963.623	3651.36
963.926	3660.4
964.228	3651.81
964.531	3569.1
964.833	3568.88
965.136	3550.57
965.438	3549.89
965.741	3538.14
966.043	3543.79
966.345	3530.46
966.648	3504.24
966.95	3502.66
967.252	3490.01
967.554	3473.96
967.856	3458.14
968.158	3432.83
968.46	3442.78
968.761	3438.26
969.063	3403
969.365	3340.18
969.666	3422.89
969.968	3357.81
970.269	3333.4
970.571	3341.54
970.872	3294.31
971.174	3257.92
971.475	3288.88
971.776	3237.58
972.077	3214.31
972.378	3226.29
972.679	3216.79
972.98	3196
973.281	3162.11
973.582	3157.59
973.883	3146.06
974.183	3157.59
974.484	3114.88
974.785	3114.42
975.085	3103.8
975.386	3099.28
975.686	3083.01
975.986	3053.18
976.287	3044.6
976.587	3039.62
976.887	3024.71
977.187	3004.37
977.487	2986.97
977.787	2978.16
978.087	2984.71
978.387	2919.63
978.687	2961.66
978.987	2930.02
979.286	2937.03
979.586	2892.96
979.885	2914.43
980.185	2870.59
980.484	2837.37
980.784	2834.43
981.083	2846.41
981.382	2826.75
981.682	2827.65
981.981	2778.16
982.28	2785.84
982.579	2791.04
982.878	2775.68
983.177	2744.94
983.475	2733.19
983.774	2722.8
984.073	2741.1
984.372	2686.64
984.67	2695.45
984.969	2700.65
985.267	2690.48
985.566	2676.7
985.864	2625.85
986.162	2631.95
986.461	2628.11
986.759	2590.82
987.057	2600.76
987.355	2584.04
987.653	2567.55
987.951	2584.72
988.249	2572.29
988.547	2563.25
988.844	2514.21
989.142	2537.49
989.44	2499.3
989.737	2495.68
990.035	2468.34
990.332	2455.68
990.63	2470.37
990.927	2446.64
991.224	2421.11
991.521	2397.15
991.819	2431.96
992.116	2393.54
992.413	2384.95
992.71	2365.52
993.006	2393.99
993.303	2366.87
993.6	2327.78
993.897	2337.04
994.193	2323.94
994.49	2318.06
994.787	2287.1
995.083	2256.59
995.379	2267.67
995.676	2278.06
995.972	2291.39
996.268	2258.63
996.565	2260.43
996.861	2220.89
997.157	2231.06
997.453	2175.92
997.749	2219.53
998.044	2183.15
998.34	2193.77
998.636	2162.81
998.932	2138.86
999.227	2105.41
999.523	2140.66
999.818	2115.81
1000.114	2117.39
1000.409	2102.7
1000.704	2070.61
1001	2074.9
1001.295	2031.51
1001.59	2021.8
1001.885	2012.08
1002.18	2004.17
1002.475	2024.51
1002.77	2020.44
1003.065	1994.23
1003.359	2017.28
1003.654	2024.96
1003.949	1932.76
1004.243	1965.75
1004.538	1916.49
1004.832	1947
1005.127	1937.51
1005.421	1910.16
1005.715	1874.23
1006.009	1894.34
1006.304	1877.17
1006.598	1880.11
1006.892	1890.73
1007.186	1827.9
1007.48	1818.86
1007.773	1834.01
1008.067	1807.11
1008.361	1789.49
1008.655	1790.62
1008.948	1781.35
1009.242	1765.76
1009.535	1727.12
1009.829	1714.46
1010.122	1752.43
1010.415	1762.37
1010.708	1771.86
1011.001	1723.05
1011.295	1702.94
1011.588	1697.06
1011.881	1686.44
1012.173	1685.08
1012.466	1652.32
1012.759	1629.49
1013.052	1648.02
1013.344	1615.93
1013.637	1615.03
1013.93	1615.25
1014.222	1660
1014.514	1610.06
1014.807	1584.75
1015.099	1576.61
1015.391	1588.81
1015.683	1566.89
1015.976	1574.58
1016.268	1566.22
1016.56	1524.41
1016.851	1521.47
1017.143	1516.05
1017.435	1513.34
1017.727	1512.21
1018.018	1490.06
1018.31	1458.65
1018.602	1466.56
1018.893	1469.04
1019.185	1469.04
1019.476	1448.7
1019.767	1432.66
1020.058	1424.75
1020.35	1415.49
1020.641	1409.61
1020.932	1394.92
1021.223	1417.29
1021.514	1365.77
1021.804	1380.46
1022.095	1387.46
1022.386	1385.66
1022.677	1335.26
1022.967	1314.47
1023.258	1335.04
1023.548	1324.87
1023.839	1326
1024.129	1309.73
1024.419	1303.85
1024.709	1300.91
1025	1271.53
1025.29	1282.16
1025.58	1254.36
1025.87	1250.97
1026.16	1234.7
1026.449	1246.68
1026.739	1250.07
1027.029	1211.87
1027.319	1207.36
1027.608	1204.19
1027.898	1209.62
1028.187	1215.04
1028.477	1170.75
1028.766	1200.58
1029.055	1166.23
1029.344	1169.16
1029.634	1160.35
1029.923	1129.17
1030.212	1132.55
1030.501	1144.08
1030.79	1148.83
1031.078	1107.24
1031.367	1098.66
1031.656	1067.25
1031.945	1058.21
1032.233	1093.23
1032.522	1080.35
1032.81	1074.93
1033.099	1079.45
1033.387	1051.65
1033.675	1050.52
1033.963	1034.03
1034.251	1069.96
1034.54	1050.07
1034.828	1032.44
1035.116	999.9
1035.403	1033.8
1035.691	1005.1
1035.979	1009.39
1036.267	978.66
1036.554	981.82
1036.842	960.13
1037.129	987.47
1037.417	976.4
1037.704	989.73
1037.992	969.85
1038.279	944.54
1038.566	951.09
1038.853	951.09
1039.14	951.09
