Data from hue_60_FLMS001491_92.txt Node
Date: Mon Feb 06 15:18:12 GMT 2017
User: dcchb
Spectrometer: FLMS00149
Trigger mode: 0
Integration Time (sec): 2.000000E-2
Scans to average: 10
Electric dark correction enabled: true
Nonlinearity correction enabled: false
Boxcar width: 0
XAxis mode: Wavelengths
Number of Pixels in Spectrum: 2048
>>>>>Begin Spectral Data<<<<<
341.393	-28.06
341.776	-28.06
342.16	-28.06
342.543	-44.11
342.927	-64.67
343.31	-77.55
343.693	-71.23
344.077	-62.87
344.46	-60.61
344.843	-37.33
345.226	-51.79
345.61	-46.37
345.993	-13.38
346.376	-15.64
346.759	25.72
347.142	29.79
347.525	50.13
347.908	54.19
348.291	91.48
348.674	69.56
349.057	115.89
349.44	121.08
349.823	151.82
350.206	158.6
350.588	187.52
350.971	229.78
351.354	218.48
351.737	246.28
352.119	261.65
352.502	276.56
352.884	284.92
353.267	296.45
353.65	297.12
354.032	313.85
354.414	291.93
354.797	319.5
355.179	330.57
355.562	347.29
355.944	312.49
356.326	337.12
356.709	342.77
357.091	353.85
357.473	335.99
357.855	358.59
358.238	354.75
358.62	346.39
359.002	349.33
359.384	356.33
359.766	333.73
360.148	330.34
360.53	364.92
360.912	365.82
361.294	339.61
361.676	339.38
362.057	348.2
362.439	325.82
362.821	326.73
363.203	340.97
363.584	333.06
363.966	344.13
364.348	328.76
364.729	331.93
365.111	347.07
365.493	312.04
365.874	297.58
366.256	329.89
366.637	310.91
367.019	332.6
367.4	310.68
367.781	302.55
368.163	341.64
368.544	317.24
368.925	325.82
369.306	339.84
369.688	329.21
370.069	314.75
370.45	320.4
370.831	315.66
371.212	325.37
371.593	312.27
371.974	298.71
372.355	287.63
372.736	309.1
373.117	345.03
373.498	327.86
373.879	343
374.26	330.34
374.641	314.98
375.021	332.38
375.402	340.06
375.783	323.79
376.163	347.29
376.544	326.73
376.925	331.93
377.305	347.29
377.686	325.37
378.066	326.5
378.447	353.17
378.827	358.37
379.208	346.16
379.588	335.54
379.968	345.71
380.349	323.34
380.729	345.49
381.109	353.39
381.489	350.46
381.87	351.13
382.25	337.12
382.63	354.98
383.01	329.67
383.39	338.71
383.77	350.46
384.15	364.92
384.53	358.37
384.91	376.22
385.29	366.05
385.67	371.02
386.049	369.67
386.429	372.38
386.809	352.94
387.189	363.34
387.568	355.43
387.948	360.63
388.328	368.31
388.707	358.59
389.087	369.67
389.466	384.13
389.846	373.73
390.225	367.63
390.605	368.76
390.984	370.57
391.363	362.21
391.743	361.3
392.122	398.59
392.501	369.67
392.881	378.93
393.26	372.38
393.639	368.08
394.018	373.28
394.397	360.4
394.776	387.29
395.155	369.67
395.534	399.5
395.913	406.05
396.292	387.29
396.671	370.57
397.05	393.17
397.429	400.85
397.808	393.62
398.186	387.97
398.565	413.73
398.944	383.22
399.323	421.19
399.701	414.86
400.08	402.43
400.458	377.8
400.837	395.65
401.215	394.98
401.594	420.29
401.972	416.9
402.351	411.92
402.729	411.92
403.107	412.83
403.486	419.38
403.864	405.6
404.242	416.44
404.62	418.03
404.999	425.26
405.377	420.51
405.755	432.04
406.133	414.41
406.511	435.43
406.889	434.97
407.267	425.26
407.645	448.99
408.023	445.37
408.401	442.66
408.779	466.84
409.156	454.41
409.534	459.38
409.912	441.53
410.29	477.69
410.667	459.83
411.045	465.26
411.422	467.74
411.8	481.98
412.178	466.84
412.555	479.04
412.933	496.22
413.31	499.61
413.687	488.98
414.065	486.72
414.442	498.02
414.819	502.09
415.197	505.03
415.574	496.67
415.951	512.03
416.328	514.29
416.705	525.82
417.082	527.18
417.46	512.94
417.837	521.07
418.214	534.18
418.591	539.38
418.967	524.69
419.344	533.5
419.721	550.9
420.098	536.44
420.475	540.73
420.852	526.5
421.228	547.97
421.605	545.71
421.982	549.1
422.358	547.74
422.735	565.59
423.111	555.42
423.488	567.4
423.864	576.67
424.241	569.43
424.617	573.28
424.994	562.43
425.37	602.2
425.746	592.94
426.123	596.78
426.499	585.03
426.875	584.58
427.251	598.81
427.627	596.33
428.003	618.02
428.379	625.03
428.756	639.94
429.132	636.33
429.507	631.13
429.883	642.2
430.259	649.88
430.635	629.77
431.011	653.05
431.387	667.51
431.763	665.48
432.138	651.01
432.514	683.33
432.89	674.74
433.265	677.68
433.641	711.13
434.016	672.26
434.392	710
434.767	707.28
435.143	699.37
435.518	708.41
435.894	733.95
436.269	746.15
436.644	727.17
437.02	732.37
437.395	759.03
437.77	754.06
438.145	760.62
438.52	779.6
438.895	771.91
439.271	751.58
439.646	784.12
440.021	787.28
440.395	772.59
440.77	778.24
441.145	810.11
441.52	818.92
441.895	793.84
442.27	811.46
442.645	814.17
443.019	823.21
443.394	813.5
443.769	830.9
444.143	819.82
444.518	851.69
444.892	848.07
445.267	849.43
445.641	847.62
446.016	864.34
446.39	858.92
446.764	856.66
447.139	879.26
447.513	874.51
447.887	880.84
448.262	855.98
448.636	873.83
449.01	901.18
449.384	886.49
449.758	888.3
450.132	903.66
450.506	924.23
450.88	935.3
451.254	920.16
451.628	938.46
452.002	938.69
452.376	915.87
452.75	954.73
453.123	968.97
453.497	966.49
453.871	1001.51
454.244	1009.2
454.618	1008.74
454.992	996.09
455.365	1027.28
455.739	1055.98
456.112	1039.7
456.486	1058.69
456.859	1082.64
457.232	1091
457.606	1094.39
457.979	1103.21
458.352	1092.13
458.725	1123.32
459.099	1131.68
459.472	1150.44
459.845	1157.22
460.218	1174.39
460.591	1180.72
460.964	1168.29
461.337	1217.1
461.71	1233.37
462.083	1258.91
462.456	1246.93
462.829	1260.72
463.201	1276.76
463.574	1280.38
463.947	1309.08
464.32	1355.63
464.692	1322.63
465.065	1370.32
465.438	1387.72
465.81	1417.77
466.183	1428.85
466.555	1456.87
466.928	1474.27
467.3	1493.25
467.672	1490.54
468.045	1535.74
468.417	1570.76
468.789	1561.95
469.161	1581.61
469.534	1622.29
469.906	1655.73
470.278	1677.88
470.65	1705.68
471.022	1768.72
471.394	1797.65
471.766	1815.05
472.138	1845.78
472.51	1887.14
472.882	1906.57
473.253	1907.48
473.625	1997.65
473.997	2049.85
474.369	2079.68
474.74	2107.92
475.112	2155.38
475.484	2239.67
475.855	2256.85
476.227	2330.74
476.598	2359.44
476.97	2439.67
477.341	2528.93
477.713	2575.71
478.084	2608.48
478.455	2714.46
478.827	2805.99
479.198	2821.58
479.569	2927.79
479.94	2999.2
480.311	3078.07
480.682	3199.42
481.053	3266.99
481.424	3428.34
481.795	3506.08
482.166	3593.99
482.537	3635.12
482.908	3777.94
483.279	3878.5
483.65	3986.75
484.021	4142.45
484.391	4181.54
484.762	4291.82
485.133	4401.88
485.503	4527.07
485.874	4677.57
486.244	4800.96
486.615	4975.42
486.985	5043.21
487.356	5182.42
487.726	5329.54
488.097	5574.73
488.467	5646.14
488.837	5804.1
489.207	5957.54
489.578	6108.72
489.948	6250.87
490.318	6399.11
490.688	6541.93
491.058	6698.31
491.428	6915.71
491.798	7043.84
492.168	7264.63
492.538	7427.78
492.908	7593.43
493.278	7777.38
493.648	7916.81
494.017	8115.22
494.387	8255.11
494.757	8471.6
495.126	8599.96
495.496	8715.21
495.866	8917.01
496.235	9071.81
496.605	9264.8
496.974	9434.29
497.344	9607.39
497.713	9742.3
498.082	9942.97
498.452	10039.47
498.821	10253.02
499.19	10373.92
499.559	10531.66
499.928	10695.95
500.298	10948.37
500.667	11068.14
501.036	11142.72
501.405	11400.11
501.774	11544.51
502.143	11719.2
502.512	11863.15
502.88	12034.22
503.249	12159.41
503.618	12293.42
503.987	12389.91
504.356	12607.54
504.724	12747.19
505.093	12907.41
505.462	13072.16
505.83	13200.29
506.199	13390.57
506.567	13621.29
506.936	13685.93
507.304	13853.83
507.672	14000.04
508.041	14208.4
508.409	14372.01
508.777	14556.86
509.145	14747.82
509.514	14783.98
509.882	14982.16
510.25	15034.82
510.618	15261.7
510.986	15368.37
511.354	15609.04
511.722	15699.88
512.09	15915.02
512.458	16035.92
512.826	16212.86
513.193	16352.97
513.561	16339.42
513.929	16486.08
514.297	16733.08
514.664	16926.97
515.032	17056.91
515.4	17255.1
515.767	17306.62
516.135	17436.79
516.502	17402.21
516.869	17808.75
517.237	18009.2
517.604	17947.28
517.972	18221.4
518.339	18335.29
518.706	18342.98
519.073	18573.25
519.44	18715.62
519.808	18892.79
520.175	18916.3
520.542	19245.33
520.909	19424.08
521.276	19436.73
521.643	19680.12
522.009	19897.06
522.376	19925.76
522.743	20168.92
523.11	20300.44
523.477	20645.74
523.843	20691.39
524.21	20950.14
524.577	21135.9
524.943	21142
525.31	21337.02
525.676	21484.14
526.043	21674.42
526.409	21822.89
526.776	22085.93
527.142	22136.55
527.508	22298.35
527.874	22437.11
528.241	22502.42
528.607	22723.88
528.973	22968.62
529.339	22966.36
529.705	23130.65
530.071	23437.31
530.437	23514.37
530.803	23587.81
531.169	23816.96
531.535	23762.04
531.901	23870.52
532.267	23990.97
532.632	24125.65
532.998	24234.35
533.364	24458.98
533.73	24477.73
534.095	24767.67
534.461	24772.19
534.826	24953.65
535.192	24959.53
535.557	25238.62
535.923	25309.57
536.288	25312.96
536.653	25505.5
537.019	25388.67
537.384	25533.98
537.749	25705.95
538.114	25709.56
538.479	25874.31
538.845	25938.94
539.21	25926.06
539.575	26214.41
539.94	26118.37
540.305	26439.94
540.67	26339.38
541.034	26455.76
541.399	26502.54
541.764	26647.39
542.129	26800.61
542.494	26789.76
542.858	27051.45
543.223	26986.14
543.587	27229.07
543.952	27155.18
544.316	27171.67
544.681	27339.13
545.045	27406.24
545.41	27569.85
545.774	27559.68
546.138	27627.71
546.503	27809.85
546.867	27800.13
547.231	28005.55
547.595	28121.48
547.959	28185.43
548.324	28309.72
548.688	28263.4
549.052	28375.03
549.416	28480.79
549.779	28508.81
550.143	28673.1
550.507	28769.14
550.871	28744.51
551.235	28840.56
551.599	29050.95
551.962	29140.21
552.326	29164.16
552.689	29451.61
553.053	29345.85
553.417	29389.47
553.78	29807.08
554.143	29713.07
554.507	29822.9
554.87	29861.32
555.234	30197.13
555.597	30022.9
555.96	30161.65
556.323	30327.3
556.686	30307.86
557.05	30545.37
557.413	30756.44
557.776	30745.82
558.139	31010.89
558.502	31115.98
558.865	31180.38
559.228	31366.59
559.59	31468.28
559.953	31457.44
560.316	31837.76
560.679	31870.53
561.041	32106.68
561.404	32118.66
561.767	32312.1
562.129	32347.81
562.492	32570.4
562.854	32665.31
563.217	32757.97
563.579	32750.96
563.941	32872.09
564.304	33134.45
564.666	33311.4
565.028	33410.15
565.39	33562.24
565.753	33712.97
566.115	33809.24
566.477	33997.03
566.839	33948.22
567.201	34317.25
567.563	34340.98
567.925	34584.36
568.287	34657.35
568.648	34643.11
569.01	34801.98
569.372	35023.44
569.734	35037.68
570.095	35239.03
570.457	35342.53
570.819	35454.17
571.18	35321.29
571.542	35678.34
571.903	35699.58
572.265	35920.82
572.626	35940.26
572.987	36031.33
573.349	36013.25
573.71	36275.84
574.071	36416.63
574.432	36432.45
574.794	36640.58
575.155	36647.58
575.516	36543.18
575.877	36752.21
576.238	36954.69
576.599	37058.64
576.96	36980.91
577.32	37077.85
577.681	37278.07
578.042	37324.63
578.403	37292.54
578.763	37475.36
579.124	37395.58
579.485	37582.25
579.845	37545.64
580.206	37529.59
580.566	37615.92
580.927	37633.32
581.287	37792.18
581.648	37652.98
582.008	37895.68
582.368	37859.98
582.728	37900.88
583.089	37929.36
583.449	37863.37
583.809	37928
584.169	38032.63
584.529	37983.37
584.889	38225.39
585.249	38050.71
585.609	38074.66
585.969	38282.57
586.329	38072.18
586.688	38146.53
587.048	38191.95
587.408	38223.13
587.768	38240.08
588.127	38281.66
588.487	38175
588.846	38436.01
589.206	38153.98
589.565	38159.41
589.925	38371.6
590.284	38263.81
590.643	38212.96
591.003	38410.47
591.362	38629.68
591.721	38482.56
592.08	38409.57
592.44	38442.11
592.799	38588.32
593.158	38581.54
593.517	38454.09
593.876	38502.22
594.235	38441.66
594.593	38536.35
594.952	38638.26
595.311	38476.69
595.67	38797.13
596.029	39007.97
596.387	38847.98
596.746	39074.41
597.104	38775.66
597.463	38829.9
597.822	39003.45
598.18	38804.36
598.538	38863.34
598.897	38981.53
599.255	38800.97
599.613	39364.57
599.972	39127.52
600.33	39141.53
600.688	39121.64
601.046	39181.07
601.404	39331.58
601.762	39250.68
602.12	39412.48
602.478	39521.18
602.836	39569.09
603.194	39375.42
603.552	39402.76
603.91	39421.29
604.268	39567.05
604.625	39474.85
604.983	39696.99
605.341	39637.79
605.698	39744.9
606.056	39744.68
606.413	39826.26
606.771	40071.9
607.128	40080.94
607.485	39842.07
607.843	40029.19
608.2	40315.51
608.557	40395.51
608.914	40186.7
609.272	40395.96
609.629	40505.33
609.986	40581.94
610.343	40414.04
610.7	40740.81
611.057	40680.47
611.414	40775.38
611.771	40836.4
612.127	40943.51
612.484	40978.09
612.841	41122.49
613.198	40842.95
613.554	40958.65
613.911	41152.1
614.267	41338.98
614.624	41118.2
614.98	41436.61
615.337	41612.42
615.693	41328.81
616.05	41438.42
616.406	41595.47
616.762	41513.67
617.118	41537.4
617.475	41777.84
617.831	41715.24
618.187	41677.96
618.543	41788.24
618.899	42065.74
619.255	41837.28
619.611	42017.16
619.967	42209.92
620.323	42271.61
620.678	42234.33
621.034	42010.38
621.39	42148.91
621.746	42093.09
622.101	42575.79
622.457	42145.29
622.812	42316.81
623.168	42464.38
623.523	42433.19
623.879	42521.33
624.234	42325.85
624.589	42526.75
624.945	42594.54
625.3	42558.61
625.655	42541.21
626.01	42502.79
626.365	42688.55
626.72	42542.34
627.075	42643.13
627.43	42682
627.785	42565.62
628.14	42603.13
628.495	42663.47
628.85	42651.27
629.205	42409.92
629.559	42605.62
629.914	42552.96
630.269	42670.47
630.623	42558.84
630.978	42523.36
631.332	42836.35
631.687	42832.05
632.041	42530.59
632.396	42688.55
632.75	42579.63
633.104	42613.07
633.459	42454.89
633.813	42486.52
634.167	42460.99
634.521	42506.18
634.875	42486.3
635.229	42422.12
635.583	42310.48
635.937	42263.03
636.291	42232.52
636.645	42436.13
636.999	42314.55
637.352	42464.38
637.706	42172.18
638.06	42329.92
638.413	42066.87
638.767	42127.44
639.121	41970.83
639.474	42014.9
639.828	42032.75
640.181	41952.75
640.534	42004.05
640.888	41868.46
641.241	41824.85
641.594	41741.68
641.947	41872.08
642.301	41778.97
642.654	41840.44
643.007	41834.79
643.36	41781.46
643.713	41759.31
644.066	41913.21
644.419	41665.75
644.771	41475.03
645.124	40986.45
645.477	40995.94
645.83	40740.58
646.182	40632.79
646.535	40587.37
646.888	40638.66
647.24	40204.1
647.593	40500.36
647.945	40524.09
648.298	40319.35
648.65	40230.09
649.002	40167.94
649.355	40427.14
649.707	40303.08
650.059	40381.04
650.411	40850.18
650.763	41022.38
651.115	41340.57
651.467	41179.67
651.819	41131.76
652.171	41127.92
652.523	41022.61
652.875	40947.81
653.227	40832.33
653.578	41114.81
653.93	40966.79
654.282	40976.51
654.633	40844.31
654.985	40963.17
655.337	40918.43
655.688	40946
656.039	41095.83
656.391	40698.1
656.742	40820.13
657.094	40715.95
657.445	40831.65
657.796	40719.11
658.147	40734.25
658.498	40677.98
658.849	40774.03
659.2	40708.94
659.551	40537.65
659.902	40727.7
660.253	40685.67
660.604	40749.17
660.955	40559.8
661.306	40579.68
661.656	40562.51
662.007	40585.11
662.358	40593.92
662.708	40536.29
663.059	40630.53
663.409	40327.94
663.76	40582.17
664.11	40596.18
664.461	40674.37
664.811	40628.27
665.161	40530.64
665.511	40614.26
665.862	40513.02
666.212	40604.09
666.562	40529.29
666.912	40530.42
667.262	40456.07
667.612	40324.1
667.962	40408.16
668.312	40397.99
668.662	40569.51
669.011	40459.23
669.361	40392.57
669.711	40264.66
670.06	40387.37
670.41	40183.31
670.76	40216.98
671.109	40183.53
671.459	40416.75
671.808	40221.72
672.157	40306.92
672.507	39868.74
672.856	40068.51
673.205	40075.29
673.554	40150.77
673.904	40013.14
674.253	40310.76
674.602	39992.8
674.951	39712.59
675.3	39371.58
675.649	40023.99
675.998	39953.03
676.346	39946.48
676.695	40025.57
677.044	39803.66
677.393	40005.01
677.741	40065.34
678.09	39822.19
678.438	39899.25
678.787	39957.78
679.135	39911
679.484	39696.77
679.832	39790.55
680.181	39522.31
680.529	39736.31
680.877	39412.48
681.225	39341.75
681.573	39679.14
681.922	39403.22
682.27	39218.59
682.618	39329.54
682.966	39140.62
683.314	39140.62
683.661	39222.88
684.009	39018.14
684.357	38992.15
684.705	38836.68
685.053	38880.97
685.4	38782.21
685.748	38666.96
686.095	38665.61
686.443	38455.44
686.79	38570.47
687.138	38590.58
687.485	38529.57
687.832	38335.22
688.18	38373.86
688.527	38152.4
688.874	38079.18
689.221	38190.37
689.568	37943.14
689.915	38048
690.262	37932.75
690.609	37963.71
690.956	37814.78
691.303	37697.95
691.65	37603.94
691.997	37412.53
692.344	37225.87
692.69	37311.29
693.037	37257.06
693.383	37117.4
693.73	37290.5
694.077	37061.58
694.423	36899.55
694.769	36798.09
695.116	36753.79
695.462	36721.03
695.808	36486.46
696.155	36656.85
696.501	36340.02
696.847	36340.25
697.193	36087.14
697.539	36228.16
697.885	36037.43
698.231	35979.8
698.577	35918.56
698.923	35820.26
699.269	35552.92
699.614	35409.2
699.96	35486.26
700.306	35458.23
700.651	35289.88
700.997	35342.76
701.342	35137.56
701.688	34981.86
702.033	34975.31
702.379	34976.44
702.724	34767.41
703.069	34931.02
703.415	34598.14
703.76	34525.83
704.105	34586.62
704.45	34379.39
704.795	34355.89
705.14	34279.51
705.485	34289.68
705.83	34189.12
706.175	34077.71
706.52	33976.69
706.865	34007.88
707.209	33708.9
707.554	33737.38
707.899	33908.9
708.243	33714.78
708.588	33611.5
708.932	33311.4
709.277	33446.08
709.621	33351.4
709.966	33135.58
710.31	33155.92
710.654	32967.23
710.998	33013.78
711.342	32991.41
711.687	32845.2
712.031	32791.41
712.375	32619.21
712.719	32699.89
713.063	32601.36
713.407	32604.75
713.75	32528.14
714.094	32451.31
714.438	32276.62
714.782	32384.64
715.125	32132.67
715.469	32333.12
715.812	32129.73
716.156	31978.55
716.499	31887.48
716.843	31974.48
717.186	31873.24
717.53	31857.65
717.873	31819.69
718.216	31866.69
718.559	31634.15
718.902	31392.13
719.246	31359.59
719.589	31423.76
719.932	31198.91
720.275	31205.69
720.617	31253.6
720.96	31207.27
721.303	31176.54
721.646	31101.51
721.989	30983.1
722.331	30991.91
722.674	30953.72
723.016	30877.34
723.359	30899.94
723.701	30837.11
724.044	30773.84
724.386	30552.6
724.729	30866.04
725.071	30574.52
725.413	30619.49
725.755	30571.13
726.097	30470.79
726.439	30272.61
726.782	30281.65
727.124	30452.26
727.465	30247.52
727.807	30216.34
728.149	30144.48
728.491	30129.11
728.833	30164.81
729.175	30064.48
729.516	29908.32
729.858	29996.68
730.199	29933.63
730.541	29902
730.882	29787.42
731.224	29896.57
731.565	29682.34
731.906	29758.5
732.248	29771.38
732.589	29442.8
732.93	29448.67
733.271	29494.1
733.612	29391.5
733.953	29559.18
734.294	29433.08
734.635	29325.74
734.976	29403.25
735.317	29143.82
735.658	29120.1
735.999	29195.57
736.339	29271.05
736.68	29157.16
737.021	28987.44
737.361	28802.36
737.702	29107.67
738.042	29009.82
738.383	28945.19
738.723	28899.54
739.063	28805.08
739.404	28702.03
739.744	28760.33
740.084	28547
740.424	28703.61
740.764	28565.31
741.104	28751.07
741.444	28372.77
741.784	28349.95
742.124	28506.1
742.464	28386.56
742.804	28294.81
743.143	28246.45
743.483	28248.93
743.823	28169.84
744.162	28132.1
744.502	28262.04
744.841	28029.5
745.181	28135.49
745.52	28052.78
745.86	28060.69
746.199	27994.93
746.538	27975.72
746.877	27967.58
747.216	27863.63
747.556	27822.05
747.895	27868.38
748.234	27604.88
748.573	27642.39
748.911	27603.3
749.25	27579.57
749.589	27402.63
749.928	27448.95
750.267	27591.55
750.605	27264.1
750.944	27297.54
751.283	27194.95
751.621	27275.62
751.96	27140.03
752.298	27097.78
752.636	27001.06
752.975	26897.33
753.313	26909.53
753.651	26965.12
753.989	26676.54
754.327	26811.91
754.666	26667.96
755.004	26681.74
755.342	26677
755.679	26604.23
756.017	26438.36
756.355	26455.53
756.693	26394.74
757.031	26443.78
757.368	26212.38
757.706	26127.86
758.044	26046.96
758.381	26250.57
758.719	26036.11
759.056	25924.47
759.394	25834.98
759.731	25668.44
760.068	25688.1
760.405	25562.22
760.743	25692.16
761.08	25491.94
761.417	25502.79
761.754	25429.8
762.091	25363.13
762.428	25246.53
762.765	25208.11
763.102	25141.44
763.438	24977.61
763.775	24930.83
764.112	24874.56
764.449	24885.63
764.785	24764.96
765.122	24574.9
765.458	24568.35
765.795	24490.84
766.131	24485.19
766.467	24303.5
766.804	24381.46
767.14	24163.16
767.476	24120
767.812	24019.44
768.148	24081.81
768.485	23903.51
768.821	23641.14
769.157	23705.32
769.492	23646.79
769.828	23724.98
770.164	23470.3
770.5	23518.21
770.836	23418.1
771.171	23171.55
771.507	23213.58
771.842	23036.41
772.178	23157.31
772.513	23029.41
772.849	22951.22
773.184	22768.4
773.519	22799.58
773.855	22601.4
774.19	22501.96
774.525	22552.81
774.86	22402.98
775.195	22464.9
775.53	22407.05
775.865	22153.95
776.2	22173.84
776.535	21927.52
776.87	21840.29
777.205	21758.26
777.539	21830.34
777.874	21796.22
778.209	21520.75
778.543	21499.05
778.878	21504.02
779.212	21408.89
779.547	21273.75
779.881	21294.09
780.215	21144.03
780.55	21045.96
780.884	21036.92
781.218	20909.24
781.552	21000.31
781.886	20892.52
782.22	20679.19
782.554	20531.85
782.888	20411.4
783.222	20330.72
783.556	20276.94
783.889	20225.41
784.223	20137.28
784.557	20092.76
784.89	20125.53
785.224	19902.03
785.557	19813.9
785.891	19838.98
786.224	19720.8
786.558	19791.3
786.891	19537.3
787.224	19600.57
787.557	19369.39
787.891	19474.25
788.224	19355.83
788.557	19308.6
788.89	19291.2
789.223	19312.67
789.556	19063.41
789.888	19140.92
790.221	19029.29
790.554	18788.62
790.887	18893.92
791.219	18744.55
791.552	18819.35
791.884	18643.76
792.217	18652.57
792.549	18553.37
792.882	18324.45
793.214	18355.63
793.546	18378.68
793.879	18278.35
794.211	18121.29
794.543	18203.77
794.875	18138.01
795.207	18083.78
795.539	17956.77
795.871	17954.06
796.203	17831.35
796.535	17738.47
796.867	17759.26
797.198	17631.81
797.53	17686.27
797.862	17514.07
798.193	17555.88
798.525	17424.58
798.856	17491.02
799.188	17265.72
799.519	17173.07
799.85	17097.14
800.182	17250.8
800.513	17104.59
800.844	17048.32
801.175	17043.58
801.506	17042.45
801.837	16848.33
802.168	16891.49
802.499	16766.07
802.83	16737.37
803.161	16776.01
803.491	16670.93
803.822	16695.11
804.153	16580.76
804.483	16473.42
804.814	16370.83
805.145	16426.42
805.475	16391.39
805.805	16282.47
806.136	16318.62
806.466	16218.29
806.796	16207.67
807.126	16100.1
807.457	15997.73
807.787	16063.94
808.117	15975.58
808.447	15969.48
808.777	15997.5
809.107	15853.33
809.436	15799.99
809.766	15845.19
810.096	15777.4
810.426	15565.42
810.755	15722.71
811.085	15623.28
811.414	15584.18
811.744	15440.91
812.073	15475.93
812.403	15447.46
812.732	15337.18
813.061	15428.93
813.39	15280.23
813.719	15204.08
814.049	15306
814.378	15248.6
814.707	15171.08
815.036	15190.52
815.365	15098.54
815.693	14935.84
816.022	14979
816.351	14927.7
816.68	14729.97
817.008	14804.54
817.337	14766.12
817.665	14738.55
817.994	14775.61
818.322	14764.77
818.651	14674.6
818.979	14633.47
819.307	14619.69
819.636	14589.18
819.964	14474.38
820.292	14589.4
820.62	14636.41
820.948	14477.54
821.276	14554.6
821.604	14464.21
821.932	14530.2
822.259	14496.07
822.587	14482.74
822.915	14394.83
823.243	14442.52
823.57	14406.36
823.898	14515.51
824.225	14366.13
824.553	14312.12
824.88	14363.87
825.207	14372.91
825.535	14370.2
825.862	14511.89
826.189	14445.45
826.516	14358.45
826.843	14480.03
827.17	14386.47
827.497	14435.74
827.824	14439.58
828.151	14453.36
828.478	14388.73
828.805	14386.47
829.131	14360.03
829.458	14337.43
829.785	14254.95
830.111	14299.02
830.438	14401.16
830.764	14359.81
831.09	14384.66
831.417	14306.02
831.743	14317.1
832.069	14371.33
832.395	14239.13
832.722	14219.47
833.048	14210.88
833.374	14236.19
833.7	14197.55
834.026	14191.9
834.351	14173.82
834.677	14216.98
835.003	14188.29
835.329	14164.56
835.654	14135.63
835.98	14046.37
836.306	14122.75
836.631	14100.6
836.956	14081.4
837.282	14099.02
837.607	14030.32
837.932	13962.98
838.258	13985.8
838.583	13927.95
838.908	13802.31
839.233	13938.35
839.558	13854.51
839.883	13793.04
840.208	13726.6
840.533	13778.35
840.858	13845.24
841.182	13755.98
841.507	13724.34
841.832	13657.45
842.156	13768.18
842.481	13667.62
842.805	13574.29
843.13	13633.05
843.454	13537.91
843.778	13562.31
844.103	13536.1
844.427	13428.53
844.751	13442.09
845.075	13379.49
845.399	13288.87
845.723	13302.43
846.047	13323.22
846.371	13154.41
846.695	13119.84
847.019	13050.24
847.343	12975.21
847.666	12960.29
847.99	12923.23
848.313	12922.1
848.637	12825.16
848.96	12786.74
849.284	12681.66
849.607	12620.42
849.931	12626.97
850.254	12505.39
850.577	12420.42
850.9	12372.29
851.223	12362.8
851.546	12314.66
851.869	12212.97
852.192	12299.07
852.515	12110.83
852.838	12123.03
853.161	12134.55
853.483	12128.23
853.806	12078.74
854.129	12034.44
854.451	11905.86
854.774	11925.52
855.096	11815.24
855.419	11789.7
855.741	11821.12
856.063	11716.71
856.385	11736.15
856.708	11651.18
857.03	11606.21
857.352	11690.5
857.674	11562.82
857.996	11597.62
858.318	11408.7
858.64	11477.17
858.961	11531.18
859.283	11455.02
859.605	11345.2
859.926	11365.99
860.248	11332.54
860.57	11264.52
860.891	11299.55
861.212	11263.16
861.534	11186.56
861.855	11144.98
862.176	11216.39
862.498	11174.81
862.819	11204.18
863.14	11072.21
863.461	11009.61
863.782	10980.46
864.103	11020.46
864.424	10973.68
864.745	11023.62
865.065	10918.99
865.386	10982.49
865.707	10900.24
866.027	10943.4
866.348	10905.21
866.668	10844.87
866.989	10829.28
867.309	10731.43
867.63	10799.45
867.95	10749.05
868.27	10750.64
868.59	10705.44
868.91	10688.49
869.23	10702.73
869.55	10680.35
869.87	10725.1
870.19	10687.59
870.51	10653.91
870.83	10617.08
871.15	10560.36
871.469	10560.81
871.789	10625.44
872.109	10576.18
872.428	10573.92
872.748	10564.65
873.067	10519
873.386	10500.92
873.706	10503.41
874.025	10452.34
874.344	10373.24
874.663	10531.43
874.982	10429.29
875.301	10415.28
875.62	10347.26
875.939	10344.54
876.258	10372.11
876.577	10249.41
876.896	10234.26
877.214	10304.55
877.533	10261.16
877.852	10197.66
878.17	10227.71
878.489	10189.97
878.807	10287.82
879.125	10196.75
879.444	10203.08
879.762	10056.87
880.08	10141.84
880.398	10050.99
880.716	10075.4
881.034	9999.47
881.352	10014.84
881.67	10019.13
881.988	10087.38
882.306	9959.92
882.624	9911.79
882.941	9874.73
883.259	9847.16
883.577	9859.81
883.894	9786.82
884.212	9780.27
884.529	9758.35
884.846	9795.41
885.164	9699.14
885.481	9784.33
885.798	9731.91
886.115	9684.45
886.432	9690.55
886.75	9667.05
887.067	9595.41
887.383	9603.09
887.7	9618.24
888.017	9540.95
888.334	9542.31
888.651	9507.28
888.967	9498.69
889.284	9407.85
889.6	9444.46
889.917	9362.65
890.233	9353.16
890.55	9360.16
890.866	9343.21
891.182	9347.51
891.498	9311.58
891.815	9271.13
892.131	9263.67
892.447	9208.53
892.763	9094.18
893.079	9106.38
893.395	9130.79
893.71	9101.87
894.026	9087.63
894.342	9066.16
894.657	8913.17
894.973	9039.95
895.289	9006.05
895.604	8933.73
895.92	8924.69
896.235	8804.92
896.55	8825.04
896.865	8811.48
897.181	8792.49
897.496	8777.81
897.811	8705.27
898.126	8677.47
898.441	8693.29
898.756	8590.24
899.071	8565.83
899.386	8563.8
899.7	8476.8
900.015	8452.62
900.33	8461.66
900.644	8406.97
900.959	8463.69
901.273	8367.65
901.588	8348.44
901.902	8312.28
902.216	8333.3
902.531	8278.84
902.845	8201.78
903.159	8186.86
903.473	8146.86
903.787	8117.48
904.101	8112.96
904.415	8098.5
904.729	8082.91
905.042	7980.99
905.356	8020.09
905.67	7873.42
905.984	7958.62
906.297	7915
906.611	7855.12
906.924	7868
907.237	7838.85
907.551	7814.22
907.864	7752.75
908.177	7682.02
908.491	7665.97
908.804	7708.23
909.117	7586.65
909.43	7541.45
909.743	7585.52
910.056	7533.77
910.368	7435.69
910.681	7470.27
910.994	7359.99
911.307	7451.06
911.619	7333.78
911.932	7386.88
912.244	7279.09
912.557	7332.42
912.869	7270.95
913.181	7233.44
913.494	7204.97
913.806	7127.23
914.118	7180.11
914.43	7104.18
914.742	7094.91
915.054	7028.02
915.366	6978.76
915.678	7006.55
915.99	6997.29
916.302	6897.18
916.613	6891.3
916.925	6874.35
917.236	6852.66
917.548	6840
917.859	6860.57
918.171	6797.52
918.482	6699.44
918.794	6670.29
919.105	6744.87
919.416	6664.19
919.727	6668.48
920.038	6620.35
920.349	6550.75
920.66	6522.72
920.971	6527.24
921.282	6459
921.593	6398.66
921.903	6433.91
922.214	6401.82
922.525	6385.1
922.835	6395.72
923.146	6304.2
923.456	6303.52
923.767	6310.3
924.077	6323.18
924.387	6230.98
924.697	6185.78
925.008	6152.11
925.318	6140.81
925.628	6113.7
925.938	6082.74
926.248	6023.3
926.558	6062.17
926.867	6000.93
927.177	5978.11
927.487	5956.64
927.796	5922.51
928.106	5932.91
928.416	5892.91
928.725	5890.2
929.034	5862.63
929.344	5860.14
929.653	5822.4
929.962	5743.54
930.271	5776.3
930.581	5748.96
930.89	5660.37
931.199	5654.27
931.508	5613.14
931.817	5608.17
932.125	5587.83
932.434	5607.27
932.743	5539.92
933.051	5515.29
933.36	5522.98
933.669	5480.04
933.977	5458.35
934.286	5463.99
934.594	5419.7
934.902	5369.76
935.21	5338.57
935.519	5332.02
935.827	5288.63
936.135	5289.54
936.443	5268.52
936.751	5272.36
937.059	5241.63
937.367	5154.85
937.674	5188.97
937.982	5183.55
938.29	5118.69
938.597	5139.94
938.905	5070.56
939.213	5071.46
939.52	5061.97
939.827	5038.7
940.135	5054.97
940.442	4922.99
940.749	4938.58
941.056	4935.2
941.363	4922.99
941.67	4909.21
941.977	4865.59
942.284	4799.38
942.591	4854.29
942.898	4810.45
943.205	4803.22
943.511	4808.42
943.818	4777.23
944.125	4722.32
944.431	4740.4
944.738	4683.45
945.044	4657.91
945.35	4669.89
945.657	4667.86
945.963	4617.46
946.269	4588.99
946.575	4579.95
946.881	4514.87
947.187	4560.52
947.493	4533.85
947.799	4511.48
948.105	4476.68
948.41	4479.39
948.716	4478.48
949.022	4410.92
949.327	4377.02
949.633	4378.15
949.938	4410.92
950.244	4372.95
950.549	4318.71
950.854	4275.55
951.16	4272.16
951.465	4292.5
951.77	4247.3
952.075	4237.59
952.38	4197.14
952.685	4172.28
952.99	4205.04
953.294	4166.85
953.599	4157.59
953.904	4139.51
954.209	4078.95
954.513	4081.43
954.818	4047.99
955.122	4063.81
955.426	4055.44
955.731	4011.83
956.035	3996.46
956.339	3978.61
956.643	3984.49
956.948	3937.48
957.252	3932.28
957.556	3929.12
957.86	3909.91
958.163	3917.59
958.467	3869.46
958.771	3845.96
959.075	3825.39
959.378	3787.43
959.682	3821.33
959.985	3832.63
960.289	3770.93
960.592	3741.33
960.896	3761.44
961.199	3702.23
961.502	3722.12
961.805	3730.71
962.108	3668.34
962.411	3668.56
962.714	3638.73
963.017	3633.31
963.32	3614.1
963.623	3598.28
963.926	3579.75
964.228	3547.21
964.531	3564.61
964.833	3556.7
965.136	3480.09
965.438	3533.65
965.741	3484.16
966.043	3458.62
966.345	3442.8
966.648	3425.86
966.95	3433.31
967.252	3415.01
967.554	3407.55
967.856	3412.3
968.158	3334.79
968.46	3349.47
968.761	3352.64
969.063	3349.7
969.365	3319.87
969.666	3264.73
969.968	3256.6
970.269	3243.04
970.571	3258.4
970.872	3264.96
971.174	3217.73
971.475	3232.42
971.776	3234
972.077	3187.44
972.378	3146.77
972.679	3157.16
972.98	3113.1
973.281	3156.03
973.582	3095.47
973.883	3084.85
974.183	3082.14
974.484	3078.97
974.785	3078.97
975.085	3053.66
975.386	3058.41
975.686	3021.35
975.986	2975.02
976.287	3012.53
976.587	2958.07
976.887	2979.77
977.187	2952.2
977.487	2886.89
977.787	2925.08
978.087	2899.99
978.387	2884.63
978.687	2880.33
978.987	2898.64
979.286	2857.28
979.586	2882.37
979.885	2820
980.185	2797.4
980.484	2825.42
980.784	2797.85
981.083	2759.89
981.382	2793.56
981.682	2725.31
981.981	2719.66
982.28	2750.39
982.579	2722.15
982.878	2725.08
983.177	2710.85
983.475	2710.62
983.774	2676.72
984.073	2671.75
984.372	2657.51
984.67	2644.18
984.969	2643.5
985.267	2654.35
985.566	2621.36
985.864	2615.26
986.162	2590.85
986.461	2554.47
986.759	2536.16
987.057	2523.73
987.355	2537.29
987.653	2537.74
987.951	2493.68
988.249	2495.03
988.547	2492.55
988.844	2479.21
989.142	2460.91
989.44	2453.68
989.737	2453
990.035	2390.63
990.332	2422.04
990.63	2391.08
990.927	2417.3
991.224	2396.73
991.521	2379.78
991.819	2373.68
992.116	2349.5
992.413	2374.81
992.71	2332.33
993.006	2361.48
993.303	2319.9
993.6	2328.71
993.897	2311.31
994.193	2299.33
994.49	2283.97
994.787	2264.08
995.083	2243.06
995.379	2265.66
995.676	2220.69
995.972	2237.19
996.268	2200.58
996.565	2204.87
996.861	2228.15
997.157	2191.09
997.453	2177.53
997.749	2154.93
998.044	2156.74
998.34	2114.93
998.636	2166.45
998.932	2130.98
999.227	2083.74
999.523	2098.21
999.818	2079.68
1000.114	2060.92
1000.409	2041.49
1000.704	2076.97
1001	2022.5
1001.295	2013.24
1001.59	1999.23
1001.885	2007.81
1002.18	1994.93
1002.475	1991.32
1002.77	1999.91
1003.065	1983.18
1003.359	1947.93
1003.654	1948.38
1003.949	1931.43
1004.243	1904.54
1004.538	1904.99
1004.832	1901.6
1005.127	1901.15
1005.421	1887.82
1005.715	1883.75
1006.009	1853.92
1006.304	1819.34
1006.598	1848.72
1006.892	1812.11
1007.186	1834.94
1007.48	1806.46
1007.773	1800.36
1008.067	1810.98
1008.361	1789.06
1008.655	1742.51
1008.948	1752.45
1009.242	1749.29
1009.535	1745.9
1009.829	1752.68
1010.122	1710.65
1010.415	1739.35
1010.708	1715.62
1011.001	1679.91
1011.295	1691.21
1011.588	1662.96
1011.881	1661.83
1012.173	1659.35
1012.466	1643.98
1012.759	1644.89
1013.052	1601.05
1013.344	1635.39
1013.637	1618.22
1013.93	1590.65
1014.222	1588.62
1014.514	1575.96
1014.807	1561.27
1015.099	1566.92
1015.391	1552.69
1015.683	1533.48
1015.976	1559.92
1016.268	1496.64
1016.56	1516.53
1016.851	1526.92
1017.143	1501.39
1017.435	1508.62
1017.727	1524.66
1018.018	1484.44
1018.31	1453.48
1018.602	1464.1
1018.893	1422.29
1019.185	1450.09
1019.476	1433.59
1019.767	1409.19
1020.058	1406.02
1020.35	1411.45
1020.641	1387.27
1020.932	1386.81
1021.223	1388.85
1021.514	1362.63
1021.804	1379.13
1022.095	1346.14
1022.386	1348.85
1022.677	1308.4
1022.967	1328.51
1023.258	1307.95
1023.548	1317.21
1023.839	1315.86
1024.129	1320.6
1024.419	1291
1024.709	1270.88
1025	1266.37
1025.29	1276.53
1025.58	1248.51
1025.87	1251.68
1026.16	1224.78
1026.449	1245.35
1026.739	1192.24
1027.029	1212.36
1027.319	1197.44
1027.608	1190.43
1027.898	1182.07
1028.187	1198.57
1028.477	1191.56
1028.766	1159.02
1029.055	1161.73
1029.344	1145.69
1029.634	1135.52
1029.923	1154.05
1030.212	1149.31
1030.501	1127.16
1030.79	1123.09
1031.078	1096.65
1031.367	1096.43
1031.656	1071.12
1031.945	1079.03
1032.233	1076.31
1032.522	1055.98
1032.81	1047.16
1033.099	1050.55
1033.387	1017.11
1033.675	1051.23
1033.963	1039.48
1034.251	1051.23
1034.54	1024.34
1034.828	1000.84
1035.116	1013.26
1035.403	1006.71
1035.691	1006.26
1035.979	983.43
1036.267	977.56
1036.554	972.59
1036.842	988.63
1037.129	968.29
1037.417	952.47
1037.704	942.76
1037.992	943.21
1038.279	956.77
1038.566	946.15
1038.853	946.15
1039.14	946.15
