Data from hue_26_FLMS001491_00071.txt Node
Date: Tue Feb 07 17:14:29 GMT 2017
User: dcchb
Spectrometer: FLMS00149
Trigger mode: 0
Integration Time (sec): 2.000000E-2
Scans to average: 10
Electric dark correction enabled: true
Nonlinearity correction enabled: false
Boxcar width: 0
XAxis mode: Wavelengths
Number of Pixels in Spectrum: 2048
>>>>>Begin Spectral Data<<<<<
341.393	-8.5
341.776	-8.5
342.16	-8.5
342.543	-67.26
342.927	-85.11
343.31	-72.68
343.693	-81.27
344.077	-62.06
344.46	-67.71
344.843	-53.47
345.226	-42.17
345.61	-28.62
345.993	-15.28
346.376	-10.08
346.759	27.65
347.142	19.52
347.525	36.02
347.908	82.34
348.291	89.57
348.674	82.12
349.057	96.13
349.44	102.91
349.823	130.25
350.206	149.91
350.588	207.99
350.971	219.74
351.354	238.72
351.737	248.44
352.119	269
352.502	277.14
352.884	272.17
353.267	280.53
353.65	291.6
354.032	278.27
354.414	283.24
354.797	310.13
355.179	316.69
355.562	302.45
355.944	321.88
356.326	331.38
356.709	349.91
357.091	340.41
357.473	332.05
357.855	336.57
358.238	333.41
358.62	325.5
359.002	349.68
359.384	342.67
359.766	348.78
360.148	349.23
360.53	354.43
360.912	331.38
361.294	342
361.676	331.15
362.057	319.62
362.439	341.54
362.821	337.25
363.203	334.99
363.584	302
363.966	327.53
364.348	334.54
364.729	324.37
365.111	312.84
365.493	299.29
365.874	322.11
366.256	318.95
366.637	305.84
367.019	319.85
367.4	323.69
367.781	310.81
368.163	340.19
368.544	314.2
368.925	321.43
369.306	325.73
369.688	306.97
370.069	296.35
370.45	306.52
370.831	289.34
371.212	312.62
371.593	318.27
371.974	318.04
372.355	320.75
372.736	302.9
373.117	311.26
373.498	303.58
373.879	308.33
374.26	302.9
374.641	308.55
375.021	311.26
375.402	324.14
375.783	326.63
376.163	318.72
376.544	338.15
376.925	333.18
377.305	332.96
377.686	315.56
378.066	323.69
378.447	329.34
378.827	313.07
379.208	321.43
379.588	342.22
379.968	311.04
380.349	331.6
380.729	334.99
381.109	329.12
381.489	365.27
381.87	355.33
382.25	327.31
382.63	315.33
383.01	347.19
383.39	343.8
383.77	336.8
384.15	327.31
384.53	356.91
384.91	337.7
385.29	335.67
385.67	349.23
386.049	348.1
386.429	333.64
386.809	359.85
387.189	365.95
387.568	349
387.948	366.4
388.328	376.8
388.707	367.31
389.087	353.52
389.466	367.98
389.846	366.4
390.225	356.23
390.605	364.37
390.984	360.08
391.363	367.08
391.743	352.39
392.122	359.17
392.501	366.18
392.881	359.85
393.26	369.79
393.639	393.52
394.018	374.76
394.397	382.9
394.776	382.67
395.155	380.87
395.534	353.3
395.913	375.67
396.292	393.07
396.671	389.23
397.05	375.44
397.429	377.25
397.808	385.39
398.186	400.53
398.565	384.71
398.944	409.11
399.323	395.55
399.701	393.29
400.08	398.04
400.458	384.71
400.837	395.1
401.215	404.37
401.594	390.81
401.972	393.52
402.351	410.02
402.729	403.69
403.107	415.44
403.486	391.26
403.864	408.89
404.242	415.22
404.62	413.63
404.999	400.75
405.377	390.36
405.755	426.74
406.133	416.57
406.511	405.27
406.889	438.72
407.267	449.11
407.645	420.41
408.023	446.17
408.401	418.83
408.779	437.59
409.156	444.37
409.534	434.42
409.912	435.1
410.29	436.01
410.667	437.36
411.045	447.3
411.422	455.89
411.8	431.03
412.178	454.08
412.555	458.6
412.933	461.77
413.31	460.19
413.687	473.74
414.065	466.97
414.442	473.74
414.819	482.78
415.197	479.39
415.574	494.54
415.951	496.12
416.328	507.42
416.705	487.76
417.082	510.81
417.46	493.18
417.837	504.7
418.214	500.64
418.591	498.38
418.967	503.35
419.344	513.07
419.721	501.31
420.098	511.26
420.475	540.18
420.852	523.46
421.228	522.1
421.605	517.36
421.982	516
422.358	534.99
422.735	533.4
423.111	534.31
423.488	527.75
423.864	549.67
424.241	538.6
424.617	560.97
424.994	576.34
425.37	545.38
425.746	554.87
426.123	551.71
426.499	563.91
426.875	574.76
427.251	572.27
427.627	554.42
428.003	567.53
428.379	597.36
428.756	583.12
429.132	588.54
429.507	611.59
429.883	602.33
430.259	604.59
430.635	614.98
431.011	611.82
431.387	633.51
431.763	648.66
432.138	650.92
432.514	641.65
432.89	628.54
433.265	651.37
433.641	661.31
434.016	653.85
434.392	665.15
434.767	654.98
435.143	680.74
435.518	666.06
435.894	684.81
436.269	701.99
436.644	701.31
437.02	698.15
437.395	712.16
437.77	729.78
438.145	722.1
438.52	697.24
438.895	735.21
439.271	742.21
439.646	739.5
440.021	735.66
440.395	747.86
440.77	744.02
441.145	751.93
441.52	756.68
441.895	763.23
442.27	776.56
442.645	779.05
443.019	772.95
443.394	763.23
443.769	790.57
444.143	798.71
444.518	778.82
444.892	784.24
445.267	793.06
445.641	795.32
446.016	809.1
446.39	803.23
446.764	816.33
447.139	809.55
447.513	826.5
447.887	836.9
448.262	800.06
448.636	822.89
449.01	812.27
449.384	837.12
449.758	853.17
450.132	874.41
450.506	853.17
450.88	857.69
451.254	864.47
451.628	876.22
452.002	886.16
452.376	864.69
452.75	869.89
453.123	906.73
453.497	918.25
453.871	903.34
454.244	942.88
454.618	919.61
454.992	961.19
455.365	952.38
455.739	963
456.112	979.27
456.486	973.62
456.859	970.45
457.232	971.58
457.606	994.86
457.979	1014.3
458.352	1030.34
458.725	1040.28
459.099	1034.63
459.472	1049.55
459.845	1059.49
460.218	1094.75
460.591	1082.32
460.964	1091.58
461.337	1103.11
461.71	1113.05
462.083	1147.17
462.456	1144.01
462.829	1180.17
463.201	1185.59
463.574	1171.58
463.947	1205.02
464.32	1227.17
464.692	1217.68
465.065	1232.82
465.438	1244.8
465.81	1289.09
466.183	1256.1
466.555	1275.98
466.928	1311.46
467.3	1280.96
467.672	1310.56
468.045	1344.91
468.417	1366.83
468.789	1386.94
469.161	1365.92
469.534	1442.98
469.906	1442.76
470.278	1409.31
470.65	1461.06
471.022	1480.05
471.394	1487.05
471.766	1545.81
472.138	1541.74
472.51	1588.74
472.882	1598.23
473.253	1622.87
473.625	1635.75
473.997	1669.65
474.369	1687.95
474.74	1741.51
475.112	1749.42
475.484	1798
475.855	1798.68
476.227	1830.09
476.598	1863.99
476.97	1878.91
477.341	1949.19
477.713	1965.46
478.084	2010.2
478.455	2056.08
478.827	2044.32
479.198	2155.73
479.569	2142.4
479.94	2194.15
480.311	2237.09
480.682	2263.08
481.053	2342.62
481.424	2372.68
481.795	2421.72
482.166	2419.91
482.537	2530.19
482.908	2520.7
483.279	2606.34
483.65	2637.53
484.021	2671.43
484.391	2722.95
484.762	2723.18
485.133	2806.56
485.503	2837.3
485.874	2934.47
486.244	2961.14
486.615	2980.12
486.985	3059.67
487.356	3131.3
487.726	3161.13
488.097	3225.99
488.467	3237.06
488.837	3295.37
489.207	3380.11
489.578	3461.24
489.948	3485.19
490.318	3533.1
490.688	3544.62
491.058	3602.7
491.428	3675.69
491.798	3696.03
492.168	3772.87
492.538	3796.14
492.908	3874.56
493.278	3967.44
493.648	3923.6
494.017	4003.82
494.387	4050.15
494.757	4120.2
495.126	4108.9
495.496	4109.13
495.866	4210.37
496.235	4259.86
496.605	4260.31
496.974	4299.18
497.344	4376.92
497.713	4401.32
498.082	4469.57
498.452	4457.59
498.821	4532.62
499.19	4503.47
499.559	4575.56
499.928	4628.66
500.298	4639.28
500.667	4730.13
501.036	4710.02
501.405	4725.16
501.774	4751.15
502.143	4813.07
502.512	4844.25
502.88	4858.71
503.249	4851.71
503.618	4951.59
503.987	5004.02
504.356	4969.9
504.724	4994.08
505.093	5020.74
505.462	5064.81
505.83	5022.78
506.199	5100.97
506.567	5150.46
506.936	5183.9
507.304	5240.17
507.672	5259.61
508.041	5267.52
508.409	5338.93
508.777	5337.8
509.145	5368.53
509.514	5316.1
509.882	5427.96
510.25	5402.88
510.618	5460.51
510.986	5441.75
511.354	5586.15
511.722	5545.48
512.09	5590.22
512.458	5554.97
512.826	5591.35
513.193	5695.3
513.561	5655.53
513.929	5696.43
514.297	5744.79
514.664	5762.87
515.032	5771.01
515.4	5787.05
515.767	5836.99
516.135	5890.1
516.502	5826.15
516.869	5933.04
517.237	5975.29
517.604	5956.31
517.972	5991.11
518.339	6018.01
518.706	6010.1
519.073	5994.28
519.44	6010.55
519.808	6148.17
520.175	6043.99
520.542	6161.73
520.909	6171.45
521.276	6184.55
521.643	6220.26
522.009	6253.25
522.376	6285.34
522.743	6286.25
523.11	6360.6
523.477	6421.84
523.843	6417.09
524.21	6530.31
524.577	6526.69
524.943	6519.01
525.31	6623.41
525.676	6621.83
526.043	6686.24
526.409	6681.72
526.776	6765.56
527.142	6751.55
527.508	6800.58
527.874	6843.52
528.241	6897.08
528.607	6932.11
528.973	6931.65
529.339	6961.71
529.705	7013.91
530.071	7073.8
530.437	7109.05
530.803	7089.62
531.169	7169.84
531.535	7155.6
531.901	7223.62
532.267	7176.62
532.632	7279.89
532.998	7262.94
533.364	7344.98
533.73	7331.64
534.095	7436.27
534.461	7424.07
534.826	7493.22
535.192	7484.86
535.557	7546.55
535.923	7568.47
536.288	7625.65
536.653	7639.21
537.019	7608.02
537.384	7655.02
537.749	7678.98
538.114	7718.53
538.479	7694.8
538.845	7798.98
539.21	7833.33
539.575	7830.39
539.94	7881.69
540.305	7923.04
540.67	7937.96
541.034	7976.37
541.399	8046.65
541.764	8015.02
542.129	8019.99
542.494	8084.84
542.858	8119.42
543.223	8095.92
543.587	8170.27
543.952	8184.95
544.316	8241.9
544.681	8254.78
545.045	8345.85
545.41	8360.09
545.774	8343.82
546.138	8319.64
546.503	8393.99
546.867	8474.21
547.231	8502.01
547.595	8502.91
547.959	8521.89
548.324	8530.26
548.688	8544.94
549.052	8651.83
549.416	8631.04
549.779	8663.13
550.143	8657.71
550.507	8718.73
550.871	8759.63
551.235	8725.73
551.599	8814.77
551.962	8855.45
552.326	8933.18
552.689	8989.23
553.053	8945.39
553.417	8884.14
553.78	9066.96
554.143	8986.97
554.507	9022.67
554.87	9071.26
555.234	9147.64
555.597	9090.92
555.96	9122.78
556.323	9207.75
556.686	9183.12
557.05	9321.2
557.413	9274.42
557.776	9317.13
558.139	9367.52
558.502	9395.54
558.865	9378.6
559.228	9447.29
559.59	9429.67
559.953	9494.98
560.316	9619.27
560.679	9618.36
561.041	9596.67
561.404	9588.31
561.767	9753.05
562.129	9641.87
562.492	9798.47
562.854	9812.48
563.217	9738.81
563.579	9867.4
563.941	9831.24
564.304	9956.89
564.666	9950.11
565.028	9937.9
565.39	9970.22
565.753	9995.08
566.115	10104.9
566.477	10113.27
566.839	10128.63
567.201	10243.21
567.563	10238.23
567.925	10259.02
568.287	10312.36
568.648	10291.11
569.01	10370.43
569.372	10487.72
569.734	10427.38
570.095	10526.81
570.457	10595.96
570.819	10581.28
571.18	10686.13
571.542	10719.58
571.903	10675.28
572.265	10854.71
572.626	10819.69
572.987	10879.8
573.349	10919.35
573.71	10972.23
574.071	11049.51
574.432	11145.33
574.794	11208.6
575.155	11187.59
575.516	11256.06
575.877	11396.62
576.238	11360.24
576.599	11522.95
576.96	11544.41
577.32	11577.63
577.681	11807.91
578.042	11890.39
578.403	11907.34
578.763	12023.5
579.124	12111.18
579.485	12194.79
579.845	12385.75
580.206	12425.52
580.566	12539.64
580.927	12635.46
581.287	12756.36
581.648	12870.03
582.008	13091.94
582.368	13240.41
582.728	13467.75
583.089	13496.45
583.449	13677.92
583.809	13925.59
584.169	14093.27
584.529	14242.65
584.889	14506.37
585.249	14597.22
585.609	14731.22
585.969	15016.87
586.329	15201.72
586.688	15455.95
587.048	15619.79
587.408	15800.35
587.768	16106.55
588.127	16306.32
588.487	16538.86
588.846	16848.23
589.206	16983.14
589.565	17286.41
589.925	17641.2
590.284	17845.04
590.643	18166.61
591.003	18425.36
591.362	18754.85
591.721	19017.44
592.08	19313.7
592.44	19613.35
592.799	19915.49
593.158	20135.6
593.517	20452.43
593.876	20761.35
594.235	20961.12
594.593	21275.23
594.952	21589.57
595.311	21897.14
595.67	22286.73
596.029	22658.02
596.387	22945.02
596.746	23289.42
597.104	23453.71
597.463	23740.48
597.822	24165.55
598.18	24373.23
598.538	24711.07
598.897	25112.19
599.255	25176.37
599.613	25879.4
599.972	25940.42
600.33	26292.95
600.688	26411.14
601.046	26894.07
601.404	27144.46
601.762	27482.07
602.12	27901.5
602.478	28091.32
602.836	28321.37
603.194	28532.22
603.552	28878.42
603.91	29070.05
604.268	29401.12
604.625	29638.4
604.983	29995.45
605.341	30148.44
605.698	30399.51
606.056	30763.8
606.413	31087.85
606.771	31207.17
607.128	31580.72
607.485	31725.8
607.843	32005.8
608.2	32271.1
608.557	32653.46
608.914	32777.53
609.272	33038.76
609.629	33348.59
609.986	33690.95
610.343	33726.2
610.7	34083.26
611.057	34344.72
611.414	34419.74
611.771	34683.69
612.127	34980.63
612.484	35180.85
612.841	35405.93
613.198	35406.84
613.554	35749.2
613.911	36076.88
614.267	36255.18
614.624	36227.38
614.98	36404.33
615.337	36823.3
615.693	36758.44
616.05	36993.69
616.406	37294.25
616.762	37482.72
617.118	37458.31
617.475	37524.52
617.831	37919.09
618.187	37978.3
618.543	38157.5
618.899	38385.74
619.255	38519.07
619.611	38580.99
619.967	38819.85
620.323	38936.46
620.678	39037.25
621.034	38943.69
621.39	39154.54
621.746	39224.14
622.101	39705.71
622.457	39479.27
622.812	39736.22
623.168	39774.41
623.523	39721.53
623.879	40016.66
624.234	39884.23
624.589	40086.04
624.945	40134.62
625.3	40402.41
625.655	40451.22
626.01	40553.82
626.365	40585.46
626.72	40642.41
627.075	40698.45
627.43	40676.08
627.785	40709.75
628.14	40820.93
628.495	41024.32
628.85	41045.79
629.205	40865.68
629.559	41178.89
629.914	40969.4
630.269	41173.01
630.623	41021.38
630.978	41121.72
631.332	41334.14
631.687	41369.62
632.041	41157.87
632.396	41458.2
632.75	41290.75
633.104	41368.26
633.459	41275.38
633.813	41253.01
634.167	41286.23
634.521	41404.65
634.875	41330.52
635.229	41371.88
635.583	41222.5
635.937	41299.34
636.291	41402.16
636.645	41478.99
636.999	41224.76
637.352	41525.32
637.706	41234.71
638.06	41343.18
638.413	41363.74
638.767	41184.54
639.121	41367.81
639.474	41208.72
639.828	41313.35
640.181	41307.7
640.534	41232.22
640.888	41174.37
641.241	41019.8
641.594	41154.03
641.947	41239
642.301	41162.84
642.654	41283.75
643.007	41222.73
643.36	41119.46
643.713	41138.89
644.066	41228.83
644.419	41127.36
644.771	40852.34
645.124	40591.33
645.477	40577.32
645.83	40226.82
646.182	40196.77
646.535	39970.56
646.888	40075.64
647.24	39983.21
647.593	40223.66
647.945	40136.88
648.298	39926.27
648.65	40012.82
649.002	39762.66
649.355	40027.96
649.707	39928.07
650.059	40175.53
650.411	40601.96
650.763	40670.2
651.115	40971.21
651.467	40950.19
651.819	40848.05
652.171	40782.52
652.523	40840.14
652.875	40658.22
653.227	40560.37
653.578	40929.18
653.93	40766.92
654.282	40591.79
654.633	40512.69
654.985	40658.68
655.337	40670.65
655.688	40687.6
656.039	40747.04
656.391	40492.35
656.742	40415.29
657.094	40574.39
657.445	40567.83
657.796	40654.61
658.147	40470.43
658.498	40546.82
658.849	40585.91
659.2	40514.05
659.551	40514.5
659.902	40690.31
660.253	40551.56
660.604	40562.63
660.955	40374.39
661.306	40440.15
661.656	40492.81
662.007	40604.89
662.358	40561.96
662.708	40452.13
663.059	40444.45
663.409	40242.19
663.76	40554.72
664.11	40422.3
664.461	40603.99
664.811	40460.94
665.161	40500.26
665.511	40422.75
665.862	40444.67
666.212	40390.66
666.562	40520.6
666.912	40330.55
667.262	40280.83
667.612	40370.55
667.962	40366.03
668.312	40238.35
668.662	40524.22
669.011	40584.1
669.361	40292.58
669.711	40219.14
670.06	40309.31
670.41	40253.49
670.76	40140.05
671.109	40286.26
671.459	40238.12
671.808	40094.85
672.157	40222.98
672.507	40001.97
672.856	40025.47
673.205	40078.58
673.554	40089.88
673.904	40049.88
674.253	40300.72
674.602	40015.98
674.951	39327.86
675.3	39223.01
675.649	40006.94
675.998	39892.82
676.346	39988.19
676.695	39928.3
677.044	39702.09
677.393	39909.09
677.741	39930.33
678.09	39891.24
678.438	39833.16
678.787	39866.61
679.135	39889.66
679.484	39545.71
679.832	39739.6
680.181	39540.06
680.529	39706.84
680.877	39631.81
681.225	39498.03
681.573	39686.27
681.922	39313.18
682.27	39224.59
682.618	39382.78
682.966	39226.4
683.314	39269.11
683.661	39134.87
684.009	39048.55
684.357	38944.15
684.705	38783.25
685.053	38903.47
685.4	38917.71
685.748	38627.54
686.095	38707.32
686.443	38585.74
686.79	38515
687.138	38613.31
687.485	38480.43
687.832	38509.13
688.18	38563.82
688.527	38302.13
688.874	38204.28
689.221	38153.88
689.568	38014
689.915	38045.64
690.262	38001.12
690.609	37849.94
690.956	37759.32
691.303	37762.03
691.65	37520.23
691.997	37520.45
692.344	37331.08
692.69	37484.75
693.037	37360.68
693.383	37068.26
693.73	37355.94
694.077	36946.23
694.423	36969.96
694.769	36877.31
695.116	36692.91
695.462	36715.96
695.808	36561.61
696.155	36650.65
696.501	36500.59
696.847	36433.48
697.193	36192.81
697.539	36339.92
697.885	36134.28
698.231	35975.18
698.577	36032.36
698.923	35957.56
699.269	35791.46
699.614	35499.04
699.96	35631.92
700.306	35581.75
700.651	35398.25
700.997	35354.41
701.342	35319.38
701.688	35144.92
702.033	35076
702.379	35135.43
702.724	34996.45
703.069	35102.89
703.415	34638.5
703.76	34689.12
704.105	34653.86
704.45	34592.4
704.795	34426.75
705.14	34432.85
705.485	34333.65
705.83	34208.68
706.175	34277.83
706.52	34043.03
706.865	33874.67
707.209	33892.53
707.554	33709.25
707.899	33856.82
708.243	33829.7
708.588	33648.01
708.932	33495.02
709.277	33447.57
709.621	33508.81
709.966	33221.36
710.31	33415.48
710.654	33023.62
710.998	33043.51
711.342	33046.45
711.687	32940.46
712.031	32799.67
712.375	32772.78
712.719	32745.44
713.063	32726.68
713.407	32831.09
713.75	32587.25
714.094	32531.66
714.438	32499.57
714.782	32426.12
715.125	32240.37
715.469	32420.7
715.812	32333.7
716.156	31978.23
716.499	32046.93
716.843	32258.45
717.186	31805.35
717.53	32134.61
717.873	31942.3
718.216	31911.79
718.559	31836.31
718.902	31577.79
719.246	31676.09
719.589	31394.74
719.932	31458.01
720.275	31384.34
720.617	31395.64
720.96	31381.41
721.303	31190.23
721.646	31280.84
721.989	31080.17
722.331	31245.59
722.674	31102.32
723.016	31105.48
723.359	31007.41
723.701	31134.18
724.044	30825.49
724.386	30745.27
724.729	30841.99
725.071	30929.44
725.413	30948.2
725.755	30766.51
726.097	30585.04
726.439	30486.29
726.782	30432.5
727.124	30630.24
727.465	30382.11
727.807	30446.97
728.149	30403.81
728.491	30339.4
728.833	30418.04
729.175	30199.06
729.516	30296.01
729.858	30094.43
730.199	30115.9
730.541	30072.51
730.882	29985.74
731.224	30038.84
731.565	29862.12
731.906	29931.95
732.248	29897.83
732.589	29766.99
732.93	29669.81
733.271	29745.74
733.612	29715.91
733.953	29679.3
734.294	29517.95
734.635	29538.29
734.976	29537.61
735.317	29326.32
735.658	29427.56
735.999	29413.77
736.339	29319.09
736.68	29370.61
737.021	29182.14
737.361	29193.89
737.702	29258.07
738.042	29284.96
738.383	29125.42
738.723	29129.49
739.063	28875.03
739.404	29117.96
739.744	28962.94
740.084	28936.95
740.424	29020.34
740.764	28923.84
741.104	29088.13
741.444	28783.51
741.784	28657.86
742.124	28694.47
742.464	28747.58
742.804	28647.47
743.143	28530.41
743.483	28671.87
743.823	28452.22
744.162	28418.77
744.502	28518.88
744.841	28443.63
745.181	28570.63
745.52	28331.32
745.86	28413.57
746.199	28318.66
746.538	28261.04
746.877	28341.26
747.216	28265.78
747.556	28233.47
747.895	28070.31
748.234	28099.46
748.573	28112.57
748.911	27937.43
749.25	27902.85
749.589	27835.29
749.928	27921.84
750.267	27863.76
750.605	27732.69
750.944	27774.04
751.283	27644.1
751.621	27693.37
751.96	27549.42
752.298	27490.89
752.636	27494.96
752.975	27481.85
753.313	27300.38
753.651	27525.01
753.989	27258.35
754.327	27323.66
754.666	27094.06
755.004	27121.63
755.342	27100.62
755.679	27098.13
756.017	26942.43
756.355	27007.74
756.693	26884.8
757.031	26881.86
757.368	26743.56
757.706	26787.4
758.044	26571.59
758.381	26774.52
758.719	26582.89
759.056	26669.21
759.394	26526.39
759.731	26280.52
760.068	26360.07
760.405	26268.55
760.743	26146.52
761.08	26172.28
761.417	26050.25
761.754	26048.89
762.091	25878.5
762.428	25906.97
762.765	25859.07
763.102	25768.9
763.438	25585.17
763.775	25542.24
764.112	25626.53
764.449	25491.39
764.785	25384.5
765.122	25132.76
765.458	25183.83
765.795	25153.1
766.131	25233.55
766.467	25047.56
766.804	24873.1
767.14	24904.74
767.476	24901.58
767.812	24691.19
768.148	24742.26
768.485	24599.89
768.821	24443.74
769.157	24496.16
769.492	24409.84
769.828	24375.94
770.164	24223.18
770.5	24080.13
770.836	24029.74
771.171	23947.03
771.507	23875.16
771.842	23627.26
772.178	23636.07
772.513	23747.93
772.849	23538.67
773.184	23459.81
773.519	23419.58
773.855	23273.82
774.19	23258
774.525	23201.96
774.86	23113.15
775.195	23139.59
775.53	22958.8
775.865	22810.56
776.2	22557.01
776.535	22629.77
776.87	22428.65
777.205	22372.38
777.539	22321.31
777.874	22402.89
778.209	22088.54
778.543	22122.89
778.878	21997.02
779.212	21962.22
779.547	21884.71
779.881	21910.24
780.215	21736.01
780.55	21772.17
780.884	21648.1
781.218	21620.76
781.552	21532.85
781.886	21441.55
782.22	21313.2
782.554	21285.85
782.888	21069.81
783.222	21041.11
783.556	20837.05
783.889	20919.76
784.223	20756.15
784.557	20682.25
784.89	20696.72
785.224	20672.99
785.557	20402.71
785.891	20440.23
786.224	20385.99
786.558	20472.99
786.891	20229.61
787.224	20089.5
787.557	20176.05
787.891	20051.08
788.224	19986.9
788.557	19901.03
788.89	19884.08
789.223	19958.88
789.556	19687.02
789.888	19649.06
790.221	19617.42
790.554	19415.62
790.887	19436.41
791.219	19327.03
791.552	19365.23
791.884	19218.34
792.217	19301.95
792.549	19117.32
792.882	18947.61
793.214	18877.55
793.546	18876.42
793.879	18847.72
794.211	18688.86
794.543	18778.8
794.875	18665.36
795.207	18665.81
795.539	18638.24
795.871	18583.78
796.203	18371.35
796.535	18339.94
796.867	18331.58
797.198	18274.86
797.53	18227.18
797.862	18081.64
798.193	18102.43
798.525	17993.06
798.856	18044.58
799.188	17871.93
799.519	17768.43
799.85	17753.52
800.182	17776.34
800.513	17700.41
800.844	17535.44
801.175	17618.15
801.506	17582.67
801.837	17432.85
802.168	17432.62
802.499	17281.44
802.83	17247.54
803.161	17201.21
803.491	17215.68
803.822	17144.04
804.153	17130.48
804.483	17052.52
804.814	16951.28
805.145	16817.27
805.475	16865.86
805.805	16797.38
806.136	16793.77
806.466	16774.78
806.796	16684.84
807.126	16612.53
807.457	16582.93
807.787	16578.86
808.117	16474
808.447	16402.37
808.777	16449.6
809.107	16369.37
809.436	16341.12
809.766	16323.05
810.096	16209.83
810.426	16212.54
810.755	16246.21
811.085	16195.37
811.414	16094.8
811.744	15979.33
812.073	15969.16
812.403	16030.4
812.732	15791.76
813.061	15931.64
813.39	15715.38
813.719	15680.35
814.049	15826.11
814.378	15674.7
814.707	15607.58
815.036	15591.77
815.365	15517.19
815.693	15402.39
816.022	15461.37
816.351	15303.86
816.68	15327.82
817.008	15449.17
817.337	15181.61
817.665	15185.45
817.994	15174.38
818.322	15167.6
818.651	15075.62
818.979	15056.64
819.307	15186.8
819.636	15070.65
819.964	14980.48
820.292	15097.99
820.62	14961.95
820.948	14969.41
821.276	14997.88
821.604	14947.94
821.932	15055.51
822.259	14925.57
822.587	14917.43
822.915	14892.8
823.243	14986.58
823.57	14850.32
823.898	14909.52
824.225	14861.61
824.553	14855.06
824.88	14829.53
825.207	14758.11
825.535	14898.22
825.862	14875.63
826.189	14794.95
826.516	14988.39
826.843	14893.25
827.17	14928.28
827.497	14879.02
827.824	14817.55
828.151	14852.35
828.478	14882.18
828.805	14782.07
829.131	14860.48
829.458	14772.13
829.785	14778.68
830.111	14806.93
830.438	14833.14
830.764	14809.41
831.09	14822.29
831.417	14734.39
831.743	14755.63
832.069	14795.63
832.395	14716.99
832.722	14826.14
833.048	14690.77
833.374	14732.58
833.7	14689.19
834.026	14589.98
834.351	14692.13
834.677	14719.25
835.003	14632.24
835.329	14626.14
835.654	14629.76
835.98	14620.04
836.306	14627.5
836.631	14497.1
836.956	14610.55
837.282	14544.11
837.607	14471.12
837.932	14435.41
838.258	14517.22
838.583	14470.89
838.908	14277.22
839.233	14368.52
839.558	14330.33
839.883	14310.22
840.208	14284.45
840.533	14211.46
840.858	14257.79
841.182	14305.25
841.507	14171.24
841.832	14096.21
842.156	14131.01
842.481	14123.1
842.805	14056.21
843.13	14109.54
843.454	14001.07
843.778	13920.85
844.103	13954.52
844.427	13895.54
844.751	13898.7
845.075	13853.51
845.399	13806.05
845.723	13713.4
846.047	13666.17
846.371	13671.14
846.695	13651.7
847.019	13481.76
847.343	13484.48
847.666	13361.09
847.99	13341.2
848.313	13378.72
848.637	13229.57
848.96	13195.44
849.284	13186.86
849.607	13156.57
849.931	13006.97
850.254	12922.91
850.577	12885.17
850.9	12843.36
851.223	12773.53
851.546	12691.95
851.869	12666.87
852.192	12721.78
852.515	12550.72
852.838	12493.32
853.161	12433.88
853.483	12442.92
853.806	12403.6
854.129	12361.34
854.451	12328.8
854.774	12269.14
855.096	12330.61
855.419	12150.73
855.741	12206.77
856.063	12129.26
856.385	12103.5
856.708	12085.42
857.03	12006.55
857.352	12011.52
857.674	12015.81
857.996	11959.54
858.318	11881.13
858.64	11871.64
858.961	11849.04
859.283	11768.14
859.605	11723.39
859.926	11754.8
860.248	11695.14
860.57	11593.23
860.891	11714.8
861.212	11591.42
861.534	11502.38
861.855	11537.18
862.176	11578.99
862.498	11524.3
862.819	11541.93
863.14	11550.29
863.461	11429.61
863.782	11404.76
864.103	11432.78
864.424	11349.62
864.745	11415.83
865.065	11335.38
865.386	11251.54
865.707	11277.98
866.027	11360.01
866.348	11276.17
866.668	11247.7
866.989	11143.97
867.309	11145.33
867.63	11183.52
867.95	11186.91
868.27	11051.32
868.59	11086.8
868.91	11062.39
869.23	11029.17
869.55	10998.89
869.87	11040.92
870.19	10968.16
870.51	11029.63
870.83	11000.7
871.15	10933.13
871.469	10929.06
871.789	10960.93
872.109	10917.99
872.428	10843.19
872.748	10853.58
873.067	10896.75
873.386	10884.09
873.706	10893.36
874.025	10840.93
874.344	10795.96
874.663	10791.67
874.982	10722.06
875.301	10730.2
875.62	10708.5
875.939	10678.9
876.258	10675.06
876.577	10643.65
876.896	10683.42
877.214	10600.94
877.533	10627.15
877.852	10599.58
878.17	10631.44
878.489	10522.07
878.807	10601.84
879.125	10484.55
879.444	10569.75
879.762	10509.41
880.08	10439.58
880.398	10344.45
880.716	10448.62
881.034	10428.51
881.352	10452.69
881.67	10401.17
881.988	10330.21
882.306	10343.09
882.624	10303.54
882.941	10251.79
883.259	10225.35
883.577	10205.24
883.894	10251.57
884.212	10221.74
884.529	10147.39
884.846	10102.64
885.164	10075.07
885.481	10084.57
885.798	10049.99
886.115	9958.69
886.432	9977.45
886.75	9985.58
887.067	9896.1
887.383	9923.67
887.7	9865.81
888.017	9881.63
888.334	9913.27
888.651	9894.97
888.967	9813.84
889.284	9735.2
889.6	9774.29
889.917	9692.71
890.233	9680.06
890.55	9666.95
890.866	9672.82
891.182	9606.61
891.498	9637.8
891.815	9553.96
892.131	9501.53
892.447	9502.66
892.763	9443.23
893.079	9422.89
893.395	9404.58
893.71	9473.51
894.026	9456.79
894.342	9387.86
894.657	9280.29
894.973	9327.75
895.289	9297.02
895.604	9273.74
895.92	9162.33
896.235	9169.56
896.55	9172.72
896.865	9125.72
897.181	9030.36
897.496	9106.51
897.811	8995.1
898.126	9091.15
898.441	8912.17
898.756	8949.91
899.071	8862
899.386	8851.83
899.7	8793.07
900.015	8720.31
900.33	8705.84
900.644	8751.49
900.959	8755.56
901.273	8630.37
901.588	8590.37
901.902	8643.25
902.216	8590.59
902.531	8548.33
902.845	8457.72
903.159	8492.97
903.473	8418.17
903.787	8437.38
904.101	8328.91
904.415	8377.04
904.729	8383.14
905.042	8320.54
905.356	8262.47
905.67	8203.26
905.984	8209.59
906.297	8180.89
906.611	8112.87
906.924	8118.06
907.237	8122.81
907.551	8103.83
907.864	8036.03
908.177	8004.39
908.491	7975.24
908.804	7940.44
909.117	7895.92
909.43	7841.23
909.743	7751.52
910.056	7744.97
910.368	7770.73
910.681	7735.93
910.994	7690.73
911.307	7644.63
911.619	7655.02
911.932	7600.11
912.244	7591.98
912.557	7585.42
912.869	7454.58
913.181	7483.05
913.494	7488.7
913.806	7420.68
914.118	7437.86
914.43	7395.6
914.742	7359.67
915.054	7256.39
915.366	7257.52
915.678	7262.94
915.99	7205.32
916.302	7166.68
916.613	7129.39
916.925	7074.25
917.236	7151.99
917.548	7046
917.859	7086.9
918.171	6994.7
918.482	6951.77
918.794	6944.76
919.105	6919
919.416	6869.06
919.727	6849.17
920.038	6781.38
920.349	6757.42
920.66	6702.28
920.971	6790.87
921.282	6722.17
921.593	6667.93
921.903	6656.86
922.214	6617.99
922.525	6595.17
922.835	6612.34
923.146	6422.51
923.456	6483.3
923.767	6471.33
924.077	6468.84
924.387	6435.85
924.697	6366.02
925.008	6330.31
925.318	6354.04
925.628	6319.69
925.938	6278.56
926.248	6257.1
926.558	6222.07
926.867	6203.99
927.177	6180.26
927.487	6172.58
927.796	6121.05
928.106	6091.68
928.416	6114.73
928.725	6106.36
929.034	6058.46
929.344	6030.66
929.653	5997.89
929.962	5950.89
930.271	5885.81
930.581	5878.35
930.89	5832.02
931.199	5841.29
931.508	5821.4
931.817	5792.7
932.125	5843.09
932.434	5773.72
932.743	5754.74
933.051	5717.67
933.36	5655.53
933.669	5673.16
933.977	5624.34
934.286	5639.94
934.594	5597.45
934.902	5552.93
935.21	5509.09
935.519	5518.81
935.827	5496.21
936.135	5453.5
936.443	5431.35
936.751	5414.18
937.059	5431.58
937.367	5357.46
937.674	5340.51
937.982	5310
938.29	5307.06
938.597	5267.74
938.905	5276.78
939.213	5209.21
939.52	5199.04
939.827	5202.89
940.135	5133.74
940.442	5166.73
940.749	5165.37
941.056	5119.72
941.363	5058.71
941.67	5064.36
941.977	5023
942.284	4983.91
942.591	5005.38
942.898	4938.26
943.205	4980.52
943.511	4924.02
943.818	4925.38
944.125	4847.64
944.431	4902.1
944.738	4867.3
945.044	4868.88
945.35	4813.97
945.657	4850.35
945.963	4738.27
946.269	4733.97
946.575	4778.04
946.881	4677.93
947.187	4679.06
947.493	4642.22
947.799	4656.69
948.105	4650.81
948.41	4620.3
948.716	4616.01
949.022	4577.37
949.327	4570.13
949.633	4526.75
949.938	4524.94
950.244	4507.99
950.549	4452.17
950.854	4488.1
951.16	4451.72
951.465	4402
951.77	4389.57
952.075	4385.05
952.38	4389.35
952.685	4377.82
952.99	4333.53
953.294	4311.38
953.599	4303.02
953.904	4237.94
954.209	4225.28
954.513	4272.51
954.818	4146.19
955.122	4199.52
955.426	4178.05
955.731	4143.93
956.035	4124.27
956.339	4102.8
956.643	4080.88
956.948	4042.69
957.252	4052.41
957.556	4073.42
957.86	4000.66
958.163	4001.79
958.467	3985.97
958.771	3929.25
959.075	3911.85
959.378	3941.68
959.682	3915.91
959.985	3895.8
960.289	3838.85
960.592	3873.66
960.896	3898.06
961.199	3801.79
961.502	3798.4
961.805	3795.69
962.108	3781.23
962.411	3782.58
962.714	3719.08
963.017	3734.45
963.32	3705.52
963.623	3711.85
963.926	3702.81
964.228	3639.99
964.531	3655.13
964.833	3629.82
965.136	3618.75
965.438	3590.05
965.741	3593.66
966.043	3594.11
966.345	3543.72
966.648	3529.26
966.95	3509.82
967.252	3489.03
967.554	3507.34
967.856	3501.46
968.158	3503.04
968.46	3456.94
968.761	3414.46
969.063	3447.68
969.365	3401.35
969.666	3385.98
969.968	3384.18
970.269	3360.9
970.571	3364.06
970.872	3342.37
971.174	3348.92
971.475	3309.15
971.776	3333.33
972.077	3248.81
972.378	3276.83
972.679	3274.35
972.98	3252.2
973.281	3219.66
973.582	3207.01
973.883	3216.27
974.183	3187.12
974.484	3186.22
974.785	3169.72
975.085	3139.66
975.386	3128.36
975.686	3140.57
975.986	3058.99
976.287	3108.7
976.587	3070.51
976.887	3035.71
977.187	3032.55
977.487	3033.9
977.787	3025.32
978.087	2988.71
978.387	3048.59
978.687	2969.27
978.987	2986.9
979.286	2890.63
979.586	2945.77
979.885	2915.49
980.185	2887.24
980.484	2902.38
980.784	2891.76
981.083	2851.54
981.382	2826.68
981.682	2874.59
981.981	2860.57
982.28	2778.09
982.579	2792.55
982.878	2803.85
983.177	2779.22
983.475	2773.12
983.774	2769.05
984.073	2720.92
984.372	2740.35
984.67	2702.39
984.969	2715.27
985.267	2722.27
985.566	2717.3
985.864	2673.69
986.162	2662.61
986.461	2643.18
986.759	2622.61
987.057	2627.36
987.355	2639.79
987.653	2590.75
987.951	2569.28
988.249	2562.73
988.547	2549.17
988.844	2580.13
989.142	2528.15
989.44	2507.82
989.737	2488.83
990.035	2504.88
990.332	2484.54
990.63	2516.63
990.927	2478.89
991.224	2464.88
991.521	2449.06
991.819	2447.03
992.116	2443.86
992.413	2433.02
992.71	2391.43
993.006	2427.14
993.303	2396.41
993.6	2362.51
993.897	2361.83
994.193	2352.34
994.49	2325.67
994.787	2321.61
995.083	2332.23
995.379	2313.7
995.676	2308.05
995.972	2294.49
996.268	2305.11
996.565	2272.34
996.861	2248.84
997.157	2228.05
997.453	2250.65
997.749	2227.14
998.044	2209.07
998.34	2200.03
998.636	2182.4
998.932	2155.28
999.227	2176.3
999.523	2153.7
999.818	2167.26
1000.114	2138.79
1000.409	2117.32
1000.704	2125.45
1001	2073.93
1001.295	2083.65
1001.59	2066.7
1001.885	2095.17
1002.18	2023.53
1002.475	2078.9
1002.77	2015.85
1003.065	2018.11
1003.359	2002.74
1003.654	1991.67
1003.949	1995.96
1004.243	1994.61
1004.538	1952.58
1004.832	1982.41
1005.127	1947.6
1005.421	1982.86
1005.715	1902.18
1006.009	1889.07
1006.304	1885.46
1006.598	1887.04
1006.892	1889.53
1007.186	1860.15
1007.48	1842.07
1007.773	1866.48
1008.067	1848.62
1008.361	1820.15
1008.655	1840.94
1008.948	1833.71
1009.242	1819.02
1009.535	1824.67
1009.829	1747.61
1010.122	1767.04
1010.415	1766.82
1010.708	1759.59
1011.001	1739.47
1011.295	1737.89
1011.588	1690.89
1011.881	1732.02
1012.173	1703.32
1012.466	1698.8
1012.759	1657.67
1013.052	1651.79
1013.344	1697.67
1013.637	1654.28
1013.93	1642.3
1014.222	1624
1014.514	1610.21
1014.807	1592.13
1015.099	1629.19
1015.391	1580.61
1015.683	1615.18
1015.976	1598.69
1016.268	1549.65
1016.56	1527.28
1016.851	1531.34
1017.143	1512.59
1017.435	1532.25
1017.727	1506.94
1018.018	1526.37
1018.31	1501.74
1018.602	1486.37
1018.893	1464.68
1019.185	1459.71
1019.476	1468.52
1019.767	1431.69
1020.058	1447.5
1020.35	1442.31
1020.641	1425.13
1020.932	1429.43
1021.223	1390.78
1021.514	1408.18
1021.804	1362.08
1022.095	1350.11
1022.386	1358.92
1022.677	1380.16
1022.967	1353.5
1023.258	1343.33
1023.548	1315.76
1023.839	1337
1024.129	1324.8
1024.419	1313.72
1024.709	1318.69
1025	1313.27
1025.29	1273.5
1025.58	1287.73
1025.87	1254.06
1026.16	1270.56
1026.449	1271.46
1026.739	1272.82
1027.029	1236.44
1027.319	1232.59
1027.608	1214.52
1027.898	1197.57
1028.187	1199.15
1028.477	1209.09
1028.766	1190.56
1029.055	1193.73
1029.344	1198.47
1029.634	1185.82
1029.923	1170.9
1030.212	1168.19
1030.501	1145.37
1030.79	1107.63
1031.078	1110.79
1031.367	1106.27
1031.656	1105.59
1031.945	1093.62
1032.233	1114.18
1032.522	1118.47
1032.81	1092.94
1033.099	1085.48
1033.387	1065.14
1033.675	1075.31
1033.963	1072.6
1034.251	1058.59
1034.54	1036.89
1034.828	1014.3
1035.116	1046.61
1035.403	1012.94
1035.691	1032.6
1035.979	1007.74
1036.267	1013.62
1036.554	979.04
1036.842	1019.04
1037.129	991.7
1037.417	988.99
1037.704	962.55
1037.992	977.01
1038.279	955.09
1038.566	973.84
1038.853	973.84
1039.14	973.84
