Data from hue_140_FLMS001491_00099.txt Node
Date: Tue Feb 07 16:56:42 GMT 2017
User: dcchb
Spectrometer: FLMS00149
Trigger mode: 0
Integration Time (sec): 2.000000E-2
Scans to average: 10
Electric dark correction enabled: true
Nonlinearity correction enabled: false
Boxcar width: 0
XAxis mode: Wavelengths
Number of Pixels in Spectrum: 2048
>>>>>Begin Spectral Data<<<<<
341.393	-20.83
341.776	-20.83
342.16	-20.83
342.543	-64.9
342.927	-68.52
343.31	-46.59
343.693	-82.53
344.077	-43.88
344.46	-51.57
344.843	-44.56
345.226	-62.87
345.61	-25.13
345.993	-17.44
346.376	-14.96
346.759	-10.21
347.142	17.81
347.525	49.67
347.908	61.42
348.291	67.07
348.674	95.32
349.057	108.43
349.44	110.46
349.823	131.48
350.206	162.67
350.588	201.08
350.971	204.47
351.354	220.97
351.737	216.9
352.119	233.17
352.502	243.34
352.884	262.55
353.267	272.94
353.65	292.83
354.032	312.04
354.414	327.63
354.797	297.35
355.179	336.22
355.562	317.24
355.944	328.08
356.326	327.41
356.709	316.33
357.091	322.66
357.473	342.55
357.855	345.26
358.238	337.58
358.62	337.12
359.002	311.14
359.384	328.76
359.766	325.82
360.148	333.51
360.53	335.99
360.912	303
361.294	339.84
361.676	318.14
362.057	330.57
362.439	313.4
362.821	319.95
363.203	329.89
363.584	309.78
363.966	318.14
364.348	334.86
364.729	327.41
365.111	332.15
365.493	324.47
365.874	307.07
366.256	328.08
366.637	324.02
367.019	304.58
367.4	304.81
367.781	329.67
368.163	317.69
368.544	310.23
368.925	288.76
369.306	310.68
369.688	295.09
370.069	300.74
370.45	301.87
370.831	312.49
371.212	316.33
371.593	336.9
371.974	305.94
372.355	295.54
372.736	324.92
373.117	326.28
373.498	319.05
373.879	310.91
374.26	313.17
374.641	328.08
375.021	311.36
375.402	319.27
375.783	301.64
376.163	316.11
376.544	324.02
376.925	312.72
377.305	315.66
377.686	316.11
378.066	324.24
378.447	334.64
378.827	328.76
379.208	328.76
379.588	328.31
379.968	331.02
380.349	339.16
380.729	342.55
381.109	332.38
381.489	344.81
381.87	345.71
382.25	335.32
382.63	334.86
383.01	342.1
383.39	322.66
383.77	337.8
384.15	337.8
384.53	346.84
384.91	356.78
385.29	344.58
385.67	358.82
386.049	355.43
386.429	351.36
386.809	355.2
387.189	338.93
387.568	349.33
387.948	370.57
388.328	366.05
388.707	338.48
389.087	364.47
389.466	357.91
389.846	368.99
390.225	361.53
390.605	358.59
390.984	383.22
391.363	372.38
391.743	354.3
392.122	373.51
392.501	371.25
392.881	376.67
393.26	373.28
393.639	369.21
394.018	364.02
394.397	372.38
394.776	370.12
395.155	382.32
395.534	378.93
395.913	384.81
396.292	377.35
396.671	372.38
397.05	384.58
397.429	371.25
397.808	405.82
398.186	376.67
398.565	384.35
398.944	373.96
399.323	386.61
399.701	392.72
400.08	391.13
400.458	399.27
400.837	388.42
401.215	395.2
401.594	411.47
401.972	417.35
402.351	392.26
402.729	415.31
403.107	414.86
403.486	433.62
403.864	403.34
404.242	420.51
404.62	408.08
404.999	416.9
405.377	432.71
405.755	415.54
406.133	423.45
406.511	421.42
406.889	437.46
407.267	424.58
407.645	442.88
408.023	430.91
408.401	427.97
408.779	448.76
409.156	454.41
409.534	456.89
409.912	463.22
410.29	473.62
410.667	449.89
411.045	463
411.422	449.44
411.8	458.02
412.178	458.93
412.555	474.3
412.933	465.71
413.31	499.38
413.687	479.04
414.065	465.26
414.442	486.05
414.819	497.12
415.197	490.11
415.574	487.4
415.951	500.96
416.328	499.15
416.705	505.48
417.082	494.86
417.46	521.07
417.837	507.06
418.214	517.46
418.591	514.97
418.967	488.76
419.344	520.85
419.721	521.3
420.098	533.73
420.475	540.51
420.852	560.85
421.228	528.76
421.605	538.93
421.982	535.76
422.358	537.8
422.735	547.51
423.111	544.58
423.488	572.15
423.864	543.67
424.241	581.86
424.617	581.19
424.994	569.43
425.37	559.72
425.746	578.7
426.123	572.37
426.499	563.56
426.875	596.78
427.251	585.48
427.627	594.97
428.003	607.85
428.379	614.4
428.756	604.01
429.132	620.28
429.507	615.99
429.883	623.9
430.259	632.48
430.635	663.89
431.011	636.33
431.387	633.39
431.763	656.66
432.138	674.06
432.514	651.92
432.89	663.44
433.265	672.93
433.641	677.45
434.016	677.23
434.392	702.54
434.767	719.71
435.143	719.94
435.518	714.97
435.894	721.07
436.269	723.78
436.644	728.07
437.02	727.62
437.395	743.67
437.77	735.98
438.145	743.44
438.52	770.11
438.895	763.33
439.271	743.67
439.646	785.02
440.021	761.97
440.395	778.02
440.77	762.42
441.145	783.67
441.52	805.13
441.895	801.07
442.27	823.21
442.645	802.87
443.019	807.85
443.394	816.43
443.769	834.96
444.143	825.7
444.518	834.51
444.892	808.07
445.267	821.4
445.641	832.93
446.016	840.39
446.39	855.53
446.764	864.79
447.139	876.09
447.513	874.28
447.887	858.69
448.262	872.7
448.636	891.23
449.01	911.12
449.384	888.97
449.758	929.65
450.132	914.06
450.506	903.66
450.88	935.07
451.254	959.93
451.628	952.25
452.002	938.24
452.376	951.57
452.75	977.56
453.123	980.95
453.497	1014.39
453.871	1004.9
454.244	1024.79
454.618	1014.85
454.992	1027.95
455.365	1040.83
455.739	1039.7
456.112	1044.68
456.486	1071.79
456.859	1065.01
457.232	1106.82
457.606	1072.02
457.979	1114.05
458.352	1145.92
458.725	1159.02
459.099	1166.48
459.472	1169.87
459.845	1174.84
460.218	1163.32
460.591	1188.4
460.964	1203.09
461.337	1206.93
461.71	1238.34
462.083	1285.12
462.456	1250.55
462.829	1298.91
463.201	1275.86
463.574	1327.61
463.947	1335.06
464.32	1367.15
464.692	1358.34
465.065	1384.78
465.438	1434.27
465.81	1395.4
466.183	1443.31
466.555	1476.75
466.928	1454.16
467.3	1491.44
467.672	1522.18
468.045	1539.35
468.417	1563.76
468.789	1606.24
469.161	1618.22
469.534	1686.47
469.906	1686.47
470.278	1715.39
470.65	1744.32
471.022	1794.26
471.394	1841.94
471.766	1840.14
472.138	1868.38
472.51	1904.99
472.882	1954.71
473.253	1988.61
473.625	2021.83
473.997	2034.71
474.369	2083.29
474.74	2144.08
475.112	2215.04
475.484	2265.89
475.855	2285.32
476.227	2325.55
476.598	2395.83
476.97	2432.89
477.341	2498.65
477.713	2584.52
478.084	2630.17
478.455	2741.13
478.827	2777.74
479.198	2900.45
479.569	2908.36
479.94	2995.59
480.311	3095.02
480.682	3163.94
481.053	3271.96
481.424	3343.15
481.795	3425.18
482.166	3522.12
482.537	3640.77
482.908	3714.89
483.279	3749.01
483.65	3890.02
484.021	4026.74
484.391	4102.67
484.762	4165.95
485.133	4293.4
485.503	4410.24
485.874	4541.08
486.244	4603.45
486.615	4799.61
486.985	4867.85
487.356	5027.62
487.726	5120.73
488.097	5271.68
488.467	5336.09
488.837	5478.46
489.207	5639.81
489.578	5809.52
489.948	5868.28
490.318	6022.62
490.688	6110.31
491.058	6300.81
491.428	6438.66
491.798	6510.29
492.168	6705.32
492.538	6818.08
492.908	6942.37
493.278	7082.71
493.648	7135.82
494.017	7361.57
494.387	7481.34
494.757	7618.97
495.126	7721.79
495.496	7810.6
495.866	7952.52
496.235	8095.34
496.605	8261.21
496.974	8314.99
497.344	8413.97
497.713	8473.63
498.082	8599.28
498.452	8773.96
498.821	8890.8
499.19	8940.74
499.559	9036.78
499.928	9157.23
500.298	9257.12
500.667	9481.06
501.036	9477.67
501.405	9598.8
501.774	9611.91
502.143	9732.81
502.512	9771.45
502.88	9906.14
503.249	9976.19
503.618	10086.7
503.987	10109.07
504.356	10222.74
504.724	10424.09
505.093	10431.77
505.462	10473.81
505.83	10500.92
506.199	10577.31
506.567	10813.91
506.936	10799.67
507.304	10883.97
507.672	10918.77
508.041	11056.62
508.409	11123.73
508.777	11145.88
509.145	11212.77
509.514	11253
509.882	11342.26
510.25	11393.33
510.618	11414.8
510.986	11493.89
511.354	11590.39
511.722	11643.27
512.09	11784.05
512.458	11744.51
512.826	11840.78
513.193	11856.82
513.561	11866.09
513.929	11984.28
514.297	12070.15
514.664	12163.03
515.032	12066.08
515.4	12296.36
515.767	12206.64
516.135	12298.17
516.502	12202.8
516.869	12432.85
517.237	12445.96
517.604	12288.45
517.972	12500.65
518.339	12496.58
518.706	12490.93
519.073	12499.29
519.44	12601.21
519.808	12652.96
520.175	12557.37
520.542	12745.84
520.909	12705.16
521.276	12758.04
521.643	12877.81
522.009	12845.95
522.376	12869.22
522.743	12900.86
523.11	13002.55
523.477	13110.35
523.843	13106.28
524.21	13145.15
524.577	13150.35
524.943	13188.99
525.31	13207.75
525.676	13330.91
526.043	13351.02
526.409	13249.33
526.776	13314.86
527.142	13355.09
527.508	13305.14
527.874	13458.36
528.241	13432.6
528.607	13404.8
528.973	13523.9
529.339	13472.6
529.705	13553.5
530.071	13553.27
530.437	13502.88
530.803	13498.81
531.169	13590.33
531.535	13535.19
531.901	13505.37
532.267	13533.84
532.632	13539.26
532.998	13578.36
533.364	13532.94
533.73	13495.42
534.095	13571.35
534.461	13577.45
534.826	13475.08
535.192	13464.46
535.557	13490.45
535.923	13429.44
536.288	13348.99
536.653	13401.41
537.019	13361.41
537.384	13431.69
537.749	13442.32
538.114	13346.5
538.479	13258.37
538.845	13333.39
539.21	13277.35
539.575	13227.41
539.94	13218.37
540.305	13198.25
540.67	13120.97
541.034	13169.1
541.399	13147.18
541.764	12991.25
542.129	13135.66
542.494	13035.77
542.858	12966.85
543.223	12982.89
543.587	13014.53
543.952	12952.84
544.316	12871.26
544.681	12828.55
545.045	12778.15
545.41	12869.68
545.774	12811.6
546.138	12724.59
546.503	12656.57
546.867	12638.72
547.231	12694.31
547.595	12679.62
547.959	12632.62
548.324	12596.69
548.688	12572.96
549.052	12501.78
549.416	12528.89
549.779	12504.49
550.143	12457.48
550.507	12490.7
550.871	12400.08
551.235	12379.29
551.599	12442.57
551.962	12344.04
552.326	12329.12
552.689	12332.97
553.053	12266.53
553.417	12191.95
553.78	12354.21
554.143	12196.93
554.507	12212.29
554.87	12180.65
555.234	12214.78
555.597	12168.23
555.96	12172.07
556.323	12099.98
556.686	12083.26
557.05	12133.2
557.413	12096.36
557.776	12082.13
558.139	12177.26
558.502	12048.23
558.865	12086.87
559.228	12121.22
559.59	12076.7
559.953	12081.9
560.316	12139.3
560.679	12166.19
561.041	12100.66
561.404	12125.06
561.767	12159.19
562.129	12075.12
562.492	12187.21
562.854	12070.15
563.217	12096.14
563.579	12105.63
563.941	12151.05
564.304	12136.59
564.666	12201.67
565.028	12158.28
565.39	12169.58
565.753	12165.29
566.115	12181.56
566.477	12276.92
566.839	12248
567.201	12257.71
567.563	12221.11
567.925	12344.04
568.287	12321.89
568.648	12325.06
569.01	12292.74
569.372	12361.44
569.734	12331.61
570.095	12370.48
570.457	12403.47
570.819	12400.08
571.18	12414.77
571.542	12308.56
571.903	12441.66
572.265	12424.26
572.626	12443.25
572.987	12449.8
573.349	12461.1
573.71	12464.49
574.071	12459.97
574.432	12505.17
574.794	12503.58
575.155	12516.01
575.516	12540.87
575.877	12572.96
576.238	12514.88
576.599	12619.29
576.96	12477.14
577.32	12522.34
577.681	12564.37
578.042	12532.51
578.403	12514.88
578.763	12570.25
579.124	12554.2
579.485	12562.79
579.845	12573.19
580.206	12561.89
580.566	12504.94
580.927	12556.46
581.287	12627.65
581.648	12541.55
582.008	12548.55
582.368	12550.36
582.728	12569.8
583.089	12546.52
583.449	12539.29
583.809	12551.72
584.169	12528.22
584.529	12434.66
584.889	12579.51
585.249	12429.24
585.609	12360.08
585.969	12499.29
586.329	12478.95
586.688	12465.17
587.048	12427.65
587.408	12401.89
587.768	12398.5
588.127	12418.16
588.487	12468.78
588.846	12483.7
589.206	12316.7
589.565	12329.58
589.925	12509.23
590.284	12436.24
590.643	12468.1
591.003	12434.66
591.362	12435.56
591.721	12357.6
592.08	12393.53
592.44	12341.55
592.799	12382.23
593.158	12391.95
593.517	12354.44
593.876	12340.2
594.235	12328.67
594.593	12229.92
594.952	12311.27
595.311	12220.43
595.67	12215.91
596.029	12333.19
596.387	12366.19
596.746	12339.75
597.104	12221.78
597.463	12245.96
597.822	12309.92
598.18	12165.74
598.538	12239.86
598.897	12259.97
599.255	12180.65
599.613	12361.44
599.972	12299.3
600.33	12318.28
600.688	12313.98
601.046	12314.44
601.404	12323.93
601.762	12277.15
602.12	12284.83
602.478	12261.1
602.836	12341.33
603.194	12265.17
603.552	12304.72
603.91	12229.47
604.268	12352.85
604.625	12279.86
604.983	12275.57
605.341	12230.6
605.698	12316.02
606.056	12249.58
606.413	12248
606.771	12290.93
607.128	12363.93
607.485	12241.44
607.843	12300.65
608.2	12318.05
608.557	12346.75
608.914	12262.91
609.272	12357.82
609.629	12407.54
609.986	12414.77
610.343	12338.16
610.7	12445.73
611.057	12417.48
611.414	12466.75
611.771	12426.52
612.127	12467.88
612.484	12502.23
612.841	12451.16
613.198	12458.16
613.554	12425.85
613.911	12515.11
614.267	12501.1
614.624	12467.2
614.98	12519.85
615.337	12500.65
615.693	12517.82
616.05	12558.95
616.406	12578.61
616.762	12559.4
617.118	12480.08
617.475	12542.23
617.831	12536.13
618.187	12547.2
618.543	12592.85
618.899	12645.05
619.255	12606.41
619.611	12580.64
619.967	12552.62
620.323	12644.37
620.678	12627.2
621.034	12586.97
621.39	12590.36
621.746	12529.12
622.101	12790.58
622.457	12647.53
622.812	12656.12
623.168	12705.61
623.523	12665.39
623.879	12708.1
624.234	12615.45
624.589	12649.12
624.945	12616.8
625.3	12725.72
625.655	12603.24
626.01	12638.5
626.365	12660.42
626.72	12602.56
627.075	12696.57
627.43	12620.19
627.785	12583.81
628.14	12629.23
628.495	12637.37
628.85	12542.9
629.205	12593.75
629.559	12617.93
629.914	12612.28
630.269	12643.92
630.623	12534.32
630.978	12467.43
631.332	12577.03
631.687	12579.06
632.041	12528.67
632.396	12607.54
632.75	12488.22
633.104	12535.67
633.459	12442.79
633.813	12449.35
634.167	12427.43
634.521	12489.8
634.875	12468.1
635.229	12424.49
635.583	12366.86
635.937	12344.94
636.291	12341.33
636.645	12327.54
636.999	12311.27
637.352	12350.37
637.706	12241.22
638.06	12251.84
638.413	12314.66
638.767	12271.95
639.121	12264.04
639.474	12126.64
639.828	12147.21
640.181	12271.5
640.534	12248.68
640.888	12123.25
641.241	12113.31
641.594	12189.47
641.947	12185.63
642.301	12130.71
642.654	12232.18
643.007	12157.15
643.36	12159.19
643.713	12151.73
644.066	12160.54
644.419	12154.21
644.771	12018.85
645.124	11898.85
645.477	11898.4
645.83	11796.03
646.182	11797.61
646.535	11743.83
646.888	11730.72
647.24	11610.05
647.593	11713.1
647.945	11617.96
648.298	11654.34
648.65	11639.43
649.002	11635.81
649.355	11673.77
649.707	11643.04
650.059	11720.55
650.411	11854.34
650.763	11886.65
651.115	11986.08
651.467	12002.81
651.819	11904.05
652.171	11959.42
652.523	11877.61
652.875	11897.5
653.227	11839.65
653.578	11921.45
653.93	11936.37
654.282	11844.62
654.633	11887.33
654.985	11926.88
655.337	11889.81
655.688	11844.39
656.039	11968
656.391	11843.71
656.742	11958.74
657.094	11884.84
657.445	12001.45
657.796	11888.23
658.147	11903.6
658.498	11872.64
658.849	11915.35
659.2	11894.11
659.551	11901.34
659.902	12005.52
660.253	11944.05
660.604	11991.73
660.955	11912.86
661.306	11985.18
661.656	11974.33
662.007	12006.87
662.358	11991.73
662.708	12043.93
663.059	11921
663.409	11886.2
663.76	11911.51
664.11	11994.67
664.461	12051.62
664.811	12033.09
665.161	11955.8
665.511	12013.2
665.862	11956.03
666.212	11996.03
666.562	12010.04
666.912	11968.46
667.262	11956.93
667.612	11957.38
667.962	11970.49
668.312	11998.74
668.662	12024.05
669.011	11989.25
669.361	11920.32
669.711	11939.08
670.06	11899.53
670.41	11987.44
670.76	11900.66
671.109	12048.68
671.459	11889.81
671.808	11817.5
672.157	11912.41
672.507	11845.07
672.856	11861.79
673.205	11822.47
673.554	11897.72
673.904	11815.69
674.253	11955.35
674.602	11862.92
674.951	11656.37
675.3	11607.56
675.649	11884.16
675.998	11812.3
676.346	11786.99
676.695	11815.47
677.044	11737.28
677.393	11833.77
677.741	11758.52
678.09	11748.58
678.438	11721.23
678.787	11729.37
679.135	11691.4
679.484	11669.71
679.832	11686.2
680.181	11643.95
680.529	11671.97
680.877	11634.45
681.225	11597.62
681.573	11607.34
681.922	11552.65
682.27	11562.14
682.618	11476.49
682.966	11453.89
683.314	11517.39
683.661	11491.63
684.009	11386.78
684.357	11298.19
684.705	11349.26
685.053	11368.47
685.4	11356.04
685.748	11198.76
686.095	11363.27
686.443	11245.99
686.79	11164.18
687.138	11235.37
687.485	11218.87
687.832	11138.2
688.18	11200.12
688.527	11113.56
688.874	11152.43
689.221	11046.45
689.568	11130.96
689.915	11024.98
690.262	10983.85
690.609	10919.67
690.956	10912.67
691.303	10841.03
691.65	10851.42
691.997	10802.84
692.344	10761.71
692.69	10747.92
693.037	10685.78
693.383	10618.44
693.73	10699.11
694.077	10531.43
694.423	10581.15
694.769	10575.95
695.116	10478.78
695.462	10465.45
695.808	10425.9
696.155	10512.22
696.501	10335.28
696.847	10349.52
697.193	10295.05
697.539	10332.79
697.885	10214.15
698.231	10177.09
698.577	10146.36
698.923	10168.73
699.269	10049.86
699.614	10032.69
699.96	10018.9
700.306	9963.09
700.651	9892.13
700.997	9898
701.342	9852.81
701.688	9826.82
702.033	9833.6
702.379	9810.55
702.724	9793.82
703.069	9770.1
703.415	9654.85
703.76	9578.01
704.105	9656.2
704.45	9631.79
704.795	9578.24
705.14	9575.07
705.485	9546.6
705.83	9494.4
706.175	9499.14
706.52	9512.7
706.865	9424.12
707.209	9388.86
707.554	9346.38
707.899	9377.79
708.243	9263.89
708.588	9331.01
708.932	9259.38
709.277	9247.85
709.621	9251.92
709.966	9140.73
710.31	9221.86
710.654	9094.18
710.998	9163.33
711.342	9132.15
711.687	9119.72
712.031	9079.04
712.375	9065.71
712.719	9000.62
713.063	8969.89
713.407	9015.99
713.75	9010.34
714.094	8951.13
714.438	8882.66
714.782	8890.12
715.125	8888.31
715.469	8863.23
715.812	8843.79
716.156	8901.87
716.499	8738.26
716.843	8814.87
717.186	8805.6
717.53	8780.52
717.873	8766.51
718.216	8842.66
718.559	8667.75
718.902	8691.93
719.246	8665.27
719.589	8663.91
719.932	8604.48
720.275	8660.29
720.617	8582.56
720.96	8641.09
721.303	8621.88
721.646	8571.26
721.989	8531.71
722.331	8541.2
722.674	8560.18
723.016	8609.45
723.359	8569.45
723.701	8593.18
724.044	8506.17
724.386	8524.93
724.729	8533.07
725.071	8557.25
725.413	8457.59
725.755	8512.28
726.097	8442.45
726.439	8439.06
726.782	8486.29
727.124	8523.35
727.465	8414.88
727.807	8383.47
728.149	8429.57
728.491	8430.02
728.833	8440.41
729.175	8397.48
729.516	8350.02
729.858	8408.1
730.199	8411.26
730.541	8345.05
730.882	8332.62
731.224	8400.64
731.565	8334.43
731.906	8375.1
732.248	8370.36
732.589	8370.36
732.93	8327.87
733.271	8341.89
733.612	8341.89
733.953	8384.82
734.294	8358.38
734.635	8331.04
734.976	8283.36
735.317	8297.37
735.658	8347.08
735.999	8314.99
736.339	8311.15
736.68	8337.82
737.021	8375.78
737.361	8314.09
737.702	8390.02
738.042	8412.39
738.383	8352.73
738.723	8448.78
739.063	8391.83
739.404	8387.08
739.744	8427.76
740.084	8361.09
740.424	8449.23
740.764	8420.98
741.104	8478.38
741.444	8406.06
741.784	8475.89
742.124	8499.17
742.464	8539.62
742.804	8507.76
743.143	8504.82
743.483	8595.44
743.823	8477.7
744.162	8575.78
744.502	8649.9
744.841	8602.9
745.181	8700.52
745.52	8699.39
745.86	8721.31
746.199	8712.95
746.538	8780.07
746.877	8845.37
747.216	8906.62
747.556	8920.4
747.895	8992.94
748.234	8971.93
748.573	9025.03
748.911	9090.57
749.25	9167.4
749.589	9219.15
749.928	9275.42
750.267	9351.8
750.605	9348.64
750.944	9456.66
751.283	9519.93
751.621	9609.65
751.96	9654.62
752.298	9738.46
752.636	9926.93
752.975	9932.58
753.313	10034.5
753.651	10170.31
753.989	10215.06
754.327	10364.66
754.666	10469.96
755.004	10615.95
755.342	10730.75
755.679	10770.52
756.017	10889.84
756.355	11074.92
756.693	11109.04
757.031	11258.64
757.368	11440.11
757.706	11551.29
758.044	11663.15
758.381	11880.32
758.719	11987.44
759.056	12097.04
759.394	12263.59
759.731	12406.64
760.068	12520.76
760.405	12742.67
760.743	12806.85
761.08	12958.03
761.417	13100.18
761.754	13290.23
762.091	13390.79
762.428	13569.32
762.765	13675.98
763.102	13994.62
763.438	14106.25
763.775	14210.88
764.112	14458.79
764.449	14661.27
764.785	14698.78
765.122	14775.84
765.458	14951.43
765.795	15120.92
766.131	15334.7
766.467	15328.82
766.804	15532.2
767.14	15663.5
767.476	15861.46
767.812	15801.58
768.148	16075.24
768.485	16101.46
768.821	16147.78
769.157	16313.43
769.492	16420.09
769.828	16635
770.164	16630.71
770.5	16753.42
770.836	16893.98
771.171	16857.59
771.507	17032.73
771.842	16978.95
772.178	17143.24
772.513	17197.02
772.849	17272.72
773.184	17288.54
773.519	17457.35
773.855	17538.48
774.19	17521.76
774.525	17591.13
774.86	17681.07
775.195	17781.19
775.53	17776.67
775.865	17824.57
776.2	17752.71
776.535	17798.36
776.87	17923.55
777.205	17946.15
777.539	18037
777.874	18065.7
778.209	18033.38
778.543	17993.16
778.878	18022.99
779.212	18156.77
779.547	18075.87
779.881	18144.79
780.215	18109.76
780.55	18254.62
780.884	18211
781.218	18164
781.552	18168.97
781.886	18256.65
782.22	18115.41
782.554	18248.52
782.888	18096.43
783.222	18042.65
783.556	18120.61
783.889	18123.77
784.223	18037.9
784.557	17923.55
784.89	18116.54
785.224	17929.66
785.557	17993.16
785.891	17926.72
786.224	17972.59
786.558	17926.27
786.891	17871.58
787.224	17820.73
787.557	17923.1
787.891	17831.58
788.224	17857.79
788.557	17844.91
788.89	17879.49
789.223	17811.47
789.556	17688.76
789.888	17744.12
790.221	17604.24
790.554	17558.37
790.887	17588.65
791.219	17583.9
791.552	17493.51
791.884	17484.24
792.217	17473.85
792.549	17441.08
792.882	17338.26
793.214	17301.2
793.546	17238.37
793.879	17213.97
794.211	17159.28
794.543	17191.82
794.875	17232.95
795.207	17281.99
795.539	17096.01
795.871	17143.91
796.203	16992.05
796.535	16941.66
796.867	16908.21
797.198	16940.76
797.53	16904.6
797.862	16707.09
798.193	16808.56
798.525	16764.71
798.856	16772.62
799.188	16525.62
799.519	16562.01
799.85	16594.32
800.182	16540.54
800.513	16595.23
800.844	16470.71
801.175	16580.76
801.506	16479.52
801.837	16403.14
802.168	16320.88
802.499	16313.88
802.83	16258.06
803.161	16150.95
803.491	16161.57
803.822	16164.73
804.153	16114.11
804.483	15927
804.814	16020.78
805.145	15901.46
805.475	15937.84
805.805	15931.52
806.136	15931.74
806.466	15882.03
806.796	15872.76
807.126	15873.21
807.457	15717.06
807.787	15757.51
808.117	15676.61
808.447	15628.47
808.777	15558.42
809.107	15557.29
809.436	15420.12
809.766	15525.65
810.096	15507.8
810.426	15425.09
810.755	15373.56
811.085	15357.97
811.414	15298.76
811.744	15194.59
812.073	15215.6
812.403	15226.9
812.732	15197.75
813.061	15183.06
813.39	15058.54
813.719	15000.92
814.049	15057.64
814.378	15016.74
814.707	15071.65
815.036	14972.67
815.365	14951.88
815.693	14824.88
816.022	14837.76
816.351	14759.8
816.68	14734.03
817.008	14804.77
817.337	14702.17
817.665	14645.9
817.994	14732
818.322	14680.48
818.651	14586.92
818.979	14569.97
819.307	14600.7
819.636	14644.54
819.964	14475.06
820.292	14552.34
820.62	14555.28
820.948	14435.96
821.276	14553.93
821.604	14548.05
821.932	14532.23
822.259	14542.4
822.587	14445.45
822.915	14443.87
823.243	14481.61
823.57	14393.25
823.898	14405.45
824.225	14407.26
824.553	14422.86
824.88	14399.58
825.207	14370.2
825.535	14398.68
825.862	14436.87
826.189	14432.35
826.516	14569.29
826.843	14561.61
827.17	14458.79
827.497	14514.83
827.824	14469.41
828.151	14514.15
828.478	14397.55
828.805	14516.19
829.131	14428.05
829.458	14464.89
829.785	14363.87
830.111	14388.96
830.438	14544.89
830.764	14471.67
831.09	14509.41
831.417	14405.68
831.743	14495.17
832.069	14476.41
832.395	14435.28
832.722	14487.49
833.048	14416.08
833.374	14401.16
833.7	14326.13
834.026	14341.73
834.351	14426.47
834.677	14360.03
835.003	14383.31
835.329	14315.29
835.654	14397.55
835.98	14308.06
836.306	14252.01
836.631	14301.05
836.956	14263.54
837.282	14315.74
837.607	14232.35
837.932	14176.99
838.258	14169.75
838.583	14229.19
838.908	14091.34
839.233	14217.44
839.558	14032.36
839.883	14054.28
840.208	13985.8
840.533	14007.05
840.858	14088.63
841.182	13937.9
841.507	13951.23
841.832	13887.05
842.156	13916.43
842.481	13849.09
842.805	13790.78
843.13	13837.56
843.454	13763.66
843.778	13708.3
844.103	13643.21
844.427	13617.23
844.751	13675.98
845.075	13600.28
845.399	13552.14
845.723	13383.56
846.047	13485.93
846.371	13442.54
846.695	13380.62
847.019	13261.98
847.343	13252.26
847.666	13156.67
847.99	13117.8
848.313	13153.06
848.637	13012.27
848.96	12979.5
849.284	13001.42
849.607	12870.58
849.931	12903.12
850.254	12769.57
850.577	12718.27
850.9	12674.65
851.223	12582.23
851.546	12623.81
851.869	12445.96
852.192	12494.54
852.515	12405.06
852.838	12410.93
853.161	12371.61
853.483	12281.89
853.806	12280.09
854.129	12282.35
854.451	12179.98
854.774	12117.83
855.096	12067.44
855.419	12043.71
855.741	11971.85
856.063	11991.05
856.385	11923.03
856.708	11909.02
857.03	11839.65
857.352	11865.86
857.674	11797.16
857.996	11800.1
858.318	11636.04
858.64	11709.93
858.961	11710.38
859.283	11656.6
859.605	11625.87
859.926	11664.51
860.248	11537.28
860.57	11508.58
860.891	11531.18
861.212	11422.26
861.534	11338.64
861.855	11349.72
862.176	11387
862.498	11353.56
862.819	11410.28
863.14	11286.44
863.461	11257.06
863.782	11309.94
864.103	11281.02
864.424	11203.96
864.745	11241.47
865.065	11234.69
865.386	11169.16
865.707	11209.61
866.027	11069.27
866.348	11189.95
866.668	11083.06
866.989	11063.85
867.309	11048.71
867.63	11002.83
867.95	10984.98
868.27	10971.19
868.59	10980.01
868.91	10945.88
869.23	10952.89
869.55	10861.14
869.87	10946.11
870.19	10935.04
870.51	10902.04
870.83	10925.77
871.15	10842.16
871.469	10866.34
871.789	10860.91
872.109	10794.02
872.428	10720.13
872.748	10765.55
873.067	10777.08
873.386	10741.37
873.706	10724.65
874.025	10650.53
874.344	10612.33
874.663	10690.07
874.982	10682.39
875.301	10647.59
875.62	10654.82
875.939	10546.8
876.258	10549.51
876.577	10543.41
876.896	10611.43
877.214	10508.83
877.533	10528.27
877.852	10486.01
878.17	10450.53
878.489	10451.66
878.807	10480.36
879.125	10437.88
879.444	10397.65
879.762	10431.32
880.08	10343.41
880.398	10307.03
880.716	10244.43
881.034	10276.3
881.352	10304.09
881.67	10237.2
881.988	10262.96
882.306	10204.44
882.624	10226.13
882.941	10146.58
883.259	10062.52
883.577	10130.09
883.894	10091.44
884.212	10106.36
884.529	10086.25
884.846	10041.05
885.164	10011.9
885.481	9977.32
885.798	9939.36
886.115	9892.13
886.432	9787.04
886.75	9844.44
887.067	9914.73
887.383	9823.2
887.7	9869.3
888.017	9806.03
888.334	9807.38
888.651	9718.12
888.967	9710.21
889.284	9662.3
889.6	9656.88
889.917	9611.68
890.233	9592.02
890.55	9533.49
890.866	9535.98
891.182	9499.37
891.498	9450.56
891.815	9444.46
892.131	9405.36
892.447	9433.83
892.763	9427.51
893.079	9321.75
893.395	9326.72
893.71	9328.53
894.026	9328.53
894.342	9213.73
894.657	9137.34
894.973	9204.46
895.289	9163.11
895.604	9099.15
895.92	9055.54
896.235	9016.67
896.55	8965.37
896.865	8994.98
897.181	8988.87
897.496	8949.33
897.811	8862.32
898.126	8892.83
898.441	8899.38
898.756	8834.75
899.071	8774.87
899.386	8749.11
899.7	8667.98
900.015	8592.27
900.33	8624.36
900.644	8587.3
900.959	8592.73
901.273	8600.86
901.588	8510.02
901.902	8559.51
902.216	8509.56
902.531	8433.86
902.845	8381.88
903.159	8411.49
903.473	8308.44
903.787	8273.64
904.101	8270.7
904.415	8271.6
904.729	8226.86
905.042	8185.28
905.356	8130.59
905.67	8166.97
905.984	8120.42
906.297	8047.88
906.611	7981.22
906.924	8076.58
907.237	7988
907.551	7937.15
907.864	7912.52
908.177	7854.67
908.491	7897.15
908.804	7788
909.117	7657.61
909.43	7736.48
909.743	7663.03
910.056	7715.46
910.368	7649.25
910.681	7576.48
910.994	7593.66
911.307	7618.97
911.619	7457.16
911.932	7527.44
912.244	7407.67
912.557	7408.35
912.869	7395.24
913.181	7338.52
913.494	7380.1
913.806	7251.29
914.118	7241.12
914.43	7236.15
914.742	7244.96
915.054	7165.87
915.366	7170.16
915.678	7099.66
915.99	7129.71
916.302	7022.37
916.613	7047.23
916.925	7016.27
917.236	7010.39
917.548	6924.3
917.859	6949.61
918.171	6907.35
918.482	6900.12
918.794	6871.42
919.105	6790.97
919.416	6753.23
919.727	6762.49
920.038	6742.38
920.349	6721.36
920.66	6660.35
920.971	6657.18
921.282	6679.33
921.593	6551.2
921.903	6547.81
922.214	6525.89
922.525	6495.38
922.835	6487.47
923.146	6415.16
923.456	6434.59
923.767	6411.54
924.077	6381.48
924.387	6323.41
924.697	6294.26
925.008	6293.13
925.318	6239.57
925.628	6275.5
925.938	6240.47
926.248	6137.2
926.558	6162.51
926.867	6115.73
927.177	6169.51
927.487	6133.13
927.796	6049.74
928.106	6076.18
928.416	5964.77
928.725	5988.5
929.034	5928.62
929.344	5934.04
929.653	5918.67
929.962	5851.56
930.271	5834.15
930.581	5872.35
930.89	5807.49
931.199	5802.29
931.508	5779.47
931.817	5830.99
932.125	5718
932.434	5735.63
932.743	5648.85
933.051	5685.46
933.36	5658.57
933.669	5619.24
933.977	5581.05
934.286	5613.37
934.594	5590.77
934.902	5481.62
935.21	5494.73
935.519	5520.49
935.827	5455.41
936.135	5390.1
936.443	5440.04
936.751	5394.84
937.059	5401.85
937.367	5291.34
937.674	5344.68
937.982	5290.44
938.29	5299.93
938.597	5265.36
938.905	5200.05
939.213	5201.18
939.52	5154.62
939.827	5179.48
940.135	5134.06
940.442	5149.88
940.749	5104.46
941.056	5060.62
941.363	5066.04
941.67	5047.96
941.977	5008.87
942.284	4983.56
942.591	4952.14
942.898	4930.22
943.205	4941.3
943.511	4919.15
943.818	4918.25
944.125	4882.99
944.431	4841.41
944.738	4818.14
945.044	4847.74
945.35	4807.29
945.657	4775.88
945.963	4727.74
946.269	4721.19
946.575	4668.99
946.881	4697.46
947.187	4663.56
947.493	4654.75
947.799	4614.75
948.105	4601.64
948.41	4605.94
948.716	4582.21
949.022	4507.64
949.327	4563.45
949.633	4450.46
949.938	4496.79
950.244	4470.35
950.549	4466.96
950.854	4443.68
951.16	4414.3
951.465	4391.48
951.77	4370.46
952.075	4346.74
952.38	4371.59
952.685	4289.79
952.99	4231.48
953.294	4274.87
953.599	4276
953.904	4252.28
954.209	4201.66
954.513	4222.67
954.818	4147.65
955.122	4163.92
955.426	4133.18
955.731	4158.04
956.035	4089.34
956.339	4115.33
956.643	4054.99
956.948	4056.8
957.252	4068.33
957.556	4040.76
957.86	4004.37
958.163	3997.59
958.467	3972.28
958.771	3973.41
959.075	3911.27
959.378	3936.35
959.682	3895.45
959.985	3854.77
960.289	3858.61
960.592	3867.43
960.896	3848.9
961.199	3797.37
961.502	3827.88
961.805	3790.37
962.108	3787.88
962.411	3775.68
962.714	3712.85
963.017	3740.65
963.32	3740.88
963.623	3666.75
963.926	3692.06
964.228	3671.05
964.531	3649.58
964.833	3638.96
965.136	3601.44
965.438	3600.54
965.741	3585.85
966.043	3672.4
966.345	3553.08
966.648	3578.17
966.95	3536.14
967.252	3515.35
967.554	3515.8
967.856	3453.65
968.158	3469.47
968.46	3430.6
968.761	3474.67
969.063	3427.44
969.365	3420.21
969.666	3431.05
969.968	3363.49
970.269	3352.19
970.571	3384.5
970.872	3310.83
971.174	3305.18
971.475	3309.48
971.776	3296.14
972.077	3290.94
972.378	3229.03
972.679	3258.18
972.98	3269.93
973.281	3234.67
973.582	3223.15
973.883	3195.13
974.183	3175.92
974.484	3166.65
974.785	3163.04
975.085	3114.68
975.386	3136.37
975.686	3112.19
975.986	3068.35
976.287	3081.23
976.587	3034.68
976.887	3030.16
977.187	3039.88
977.487	3011.63
977.787	3034.45
978.087	2996.49
978.387	3005.3
978.687	2963.27
978.987	2958.52
979.286	2932.31
979.586	2966.89
979.885	2916.27
980.185	2905.87
980.484	2883.72
980.784	2896.15
981.083	2888.92
981.382	2824.74
981.682	2844.4
981.981	2798.53
982.28	2817.28
982.579	2791.52
982.878	2786.33
983.177	2779.77
983.475	2784.74
983.774	2734.12
984.073	2739.32
984.372	2706.1
984.67	2720.79
984.969	2730.73
985.267	2735.93
985.566	2708.14
985.864	2694.35
986.162	2663.84
986.461	2640.57
986.759	2629.27
987.057	2617.74
987.355	2613.45
987.653	2616.16
987.951	2580.91
988.249	2584.07
988.547	2569.38
988.844	2550.63
989.142	2493.45
989.44	2507.46
989.737	2532.32
990.035	2514.69
990.332	2479.21
990.63	2487.35
990.927	2479.44
991.224	2455.71
991.521	2425.2
991.819	2437.86
992.116	2432.89
992.413	2431.31
992.71	2399.22
993.006	2368.48
993.303	2394.47
993.6	2392.21
993.897	2375.04
994.193	2333.91
994.49	2326
994.787	2294.59
995.083	2310.63
995.379	2313.57
995.676	2322.38
995.972	2307.69
996.268	2282.61
996.565	2276.51
996.861	2236.96
997.157	2264.08
997.453	2222.72
997.749	2229.96
998.044	2198.54
998.34	2197.87
998.636	2225.21
998.932	2206.68
999.227	2135.27
999.523	2146.57
999.818	2117.64
1000.114	2121.71
1000.409	2112.22
1000.704	2080.81
1001	2088.26
1001.295	2073.58
1001.59	2047.59
1001.885	2058.43
1002.18	2037.19
1002.475	2025.44
1002.77	2023.63
1003.065	2004.65
1003.359	2020.02
1003.654	2008.04
1003.949	1980.92
1004.243	1962.62
1004.538	1974.59
1004.832	1944.77
1005.127	1950.87
1005.421	1945.22
1005.715	1933.24
1006.009	1917.65
1006.304	1867.03
1006.598	1883.3
1006.892	1872
1007.186	1855.05
1007.48	1844.88
1007.773	1850.98
1008.067	1797.65
1008.361	1828.16
1008.655	1831.55
1008.948	1789.29
1009.242	1774.83
1009.535	1738.67
1009.829	1753.58
1010.122	1761.95
1010.415	1754.71
1010.708	1733.25
1011.001	1731.89
1011.295	1723.75
1011.588	1716.97
1011.881	1704.77
1012.173	1649.41
1012.466	1675.17
1012.759	1675.39
1013.052	1685.11
1013.344	1641.95
1013.637	1666.58
1013.93	1606.7
1014.222	1626.81
1014.514	1587.26
1014.807	1587.26
1015.099	1579.58
1015.391	1601.5
1015.683	1571.44
1015.976	1580.71
1016.268	1557.43
1016.56	1557.66
1016.851	1545.91
1017.143	1512.23
1017.435	1529.18
1017.727	1503.42
1018.018	1478.34
1018.31	1492.35
1018.602	1504.32
1018.893	1478.56
1019.185	1466.59
1019.476	1452.57
1019.767	1460.03
1020.058	1426.59
1020.35	1434.27
1020.641	1410.32
1020.932	1389.53
1021.223	1388.85
1021.514	1394.95
1021.804	1366.02
1022.095	1384.33
1022.386	1356.98
1022.677	1355.18
1022.967	1337.55
1023.258	1329.19
1023.548	1307.04
1023.839	1320.6
1024.129	1312.01
1024.419	1298.45
1024.709	1294.61
1025	1293.93
1025.29	1265.24
1025.58	1258.23
1025.87	1243.09
1026.16	1271.34
1026.449	1248.96
1026.739	1254.39
1027.029	1222.52
1027.319	1217.1
1027.608	1226.37
1027.898	1205.35
1028.187	1195.41
1028.477	1182.75
1028.766	1185.01
1029.055	1136.2
1029.344	1178.91
1029.634	1178.46
1029.923	1149.08
1030.212	1128.74
1030.501	1132.58
1030.79	1136.65
1031.078	1103.88
1031.367	1112.7
1031.656	1103.88
1031.945	1092.13
1032.233	1096.65
1032.522	1100.27
1032.81	1066.37
1033.099	1057.1
1033.387	1060.27
1033.675	1038.8
1033.963	1066.6
1034.251	1050.33
1034.54	1012.36
1034.828	1044.68
1035.116	1021.85
1035.403	1026.37
1035.691	1002.64
1035.979	1014.85
1036.267	1019.37
1036.554	1001.97
1036.842	960.16
1037.129	956.09
1037.417	967.62
1037.704	966.71
1037.992	979.14
1038.279	970.33
1038.566	964.23
1038.853	964.23
1039.14	964.23
