Data from hue_160_FLMS001491_00033.txt Node
Date: Tue Feb 07 16:51:06 GMT 2017
User: dcchb
Spectrometer: FLMS00149
Trigger mode: 0
Integration Time (sec): 2.000000E-2
Scans to average: 10
Electric dark correction enabled: true
Nonlinearity correction enabled: false
Boxcar width: 0
XAxis mode: Wavelengths
Number of Pixels in Spectrum: 2048
>>>>>Begin Spectral Data<<<<<
341.393	1.41
341.776	1.41
342.16	1.41
342.543	-58.47
342.927	-61.41
343.31	-57.57
343.693	-85.36
344.077	-58.93
344.46	-53.05
344.843	-51.24
345.226	-30.9
345.61	-31.36
345.993	-27.29
346.376	-0.62
346.759	11.36
347.142	28.53
347.525	48.87
347.908	56.78
348.291	80.73
348.674	81.18
349.057	88.87
349.44	135.65
349.823	130
350.206	158.47
350.588	185.59
350.971	202.09
351.354	234.4
351.737	247.28
352.119	240.95
352.502	252.25
352.884	270.56
353.267	272.59
353.65	299.03
354.032	276.89
354.414	289.09
354.797	328.86
355.179	340.84
355.562	314.17
355.944	319.6
356.326	334.06
356.709	333.16
357.091	342.65
357.473	342.87
357.855	336.32
358.238	334.28
358.62	347.39
359.002	332.7
359.384	357.56
359.766	333.38
360.148	331.8
360.53	322.99
360.912	336.32
361.294	336.32
361.676	314.4
362.057	333.16
362.439	329.77
362.821	327.28
363.203	332.93
363.584	324.12
363.966	324.12
364.348	306.04
364.729	299.94
365.111	308.52
365.493	304
365.874	320.05
366.256	305.81
366.637	298.35
367.019	304.46
367.4	309.43
367.781	287.05
368.163	311.23
368.544	297.22
368.925	309.2
369.306	335.41
369.688	344.68
370.069	287.73
370.45	312.59
370.831	293.83
371.212	316.88
371.593	317.34
371.974	318.69
372.355	302.65
372.736	322.31
373.117	309.2
373.498	331.8
373.879	328.64
374.26	311.46
374.641	307.62
375.021	316.88
375.402	310.1
375.783	325.7
376.163	332.93
376.544	328.86
376.925	325.25
377.305	304.91
377.686	336.32
378.066	320.27
378.447	320.05
378.827	320.95
379.208	325.02
379.588	333.16
379.968	320.5
380.349	339.71
380.729	313.72
381.109	344.23
381.489	333.83
381.87	332.7
382.25	315.3
382.63	338.35
383.01	322.76
383.39	352.36
383.77	330.67
384.15	340.16
384.53	350.33
384.91	342.19
385.29	337
385.67	331.57
386.049	335.41
386.429	362.76
386.809	359.37
387.189	367.73
387.568	349.43
387.948	348.3
388.328	351.01
388.707	325.02
389.087	331.12
389.466	345.81
389.846	379.48
390.225	363.21
390.605	354.17
390.984	356.43
391.363	358.24
391.743	356.43
392.122	345.58
392.501	361.18
392.881	349.88
393.26	383.32
393.639	382.65
394.018	365.24
394.397	374.96
394.776	379.03
395.155	382.87
395.534	385.13
395.913	358.01
396.292	372.02
396.671	379.48
397.05	383.55
397.429	378.13
397.808	382.42
398.186	384.23
398.565	398.46
398.944	369.76
399.323	380.84
399.701	399.82
400.08	394.4
400.458	396.2
400.837	399.14
401.215	396.88
401.594	386.49
401.972	401.4
402.351	412.02
402.729	392.36
403.107	377.67
403.486	401.18
403.864	409.54
404.242	419.48
404.62	387.16
404.999	411.35
405.377	406.37
405.755	424.9
406.133	382.42
406.511	412.25
406.889	406.6
407.267	412.02
407.645	417.22
408.023	424.68
408.401	442.53
408.779	439.14
409.156	427.62
409.534	421.29
409.912	439.82
410.29	443.21
410.667	419.93
411.045	429.2
411.422	460.61
411.8	452.25
412.178	463.55
412.555	455.64
412.933	464.45
413.31	462.64
413.687	466.26
414.065	467.84
414.442	437.33
414.819	469.87
415.197	488.18
415.574	477.78
415.951	484.79
416.328	478.01
416.705	501.29
417.082	478.69
417.46	483.21
417.837	506.48
418.214	476.88
418.591	508.97
418.967	523.66
419.344	522.08
419.721	517.56
420.098	509.87
420.475	501.51
420.852	497.9
421.228	531.34
421.605	541.74
421.982	539.7
422.358	541.96
422.735	556.65
423.111	542.64
423.488	560.72
423.864	545.13
424.241	558.01
424.617	551.45
424.994	550.32
425.37	556.88
425.746	556.88
426.123	567.73
426.499	559.82
426.875	588.74
427.251	580.15
427.627	595.52
428.003	613.6
428.379	579.93
428.756	574.5
429.132	599.36
429.507	607.05
429.883	611.79
430.259	609.76
430.635	603.43
431.011	616.31
431.387	640.94
431.763	638.23
432.138	662.19
432.514	626.71
432.89	645.92
433.265	659.93
433.641	662.64
434.016	680.94
434.392	694.73
434.767	682.52
435.143	702.86
435.518	678.46
435.894	703.09
436.269	703.54
436.644	703.31
437.02	697.89
437.395	734.05
437.77	707.16
438.145	717.33
438.52	728.4
438.895	738.79
439.271	731.56
439.646	775.4
440.021	754.16
440.395	786.48
440.77	774.73
441.145	788.51
441.52	783.99
441.895	781.5
442.27	775.18
442.645	787.61
443.019	803.88
443.394	799.13
443.769	808.4
444.143	783.76
444.518	823.09
444.892	810.2
445.267	850.66
445.641	825.8
446.016	823.54
446.39	849.53
446.764	864.21
447.139	880.26
447.513	886.36
447.887	872.12
448.262	874.38
448.636	877.77
449.01	895.4
449.384	898.34
449.758	898.11
450.132	923.65
450.506	910.32
450.88	924.55
451.254	916.64
451.628	905.57
452.002	941.27
452.376	927.49
452.75	953.48
453.123	968.84
453.497	977.88
453.871	972.01
454.244	997.54
454.618	1019.69
454.992	1038.9
455.365	1009.3
455.739	1058.11
456.112	1058.11
456.486	1067.37
456.859	1052.46
457.232	1094.72
457.606	1065.11
457.979	1072.8
458.352	1092.46
458.725	1132.68
459.099	1144.89
459.472	1172.46
459.845	1181.04
460.218	1179.46
460.591	1209.29
460.964	1209.74
461.337	1237.76
461.71	1246.13
462.083	1259.46
462.456	1279.12
462.829	1288.16
463.201	1312.79
463.574	1332.22
463.947	1355.28
464.32	1349.17
464.692	1363.64
465.065	1383.52
465.438	1388.72
465.81	1398.21
466.183	1435.72
466.555	1462.39
466.928	1464.88
467.3	1487.02
467.672	1521.6
468.045	1536.97
468.417	1574.7
468.789	1586.91
469.161	1614.03
469.534	1649.05
469.906	1666.91
470.278	1724.98
470.65	1755.49
471.022	1763.4
471.394	1788.26
471.766	1818.77
472.138	1830.97
472.51	1908.71
472.882	1940.8
473.253	1962.49
473.625	2017.63
473.997	2071.87
474.369	2072.77
474.74	2086.56
475.112	2187.57
475.484	2212.43
475.855	2277.74
476.227	2323.16
476.598	2388.92
476.97	2471.4
477.341	2505.3
477.713	2606.09
478.084	2587.33
478.455	2674.34
478.827	2728.57
479.198	2856.93
479.569	2861.68
479.94	2953.43
480.311	3057.15
480.682	3160.65
481.053	3198.39
481.424	3314.55
481.795	3408.55
482.166	3488.1
482.537	3545.5
482.908	3614.42
483.279	3749.34
483.65	3842.44
484.021	3932.83
484.391	4034.98
484.762	4112.49
485.133	4183
485.503	4280.85
485.874	4436.55
486.244	4559.03
486.615	4667.73
486.985	4737.33
487.356	4859.59
487.726	4949.08
488.097	5096.87
488.467	5184.33
488.837	5311.56
489.207	5426.13
489.578	5589.06
489.948	5677.2
490.318	5811.2
490.688	5890.3
491.058	6014.36
491.428	6170.97
491.798	6293
492.168	6472.2
492.538	6542.94
492.908	6643.95
493.278	6796.71
493.648	6867.45
494.017	7036.48
494.387	7106.99
494.757	7212.75
495.126	7398.73
495.496	7461.33
495.866	7518.05
496.235	7717.82
496.605	7792.85
496.974	7907.87
497.344	8017.92
497.713	8018.38
498.082	8159.62
498.452	8259.05
498.821	8333.4
499.19	8485.03
499.559	8541.53
499.928	8613.84
500.298	8609.77
500.667	8843.44
501.036	8849.09
501.405	9028.29
501.774	9050.44
502.143	9081.85
502.512	9229.64
502.88	9293.6
503.249	9357.55
503.618	9370.43
503.987	9449.3
504.356	9594.15
504.724	9620.14
505.093	9650.88
505.462	9635.74
505.83	9802.06
506.199	9845.45
506.567	9987.14
506.936	9963.41
507.304	10164.99
507.672	10113.91
508.041	10199.56
508.409	10263.52
508.777	10333.12
509.145	10403.85
509.514	10287.92
509.882	10512.55
510.25	10470.52
510.618	10618.99
510.986	10575.37
511.354	10655.37
511.722	10686.78
512.09	10739.66
512.458	10750.51
512.826	10840
513.193	10859.21
513.561	10859.21
513.929	10881.58
514.297	11084.96
514.664	11086.77
515.032	11105.53
515.4	11115.47
515.767	11117.96
516.135	11216.48
516.502	11041.35
516.869	11190.95
517.237	11262.81
517.604	11248.8
517.972	11356.82
518.339	11297.39
518.706	11335.35
519.073	11325.18
519.44	11379.42
519.808	11360.44
520.175	11415.35
520.542	11461.45
520.909	11492.41
521.276	11598.4
521.643	11559.98
522.009	11624.38
522.376	11641.33
522.743	11591.16
523.11	11718.62
523.477	11715
523.843	11775.79
524.21	11854.66
524.577	11876.58
524.943	11780.09
525.31	11869.57
525.676	11954.77
526.043	11982.34
526.409	11926.52
526.776	11975.79
527.142	11993.64
527.508	11995.22
527.874	11982.11
528.241	12057.14
528.607	12058.5
528.973	12046.97
529.339	11966.97
529.705	12102.56
530.071	12045.16
530.437	12035.22
530.803	12060.98
531.169	12089.23
531.535	11985.96
531.901	11949.57
532.267	11994.54
532.632	11996.58
532.998	11928.78
533.364	11946.64
533.73	11972.85
534.095	12023.7
534.461	12003.13
534.826	12002.9
535.192	11891.5
535.557	11897.82
535.923	11926.3
536.288	11856.47
536.653	11858.05
537.019	11830.25
537.384	11752.52
537.749	11799.07
538.114	11706.64
538.479	11717.04
538.845	11715.23
539.21	11625.06
539.575	11556.59
539.94	11644.04
540.305	11625.97
540.67	11484.95
541.034	11552.07
541.399	11502.8
541.764	11460.09
542.129	11406.99
542.494	11429.59
542.858	11406.76
543.223	11320.44
543.587	11388.91
543.952	11364.28
544.316	11236.82
544.681	11273.66
545.045	11245.41
545.41	11219.87
545.774	11178.97
546.138	11130.16
546.503	11117.5
546.867	11070.5
547.231	11090.39
547.595	11074.34
547.959	10991.86
548.324	10960.9
548.688	10944.4
549.052	10916.38
549.416	10885.19
549.779	10870.51
550.143	10824.4
550.507	10822.14
550.871	10854.23
551.235	10679.55
551.599	10731.3
551.962	10738.53
552.326	10687.46
552.689	10635.94
553.053	10610.17
553.417	10616.27
553.78	10702.15
554.143	10576.73
554.507	10651.53
554.87	10617.86
555.234	10642.26
555.597	10535.37
555.96	10544.19
556.323	10556.16
556.686	10426
557.05	10436.17
557.413	10507.35
557.776	10425.55
558.139	10411.99
558.502	10349.16
558.865	10384.64
559.228	10422.83
559.59	10431.65
559.953	10392.78
560.316	10409.73
560.679	10319.11
561.041	10403.17
561.404	10353.23
561.767	10464.41
562.129	10435.26
562.492	10376.05
562.854	10330.63
563.217	10472.32
563.579	10423.06
563.941	10439.78
564.304	10526.33
564.666	10524.3
565.028	10498.99
565.39	10475.49
565.753	10510.29
566.115	10513.68
566.477	10564.98
566.839	10532.66
567.201	10522.49
567.563	10575.6
567.925	10584.41
568.287	10576.28
568.648	10504.41
569.01	10574.92
569.372	10619.21
569.734	10546.22
570.095	10582.6
570.457	10641.13
570.819	10636.39
571.18	10645.88
571.542	10668.93
571.903	10593.68
572.265	10590.96
572.626	10628.7
572.987	10660.79
573.349	10629.38
573.71	10687.01
574.071	10659.21
574.432	10681.58
574.794	10720.68
575.155	10736.95
575.516	10677.29
575.877	10644.75
576.238	10772.43
576.599	10716.16
576.96	10749.83
577.32	10693.33
577.681	10743.73
578.042	10742.15
578.403	10699.89
578.763	10763.16
579.124	10770.17
579.485	10783.5
579.845	10807
580.206	10703.05
580.566	10741.24
580.927	10729.72
581.287	10769.26
581.648	10690.17
582.008	10737.4
582.368	10804.29
582.728	10712.09
583.089	10731.3
583.449	10783.5
583.809	10732.2
584.169	10764.52
584.529	10660.79
584.889	10724.75
585.249	10624.18
585.609	10686.56
585.969	10715.48
586.329	10670.51
586.688	10688.81
587.048	10634.13
587.408	10648.14
587.768	10613.79
588.127	10595.03
588.487	10618.99
588.846	10644.52
589.206	10599.1
589.565	10537.86
589.925	10554.13
590.284	10552.1
590.643	10635.26
591.003	10593.22
591.362	10597.97
591.721	10606.33
592.08	10538.08
592.44	10560.23
592.799	10565.65
593.158	10490.18
593.517	10562.26
593.876	10535.37
594.235	10547.12
594.593	10539.21
594.952	10561.81
595.311	10474.36
595.67	10512.1
596.029	10581.02
596.387	10594.13
596.746	10571.76
597.104	10502.15
597.463	10546.67
597.822	10472.78
598.18	10557.74
598.538	10477.52
598.897	10571.08
599.255	10430.52
599.613	10602.49
599.972	10475.94
600.33	10476.62
600.688	10443.4
601.046	10562.26
601.404	10521.36
601.762	10494.47
602.12	10535.6
602.478	10496.73
602.836	10584.64
603.194	10460.57
603.552	10508.48
603.91	10430.97
604.268	10494.02
604.625	10468.26
604.983	10477.52
605.341	10503.51
605.698	10504.87
606.056	10512.55
606.413	10578.08
606.771	10497.41
607.128	10544.86
607.485	10538.99
607.843	10534.47
608.2	10521.14
608.557	10539.21
608.914	10508.93
609.272	10651.75
609.629	10607.46
609.986	10658.99
610.343	10562.49
610.7	10638.87
611.057	10635.03
611.414	10673
611.771	10619.66
612.127	10600.23
612.484	10607.46
612.841	10711.41
613.198	10597.07
613.554	10613.79
613.911	10679.55
614.267	10654.01
614.624	10637.97
614.98	10716.16
615.337	10691.75
615.693	10699.21
616.05	10646.1
616.406	10717.51
616.762	10689.94
617.118	10709.15
617.475	10780.56
617.831	10724.97
618.187	10782.15
618.543	10769.49
618.899	10818.08
619.255	10825.08
619.611	10808.81
619.967	10825.76
620.323	10794.12
620.678	10780.56
621.034	10740.79
621.39	10807.23
621.746	10740.11
622.101	10879.09
622.457	10784.86
622.812	10794.12
623.168	10797.06
623.523	10833.67
623.879	10828.47
624.234	10716.84
624.589	10735.59
624.945	10787.57
625.3	10776.27
625.655	10783.95
626.01	10717.51
626.365	10807.46
626.72	10769.26
627.075	10795.03
627.43	10712.32
627.785	10728.14
628.14	10744.18
628.495	10754.58
628.85	10690.17
629.205	10653.11
629.559	10776.27
629.914	10673
630.269	10731.98
630.623	10749.15
630.978	10633.45
631.332	10780.56
631.687	10708.7
632.041	10665.09
632.396	10636.39
632.75	10621.25
633.104	10625.31
633.459	10640.45
633.813	10589.83
634.167	10673.9
634.521	10625.31
634.875	10669.15
635.229	10592.32
635.583	10546.45
635.937	10516.84
636.291	10505.54
636.645	10523.4
636.999	10510.51
637.352	10507.12
637.706	10529.27
638.06	10501.48
638.413	10488.59
638.767	10475.26
639.121	10444.53
639.474	10404.3
639.828	10403.17
640.181	10459.67
640.534	10413.79
640.888	10342.16
641.241	10330.86
641.594	10357.75
641.947	10393.46
642.301	10294.02
642.654	10393.91
643.007	10321.59
643.36	10326.11
643.713	10336.73
644.066	10301.03
644.419	10305.55
644.771	10269.39
645.124	10104.65
645.477	10153.24
645.83	10028.49
646.182	10009.51
646.535	10065.78
646.888	10051.09
647.24	10000.7
647.593	10034.14
647.945	9969.51
648.298	10014.93
648.65	9973.35
649.002	9957.99
649.355	9943.07
649.707	9979.46
650.059	10050.41
650.411	10132.9
650.763	10106.68
651.115	10289.73
651.467	10252.44
651.819	10223.97
652.171	10201.82
652.523	10122.95
652.875	10265.1
653.227	10206.12
653.578	10292.89
653.93	10243.85
654.282	10157.53
654.633	10136.51
654.985	10120.02
655.337	10193.46
655.688	10174.7
656.039	10179.22
656.391	10198.21
656.742	10160.24
657.094	10212.44
657.445	10234.36
657.796	10205.44
658.147	10219.67
658.498	10189.62
658.849	10158.43
659.2	10153.46
659.551	10179.68
659.902	10153.46
660.253	10182.84
660.604	10213.35
660.955	10174.25
661.306	10176.74
661.656	10188.04
662.007	10162.5
662.358	10204.76
662.708	10194.82
663.059	10247.02
663.409	10154.37
663.76	10210.18
664.11	10214.48
664.461	10204.76
664.811	10278.2
665.161	10212.44
665.511	10231.88
665.862	10240.47
666.212	10298.77
666.562	10226.91
666.912	10263.74
667.262	10258.09
667.612	10271.2
667.962	10221.93
668.312	10228.49
668.662	10193.01
669.011	10279.11
669.361	10301.03
669.711	10188.94
670.06	10240.92
670.41	10171.77
670.76	10230.07
671.109	10256.51
671.459	10235.49
671.808	10203.4
672.157	10191.88
672.507	10191.43
672.856	10155.27
673.205	10169.51
673.554	10210.41
673.904	10262.61
674.253	10185.33
674.602	10167.02
674.951	10021.26
675.3	9927.71
675.649	10092.45
675.998	10034.59
676.346	10092.22
676.695	10140.81
677.044	10017.42
677.393	10065.1
677.741	10044.54
678.09	10054.26
678.438	9966.57
678.787	10015.61
679.135	10065.1
679.484	9946.24
679.832	9997.31
680.181	10035.05
680.529	9985.78
680.877	9967.25
681.225	9972
681.573	9961.38
681.922	9832.79
682.27	9894.71
682.618	9853.58
682.966	9822.4
683.314	9892.9
683.661	9824.88
684.009	9804.77
684.357	9789.4
684.705	9724.77
685.053	9697.2
685.4	9737.43
685.748	9745.34
686.095	9657.43
686.443	9633.48
686.79	9603.65
687.138	9602.29
687.485	9671.67
687.832	9600.71
688.18	9562.29
688.527	9554.16
688.874	9440.26
689.221	9443.2
689.568	9426.7
689.915	9479.36
690.262	9470.99
690.609	9365.91
690.956	9345.57
691.303	9392.8
691.65	9272.81
691.997	9228.97
692.344	9188.06
692.69	9175.63
693.037	9167.5
693.383	9042.53
693.73	9138.57
694.077	9092.02
694.423	9042.98
694.769	8996.66
695.116	9062.87
695.462	8927.28
695.808	8911.46
696.155	8965.92
696.501	8875.08
696.847	8887.51
697.193	8818.58
697.539	8773.61
697.885	8768.64
698.231	8720.73
698.577	8729.09
698.923	8707.4
699.269	8623.78
699.614	8592.15
699.96	8584.46
700.306	8576.33
700.651	8557.35
700.997	8518.48
701.342	8451.13
701.688	8467.4
702.033	8386.95
702.379	8422.66
702.724	8348.76
703.069	8377.92
703.415	8246.17
703.76	8299.5
704.105	8263.79
704.45	8233.29
704.795	8171.82
705.14	8105.61
705.485	8092.27
705.83	8154.87
706.175	8106.06
706.52	8069
706.865	8018.83
707.209	8030.81
707.554	8036.23
707.899	8034.87
708.243	8075.55
708.588	7945.84
708.932	7949
709.277	7849.12
709.621	7904.26
709.966	7836.46
710.31	7882.79
710.654	7805.73
710.998	7847.08
711.342	7807.08
711.687	7778.38
712.031	7720.98
712.375	7729.12
712.719	7759.17
713.063	7737.03
713.407	7728.67
713.75	7693.19
714.094	7683.92
714.438	7693.19
714.782	7598.05
715.125	7618.84
715.469	7624.26
715.812	7560.31
716.156	7540.42
716.499	7489.8
716.843	7579.74
717.186	7446.41
717.53	7520.99
717.873	7509.92
718.216	7506.53
718.559	7499.97
718.902	7416.81
719.246	7424.04
719.589	7438.28
719.932	7394.21
720.275	7411.39
720.617	7369.35
720.96	7390.82
721.303	7382.69
721.646	7338.17
721.989	7291.62
722.331	7364.38
722.674	7323.93
723.016	7329.13
723.359	7321.45
723.701	7370.71
724.044	7328.23
724.386	7252.97
724.729	7294.1
725.071	7279.19
725.413	7344.5
725.755	7306.76
726.097	7232.41
726.439	7247.1
726.782	7241
727.124	7321.9
727.465	7232.63
727.807	7231.28
728.149	7206.65
728.491	7203.48
728.833	7219.3
729.175	7171.17
729.516	7194.44
729.858	7180.88
730.199	7228.34
730.541	7201
730.882	7204.16
731.224	7202.13
731.565	7202.35
731.906	7147.44
732.248	7169.13
732.589	7161
732.93	7137.5
733.271	7185.63
733.612	7195.8
733.953	7201.68
734.294	7208.91
734.635	7174.33
734.976	7190.15
735.317	7138.4
735.658	7161.68
735.999	7161
736.339	7186.31
736.68	7202.58
737.021	7189.7
737.361	7153.54
737.702	7191.28
738.042	7169.59
738.383	7230.15
738.723	7223.14
739.063	7181.11
739.404	7285.29
739.744	7296.81
740.084	7232.86
740.424	7279.64
740.764	7211.17
741.104	7371.84
741.444	7269.7
741.784	7266.76
742.124	7364.83
742.464	7352.18
742.804	7340.2
743.143	7312.18
743.483	7431.73
743.823	7472.18
744.162	7438.5
744.502	7445.28
744.841	7431.73
745.181	7465.85
745.52	7530.71
745.86	7611.16
746.199	7615.22
746.538	7628.33
746.877	7631.27
747.216	7656.13
747.556	7687.99
747.895	7845.27
748.234	7811.38
748.573	7852.96
748.911	7896.12
749.25	7963.46
749.589	8028.77
749.928	8057.25
750.267	8101.09
750.605	8136.34
750.944	8258.6
751.283	8337.69
751.621	8369.55
751.96	8387.86
752.298	8516.89
752.636	8642.99
752.975	8659.94
753.313	8717.79
753.651	8886.6
753.989	8887.73
754.327	9011.8
754.666	9098.12
755.004	9222.19
755.342	9350.77
755.679	9489.52
756.017	9556.19
756.355	9740.82
756.693	9795.96
757.031	9986.46
757.368	10069.85
757.706	10192.33
758.044	10374.7
758.381	10460.35
758.719	10521.81
759.056	10754.8
759.394	10850.62
759.731	10982.37
760.068	11091.52
760.405	11237.05
760.743	11343.94
761.08	11631.16
761.417	11691.27
761.754	11900.76
762.091	11966.07
762.428	12161.77
762.765	12318.6
763.102	12518.82
763.438	12602.89
763.775	12822.54
764.112	12887.63
764.449	13130.78
764.785	13258.24
765.122	13379.37
765.458	13446.71
765.795	13653.26
766.131	13819.13
766.467	13917.2
766.804	14069.29
767.14	14179.34
767.476	14380.92
767.812	14416.17
768.148	14667.47
768.485	14596.51
768.821	14766.45
769.157	14917.4
769.492	15010.51
769.828	15123.5
770.164	15182.03
770.5	15268.58
770.836	15446.66
771.171	15456.6
771.507	15625.63
771.842	15582.25
772.178	15754.44
772.513	15758.96
772.849	15923.48
773.184	16030.14
773.519	16066.75
773.855	16077.6
774.19	16082.35
774.525	16268.78
774.86	16243.92
775.195	16401.43
775.53	16412.96
775.865	16409.34
776.2	16375.45
776.535	16374.99
776.87	16472.62
777.205	16520.53
777.539	16456.12
777.874	16611.82
778.209	16577.47
778.543	16581.77
778.878	16573.86
779.212	16613.18
779.547	16629
779.881	16751.03
780.215	16665.61
780.55	16802.1
780.884	16804.36
781.218	16716.23
781.552	16821.31
781.886	16815.21
782.22	16613.18
782.554	16736.11
782.888	16652.95
783.222	16714.42
783.556	16735.89
783.889	16630.81
784.223	16688.21
784.557	16692.72
784.89	16664.48
785.224	16737.47
785.557	16626.29
785.891	16573.41
786.224	16664.7
786.558	16652.5
786.891	16506.74
787.224	16561.65
787.557	16493.41
787.891	16513.75
788.224	16512.39
788.557	16617.7
788.89	16476.91
789.223	16461.32
789.556	16459.06
789.888	16454.77
790.221	16452.28
790.554	16315.79
790.887	16288.89
791.219	16288.22
791.552	16295.9
791.884	16182.68
792.217	16206.18
792.549	16214.55
792.882	16067.2
793.214	16004.61
793.546	16110.59
793.879	15971.39
794.211	15984.27
794.543	15942.01
794.875	15962.35
795.207	16052.97
795.539	15926.64
795.871	15910.37
796.203	15776.82
796.535	15822.24
796.867	15745.41
797.198	15713.77
797.53	15679.87
797.862	15643.71
798.193	15762.13
798.525	15551.51
798.856	15576.37
799.188	15444.85
799.519	15402.59
799.85	15311.52
800.182	15415.7
800.513	15387.9
800.844	15244.63
801.175	15313.78
801.506	15343.16
801.837	15272.2
802.168	15154.69
802.499	15123.95
802.83	15110.85
803.161	15034.01
803.491	15104.07
803.822	15106.78
804.153	15018.19
804.483	14918.08
804.814	14875.82
805.145	14864.52
805.475	14827.92
805.805	14817.07
806.136	14829.27
806.466	14848.25
806.796	14774.36
807.126	14665.21
807.457	14659.56
807.787	14591.76
808.117	14573.91
808.447	14531.65
808.777	14562.16
809.107	14524.19
809.436	14403.97
809.766	14440.13
810.096	14436.06
810.426	14417.08
810.755	14349.74
811.085	14380.02
811.414	14366.01
811.744	14272.22
812.073	14132.34
812.403	14191.55
812.732	14128.95
813.061	14075.39
813.39	14062.29
813.719	14059.57
814.049	14157.42
814.378	14035.62
814.707	14031.78
815.036	13937.54
815.365	13928.96
815.693	13871.1
816.022	13910.65
816.351	13862.06
816.68	13709.53
817.008	13804.67
817.337	13705.68
817.665	13696.19
817.994	13688.96
818.322	13634.73
818.651	13555.18
818.979	13502.98
819.307	13716.53
819.636	13561.06
819.964	13532.58
820.292	13537.55
820.62	13619.81
820.948	13466.37
821.276	13562.19
821.604	13526.25
821.932	13492.58
822.259	13503.43
822.587	13523.09
822.915	13490.32
823.243	13566.71
823.57	13527.61
823.898	13517.89
824.225	13509.31
824.553	13490.55
824.88	13544.11
825.207	13598.57
825.535	13537.55
825.862	13516.31
826.189	13529.19
826.516	13469.31
826.843	13585.01
827.17	13556.76
827.497	13632.92
827.824	13623.43
828.151	13639.47
828.478	13585.24
828.805	13538.46
829.131	13526.71
829.458	13567.38
829.785	13440.38
830.111	13531.23
830.438	13563.77
830.764	13561.06
831.09	13574.16
831.417	13448.97
831.743	13533.03
832.069	13532.13
832.395	13436.54
832.722	13521.73
833.048	13448.29
833.374	13468.18
833.7	13449.87
834.026	13482.87
834.351	13407.39
834.677	13395.64
835.003	13462.98
835.329	13413.26
835.654	13319.93
835.98	13283.55
836.306	13361.06
836.631	13340.72
836.956	13335.98
837.282	13355.41
837.607	13288.52
837.932	13227.96
838.258	13253.27
838.583	13169.2
838.908	13225.7
839.233	13190.9
839.558	13091.24
839.883	13058.92
840.208	13073.61
840.533	13078.36
840.858	13123.1
841.182	12992.26
841.507	13070.9
841.832	13030
842.156	13004.23
842.481	12940.96
842.805	12979.6
843.13	12879.49
843.454	12981.41
843.778	12838.81
844.103	12748.87
844.427	12739.16
844.751	12698.48
845.075	12717.69
845.399	12698.71
845.723	12586.17
846.047	12612.83
846.371	12435.66
846.695	12565.15
847.019	12442.44
847.343	12418.71
847.666	12362.22
847.99	12260.75
848.313	12310.47
848.637	12219.85
848.96	12136.46
849.284	12109.12
849.607	12117.7
849.931	11988.44
850.254	11926.75
850.577	11871.83
850.9	11758.84
851.223	11823.7
851.546	11697.15
851.869	11659.86
852.192	11754.1
852.515	11620.99
852.838	11535.12
853.161	11563.37
853.483	11525.4
853.806	11437.95
854.129	11422.36
854.451	11347.1
854.774	11313.43
855.096	11312.08
855.419	11320.89
855.741	11213.09
856.063	11189.59
856.385	11230.04
856.708	11184.62
857.03	11148.24
857.352	11129.71
857.674	11107.34
857.996	11046.32
858.318	10974.01
858.64	10969.26
858.961	10916.15
859.283	10820.34
859.605	10797.51
859.926	10830.73
860.248	10762.49
860.57	10798.87
860.891	10821.69
861.212	10679.32
861.534	10675.48
861.855	10665.09
862.176	10644.07
862.498	10674.35
862.819	10628.25
863.14	10626.44
863.461	10583.96
863.782	10564.52
864.103	10531.76
864.424	10566.33
864.745	10484.07
865.065	10485.2
865.386	10477.52
865.707	10374.02
866.027	10382.38
866.348	10381.03
866.668	10409.5
866.989	10397.3
867.309	10308.26
867.63	10376.51
867.95	10284.31
868.27	10314.59
868.59	10299.22
868.91	10265.1
869.23	10282.5
869.55	10194.14
869.87	10260.58
870.19	10191.2
870.51	10181.71
870.83	10242.27
871.15	10148.49
871.469	10139.68
871.789	10089.51
872.109	10170.41
872.428	10057.65
872.748	10130.41
873.067	10091.99
873.386	10065.78
873.706	10004.31
874.025	9957.53
874.344	9854.03
874.663	9960.25
874.982	9980.13
875.301	9934.94
875.62	9976.07
875.939	9892.23
876.258	9945.33
876.577	9907.59
876.896	9924.99
877.214	9828.72
877.533	9881.38
877.852	9828.5
878.17	9846.58
878.489	9885.22
878.807	9750.53
879.125	9739.46
879.444	9705.11
879.762	9691.1
880.08	9692.91
880.398	9688.16
880.716	9685
881.034	9646.81
881.352	9615.62
881.67	9670.31
881.988	9596.41
882.306	9587.83
882.624	9509.18
882.941	9528.39
883.259	9460.82
883.577	9469.64
883.894	9490.88
884.212	9461.28
884.529	9427.38
884.846	9393.26
885.164	9323.65
885.481	9329.53
885.798	9376.99
886.115	9296.31
886.432	9261.28
886.75	9292.47
887.067	9268.74
887.383	9139.25
887.7	9203.88
888.017	9194.17
888.334	9178.12
888.651	9116.65
888.967	9072.81
889.284	9051.57
889.6	9101.29
889.917	9043.43
890.233	9016.54
890.55	8921.4
890.866	8986.26
891.182	8929.31
891.498	8905.13
891.815	8849.32
892.131	8809.32
892.447	8766.83
892.763	8764.35
893.079	8750.56
893.395	8781.52
893.71	8679.38
894.026	8697.45
894.342	8638.7
894.657	8593.05
894.973	8645.03
895.289	8571.81
895.604	8650.9
895.92	8485.26
896.235	8409.1
896.55	8460.62
896.865	8460.17
897.181	8459.5
897.496	8460.62
897.811	8344.24
898.126	8352.15
898.441	8301.08
898.756	8329.55
899.071	8278.71
899.386	8254.08
899.7	8120.75
900.015	8123.91
900.33	8096.57
900.644	8036.23
900.959	8117.36
901.273	8035.78
901.588	7960.3
901.902	7950.81
902.216	7965.27
902.531	7872.62
902.845	7881.88
903.159	7828.78
903.473	7796.69
903.787	7717.37
904.101	7734.99
904.415	7700.87
904.729	7681.66
905.042	7668.1
905.356	7625.84
905.67	7597.6
905.984	7542.91
906.297	7605.51
906.611	7488.9
906.924	7492.74
907.237	7464.72
907.551	7444.15
907.864	7369.35
908.177	7359.41
908.491	7345.63
908.804	7362.12
909.117	7246.19
909.43	7226.31
909.743	7165.97
910.056	7251.17
910.368	7121
910.681	7051.4
910.994	7127.1
911.307	7047.33
911.619	7008.01
911.932	7060.44
912.244	6941.57
912.557	6972.75
912.869	6922.13
913.181	6915.35
913.494	6915.13
913.806	6859.76
914.118	6830.16
914.43	6773.44
914.742	6747.22
915.054	6722.37
915.366	6678.98
915.678	6651.86
915.99	6609.15
916.302	6613.44
916.613	6559.66
916.925	6580
917.236	6523.05
917.548	6529.6
917.859	6481.24
918.171	6452.99
918.482	6452.09
918.794	6412.54
919.105	6303.85
919.416	6330.96
919.727	6366.67
920.038	6307.46
920.349	6283.73
920.66	6165.54
920.971	6261.59
921.282	6273.79
921.593	6210.29
921.903	6081.25
922.214	6116.73
922.525	6129.84
922.835	6032.44
923.146	6012.78
923.456	6055.26
923.767	5973.68
924.077	6024.53
924.387	6000.35
924.697	5909.51
925.008	5895.27
925.318	5886
925.628	5851.43
925.938	5814.82
926.248	5784.09
926.558	5824.54
926.867	5761.94
927.177	5705.67
927.487	5721.71
927.796	5633.81
928.106	5701.83
928.416	5649.85
928.725	5624.99
929.034	5587.71
929.344	5617.76
929.653	5591.55
929.962	5550.42
930.271	5502.51
930.581	5476.75
930.89	5489.4
931.199	5438.11
931.508	5401.72
931.817	5383.64
932.125	5460.93
932.434	5374.38
932.743	5339.35
933.051	5311.56
933.36	5331.89
933.669	5289.18
933.977	5270.88
934.286	5261.84
934.594	5258.22
934.902	5178.68
935.21	5097.55
935.519	5174.16
935.827	5102.75
936.135	5068.17
936.443	5035.18
936.751	5056.65
937.059	5056.87
937.367	5028.85
937.674	5018.91
937.982	4997.44
938.29	4949.76
938.597	4961.06
938.905	4905.24
939.213	4846.03
939.52	4858.01
939.827	4865.47
940.135	4827.27
940.442	4853.49
940.749	4806.94
941.056	4773.94
941.363	4768.29
941.67	4740.04
941.977	4677.9
942.284	4677.22
942.591	4685.81
942.898	4645.58
943.205	4654.85
943.511	4569.65
943.818	4658.24
944.125	4588.18
944.431	4573.04
944.738	4537.79
945.044	4519.03
945.35	4450.79
945.657	4449.43
945.963	4421.64
946.269	4410.56
946.575	4408.3
946.881	4372.82
947.187	4380.28
947.493	4400.84
947.799	4331.47
948.105	4338.47
948.41	4291.7
948.716	4312.26
949.022	4306.38
949.327	4251.47
949.633	4258.02
949.938	4178.48
950.244	4190
950.549	4195.43
950.854	4145.03
951.16	4163.11
951.465	4111.13
951.77	4077.46
952.075	4081.76
952.38	4059.16
952.685	4032.04
952.99	4049.89
953.294	3993.4
953.599	4001.99
953.904	4003.34
954.209	4005.37
954.513	3956.11
954.818	3922.67
955.122	3953.85
955.426	3943.91
955.731	3947.75
956.035	3853.74
956.339	3849.67
956.643	3852.38
956.948	3790.01
957.252	3809.22
957.556	3768.32
957.86	3786.17
958.163	3740.98
958.467	3787.08
958.771	3716.79
959.075	3785.49
959.378	3746.85
959.682	3706.63
959.985	3638.38
960.289	3637.93
960.592	3607.42
960.896	3610.36
961.199	3588.66
961.502	3593.18
961.805	3584.82
962.108	3544.14
962.411	3558.83
962.714	3522.22
963.017	3478.38
963.32	3480.87
963.623	3488.55
963.926	3503.24
964.228	3452.4
964.531	3456.24
964.833	3429.8
965.136	3351.38
965.438	3412.85
965.741	3396.13
966.043	3360.65
966.345	3371.72
966.648	3351.38
966.95	3286.98
967.252	3331.04
967.554	3273.42
967.856	3273.87
968.158	3241.55
968.46	3278.61
968.761	3268.67
969.063	3253.98
969.365	3223.93
969.666	3175.57
969.968	3170.59
970.269	3191.84
970.571	3162.23
970.872	3160.43
971.174	3113.19
971.475	3137.6
971.776	3117.71
972.077	3085.4
972.378	3072.52
972.679	3074.33
972.98	3037.04
973.281	3013.08
973.582	3047.89
973.883	2999.98
974.183	3010.6
974.484	2957.04
974.785	2948.45
975.085	2952.75
975.386	2932.41
975.686	2953.65
975.986	2929.47
976.287	2920.88
976.587	2908.45
976.887	2853.99
977.187	2880.88
977.487	2842.92
977.787	2849.47
978.087	2847.44
978.387	2830.26
978.687	2827.55
978.987	2803.37
979.286	2790.27
979.586	2773.54
979.885	2765.63
980.185	2734.45
980.484	2753.2
980.784	2692.42
981.083	2747.78
981.382	2699.42
981.682	2666.43
981.981	2692.87
982.28	2654.9
982.579	2663.49
982.878	2625.98
983.177	2626.2
983.475	2626.65
983.774	2587.56
984.073	2600.44
984.372	2580.1
984.67	2553.44
984.969	2568.8
985.267	2536.94
985.566	2537.84
985.864	2550.05
986.162	2522.93
986.461	2490.84
986.759	2527.45
987.057	2430.5
987.355	2442.25
987.653	2470.95
987.951	2480.67
988.249	2423.95
988.547	2427.56
988.844	2400.9
989.142	2389.6
989.44	2371.29
989.737	2370.62
990.035	2365.19
990.332	2379.88
990.63	2312.99
990.927	2368.58
991.224	2335.81
991.521	2316.61
991.819	2310.96
992.116	2296.04
992.413	2271.64
992.71	2286.78
993.006	2255.59
993.303	2284.06
993.6	2241.35
993.897	2263.5
994.193	2209.04
994.49	2219.89
994.787	2194.8
995.083	2176.5
995.379	2176.72
995.676	2176.95
995.972	2107.12
996.268	2161.58
996.565	2124.52
996.861	2139.44
997.157	2132.43
997.453	2073.22
997.749	2064.18
998.044	2102.37
998.34	2087.23
998.636	2087.46
998.932	2063.28
999.227	2060.12
999.523	2023.05
999.818	2016.27
1000.114	1987.35
1000.409	1985.99
1000.704	1966.33
1001	1976.95
1001.295	1974.47
1001.59	1958.65
1001.885	1979.21
1002.18	1911.87
1002.475	1937.18
1002.77	1929.95
1003.065	1880.46
1003.359	1886.11
1003.654	1912.32
1003.949	1891.53
1004.243	1871.19
1004.538	1854.02
1004.832	1847.01
1005.127	1832.78
1005.421	1788.48
1005.715	1814.02
1006.009	1815.6
1006.304	1790.52
1006.598	1739.45
1006.892	1776.96
1007.186	1755.94
1007.48	1770.63
1007.773	1767.24
1008.067	1730.86
1008.361	1702.38
1008.655	1712.55
1008.948	1703.06
1009.242	1718.66
1009.535	1691.31
1009.829	1659.9
1010.122	1663.06
1010.415	1644.76
1010.708	1654.02
1011.001	1660.8
1011.295	1638.88
1011.588	1616.06
1011.881	1619.22
1012.173	1597.53
1012.466	1605.66
1012.759	1588.72
1013.052	1593.01
1013.344	1568.38
1013.637	1572.9
1013.93	1545.55
1014.222	1542.16
1014.514	1543.07
1014.807	1537.87
1015.099	1514.82
1015.391	1505.55
1015.683	1478.21
1015.976	1476.85
1016.268	1482.5
1016.56	1467.36
1016.851	1420.81
1017.143	1470.53
1017.435	1455.16
1017.727	1433.01
1018.018	1405.9
1018.31	1399.12
1018.602	1420.13
1018.893	1367.48
1019.185	1406.57
1019.476	1412.67
1019.767	1393.47
1020.058	1357.99
1020.35	1365.22
1020.641	1349.85
1020.932	1375.16
1021.223	1341.26
1021.514	1317.08
1021.804	1315.05
1022.095	1329.97
1022.386	1297.42
1022.677	1304.2
1022.967	1273.47
1023.258	1281.15
1023.548	1233.47
1023.839	1260.36
1024.129	1232.79
1024.419	1243.19
1024.709	1228.27
1025	1226.24
1025.29	1202.51
1025.58	1230.76
1025.87	1182.85
1026.16	1219.91
1026.449	1183.75
1026.739	1178.1
1027.029	1172.91
1027.319	1148.27
1027.608	1147.37
1027.898	1143.98
1028.187	1163.64
1028.477	1155.96
1028.766	1139.46
1029.055	1108.95
1029.344	1118.45
1029.634	1108.05
1029.923	1095.62
1030.212	1123.42
1030.501	1085
1030.79	1105.56
1031.078	1057.88
1031.367	1073.47
1031.656	1048.39
1031.945	1083.87
1032.233	1036.19
1032.522	1032.8
1032.81	1032.12
1033.099	1037.32
1033.387	1035.28
1033.675	1042.74
1033.963	1005
1034.251	1018.56
1034.54	1002.74
1034.828	966.13
1035.116	992.35
1035.403	959.81
1035.691	975.17
1035.979	977.21
1036.267	965.45
1036.554	976.98
1036.842	976.53
1037.129	931.33
1037.417	937.21
1037.704	952.35
1037.992	962.29
1038.279	923.87
1038.566	923.42
1038.853	923.42
1039.14	923.42
