Data from hue_310_FLMS001491_1.txt Node
Date: Mon Feb 06 15:48:22 GMT 2017
User: dcchb
Spectrometer: FLMS00149
Trigger mode: 0
Integration Time (sec): 2.000000E-2
Scans to average: 10
Electric dark correction enabled: true
Nonlinearity correction enabled: false
Boxcar width: 0
XAxis mode: Wavelengths
Number of Pixels in Spectrum: 2048
>>>>>Begin Spectral Data<<<<<
341.393	-11.69
341.776	-11.69
342.16	-11.69
342.543	-73.61
342.927	-54.18
343.31	-81.52
343.693	-70.9
344.077	-70
344.46	-53.05
344.843	-67.96
345.226	-59.15
345.61	-37
345.993	-19.38
346.376	7.06
346.759	2.99
347.142	42.09
347.525	46.16
347.908	59.72
348.291	90.45
348.674	88.64
349.057	121.86
349.44	117.34
349.823	140.39
350.206	164.12
350.588	194.18
350.971	208.19
351.354	232.82
351.737	227.62
352.119	245.7
352.502	258.35
352.884	270.11
353.267	270.33
353.65	284.12
354.032	304.68
354.414	280.28
354.797	311.91
355.179	305.13
355.562	325.25
355.944	320.95
356.326	327.28
356.709	341.97
357.091	326.15
357.473	352.59
357.855	325.92
358.238	323.21
358.62	340.39
359.002	351.01
359.384	338.8
359.766	323.89
360.148	341.06
360.53	336.54
360.912	335.41
361.294	354.62
361.676	327.28
362.057	332.93
362.439	347.17
362.821	315.75
363.203	326.38
363.584	370.44
363.966	320.95
364.348	331.12
364.729	316.66
365.111	324.34
365.493	331.8
365.874	339.71
366.256	310.56
366.637	316.43
367.019	318.92
367.4	299.71
367.781	311.46
368.163	294.29
368.544	319.37
368.925	316.66
369.306	333.16
369.688	318.01
370.069	316.43
370.45	299.71
370.831	296.55
371.212	307.85
371.593	271.69
371.974	324.57
372.355	309.65
372.736	314.17
373.117	315.75
373.498	307.39
373.879	299.71
374.26	313.04
374.641	300.61
375.021	316.21
375.402	308.07
375.783	293.61
376.163	339.71
376.544	328.64
376.925	329.09
377.305	328.18
377.686	340.61
378.066	318.47
378.447	326.38
378.827	327.96
379.208	322.31
379.588	313.04
379.968	322.08
380.349	332.03
380.729	326.15
381.109	363.66
381.489	346.71
381.87	327.51
382.25	327.96
382.63	332.03
383.01	342.87
383.39	338.13
383.77	342.42
384.15	328.18
384.53	345.13
384.91	336.77
385.29	347.62
385.67	339.93
386.049	353.49
386.429	344.45
386.809	347.39
387.189	348.3
387.568	360.72
387.948	341.29
388.328	365.47
388.707	347.17
389.087	371.8
389.466	347.39
389.846	369.76
390.225	359.14
390.605	374.96
390.984	373.83
391.363	371.35
391.743	392.36
392.122	356.43
392.501	365.7
392.881	366.15
393.26	402.31
393.639	377.22
394.018	387.84
394.397	383.1
394.776	372.25
395.155	367.05
395.534	372.02
395.913	379.03
396.292	411.8
396.671	402.53
397.05	380.39
397.429	390.1
397.808	374.51
398.186	403.44
398.565	395.3
398.944	400.72
399.323	401.18
399.701	406.15
400.08	395.07
400.458	405.47
400.837	417.22
401.215	403.89
401.594	412.25
401.972	406.83
402.351	408.86
402.729	416.77
403.107	415.64
403.486	412.02
403.864	421.74
404.242	448.63
404.62	437.33
404.999	438.01
405.377	422.87
405.755	425.13
406.133	443.66
406.511	451.34
406.889	428.97
407.267	448.63
407.645	460.38
408.023	476.2
408.401	476.88
408.779	468.74
409.156	499.48
409.534	488.63
409.912	483.43
410.29	499.7
410.667	506.94
411.045	499.25
411.422	501.74
411.8	524.56
412.178	532.25
412.555	528.18
412.933	538.12
413.31	553.04
413.687	562.98
414.065	554.39
414.442	561.4
414.819	596.42
415.197	589.42
415.574	594.62
415.951	602.3
416.328	602.07
416.705	609.76
417.082	629.19
417.46	628.29
417.837	641.17
418.214	657.67
418.591	652.24
418.967	656.76
419.344	669.19
419.721	685.69
420.098	680.49
420.475	703.99
420.852	707.38
421.228	675.07
421.605	722.52
421.982	717.1
422.358	729.3
422.735	753.03
423.111	730.66
423.488	785.12
423.864	761.62
424.241	767.27
424.617	791.67
424.994	789.19
425.37	802.3
425.746	788.51
426.123	816.31
426.499	814.27
426.875	831.45
427.251	838.45
427.627	860.15
428.003	869.41
428.379	857.89
428.756	848.62
429.132	886.59
429.507	882.07
429.883	896.98
430.259	906.7
430.635	927.26
431.011	907.6
431.387	947.6
431.763	961.39
432.138	966.13
432.514	988.28
432.89	985.34
433.265	996.41
433.641	1020.59
434.016	995.51
434.392	1040.71
434.767	1058.11
435.143	1059.24
435.518	1047.49
435.894	1069.41
436.269	1123.42
436.644	1077.32
437.02	1106.47
437.395	1142.85
437.77	1119.12
438.145	1136.07
438.52	1133.59
438.895	1121.61
439.271	1166.58
439.646	1196.41
440.021	1190.53
440.395	1210.42
440.77	1189.86
441.145	1205.67
441.52	1226.92
441.895	1228.05
442.27	1246.58
442.645	1243.64
443.019	1263.07
443.394	1264.43
443.769	1226.92
444.143	1231.44
444.518	1249.52
444.892	1268.95
445.267	1257.2
445.641	1280.7
446.016	1294.94
446.39	1308.5
446.764	1302.17
447.139	1280.02
447.513	1314.37
447.887	1323.19
448.262	1323.86
448.636	1343.52
449.01	1332
449.384	1342.85
449.758	1317.54
450.132	1342.39
450.506	1347.82
450.88	1374.26
451.254	1360.47
451.628	1359.12
452.002	1370.19
452.376	1399.12
452.75	1408.16
453.123	1416.74
453.497	1419.91
453.871	1432.56
454.244	1421.94
454.618	1431.43
454.992	1446.8
455.365	1449.74
455.739	1474.59
456.112	1491.09
456.486	1485.89
456.859	1505.1
457.232	1567.92
457.606	1484.99
457.979	1499.23
458.352	1542.84
458.725	1562.28
459.099	1557.08
459.472	1564.54
459.845	1603.86
460.218	1614.25
460.591	1618.09
460.964	1590.98
461.337	1639.56
461.71	1673.01
462.083	1658.54
462.456	1670.07
462.829	1647.47
463.201	1713.46
463.574	1697.19
463.947	1730.63
464.32	1751.2
464.692	1764.3
465.065	1748.26
465.438	1770.18
465.81	1771.99
466.183	1818.99
466.555	1816.05
466.928	1817.18
467.3	1807.69
467.672	1856.5
468.045	1881.36
468.417	1857.18
468.789	1880.23
469.161	1915.94
469.534	1942.38
469.906	1958.42
470.278	1982.83
470.65	1980.57
471.022	2023.05
471.394	2012.66
471.766	2026.9
472.138	2046.33
472.51	2076.39
472.882	2120.23
473.253	2132.2
473.625	2107.8
473.997	2145.31
474.369	2160.45
474.74	2197.96
475.112	2230.73
475.484	2231.18
475.855	2283.84
476.227	2259.21
476.598	2332.2
476.97	2345.76
477.341	2352.09
477.713	2378.3
478.084	2422.82
478.455	2432.76
478.827	2478.18
479.198	2522.25
479.569	2506.88
479.94	2587.56
480.311	2588.46
480.682	2573.77
481.053	2654
481.424	2695.8
481.795	2693.77
482.166	2734.45
482.537	2748.91
482.908	2789.59
483.279	2784.39
483.65	2842.92
484.021	2894.22
484.391	2906.42
484.762	2892.18
485.133	2927.66
485.503	2961.79
485.874	2979.64
486.244	3025.51
486.615	3059.86
486.985	3073.2
487.356	3093.53
487.726	3137.83
488.097	3153.19
488.467	3196.36
488.837	3237.26
489.207	3265.28
489.578	3293.08
489.948	3275.9
490.318	3349.8
490.688	3367.65
491.058	3397.26
491.428	3402
491.798	3467.31
492.168	3483.81
492.538	3469.12
492.908	3508.44
493.278	3560.87
493.648	3589.57
494.017	3625.27
494.387	3609.91
494.757	3634.54
495.126	3677.47
495.496	3689
495.866	3656.01
496.235	3706.85
496.605	3731.94
496.974	3729.9
497.344	3771.03
497.713	3784.59
498.082	3787.98
498.452	3841.09
498.821	3900.29
499.19	3872.5
499.559	3908.2
499.928	3880.18
500.298	3917.69
500.667	3962.89
501.036	3931.03
501.405	3959.27
501.774	3991.82
502.143	3992.27
502.512	3966.96
502.88	4000.86
503.249	4043.34
503.618	4025.94
503.987	4053.74
504.356	4058.93
504.724	4077.46
505.093	4095.32
505.462	4119.95
505.83	4131.02
506.199	4171.7
506.567	4226.61
506.936	4180.06
507.304	4236.56
507.672	4240.85
508.041	4190.23
508.409	4265.03
508.777	4282.2
509.145	4325.37
509.514	4294.86
509.882	4385.7
510.25	4320.85
510.618	4331.47
510.986	4304.8
511.354	4343.22
511.722	4394.07
512.09	4372.6
512.458	4410.79
512.826	4382.54
513.193	4440.39
513.561	4470.22
513.929	4444.23
514.297	4485.59
514.664	4535.3
515.032	4511.12
515.4	4530.11
515.767	4512.03
516.135	4554.96
516.502	4518.13
516.869	4579.82
517.237	4590.9
517.604	4559.71
517.972	4632.93
518.339	4632.93
518.706	4612.59
519.073	4640.16
519.44	4668.86
519.808	4690.1
520.175	4672.25
520.542	4730.78
520.909	4718.12
521.276	4773.94
521.643	4761.06
522.009	4780.5
522.376	4796.09
522.743	4793.83
523.11	4809.65
523.477	4857.78
523.843	4855.07
524.21	4912.24
524.577	4922.86
524.943	4919.93
525.31	4984.33
525.676	4983.2
526.043	5006.03
526.409	5107.94
526.776	5082.63
527.142	5102.97
527.508	5086.48
527.874	5137.55
528.241	5172.58
528.607	5142.29
528.973	5229.07
529.339	5204.67
529.705	5236.75
530.071	5296.41
530.437	5271.1
530.803	5323.31
531.169	5374.83
531.535	5331.89
531.901	5354.94
532.267	5408.5
532.632	5416.64
532.998	5435.39
533.364	5517.2
533.73	5490.08
534.095	5531.66
534.461	5539.35
534.826	5538.67
535.192	5586.35
535.557	5638.33
535.923	5595.84
536.288	5662.51
536.653	5626.58
537.019	5693.92
537.384	5723.52
537.749	5758.32
538.114	5753.35
538.479	5762.39
538.845	5796.97
539.21	5812.33
539.575	5813.69
539.94	5830.64
540.305	5853.46
540.67	5899.56
541.034	5921.03
541.399	5949.73
541.764	5973.23
542.129	6036.28
542.494	5945.89
542.858	6004.87
543.223	6027.24
543.587	6105.43
543.952	6074.47
544.316	6091.2
544.681	6163.28
545.045	6155.15
545.41	6206.22
545.774	6196.05
546.138	6227.24
546.503	6260
546.867	6270.17
547.231	6322.15
547.595	6346.1
547.959	6385.43
548.324	6417.29
548.688	6395.59
549.052	6424.07
549.416	6491.41
549.779	6411.41
550.143	6516.72
550.507	6533.67
550.871	6535.25
551.235	6523.05
551.599	6551.07
551.962	6559.21
552.326	6587.45
552.689	6721.01
553.053	6629.94
553.417	6646.21
553.78	6767.79
554.143	6700.45
554.507	6739.09
554.87	6743.61
555.234	6820.44
555.597	6743.38
555.96	6744.51
556.323	6843.27
556.686	6849.59
557.05	6902.02
557.413	6914
557.776	6932.08
558.139	6952.87
558.502	6921.46
558.865	6944.73
559.228	7033.32
559.59	7006.88
559.953	6995.8
560.316	7107.67
560.679	7079.87
561.041	7104.5
561.404	7145.86
561.767	7165.07
562.129	7177.95
562.492	7219.3
562.854	7260.88
563.217	7215.69
563.579	7269.02
563.941	7306.76
564.304	7327.32
564.666	7398.51
565.028	7339.52
565.39	7420.43
565.753	7415.45
566.115	7397.83
566.477	7458.39
566.839	7450.48
567.201	7534.55
567.563	7479.86
567.925	7577.03
568.287	7577.26
568.648	7649.57
569.01	7679.85
569.372	7669.91
569.734	7724.6
570.095	7721.44
570.457	7782.9
570.819	7903.35
571.18	7850.7
571.542	7941.32
571.903	7860.64
572.265	7955.78
572.626	8043.69
572.987	8074.42
573.349	8066.51
573.71	8146.28
574.071	8177.69
574.432	8265.38
574.794	8322.1
575.155	8366.84
575.516	8365.94
575.877	8514.41
576.238	8458.59
576.599	8569.77
576.96	8628.53
577.32	8730
577.681	8835.76
578.042	8883.21
578.403	8883.21
578.763	9054.28
579.124	9118.69
579.485	9240.04
579.845	9356.19
580.206	9480.03
580.566	9565.91
580.927	9636.19
581.287	9883.86
581.648	9929.96
582.008	10082.05
582.368	10259.9
582.728	10312.78
583.089	10522.27
583.449	10708.93
583.809	10891.97
584.169	10979.88
584.529	11246.99
584.889	11486.76
585.249	11581.22
585.609	11763.36
585.969	12076.58
586.329	12254.42
586.688	12461.65
587.048	12691.47
587.408	12854.41
587.768	13114.06
588.127	13394.51
588.487	13613.94
588.846	13965.79
589.206	14099.12
589.565	14393.8
589.925	14674.92
590.284	14918.76
590.643	15198.07
591.003	15453.89
591.362	15874.89
591.721	16039.41
592.08	16449.34
592.44	16745.83
592.799	16984.24
593.158	17379.49
593.517	17612.25
593.876	18046.36
594.235	18193.02
594.593	18549.4
594.952	18850.63
595.311	19195.03
595.67	19533.55
596.029	19886.99
596.387	20104.39
596.746	20587.54
597.104	20758.61
597.463	21030.92
597.822	21410.79
598.18	21693.95
598.538	21941.63
598.897	22363.31
599.255	22593.81
599.613	23211.2
599.972	23317.41
600.33	23654.35
600.688	23902.25
601.046	24249.14
601.404	24629.69
601.762	24819.06
602.12	25300.86
602.478	25532.94
602.836	25785.14
603.194	25867.62
603.552	26218.12
603.91	26484.56
604.268	26936.07
604.625	27049.97
604.983	27443.85
605.341	27540.8
605.698	28017.4
606.056	28347.33
606.413	28506.65
606.771	28811.95
607.128	29117.71
607.485	29225.28
607.843	29378.95
608.2	29808.09
608.557	30137.34
608.914	30227.51
609.272	30649.42
609.629	30905.91
609.986	31170.08
610.343	31342.96
610.7	31723.06
611.057	31807.36
611.414	31960.57
611.771	32261.36
612.127	32507.9
612.484	32627
612.841	33047.78
613.198	32990.6
613.554	33268.79
613.911	33518.5
614.267	33733.18
614.624	33904.02
614.98	34011.37
615.337	34357.8
615.693	34529.77
616.05	34572.25
616.406	34915.52
616.762	34922.08
617.118	35022.86
617.475	35213.59
617.831	35375.4
618.187	35468.05
618.543	35813.58
618.899	36110.07
619.255	36068.26
619.611	36180.12
619.967	36392.55
620.323	36607.91
620.678	36667.79
621.034	36609.94
621.39	36776.26
621.746	36873.21
622.101	37346.65
622.457	37173.32
622.812	37294.9
623.168	37493.53
623.523	37482.46
623.879	37768.78
624.234	37657.6
624.589	37839.74
624.945	37870.47
625.3	38061.88
625.655	38020.07
626.01	38165.61
626.365	38376.45
626.72	38432.04
627.075	38505.48
627.43	38519.95
627.785	38527.18
628.14	38574.18
628.495	38716.55
628.85	38750.45
629.205	38704.58
629.559	38975.3
629.914	38822.31
630.269	39015.98
630.623	38851.69
630.978	38972.82
631.332	39113.38
631.687	39080.16
632.041	39085.81
632.396	39203.09
632.75	39099.82
633.104	39089.65
633.459	39055.53
633.813	39030.67
634.167	39124.68
634.521	39024.57
634.875	39332.13
635.229	39156.09
635.583	38938.24
635.937	39112.93
636.291	39026.15
636.645	39162.19
636.999	39084.23
637.352	39217.1
637.706	39090.33
638.06	39260.27
638.413	39190.44
638.767	39086.26
639.121	39200.38
639.474	39044.45
639.828	39199.25
640.181	39127.16
640.534	39196.31
640.888	39226.14
641.241	38986.15
641.594	39166.26
641.947	39251
642.301	39187.73
642.654	39059.59
643.007	39236.54
643.36	39044.68
643.713	39117.45
644.066	39320.6
644.419	39034.51
644.771	38770.56
645.124	38509.33
645.477	38351.36
645.83	38241.31
646.182	38171.03
646.535	38000.64
646.888	37973.3
647.24	37858.27
647.593	38045.84
647.945	37961.32
648.298	37851.04
648.65	37844.49
649.002	37674.77
649.355	37913.64
649.707	37975.78
650.059	37961.32
650.411	38394.75
650.763	38421.87
651.115	38858.7
651.467	38713.84
651.819	38838.13
652.171	38568.99
652.523	38708.64
652.875	38728.3
653.227	38556.78
653.578	38693.5
653.93	38733.95
654.282	38471.59
654.633	38461.19
654.985	38517.24
655.337	38486.05
655.688	38552.26
656.039	38604.47
656.391	38314.08
656.742	38362.66
657.094	38500.29
657.445	38444.7
657.796	38425.94
658.147	38374.19
658.498	38411.02
658.849	38363.79
659.2	38425.94
659.551	38233.4
659.902	38477.46
660.253	38381.42
660.604	38338.26
660.955	38167.41
661.306	38414.87
661.656	38234.53
662.007	38419.39
662.358	38305.26
662.708	38412.15
663.059	38384.81
663.409	38127.42
663.76	38324.25
664.11	38314.53
664.461	38432.49
664.811	38377.8
665.161	38245.15
665.511	38266.39
665.862	38359.95
666.212	38341.2
666.562	38461.42
666.912	38337.58
667.262	38204.02
667.612	38261.2
667.962	38160.41
668.312	38155.66
668.662	38363.12
669.011	38147.53
669.361	38272.04
669.711	38084.93
670.06	38141.88
670.41	38111.37
670.76	38081.77
671.109	38328.99
671.459	38094.87
671.808	38069.11
672.157	38213.06
672.507	37961.09
672.856	37933.07
673.205	37892.85
673.554	38055.55
673.904	37976.46
674.253	38166.74
674.602	37948.89
674.951	37589.58
675.3	37437.49
675.649	37961.32
675.998	37951.83
676.346	37912.28
676.695	38112.95
677.044	37725.17
677.393	37783.47
677.741	37847.2
678.09	37775.79
678.438	37685.17
678.787	37807.65
679.135	37690.36
679.484	37408.11
679.832	37589.58
680.181	37573.98
680.529	37528.34
680.877	37514.1
681.225	37383.71
681.573	37546.87
681.922	37341.67
682.27	37324.05
682.618	37339.41
682.966	37167.89
683.314	37281.34
683.661	37242.92
684.009	36982.13
684.357	37006.09
684.705	36988.01
685.053	36870.73
685.4	36887
685.748	36655.59
686.095	36750.73
686.443	36625.53
686.79	36571.98
687.138	36640.67
687.485	36555.93
687.832	36473.67
688.18	36362.26
688.527	36225.77
688.874	36127.69
689.221	36208.6
689.568	36099.45
689.915	36044.53
690.262	36018.32
690.609	35860.81
690.956	35802.5
691.303	35780.36
691.65	35615.17
691.997	35693.81
692.344	35416.75
692.69	35320.26
693.037	35467.6
693.383	34962.75
693.73	35216.76
694.077	35014.73
694.423	34948.52
694.769	34924.79
695.116	34882.08
695.462	34757.11
695.808	34644.8
696.155	34760.27
696.501	34419.04
696.847	34430.11
697.193	34242.32
697.539	34365.93
697.885	34030.12
698.231	33883.23
698.577	33968.43
698.923	34014.98
699.269	33901.54
699.614	33644.37
699.96	33693.18
700.306	33657.48
700.651	33529.57
700.997	33488.89
701.342	33411.83
701.688	33250.93
702.033	33201.9
702.379	33217.04
702.724	32988.57
703.069	33028.79
703.415	32892.3
703.76	32729.14
704.105	32876.25
704.45	32805.3
704.795	32677.39
705.14	32481.91
705.485	32471.29
705.83	32359.43
706.175	32544.74
706.52	32239.66
706.865	32220.68
707.209	32135.48
707.554	31964.64
707.899	32146.78
708.243	31904.98
708.588	31787.02
708.932	31663.4
709.277	31662.5
709.621	31651.43
709.966	31467.03
710.31	31527.82
710.654	31270.42
710.998	31275.62
711.342	31321.04
711.687	31152.68
712.031	31091.22
712.375	30891.9
712.719	31079.47
713.063	31055.29
713.407	31069.07
713.75	30874.05
714.094	30814.61
714.438	30641.28
714.782	30730.1
715.125	30619.82
715.469	30673.6
715.812	30451.91
716.156	30361.52
716.499	30384.34
716.843	30381.63
717.186	30308.64
717.53	30316.1
717.873	30281.07
718.216	30050.11
718.559	29933.73
718.902	29900.74
719.246	29992.49
719.589	29881.08
719.932	29779.16
720.275	29708.43
720.617	29705.49
720.96	29685.38
721.303	29624.59
721.646	29714.98
721.989	29441.99
722.331	29616.9
722.674	29350.47
723.016	29465.95
723.359	29332.62
723.701	29493.97
724.044	29192.28
724.386	29042.91
724.729	29208.1
725.071	29039.07
725.413	29011.27
725.755	29070.25
726.097	28915.23
726.439	28768.11
726.782	28872.07
727.124	28924.95
727.465	28789.13
727.807	28726.98
728.149	28646.08
728.491	28605.86
728.833	28603.15
729.175	28460.55
729.516	28469.36
729.858	28332.19
730.199	28473.43
730.541	28391.85
730.882	28352.53
731.224	28458.07
731.565	28159.32
731.906	28239.09
732.248	28223.5
732.589	28079.09
732.93	27929.49
733.271	28048.81
733.612	27984.18
733.953	27986.44
734.294	27927.46
734.635	27847.01
734.976	27953.22
735.317	27747.35
735.658	27677.29
735.999	27697.41
736.339	27692.21
736.68	27734.92
737.021	27696.28
737.361	27536.06
737.702	27706.45
738.042	27425.32
738.383	27542.61
738.723	27514.14
739.063	27381.48
739.404	27349.17
739.744	27356.4
740.084	27239.57
740.424	27308.49
740.764	27261.26
741.104	27261.03
741.444	27035.96
741.784	26978.33
742.124	27064.66
742.464	26991.89
742.804	26938.56
743.143	26880.25
743.483	26890.42
743.823	26750.77
744.162	26802.06
744.502	26751.44
744.841	26638.9
745.181	26715.06
745.52	26564.33
745.86	26732.46
746.199	26583.76
746.538	26481.39
746.877	26520.72
747.216	26475.52
747.556	26457.89
747.895	26444.33
748.234	26368.63
748.573	26364.56
748.911	26247.28
749.25	26150.1
749.589	26071.24
749.928	26183.77
750.267	26099.48
750.605	26069.65
750.944	26072.59
751.283	25901.3
751.621	26077.34
751.96	25776.55
752.298	25796.89
752.636	25711.47
752.975	25524.58
753.313	25510.57
753.651	25732.26
753.989	25562.77
754.327	25486.84
754.666	25317.81
755.004	25391.25
755.342	25504.24
755.679	25306.06
756.017	25228.32
756.355	25283.69
756.693	25027.65
757.031	25174.76
757.368	25022.22
757.706	24975.44
758.044	24827.88
758.381	24843.47
758.719	24870.81
759.056	24850.25
759.394	24727.77
759.731	24463.37
760.068	24480.77
760.405	24422.47
760.743	24300.89
761.08	24245.07
761.417	24283.71
761.754	24102.93
762.091	24060.67
762.428	24114.68
762.765	23982.25
763.102	24053.44
763.438	23803.27
763.775	23762.82
764.112	23739.32
764.449	23704.74
764.785	23602.15
765.122	23368.93
765.458	23329.61
765.795	23336.84
766.131	23358.54
766.467	23192.22
766.804	23126.45
767.14	23015.95
767.476	23010.07
767.812	22997.42
768.148	22846.46
768.485	22799.91
768.821	22584.1
769.157	22700.25
769.492	22628.39
769.828	22519.92
770.164	22325.12
770.5	22285.35
770.836	22302.97
771.171	22154.05
771.507	22210.32
771.842	22001.96
772.178	21900.5
772.513	21771.24
772.849	21752.93
773.184	21708.19
773.519	21578.47
773.855	21578.92
774.19	21457.12
774.525	21420.28
774.86	21306.39
775.195	21257.35
775.53	21237.24
775.865	21090.35
776.2	20969.9
776.535	20800.87
776.87	20875.44
777.205	20839.51
777.539	20691.72
777.874	20660.08
778.209	20530.82
778.543	20561.32
778.878	20391.16
779.212	20278.62
779.547	20246.08
779.881	20276.13
780.215	20094.67
780.55	20103.93
780.884	20074.56
781.218	19934.22
781.552	19776.71
781.886	19926.54
782.22	19680.22
782.554	19766.99
782.888	19464.63
783.222	19378.76
783.556	19385.99
783.889	19331.53
784.223	19266.89
784.557	19178.76
784.89	19269.61
785.224	19073.45
785.557	18976.05
785.891	18947.81
786.224	18881.14
786.558	18947.13
786.891	18674.82
787.224	18707.81
787.557	18689.51
787.891	18608.38
788.224	18593.69
788.557	18490.19
788.89	18493.36
789.223	18365.68
789.556	18295.39
789.888	18198
790.221	18214.94
790.554	18019.24
790.887	18083.87
791.219	17947.16
791.552	17913.71
791.884	17761.4
792.217	17767.05
792.549	17654.06
792.882	17606.83
793.214	17492.7
793.546	17606.37
793.879	17395.08
794.211	17288.42
794.543	17369.09
794.875	17252.71
795.207	17342.2
795.539	17241.19
795.871	17203.9
796.203	16984.92
796.535	16946.05
796.867	16900.63
797.198	16903.11
797.53	16848.43
797.862	16707.64
798.193	16730.01
798.525	16695.21
798.856	16664.93
799.188	16445.73
799.519	16427.2
799.85	16349.91
800.182	16362.79
800.513	16323.92
800.844	16221.55
801.175	16307.88
801.506	16203.25
801.837	16125.06
802.168	16113.31
802.499	15994.44
802.83	15964.16
803.161	15929.36
803.491	15981.56
803.822	15860.2
804.153	15825.86
804.483	15627.89
804.814	15643.71
805.145	15655.01
805.475	15609.36
805.805	15504.96
806.136	15580.66
806.466	15536.6
806.796	15502.25
807.126	15358.97
807.457	15332.53
807.787	15243.95
808.117	15165.08
808.447	15099.32
808.777	15255.93
809.107	15144.07
809.436	15084.86
809.766	15091.41
810.096	14939.1
810.426	14969.83
810.755	14985.88
811.085	14836.95
811.414	14823.85
811.744	14717.86
812.073	14801.7
812.403	14716.28
812.732	14663.85
813.061	14641.25
813.39	14481.94
813.719	14524.19
814.049	14601.93
814.378	14490.52
814.707	14463.41
815.036	14426.8
815.365	14389.51
815.693	14269.29
816.022	14289.85
816.351	14253.69
816.68	14165.79
817.008	14186.12
817.337	14016.41
817.665	14073.81
817.994	14162.4
818.322	14078.56
818.651	13893.25
818.979	13988.16
819.307	13964.21
819.636	13969.18
819.964	13806.25
820.292	13888.73
820.62	13818
820.948	13837.66
821.276	13878.79
821.604	13813.25
821.932	13735.74
822.259	13841.95
822.587	13697.32
822.915	13765.57
823.243	13811.9
823.57	13682.41
823.898	13757.66
824.225	13763.76
824.553	13727.83
824.88	13699.58
825.207	13690.09
825.535	13678.79
825.862	13676.53
826.189	13700.04
826.516	13749.53
826.843	13787.94
827.17	13667.04
827.497	13777.1
827.824	13743.88
828.151	13750.2
828.478	13672.24
828.805	13694.61
829.131	13615.52
829.458	13638.57
829.785	13565.35
830.111	13592.24
830.438	13768.28
830.764	13668.62
831.09	13668.85
831.417	13589.76
831.743	13606.48
832.069	13611.45
832.395	13613.94
832.722	13679.7
833.048	13526.25
833.374	13609.42
833.7	13470.44
834.026	13540.94
834.351	13565.12
834.677	13519.93
835.003	13639.92
835.329	13563.32
835.654	13532.58
835.98	13420.04
836.306	13461.17
836.631	13460.95
836.956	13442.19
837.282	13461.85
837.607	13378.01
837.932	13323.1
838.258	13313.15
838.583	13331.01
838.908	13293.72
839.233	13291.23
839.558	13211.91
839.883	13185.92
840.208	13224.57
840.533	13118.58
840.858	13178.24
841.182	13062.76
841.507	13110.45
841.832	13017.57
842.156	13039.94
842.481	12963.11
842.805	13019.6
843.13	12920.39
843.454	12902.54
843.778	12843.56
844.103	12761.98
844.427	12831.81
844.751	12820.51
845.075	12811.02
845.399	12750.68
845.723	12653.51
846.047	12718.59
846.371	12580.06
846.695	12563.79
847.019	12415.55
847.343	12454.42
847.666	12407.41
847.99	12322.22
848.313	12317.25
848.637	12190.24
848.96	12226.18
849.284	12161.54
849.607	12028.89
849.931	12068.89
850.254	11995.22
850.577	11914.09
850.9	11876.35
851.223	11807.2
851.546	11806.75
851.869	11599.98
852.192	11725.4
852.515	11653.54
852.838	11584.84
853.161	11578.51
853.483	11470.49
853.806	11496.25
854.129	11508.91
854.451	11440.43
854.774	11331.06
855.096	11378.74
855.419	11293.77
855.741	11211.97
856.063	11249.93
856.385	11138.29
856.708	11183.72
857.03	11139.88
857.352	11106.43
857.674	11072.99
857.996	11005.19
858.318	10982.14
858.64	10930.39
858.961	10939.43
859.283	10884.97
859.605	10889.04
859.926	10835.93
860.248	10817.63
860.57	10766.55
860.891	10748.93
861.212	10698.76
861.534	10692.66
861.855	10673.22
862.176	10731.3
862.498	10646.56
862.819	10599.55
863.14	10574.92
863.461	10599.33
863.782	10577.41
864.103	10522.27
864.424	10460.35
864.745	10453.34
865.065	10386.45
865.386	10444.3
865.707	10395.26
866.027	10430.06
866.348	10418.99
866.668	10378.54
866.989	10315.94
867.309	10242.73
867.63	10299.22
867.95	10302.61
868.27	10254.02
868.59	10225.32
868.91	10184.2
869.23	10277.53
869.55	10215.61
869.87	10155.95
870.19	10239.56
870.51	10161.6
870.83	10135.16
871.15	10113.69
871.469	10111.43
871.789	10123.63
872.109	10133.12
872.428	10026.01
872.748	10101.94
873.067	10013.35
873.386	10035.27
873.706	9979.68
874.025	10017.42
874.344	9917.31
874.663	9939.23
874.982	9918.89
875.301	9931.77
875.62	9878.67
875.939	9945.33
876.258	9854.03
876.577	9801.83
876.896	9844.77
877.214	9707.6
877.533	9811.32
877.852	9788.5
878.17	9769.74
878.489	9722.96
878.807	9728.61
879.125	9760.93
879.444	9707.15
879.762	9671.89
880.08	9712.57
880.398	9659.01
880.716	9649.07
881.034	9608.62
881.352	9632.57
881.67	9545.12
881.988	9583.31
882.306	9534.95
882.624	9492.91
882.941	9531.11
883.259	9448.17
883.577	9475.74
883.894	9399.13
884.212	9337.44
884.529	9393.48
884.846	9342.18
885.164	9377.89
885.481	9281.62
885.798	9245.92
886.115	9220.61
886.432	9282.75
886.75	9225.58
887.067	9236.2
887.383	9149.19
887.7	9160.49
888.017	9086.6
888.334	9144.67
888.651	9073.94
888.967	9061.29
889.284	8995.3
889.6	9046.15
889.917	8977.9
890.233	8947.84
890.55	8923.44
890.866	8888.18
891.182	8897.68
891.498	8846.6
891.815	8835.3
892.131	8791.24
892.447	8806.6
892.763	8802.31
893.079	8692.48
893.395	8666.95
893.71	8682.99
894.026	8652.48
894.342	8631.24
894.657	8587.18
894.973	8614.29
895.289	8526.16
895.604	8555.76
895.92	8512.6
896.235	8496.1
896.55	8445.03
896.865	8445.03
897.181	8390.57
897.496	8372.27
897.811	8279.61
898.126	8303.34
898.441	8325.94
898.756	8248.2
899.071	8206.85
899.386	8171.59
899.7	8150.58
900.015	8135.44
900.33	8078.26
900.644	8049.79
900.959	8026.96
901.273	8059.28
901.588	7928.21
901.902	7953.75
902.216	7955.1
902.531	7890.02
902.845	7876.23
903.159	7814.54
903.473	7827.42
903.787	7741.77
904.101	7689.8
904.415	7764.15
904.729	7699.97
905.042	7627.65
905.356	7629.69
905.67	7617.03
905.984	7577.26
906.297	7571.38
906.611	7509.24
906.924	7530.48
907.237	7460.65
907.551	7440.54
907.864	7398.51
908.177	7380.88
908.491	7339.75
908.804	7315.34
909.117	7267.66
909.43	7267.66
909.743	7259.07
910.056	7251.17
910.368	7166.87
910.681	7066.09
910.994	7129.13
911.307	7096.14
911.619	7053.88
911.932	7035.8
912.244	6942.25
912.557	6992.42
912.869	6920.1
913.181	6903.6
913.494	6952.64
913.806	6888.46
914.118	6810.05
914.43	6829.03
914.742	6733.66
915.054	6751.97
915.366	6700.22
915.678	6716.49
915.99	6626.32
916.302	6666.55
916.613	6601.01
916.925	6562.6
917.236	6504.97
917.548	6470.17
917.859	6551.07
918.171	6491.19
918.482	6379.32
918.794	6385.43
919.105	6432.88
919.416	6391.07
919.727	6313.34
920.038	6345.2
920.349	6257.75
920.66	6297.52
920.971	6268.59
921.282	6220.01
921.593	6197.41
921.903	6117.41
922.214	6163.74
922.525	6071.08
922.835	6100.46
923.146	6036.96
923.456	6038.32
923.767	5966.23
924.077	5990.86
924.387	5980.01
924.697	5916.29
925.008	5882.39
925.318	5899.34
925.628	5857.53
925.938	5813.46
926.248	5807.59
926.558	5846.68
926.867	5743.41
927.177	5724.43
927.487	5715.39
927.796	5660.92
928.106	5650.53
928.416	5601.27
928.725	5585.45
929.034	5570.08
929.344	5579.57
929.653	5590.42
929.962	5481.95
930.271	5528.5
930.581	5494.83
930.89	5424.77
931.199	5438.33
931.508	5395.62
931.817	5391.33
932.125	5363.98
932.434	5324.44
932.743	5261.84
933.051	5251.67
933.36	5280.14
933.669	5199.24
933.977	5211.44
934.286	5186.36
934.594	5190.43
934.902	5120.83
935.21	5096.87
935.519	5109.3
935.827	5075.4
936.135	5064.1
936.443	5032.92
936.751	5021.62
937.059	4998.12
937.367	4918.35
937.674	4935.52
937.982	4976.2
938.29	4905.69
938.597	4940.27
938.905	4856.43
939.213	4815.3
939.52	4778.69
939.827	4800.83
940.135	4761.74
940.442	4792.25
940.749	4774.39
941.056	4740.72
941.363	4721.74
941.67	4720.84
941.977	4661.85
942.284	4625.92
942.591	4612.82
942.898	4605.13
943.205	4596.32
943.511	4543.89
943.818	4560.61
944.125	4545.02
944.431	4518.81
944.738	4479.49
945.044	4466.15
945.35	4485.81
945.657	4413.73
945.963	4425.48
946.269	4375.08
946.575	4395.65
946.881	4380.05
947.187	4384.35
947.493	4303.67
947.799	4333.5
948.105	4361.75
948.41	4278.36
948.716	4282.43
949.022	4247.4
949.327	4213.96
949.633	4202.43
949.938	4131.93
950.244	4182.55
950.549	4122.89
950.854	4089.89
951.16	4093.51
951.465	4110.68
951.77	4082.21
952.075	4077.01
952.38	4015.32
952.685	4032.27
952.99	3964.02
953.294	4009.22
953.599	3972.38
953.904	3952.95
954.209	3911.82
954.513	3935.55
954.818	3896.23
955.122	3865.49
955.426	3856
955.731	3818.04
956.035	3829.11
956.339	3843.8
956.643	3811.93
956.948	3779.39
957.252	3789.11
957.556	3729
957.86	3763.35
958.163	3703.69
958.467	3717.7
958.771	3675.44
959.075	3713.63
959.378	3598.15
959.682	3651.26
959.985	3631.6
960.289	3635.67
960.592	3633.86
960.896	3564.71
961.199	3564.26
961.502	3559.74
961.805	3553.41
962.108	3526.07
962.411	3492.17
962.714	3473.41
963.017	3499.4
963.32	3471.15
963.623	3445.16
963.926	3453.3
964.228	3385.28
964.531	3378.5
964.833	3374.21
965.136	3383.7
965.438	3332.4
965.741	3324.49
966.043	3322.91
966.345	3331.04
966.648	3297.14
966.95	3286.98
967.252	3270.93
967.554	3250.37
967.856	3235.9
968.158	3218.28
968.46	3199.29
968.761	3194.1
969.063	3190.03
969.365	3170.82
969.666	3180.76
969.968	3121.78
970.269	3152.97
970.571	3093.99
970.872	3105.74
971.174	3089.69
971.475	3064.61
971.776	3090.14
972.077	3037.49
972.378	3051.5
972.679	3025.51
972.98	3007.66
973.281	2983.03
973.582	2978.96
973.883	2987.32
974.183	2945.06
974.484	2940.32
974.785	2929.7
975.085	2919.53
975.386	2914.33
975.686	2874.11
975.986	2879.75
976.287	2865.52
976.587	2826.87
976.887	2816.25
977.187	2853.54
977.487	2802.69
977.787	2823.26
978.087	2778.97
978.387	2790.49
978.687	2755.24
978.987	2733.77
979.286	2767.22
979.586	2749.59
979.885	2721.79
980.185	2694
980.484	2690.83
980.784	2696.71
981.083	2653.09
981.382	2656.26
981.682	2650.83
981.981	2674.79
982.28	2649.25
982.579	2616.26
982.878	2598.18
983.177	2597.05
983.475	2621.91
983.774	2571.29
984.073	2556.83
984.372	2505.3
984.67	2531.29
984.969	2504.62
985.267	2522.93
985.566	2510.05
985.864	2497.17
986.162	2498.07
986.461	2459.2
986.759	2463.49
987.057	2493.78
987.355	2432.53
987.653	2413.1
987.951	2434.79
988.249	2396.83
988.547	2388.47
988.844	2405.42
989.142	2334.91
989.44	2345.31
989.737	2368.81
990.035	2335.36
990.332	2296.04
990.63	2341.46
990.927	2315.7
991.224	2306.89
991.521	2297.85
991.819	2273.67
992.116	2266.44
992.413	2244.97
992.71	2229.38
993.006	2207.91
993.303	2240
993.6	2232.31
993.897	2223.5
994.193	2211.98
994.49	2202.48
994.787	2167.46
995.083	2145.08
995.379	2156.16
995.676	2143.05
995.972	2117.51
996.268	2137.18
996.565	2115.03
996.861	2096.5
997.157	2086.33
997.453	2101.7
997.749	2059.89
998.044	2038.87
998.34	2077.06
998.636	2042.04
998.932	2040
999.227	2004.3
999.523	2051.08
999.818	1976.73
1000.114	1989.16
1000.409	1996.39
1000.704	1947.35
1001	1992.09
1001.295	1978.54
1001.59	1965.43
1001.885	1936.28
1002.18	1909.38
1002.475	1890.4
1002.77	1922.49
1003.065	1883.17
1003.359	1897.86
1003.654	1881.59
1003.949	1900.57
1004.243	1851.53
1004.538	1831.65
1004.832	1831.87
1005.127	1818.77
1005.421	1791.2
1005.715	1802.27
1006.009	1790.52
1006.304	1765.66
1006.598	1814.7
1006.892	1771.08
1007.186	1742.16
1007.48	1746
1007.773	1740.12
1008.067	1733.12
1008.361	1714.81
1008.655	1692.44
1008.948	1694.25
1009.242	1697.64
1009.535	1677.98
1009.829	1672.33
1010.122	1684.98
1010.415	1657.41
1010.708	1652.44
1011.001	1641.14
1011.295	1616.96
1011.588	1607.25
1011.881	1576.51
1012.173	1579.22
1012.466	1576.06
1012.759	1581.48
1013.052	1586.91
1013.344	1553.69
1013.637	1544.65
1013.93	1529.73
1014.222	1552.11
1014.514	1533.8
1014.807	1491.32
1015.099	1506.91
1015.391	1491.77
1015.683	1512.56
1015.976	1493.58
1016.268	1468.49
1016.56	1479.57
1016.851	1463.07
1017.143	1429.4
1017.435	1428.95
1017.727	1429.17
1018.018	1412.22
1018.31	1431.21
1018.602	1412.9
1018.893	1383.75
1019.185	1400.47
1019.476	1390.98
1019.767	1379.91
1020.058	1374.94
1020.35	1385.78
1020.641	1337.42
1020.932	1352.11
1021.223	1350.3
1021.514	1309.63
1021.804	1309.63
1022.095	1319.57
1022.386	1284.99
1022.677	1287.25
1022.967	1261.27
1023.258	1287.25
1023.548	1272.34
1023.839	1246.8
1024.129	1226.92
1024.419	1248.16
1024.709	1242.28
1025	1213.81
1025.29	1195.28
1025.58	1248.61
1025.87	1209.52
1026.16	1174.71
1026.449	1167.94
1026.739	1194.15
1027.029	1156.86
1027.319	1169.74
1027.608	1152.57
1027.898	1173.36
1028.187	1163.19
1028.477	1140.59
1028.766	1126.81
1029.055	1090.2
1029.344	1094.94
1029.634	1122.06
1029.923	1100.82
1030.212	1108.5
1030.501	1101.04
1030.79	1084.77
1031.078	1047.49
1031.367	1066.92
1031.656	1062.85
1031.945	1049.75
1032.233	1021.5
1032.522	1028.28
1032.81	1035.96
1033.099	1035.74
1033.387	1008.84
1033.675	1009.52
1033.963	1014.95
1034.251	1008.39
1034.54	983.53
1034.828	992.57
1035.116	994.15
1035.403	964.55
1035.691	958
1035.979	966.36
1036.267	946.92
1036.554	958.9
1036.842	943.76
1037.129	934.72
1037.417	949.41
1037.704	914.83
1037.992	900.37
1038.279	919.13
1038.566	905.8
1038.853	905.8
1039.14	905.8
