Data from hue_350_FLMS001491_10.txt Node
Date: Mon Feb 06 15:37:29 GMT 2017
User: dcchb
Spectrometer: FLMS00149
Trigger mode: 0
Integration Time (sec): 2.000000E-2
Scans to average: 10
Electric dark correction enabled: true
Nonlinearity correction enabled: false
Boxcar width: 0
XAxis mode: Wavelengths
Number of Pixels in Spectrum: 2048
>>>>>Begin Spectral Data<<<<<
341.393	-22.2
341.776	-22.2
342.16	-22.2
342.543	-76.44
342.927	-50.9
343.31	-64.24
343.693	-66.5
344.077	-63.33
344.46	-62.88
344.843	-66.27
345.226	-42.77
345.61	-26.95
345.993	-34.86
346.376	3.56
346.759	27.97
347.142	10.79
347.525	29.55
347.908	60.96
348.291	70.9
348.674	102.77
349.057	121.3
349.44	133.05
349.823	138.02
350.206	164.46
350.588	167.17
350.971	228.19
351.354	249.65
351.737	227.96
352.119	251.69
352.502	278.13
352.884	270.22
353.267	288.98
353.65	295.3
354.032	314.29
354.414	288.07
354.797	283.55
355.179	306.6
355.562	309.99
355.944	335.53
356.326	343.44
356.709	352.93
357.091	331.23
357.473	343.66
357.855	331.91
358.238	338.92
358.62	322.42
359.002	332.36
359.384	336.88
359.766	345.92
360.148	335.53
360.53	350.22
360.912	338.01
361.294	335.53
361.676	359.03
362.057	319.03
362.439	324.68
362.821	319.94
363.203	320.39
363.584	318.58
363.966	333.72
364.348	327.17
364.729	322.87
365.111	329.43
365.493	312.03
365.874	310.22
366.256	313.83
366.637	321.29
367.019	312.7
367.4	312.7
367.781	308.41
368.163	300.5
368.544	319.03
368.925	308.41
369.306	313.38
369.688	325.36
370.069	306.15
370.45	329.43
370.831	307.73
371.212	312.03
371.593	303.21
371.974	304.34
372.355	328.3
372.736	295.98
373.117	296.66
373.498	306.15
373.879	308.86
374.26	326.71
374.641	309.77
375.021	318.81
375.402	318.35
375.783	332.82
376.163	321.97
376.544	329.43
376.925	331.69
377.305	322.19
377.686	338.69
378.066	314.51
378.447	319.94
378.827	327.84
379.208	305.92
379.588	318.13
379.968	313.16
380.349	321.97
380.729	329.88
381.109	361.52
381.489	332.59
381.87	315.87
382.25	344.57
382.63	336.43
383.01	335.3
383.39	339.82
383.77	355.87
384.15	328.52
384.53	347.05
384.91	357.67
385.29	353.61
385.67	349.09
386.049	374.4
386.429	349.31
386.809	339.37
387.189	346.6
387.568	319.94
387.948	359.26
388.328	375.75
388.707	369.88
389.087	347.96
389.466	340.27
389.846	342.76
390.225	365.58
390.605	368.97
390.984	380.72
391.363	352.93
391.743	367.17
392.122	365.58
392.501	388.63
392.881	372.82
393.26	380.95
393.639	367.17
394.018	362.19
394.397	387.28
394.776	386.6
395.155	378.01
395.534	374.4
395.913	367.39
396.292	369.65
396.671	386.15
397.05	398.8
397.429	394.06
397.808	370.33
398.186	390.44
398.565	380.05
398.944	375.75
399.323	389.99
399.701	403.55
400.08	394.51
400.458	384.79
400.837	407.62
401.215	381.18
401.594	399.93
401.972	397.45
402.351	415.53
402.729	400.38
403.107	396.77
403.486	398.13
403.864	397
404.242	413.27
404.62	414.17
404.999	430.21
405.377	410.1
405.755	420.72
406.133	425.24
406.511	413.72
406.889	432.02
407.267	442.87
407.645	458.69
408.023	425.24
408.401	445.36
408.779	429.08
409.156	424.34
409.534	448.97
409.912	458.91
410.29	447.16
410.667	467.73
411.045	431.12
411.422	454.85
411.8	457.56
412.178	471.57
412.555	446.26
412.933	468.86
413.31	475.64
413.687	474.96
414.065	498.24
414.442	475.86
414.819	490.33
415.197	498.46
415.574	499.82
415.951	490.55
416.328	495.75
416.705	490.1
417.082	498.24
417.46	514.73
417.837	531
418.214	523.77
418.591	528.97
418.967	528.52
419.344	536.65
419.721	537.33
420.098	552.47
420.475	536.65
420.852	545.47
421.228	539.14
421.605	530.1
421.982	544.34
422.358	574.84
422.735	592.24
423.111	558.57
423.488	588.63
423.864	563.09
424.241	602.64
424.617	580.27
424.994	606.26
425.37	585.69
425.746	592.92
426.123	600.83
426.499	592.24
426.875	601.28
427.251	612.58
427.627	595.86
428.003	629.31
428.379	625.92
428.756	645.8
429.132	630.89
429.507	647.38
429.883	645.58
430.259	662.3
430.635	645.8
431.011	661.4
431.387	679.47
431.763	680.38
432.138	684.9
432.514	669.98
432.89	712.92
433.265	702.98
433.641	694.84
434.016	708.17
434.392	719.02
434.767	709.76
435.143	702.98
435.518	727.61
435.894	727.16
436.269	760.6
436.644	736.87
437.02	754.95
437.395	758.57
437.77	756.76
438.145	778
438.52	774.39
438.895	794.72
439.271	798.11
439.646	781.84
440.021	804.22
440.395	791.79
440.77	802.18
441.145	791.79
441.52	808.06
441.895	799.92
442.27	816.87
442.645	820.49
443.019	815.74
443.394	843.99
443.769	849.19
444.143	840.37
444.518	850.32
444.892	821.84
445.267	867.49
445.641	860.26
446.016	851.45
446.39	869.98
446.764	856.87
447.139	874.95
447.513	862.97
447.887	863.42
448.262	874.5
448.636	847.38
449.01	903.42
449.384	895.06
449.758	908.39
450.132	908.85
450.506	914.95
450.88	919.92
451.254	918.34
451.628	916.53
452.002	938.9
452.376	940.71
452.75	955.85
453.123	947.04
453.497	974.83
453.871	959.47
454.244	993.59
454.618	983.65
454.992	996.75
455.365	984.32
455.739	1000.37
456.112	1014.83
456.486	1042.63
456.859	1003.53
457.232	1048.28
457.606	1036.07
457.979	1039.46
458.352	1067.94
458.725	1070.65
459.099	1119.24
459.472	1118.56
459.845	1106.13
460.218	1105.45
460.591	1098.9
460.964	1145.22
461.337	1162.85
461.71	1159.46
462.083	1191.78
462.456	1190.42
462.829	1202.4
463.201	1200.59
463.574	1175.73
463.947	1236.97
464.32	1241.49
464.692	1238.33
465.065	1250.08
465.438	1287.14
465.81	1290.98
466.183	1291.89
466.555	1330.76
466.928	1320.36
467.3	1333.92
467.672	1360.81
468.045	1384.99
468.417	1381.83
468.789	1383.18
469.161	1419.79
469.534	1429.06
469.906	1443.07
470.278	1482.39
470.65	1472
471.022	1505.89
471.394	1531.43
471.766	1545.44
472.138	1526.01
472.51	1598.32
472.882	1607.81
473.253	1608.04
473.625	1640.13
473.997	1677.41
474.369	1679.67
474.74	1714.93
475.112	1735.94
475.484	1750.86
475.855	1802.16
476.227	1819.56
476.598	1871.53
476.97	1890.29
477.341	1936.62
477.713	1927.35
478.084	1943.17
478.455	1996.95
478.827	2029.27
479.198	2088.48
479.569	2118.08
479.94	2170.51
480.311	2184.52
480.682	2233.11
481.053	2266.55
481.424	2307.45
481.795	2322.37
482.166	2327.57
482.537	2361.24
482.908	2410.95
483.279	2482.36
483.65	2502.25
484.021	2524.62
484.391	2573.44
484.762	2590.16
485.133	2603.26
485.503	2665.18
485.874	2739.53
486.244	2750.15
486.615	2805.07
486.985	2851.62
487.356	2866.53
487.726	2898.85
488.097	2986.31
488.467	2977.27
488.837	3044.16
489.207	3095.68
489.578	3121.22
489.948	3138.62
490.318	3218.39
490.688	3232.85
491.058	3259.52
491.428	3274.66
491.798	3342.68
492.168	3433.75
492.538	3439.63
492.908	3462.23
493.278	3535.22
493.648	3547.87
494.017	3540.42
494.387	3613.86
494.757	3618.15
495.126	3681.65
495.496	3690.02
495.866	3710.35
496.235	3775.66
496.605	3767.08
496.974	3859.5
497.344	3832.61
497.713	3830.13
498.082	3882.33
498.452	3959.84
498.821	3979.05
499.19	3972.95
499.559	4017.69
499.928	4031.93
500.298	4087.29
500.667	4121.42
501.036	4105.82
501.405	4131.59
501.774	4163.22
502.143	4216.78
502.512	4237.12
502.88	4216.56
503.249	4236.89
503.618	4270.34
503.987	4288.64
504.356	4322.09
504.724	4384.24
505.093	4348.3
505.462	4365.93
505.83	4439.83
506.199	4397.79
506.567	4496.77
506.936	4463.78
507.304	4486.38
507.672	4495.19
508.041	4544.46
508.409	4547.62
508.777	4582.2
509.145	4690.67
509.514	4616.77
509.882	4695.64
510.25	4676.66
510.618	4734.51
510.986	4704.45
511.354	4787.84
511.722	4789.65
512.09	4856.09
512.458	4800.95
512.826	4913.26
513.193	4879.36
513.561	4864.45
513.929	4912.36
514.297	4958.23
514.664	4965.46
515.032	4933.6
515.4	4990.09
515.767	5007.95
516.135	5033.71
516.502	5006.14
516.869	5088.4
517.237	5079.81
517.604	5069.19
517.972	5143.31
518.339	5151.45
518.706	5132.24
519.073	5129.98
519.44	5235.96
519.808	5217.89
520.175	5228.05
520.542	5296.53
520.909	5327.94
521.276	5281.39
521.643	5375.4
522.009	5365.23
522.376	5403.87
522.743	5401.16
523.11	5460.59
523.477	5481.16
523.843	5565.9
524.21	5542.62
524.577	5586.01
524.943	5552.34
525.31	5622.85
525.676	5670.08
526.043	5741.94
526.409	5713.92
526.776	5755.5
527.142	5772.22
527.508	5813.12
527.874	5803.86
528.241	5907.13
528.607	5904.42
528.973	5959.33
529.339	5931.99
529.705	6014.02
530.071	6038.43
530.437	6054.47
530.803	6096.96
531.169	6111.87
531.535	6131.31
531.901	6174.92
532.267	6196.62
532.632	6219.89
532.998	6193.23
533.364	6251.3
533.73	6225.32
534.095	6376.05
534.461	6281.13
534.826	6459.43
535.192	6397.97
535.557	6437.51
535.923	6431.41
536.288	6455.59
536.653	6479.32
537.019	6514.57
537.384	6490.62
537.749	6543.73
538.114	6614.01
538.479	6571.97
538.845	6617.4
539.21	6686.1
539.575	6689.94
539.94	6738.52
540.305	6747.11
540.67	6744.17
541.034	6781.91
541.399	6829.59
541.764	6874.79
542.129	6858.29
542.494	6911.85
542.858	6902.36
543.223	6878.63
543.587	6941.68
543.952	6958.86
544.316	7009.25
544.681	7001.12
545.045	7028.46
545.41	7133.99
545.774	7124.5
546.138	7155.46
546.503	7162.24
546.867	7201.56
547.231	7213.99
547.595	7278.85
547.959	7339.86
548.324	7295.12
548.688	7323.14
549.052	7401.78
549.416	7427.77
549.779	7375.12
550.143	7392.29
550.507	7440.65
550.871	7480.42
551.235	7543.7
551.599	7521.1
551.962	7535.11
552.326	7578.95
552.689	7554.32
553.053	7555
553.417	7615.56
553.78	7777.82
554.143	7663.47
554.507	7776.24
554.87	7736.92
555.234	7754.54
555.597	7863.24
555.96	7772.85
556.323	7863.47
556.686	7876.35
557.05	7987.08
557.413	7856.23
557.776	7935.55
558.139	7964.48
558.502	7971.94
558.865	8025.04
559.228	8083.35
559.59	8081.99
559.953	8103.23
560.316	8195.43
560.679	8129.22
561.041	8231.59
561.404	8288.54
561.767	8296
562.129	8326.96
562.492	8382.32
562.854	8338.48
563.217	8405.82
563.579	8398.59
563.941	8487.18
564.304	8508.19
564.666	8538.02
565.028	8514.97
565.39	8565.59
565.753	8599.94
566.115	8607.17
566.477	8640.62
566.839	8682.2
567.201	8710.67
567.563	8728.98
567.925	8829.54
568.287	8754.52
568.648	8797.23
569.01	8866.15
569.372	8940.73
569.734	8957
570.095	9004.9
570.457	9038.58
570.819	9084.45
571.18	9071.57
571.542	9142.3
571.903	9208.29
572.265	9195.41
572.626	9256.42
572.987	9255.07
573.349	9386.82
573.71	9453.25
574.071	9446.47
574.432	9504.33
574.794	9615.96
575.155	9630.88
575.516	9623.42
575.877	9740.7
576.238	9747.48
576.599	9818.89
576.96	9824.77
577.32	9885.33
577.681	10074.93
578.042	10188.15
578.403	10265.21
578.763	10279.45
579.124	10407.58
579.485	10463.17
579.845	10513.11
580.206	10630.62
580.566	10696.39
580.927	10902.03
581.287	11034.91
581.648	11062.48
582.008	11212.08
582.368	11344.28
582.728	11549.92
583.089	11636.7
583.449	11825.85
583.809	11932.29
584.169	12152.84
584.529	12257.93
584.889	12492.72
585.249	12578.14
585.609	12766.39
585.969	13064.91
586.329	13137.9
586.688	13348.97
587.048	13552.81
587.408	13788.51
587.768	13863.53
588.127	14218.55
588.487	14414.93
588.846	14684.53
589.206	14800.23
589.565	15097.85
589.925	15340.11
590.284	15549.14
590.643	15789.13
591.003	16080.2
591.362	16326.97
591.721	16563.58
592.08	16840.63
592.44	17072.94
592.799	17404.68
593.158	17560.61
593.517	17908.17
593.876	18265.23
594.235	18443.98
594.593	18803.52
594.952	19010.29
595.311	19337.51
595.67	19581.12
596.029	20021.56
596.387	20233.99
596.746	20590.81
597.104	20676.46
597.463	20889.34
597.822	21377.23
598.18	21523.45
598.538	21798.01
598.897	22165.91
599.255	22257.89
599.613	22884.54
599.972	22897.19
600.33	23300.35
600.688	23457.86
601.046	23849.71
601.404	24135.35
601.762	24382.58
602.12	24644.95
602.478	24916.35
602.836	25289.45
603.194	25257.13
603.552	25528.99
603.91	25834.52
604.268	26141.4
604.625	26327.84
604.983	26636.53
605.341	26859.8
605.698	27154.48
606.056	27495.72
606.413	27696.62
606.771	27937.29
607.128	28086.89
607.485	28213.89
607.843	28462.47
608.2	28869.47
608.557	29002.34
608.914	29226.07
609.272	29653.18
609.629	29849.55
609.986	30060.85
610.343	30143.78
610.7	30474.85
611.057	30649.76
611.414	30824.22
611.771	30990.77
612.127	31333.58
612.484	31480.47
612.841	31678.88
613.198	31768.37
613.554	31827.36
613.911	32190.74
614.267	32303.5
614.624	32401.8
614.98	32544.62
615.337	32921.79
615.693	32945.97
616.05	33005.86
616.406	33335.79
616.762	33417.6
617.118	33529.91
617.475	33538.27
617.831	33838.15
618.187	34032.27
618.543	34216.67
618.899	34418.02
619.255	34455.31
619.611	34556.55
619.967	34719.48
620.323	34976.2
620.678	35026.14
621.034	35066.14
621.39	35136.42
621.746	35153.6
622.101	35620.25
622.457	35445.79
622.812	35684.88
623.168	35740.02
623.523	35876.51
623.879	35988.38
624.234	35798.32
624.589	35939.11
624.945	36139.33
625.3	36426.56
625.655	36298.42
626.01	36353.56
626.365	36388.59
626.72	36516.05
627.075	36573.45
627.43	36579.77
627.785	36652.09
628.14	36729.6
628.495	36868.58
628.85	36786.77
629.205	36852.99
629.559	37072.42
629.914	36867.22
630.269	37052.3
630.623	36946.99
630.978	36846.88
631.332	37168.23
631.687	37146.31
632.041	37043.94
632.396	37163.94
632.75	37039.42
633.104	37216.59
633.459	37089.14
633.813	37091.85
634.167	37129.36
634.521	37193.32
634.875	37356.02
635.229	37249.13
635.583	37113.54
635.937	37253.43
636.291	37239.64
636.645	37281.22
636.999	37262.24
637.352	37139.76
637.706	37026.31
638.06	37238.29
638.413	37135.46
638.767	37106.31
639.121	37224.95
639.474	37023.6
639.828	37166.88
640.181	37141.34
640.534	37252.52
640.888	37156.48
641.241	36991.29
641.594	37047.1
641.947	37181.79
642.301	37072.64
642.654	37083.49
643.007	37123.94
643.36	36891.4
643.713	37109.93
644.066	37123.04
644.419	36946.32
644.771	36740.9
645.124	36492.09
645.477	36310.85
645.83	36052.33
646.182	36096.85
646.535	35876.51
646.888	35968.04
647.24	35809.4
647.593	36165.32
647.945	35895.95
648.298	35783.18
648.65	35882.39
649.002	35662.73
649.355	35886.23
649.707	35770.3
650.059	35918.1
650.411	36418.19
650.763	36460
651.115	36791.74
651.467	36699.77
651.819	36690.05
652.171	36747.68
652.523	36590.85
652.875	36587.46
653.227	36530.96
653.578	36791.07
653.93	36493.22
654.282	36467.23
654.633	36333.23
654.985	36511.98
655.337	36466.78
655.688	36523.95
656.039	36475.37
656.391	36287.35
656.742	36431.98
657.094	36393.11
657.445	36546.78
657.796	36389.04
658.147	36406.67
658.498	36373.68
658.849	36349.27
659.2	36375.94
659.551	36352.43
659.902	36408.7
660.253	36352.89
660.604	36406.22
660.955	36271.31
661.306	36449.61
661.656	36206.22
662.007	36225.43
662.358	36259.78
662.708	36279.44
663.059	36136.85
663.409	35948.38
663.76	36272.89
664.11	36282.83
664.461	36142.5
664.811	36082.61
665.161	36275.15
665.511	36044.19
665.862	36146.34
666.212	36336.16
666.562	36250.29
666.912	36167.58
667.262	36176.62
667.612	36036.28
667.962	36234.92
668.312	36039.22
668.662	36285.09
669.011	36062.72
669.361	36107.69
669.711	36081.93
670.06	36058.66
670.41	35977.3
670.76	36094.81
671.109	36095.27
671.459	36013.23
671.808	35903.18
672.157	36062.05
672.507	35936.17
672.856	35836.29
673.205	35985.21
673.554	36013.91
673.904	35867.93
674.253	36003.52
674.602	35848.49
674.951	35282.63
675.3	35260.71
675.649	35794.71
675.998	35757.65
676.346	35753.35
676.695	35934.82
677.044	35552.68
677.393	35758.78
677.741	35827.25
678.09	35657.54
678.438	35599.69
678.787	35700.7
679.135	35696.86
679.484	35378
679.832	35644.88
680.181	35361.05
680.529	35501.83
680.877	35382.52
681.225	35296.64
681.573	35398.79
681.922	35336.19
682.27	35211.67
682.618	35213.03
682.966	34931.23
683.314	35194.05
683.661	35052.13
684.009	34903.43
684.357	34888.52
684.705	34745.02
685.053	34804.9
685.4	34802.19
685.748	34544.57
686.095	34643.1
686.443	34498.92
686.79	34512.48
687.138	34633.84
687.485	34580.5
687.832	34416.21
688.18	34443.33
688.527	34240.17
688.874	34264.13
689.221	34222.77
689.568	34006.06
689.915	34077.24
690.262	34005.38
690.609	33945.27
690.956	33740.07
691.303	33774.87
691.65	33579.4
691.997	33641.09
692.344	33300.08
692.69	33252.85
693.037	33405.62
693.383	33034.78
693.73	33191.39
694.077	33039.98
694.423	33083.37
694.769	32946.2
695.116	32879.3
695.462	32738.97
695.808	32725.18
696.155	32723.15
696.501	32530.84
696.847	32501.24
697.193	32274.8
697.539	32407
697.885	32232.77
698.231	32091.53
698.577	32057.41
698.923	31980.57
699.269	31900.8
699.614	31754.59
699.96	31685.21
700.306	31706
700.651	31551.2
700.997	31445.9
701.342	31374.94
701.688	31506.91
702.033	31237.31
702.379	31269.4
702.724	31196.19
703.069	31151.21
703.415	30869.64
703.76	30962.07
704.105	30832.35
704.45	30782.18
704.795	30508.52
705.14	30544.68
705.485	30428.97
705.83	30407.51
706.175	30564.34
706.52	30391.91
706.865	30251.35
707.209	30058.81
707.554	30106.04
707.899	30221.07
708.243	29882.55
708.588	29950.57
708.932	29763
709.277	29654.76
709.621	29724.13
709.966	29568.21
710.31	29745.38
710.654	29311.94
710.998	29465.61
711.342	29464.48
711.687	29395.55
712.031	29275.33
712.375	29138.39
712.719	29200.76
713.063	29144.26
713.407	29198.95
713.75	29030.37
714.094	29019.29
714.438	28856.36
714.782	28847.32
715.125	28764.16
715.469	28894.1
715.812	28718.28
716.156	28532.98
716.499	28593.32
716.843	28560.55
717.186	28373.43
717.53	28573.66
717.873	28499.31
718.216	28438.97
718.559	28242.36
718.902	28247.56
719.246	28151.07
719.589	28095.93
719.932	27943.84
720.275	27933.67
720.617	27840.12
720.96	27968.02
721.303	27813.45
721.646	27915.82
721.989	27722.6
722.331	27665.66
722.674	27587.24
723.016	27719.21
723.359	27619.78
723.701	27587.24
724.044	27391.99
724.386	27356.51
724.729	27464.08
725.071	27396.51
725.413	27335.5
725.755	27380.01
726.097	27247.14
726.439	27080.81
726.782	27038.78
727.124	27216.4
727.465	27015.28
727.807	27120.13
728.149	27095.28
728.491	26822.06
728.833	27032.91
729.175	26815.74
729.516	26800.59
729.858	26854.83
730.199	26762.18
730.541	26787.71
730.882	26606.02
731.224	26744.55
731.565	26531.22
731.906	26591.11
732.248	26642.18
732.589	26495.07
732.93	26453.71
733.271	26358.12
733.612	26445.58
733.953	26515.18
734.294	26203.55
734.635	26177.33
734.976	26282.64
735.317	26081.52
735.658	26149.76
735.999	26101.18
736.339	26157.45
736.68	26069.99
737.021	25966.04
737.361	25927.85
737.702	26039.26
738.042	25776.67
738.383	25900.51
738.723	25933.27
739.063	25754.52
739.404	25973.5
739.744	25772.6
740.084	25757.46
740.424	25694.64
740.764	25562.89
741.104	25618.93
741.444	25578.03
741.784	25433.85
742.124	25552.49
742.464	25470.69
742.804	25296
743.143	25345.72
743.483	25337.36
743.823	25223.69
744.162	25272.27
744.502	25285.15
744.841	25207.87
745.181	25291.48
745.52	25197.02
745.86	25199.51
746.199	25053.52
746.538	24954.32
746.877	25053.07
747.216	25006.07
747.556	24895.33
747.895	25059.17
748.234	24807.88
748.573	24851.49
748.911	24687.66
749.25	24813.08
749.589	24617.15
749.928	24723.14
750.267	24677.26
750.605	24673.87
750.944	24562.91
751.283	24560.2
751.621	24528.79
751.96	24468.68
752.298	24383.03
752.636	24482.69
752.975	24287.67
753.313	24178.52
753.651	24252.19
753.989	24206.31
754.327	24143.04
754.666	24010.16
755.004	24056.03
755.342	24065.53
755.679	24024.85
756.017	23858.3
756.355	23916.15
756.693	23853.1
757.031	23784.85
757.368	23700.34
757.706	23623.05
758.044	23590.06
758.381	23589.15
758.719	23531.08
759.056	23559.1
759.394	23456.28
759.731	23330.4
760.068	23197.07
760.405	23198.2
760.743	23143.06
761.08	23084.08
761.417	23094.03
761.754	22951.43
762.091	22888.16
762.428	22814.03
762.765	22724.54
763.102	22705.11
763.438	22613.36
763.775	22580.37
764.112	22548.96
764.449	22621.5
764.785	22423.53
765.122	22234.39
765.458	22172.02
765.795	22151.23
766.131	22183.09
766.467	22173.15
766.804	22023.77
767.14	21884.11
767.476	21875.07
767.812	21794.62
768.148	21779.94
768.485	21648.64
768.821	21583.78
769.157	21560.05
769.492	21491.58
769.828	21326.61
770.164	21203.45
770.5	21100.41
770.836	21165.94
771.171	21034.87
771.507	21021.09
771.842	20806.63
772.178	20754.2
772.513	20753.3
772.849	20715.56
773.184	20696.57
773.519	20588.55
773.855	20508.1
774.19	20386.75
774.525	20442.57
774.86	20324.15
775.195	20225.85
775.53	20226.08
775.865	20065.86
776.2	19862.25
776.535	19797.16
776.87	19856.82
777.205	19769.82
777.539	19820.44
777.874	19703.61
778.209	19482.6
778.543	19495.93
778.878	19319.89
779.212	19424.97
779.547	19198.53
779.881	19274.24
780.215	19135.03
780.55	19147.24
780.884	19035.6
781.218	18918.32
781.552	19010.74
781.886	18847.36
782.22	18815.27
782.554	18716.74
782.888	18562.62
783.222	18516.74
783.556	18516.29
783.889	18420.25
784.223	18327.82
784.557	18254.15
784.89	18340.03
785.224	18100.71
785.557	18128.05
785.891	18050.54
786.224	17927.61
786.558	17955.86
786.891	17738.23
787.224	17758.57
787.557	17694.62
787.891	17686.48
788.224	17599.93
788.557	17609.65
788.89	17516.77
789.223	17454.63
789.556	17248.76
789.888	17347.51
790.221	17197.23
790.554	16999.95
790.887	17143.67
791.219	16955.43
791.552	17003.79
791.884	16900.29
792.217	16837.24
792.549	16893.28
792.882	16699.62
793.214	16614.42
793.546	16586.17
793.879	16560.86
794.211	16430.7
794.543	16535.1
794.875	16399.06
795.207	16433.64
795.539	16345.73
795.871	16350.25
796.203	16155.68
796.535	16090.14
796.867	16048.56
797.198	15984.38
797.53	16043.59
797.862	16012.4
798.193	15965.17
798.525	15942.12
798.856	15798.17
799.188	15661.23
799.519	15579.42
799.85	15594.34
800.182	15597.73
800.513	15581.91
800.844	15354.34
801.175	15476.15
801.506	15399.54
801.837	15363.61
802.168	15336.04
802.499	15228.7
802.83	15170.62
803.161	15131.3
803.491	15135.82
803.822	15117.96
804.153	15020.79
804.483	14950.96
804.814	14804.07
805.145	14823.51
805.475	14850.4
805.805	14788.03
806.136	14744.41
806.466	14756.39
806.796	14693.57
807.126	14606.11
807.457	14452.67
807.787	14570.18
808.117	14515.27
808.447	14452.44
808.777	14466.23
809.107	14404.31
809.436	14430.3
809.766	14331.77
810.096	14289.74
810.426	14241.83
810.755	14264.2
811.085	14225.78
811.414	14208.61
811.744	14062.4
812.073	14031.44
812.403	14048.61
812.732	13947.83
813.061	14007.03
813.39	13906.02
813.719	13826.02
814.049	13879.8
814.378	13832.8
814.707	13800.26
815.036	13779.47
815.365	13728.4
815.693	13601.62
816.022	13590.55
816.351	13520.27
816.68	13543.09
817.008	13504
817.337	13369.76
817.665	13426.94
817.994	13351.68
818.322	13467.39
818.651	13321.4
818.979	13284.34
819.307	13305.36
819.636	13238.01
819.964	13137.45
820.292	13143.1
820.62	13201.63
820.948	13108.07
821.276	13143.33
821.604	13152.14
821.932	13099.71
822.259	13166.15
822.587	13075.31
822.915	13053.84
823.243	13142.2
823.57	13033.5
823.898	13082.31
824.225	13030.34
824.553	13116.89
824.88	13031.47
825.207	13042.31
825.535	12993.05
825.862	13071.01
826.189	13005.25
826.516	13142.42
826.843	13109.88
827.17	13059.49
827.497	13088.86
827.824	13065.59
828.151	13067.62
828.478	13031.24
828.805	13131.12
829.131	12953.5
829.458	13008.64
829.785	12981.75
830.111	13015.87
830.438	13013.39
830.764	13002.77
831.09	13063.55
831.417	13012.26
831.743	12964.8
832.069	13054.74
832.395	12917.34
832.722	13028.75
833.048	12912.82
833.374	12984.01
833.7	12909.66
834.026	12893.16
834.351	12912.6
834.677	12893.39
835.003	12888.19
835.329	12823.11
835.654	12898.36
835.98	12853.39
836.306	12835.54
836.631	12777.46
836.956	12822.88
837.282	12786.95
837.607	12692.72
837.932	12657.46
838.258	12674.64
838.583	12684.13
838.908	12630.57
839.233	12683.23
839.558	12618.37
839.883	12500.63
840.208	12497.24
840.533	12478.94
840.858	12492.5
841.182	12429.67
841.507	12482.78
841.832	12444.36
842.156	12359.39
842.481	12409.11
842.805	12388.77
843.13	12332.27
843.454	12329.79
843.778	12254.76
844.103	12189.23
844.427	12187.87
844.751	12165.27
845.075	12157.82
845.399	12036.01
845.723	12052.06
846.047	12087.54
846.371	11977.03
846.695	11999.85
847.019	11872.85
847.343	11809.58
847.666	11725.51
847.99	11711.27
848.313	11668.56
848.637	11598.06
848.96	11627.43
849.284	11660.88
849.607	11460.43
849.931	11459.08
850.254	11375.46
850.577	11344.96
850.9	11235.13
851.223	11309.25
851.546	11221.34
851.869	11138.63
852.192	11172.76
852.515	11062.25
852.838	11034.91
853.161	10991.52
853.483	11016.38
853.806	10945.42
854.129	10871.07
854.451	10874.01
854.774	10808.25
855.096	10856.83
855.419	10830.85
855.741	10828.13
856.063	10665.65
856.385	10678.53
856.708	10653
857.03	10592.89
857.352	10573
857.674	10570.74
857.996	10559.44
858.318	10443.74
858.64	10518.76
858.961	10399.44
859.283	10349.5
859.605	10338.2
859.926	10229.05
860.248	10301.59
860.57	10246.68
860.891	10284.87
861.212	10284.64
861.534	10166.46
861.855	10130.98
862.176	10201.03
862.498	10182.5
862.819	10097.76
863.14	10106.8
863.461	10087.36
863.782	9961.94
864.103	9965.78
864.424	10014.37
864.745	9952.22
865.065	9928.72
865.386	9893.47
865.707	9943.18
866.027	9938.21
866.348	9867.03
866.668	9898.67
866.989	9852.34
867.309	9772.34
867.63	9854.37
867.95	9836.75
868.27	9773.02
868.59	9841.27
868.91	9797.88
869.23	9706.81
869.55	9648.28
869.87	9727.37
870.19	9795.17
870.51	9755.39
870.83	9725.56
871.15	9712.68
871.469	9632.01
871.789	9683.53
872.109	9674.72
872.428	9561.95
872.748	9570.31
873.067	9632.68
873.386	9571.44
873.706	9555.62
874.025	9448.73
874.344	9458.45
874.663	9474.04
874.982	9506.36
875.301	9400.6
875.62	9429.3
875.939	9390.43
876.258	9389.75
876.577	9347.95
876.896	9372.35
877.214	9270.89
877.533	9315.86
877.852	9371
878.17	9311.11
878.489	9324.9
878.807	9343.88
879.125	9272.47
879.444	9190.66
879.762	9171
880.08	9200.61
880.398	9220.04
880.716	9176.88
881.034	9117.44
881.352	9140.95
881.67	9076.54
881.988	9161.06
882.306	9113.83
882.624	9028.41
882.941	9081.51
883.259	9014.85
883.577	8985.47
883.894	8922.19
884.212	8916.77
884.529	8961.52
884.846	8884.68
885.164	8895.53
885.481	8874.74
885.798	8866.15
886.115	8787.28
886.432	8802.42
886.75	8785.48
887.067	8770.79
887.383	8707.06
887.7	8758.58
888.017	8714.74
888.334	8645.14
888.651	8669.55
888.967	8680.17
889.284	8579.6
889.6	8595.65
889.917	8494.64
890.233	8546.16
890.55	8543.45
890.866	8512.04
891.182	8461.19
891.498	8430.46
891.815	8379.84
892.131	8383.9
892.447	8378.93
892.763	8346.39
893.079	8349.33
893.395	8274.53
893.71	8290.12
894.026	8266.17
894.342	8220.29
894.657	8143.68
894.973	8187.3
895.289	8140.75
895.604	8143.46
895.92	8068.66
896.235	8044.93
896.55	8018.04
896.865	7965.61
897.181	8021.88
897.496	7978.72
897.811	7977.36
898.126	7895.33
898.441	7880.87
898.756	7873.86
899.071	7789.12
899.386	7794.99
899.7	7747.54
900.015	7735.11
900.33	7666.63
900.644	7742.79
900.959	7716.8
901.273	7636.8
901.588	7605.62
901.902	7637.93
902.216	7569.46
902.531	7507.77
902.845	7500.99
903.159	7438.84
903.473	7460.31
903.787	7400.88
904.101	7370.6
904.415	7357.49
904.729	7363.82
905.042	7297.38
905.356	7318.85
905.67	7240.88
905.984	7281.56
906.297	7202.92
906.611	7196.82
906.924	7148.91
907.237	7084.05
907.551	7101.45
907.864	7088.34
908.177	7086.31
908.491	7049.02
908.804	7006.54
909.117	6943.94
909.43	6909.37
909.743	6889.25
910.056	6869.82
910.368	6896.94
910.681	6808.58
910.994	6781.23
911.307	6770.61
911.619	6739.2
911.932	6696.72
912.244	6668.47
912.557	6691.74
912.869	6588.7
913.181	6587.57
913.494	6579.43
913.806	6517.96
914.118	6554.35
914.43	6462.6
914.742	6469.38
915.054	6452.2
915.366	6409.27
915.678	6346.44
915.99	6332.43
916.302	6306.22
916.613	6268.03
916.925	6269.16
917.236	6297.41
917.548	6175.83
917.859	6206.79
918.171	6122.95
918.482	6128.37
918.794	6089.73
919.105	6124.08
919.416	6053.12
919.727	6108.71
920.038	6058.54
920.349	5941.71
920.66	5977.41
920.971	5962.95
921.282	5926.34
921.593	5848.15
921.903	5837.98
922.214	5880.92
922.525	5844.31
922.835	5813.12
923.146	5746.23
923.456	5783.07
923.767	5748.94
924.077	5716.18
924.387	5699.68
924.697	5674.82
925.008	5608.38
925.318	5617.42
925.628	5617.42
925.938	5579.68
926.248	5531.32
926.558	5521.61
926.867	5522.96
927.177	5486.13
927.487	5438.22
927.796	5427.37
928.106	5427.6
928.416	5370.65
928.725	5329.29
929.034	5360.93
929.344	5379.46
929.653	5343.98
929.962	5246.81
930.271	5234.38
930.581	5255.4
930.89	5239.81
931.199	5170.2
931.508	5168.62
931.817	5185.57
932.125	5117.55
932.434	5103.09
932.743	5078
933.051	4995.29
933.36	5048.85
933.669	4996.2
933.977	4972.47
934.286	4953.26
934.594	4959.59
934.902	4935.18
935.21	4886.82
935.519	4891.11
935.827	4940.15
936.135	4856.09
936.443	4809.53
936.751	4743.55
937.059	4804.79
937.367	4792.13
937.674	4744.9
937.982	4724.34
938.29	4734.28
938.597	4690.89
938.905	4618.35
939.213	4638.01
939.52	4618.13
939.827	4615.19
940.135	4592.82
940.442	4545.81
940.749	4528.86
941.056	4525.7
941.363	4489.32
941.67	4450.22
941.977	4428.3
942.284	4428.08
942.591	4435.53
942.898	4390.79
943.205	4406.38
943.511	4340.62
943.818	4333.16
944.125	4328.19
944.431	4304.46
944.738	4294.52
945.044	4291.81
945.35	4278.48
945.657	4222.43
945.963	4228.53
946.269	4228.98
946.575	4192.83
946.881	4167.97
947.187	4122.32
947.493	4111.47
947.799	4091.36
948.105	4081.19
948.41	4076.67
948.716	4077.8
949.022	4048.42
949.327	4051.14
949.633	3988.99
949.938	3998.93
950.244	4018.82
950.549	3970.23
950.854	3941.53
951.16	3916.68
951.465	3961.65
951.77	3882.1
952.075	3872.61
952.38	3872.61
952.685	3833.97
952.99	3850.01
953.294	3803.91
953.599	3800.52
953.904	3787.41
954.209	3752.61
954.513	3712.61
954.818	3750.81
955.122	3723.69
955.426	3740.86
955.731	3699.51
956.035	3699.06
956.339	3668.32
956.643	3658.38
956.948	3605.95
957.252	3599.17
957.556	3583.58
957.86	3593.97
958.163	3569.12
958.467	3526.86
958.771	3510.13
959.075	3538.83
959.378	3514.2
959.682	3529.79
959.985	3486.41
960.289	3497.7
960.592	3417.03
960.896	3441.43
961.199	3412.51
961.502	3396.92
961.805	3377.48
962.108	3339.29
962.411	3331.16
962.714	3332.06
963.017	3351.04
963.32	3339.52
963.623	3308.78
963.926	3261.78
964.228	3267.88
964.531	3280.08
964.833	3248.9
965.136	3247.54
965.438	3218.16
965.741	3170.03
966.043	3175
966.345	3184.72
966.648	3138.39
966.95	3131.84
967.252	3112.86
967.554	3135.45
967.856	3108.34
968.158	3105.17
968.46	3093.87
968.761	3071.95
969.063	3067.66
969.365	3039.64
969.666	3005.51
969.968	3013.42
970.269	2986.31
970.571	2983.14
970.872	2977.27
971.174	2936.14
971.475	2935.69
971.776	2965.29
972.077	2904.73
972.378	2920.32
972.679	2879.19
972.98	2918.74
973.281	2849.59
973.582	2890.04
973.883	2872.18
974.183	2821.34
974.484	2817.5
974.785	2803.49
975.085	2808.91
975.386	2795.58
975.686	2759.19
975.986	2779.08
976.287	2746.99
976.587	2739.76
976.887	2737.05
977.187	2708.8
977.487	2727.56
977.787	2728.46
978.087	2693.66
978.387	2659.53
978.687	2665.86
978.987	2680.1
979.286	2613.43
979.586	2593.77
979.885	2595.81
980.185	2609.14
980.484	2567.56
980.784	2587.22
981.083	2609.37
981.382	2544.96
981.682	2573.21
981.981	2548.8
982.28	2518.75
982.579	2460.9
982.878	2482.36
983.177	2483.04
983.475	2491.18
983.774	2457.96
984.073	2436.49
984.372	2443.27
984.67	2439.88
984.969	2431.29
985.267	2409.15
985.566	2427.45
985.864	2415.7
986.162	2384.29
986.461	2387.45
986.759	2391.07
987.057	2354.68
987.355	2327.57
987.653	2304.29
987.951	2338.87
988.249	2313.1
988.547	2316.27
988.844	2283.73
989.142	2282.14
989.44	2260.22
989.737	2275.59
990.035	2246.21
990.332	2231.75
990.63	2211.41
990.927	2231.75
991.224	2197.4
991.521	2218.87
991.819	2191.75
992.116	2189.94
992.413	2198.08
992.71	2151.3
993.006	2159.21
993.303	2121.24
993.6	2154.24
993.897	2128.93
994.193	2081.24
994.49	2114.69
994.787	2103.39
995.083	2071.53
995.379	2091.64
995.676	2055.26
995.972	2050.51
996.268	2047.35
996.565	2034.92
996.861	2029.27
997.157	2017.52
997.453	1981.81
997.749	2001.25
998.044	1972.1
998.34	1980.23
998.636	1943.17
998.932	1958.76
999.227	1939.1
999.523	1950.17
999.818	1932.55
1000.114	1913.34
1000.409	1897.75
1000.704	1896.16
1001	1880.8
1001.295	1889.84
1001.59	1881.25
1001.885	1872.89
1002.18	1848.26
1002.475	1824.75
1002.77	1820.91
1003.065	1786.56
1003.359	1831.76
1003.654	1818.2
1003.949	1795.38
1004.243	1769.84
1004.538	1784.53
1004.832	1760.58
1005.127	1738.88
1005.421	1751.54
1005.715	1723.29
1006.009	1722.61
1006.304	1715.6
1006.598	1708.37
1006.892	1690.29
1007.186	1685.55
1007.48	1681.71
1007.773	1697.3
1008.067	1655.04
1008.361	1637.64
1008.655	1631.99
1008.948	1660.92
1009.242	1627.92
1009.535	1579.79
1009.829	1602.84
1010.122	1601.26
1010.415	1574.37
1010.708	1572.78
1011.001	1559
1011.295	1573.69
1011.588	1565.33
1011.881	1558.77
1012.173	1546.8
1012.466	1515.84
1012.759	1518.32
1013.052	1523.07
1013.344	1488.94
1013.637	1508.83
1013.93	1457.53
1014.222	1462.73
1014.514	1451.43
1014.807	1496.18
1015.099	1437.87
1015.391	1434.48
1015.683	1431.09
1015.976	1450.98
1016.268	1401.26
1016.56	1429.06
1016.851	1406.91
1017.143	1403.52
1017.435	1398.1
1017.727	1392.68
1018.018	1362.39
1018.31	1367.82
1018.602	1356.07
1018.893	1362.39
1019.185	1339.34
1019.476	1337.99
1019.767	1323.52
1020.058	1325.11
1020.35	1303.86
1020.641	1275.39
1020.932	1289.4
1021.223	1275.62
1021.514	1255.96
1021.804	1256.63
1022.095	1251.44
1022.386	1249.18
1022.677	1234.94
1022.967	1241.27
1023.258	1220.93
1023.548	1231.55
1023.839	1239.46
1024.129	1195.17
1024.419	1203.53
1024.709	1180.48
1025	1175.05
1025.29	1160.59
1025.58	1163.75
1025.87	1165.11
1026.16	1137.09
1026.449	1156.3
1026.739	1128.73
1027.029	1132.8
1027.319	1138.44
1027.608	1102.51
1027.898	1116.3
1028.187	1083.53
1028.477	1065.9
1028.766	1093.25
1029.055	1082.85
1029.344	1087.6
1029.634	1068.16
1029.923	1066.81
1030.212	1048.5
1030.501	1041.72
1030.79	1011.44
1031.078	1017.54
1031.367	1033.81
1031.656	1015.06
1031.945	1004.66
1032.233	1022.74
1032.522	1006.02
1032.81	989.97
1033.099	994.04
1033.387	993.14
1033.675	980.03
1033.963	978.9
1034.251	957.88
1034.54	930.31
1034.828	956.3
1035.116	935.96
1035.403	952.01
1035.691	942.29
1035.979	941.61
1036.267	933.03
1036.554	906.36
1036.842	895.51
1037.129	922.18
1037.417	908.62
1037.704	901.39
1037.992	911.11
1038.279	901.84
1038.566	883.76
1038.853	883.76
1039.14	883.76
