Data from hue_270_FLMS001491_00058.txt Node
Date: Tue Feb 07 15:57:24 GMT 2017
User: dcchb
Spectrometer: FLMS00149
Trigger mode: 0
Integration Time (sec): 2.000000E-2
Scans to average: 10
Electric dark correction enabled: true
Nonlinearity correction enabled: false
Boxcar width: 0
XAxis mode: Wavelengths
Number of Pixels in Spectrum: 2048
>>>>>Begin Spectral Data<<<<<
341.393	-19.02
341.776	-19.02
342.16	-19.02
342.543	-35.07
342.927	-63.32
343.31	-79.81
343.693	-57.44
344.077	-82.98
344.46	-53.37
344.843	-58.12
345.226	-24.67
345.61	-28.06
345.993	-10.21
346.376	-9.99
346.759	27.53
347.142	22.33
347.525	44.48
347.908	70.92
348.291	61.65
348.674	72.72
349.057	105.04
349.44	139.16
349.823	156.56
350.206	148.43
350.588	186.39
350.971	207.86
351.354	213.74
351.737	257.58
352.119	232.72
352.502	269.33
352.884	274.75
353.267	268.88
353.65	297.12
354.032	301.19
354.414	296.22
354.797	310.91
355.179	320.63
355.562	295.77
355.944	312.72
356.326	344.58
356.709	321.98
357.091	347.97
357.473	332.15
357.855	366.05
358.238	337.12
358.62	318.82
359.002	322.66
359.384	344.81
359.766	347.07
360.148	344.36
360.53	336.9
360.912	335.99
361.294	330.12
361.676	327.41
362.057	336.67
362.439	347.07
362.821	310.01
363.203	316.79
363.584	323.34
363.966	312.49
364.348	338.25
364.729	335.09
365.111	316.56
365.493	334.19
365.874	314.98
366.256	304.58
366.637	303
367.019	293.74
367.4	321.08
367.781	282.66
368.163	310.91
368.544	301.64
368.925	312.72
369.306	317.69
369.688	324.47
370.069	292.15
370.45	317.69
370.831	312.72
371.212	311.81
371.593	304.36
371.974	324.92
372.355	307.29
372.736	305.94
373.117	332.83
373.498	303.9
373.879	314.3
374.26	307.75
374.641	317.69
375.021	324.24
375.402	329.67
375.783	327.18
376.163	337.8
376.544	314.3
376.925	325.6
377.305	328.08
377.686	344.13
378.066	338.93
378.447	325.82
378.827	319.72
379.208	348.2
379.588	333.06
379.968	328.54
380.349	335.09
380.729	347.75
381.109	344.81
381.489	333.96
381.87	331.25
382.25	343
382.63	325.82
383.01	326.73
383.39	342.77
383.77	375.54
384.15	346.84
384.53	344.13
384.91	352.26
385.29	353.85
385.67	341.19
386.049	364.92
386.429	372.83
386.809	350.91
387.189	353.17
387.568	339.38
387.948	367.63
388.328	336.67
388.707	369.89
389.087	351.59
389.466	353.17
389.846	367.86
390.225	351.13
390.605	373.51
390.984	386.16
391.363	365.82
391.743	375.09
392.122	374.86
392.501	373.73
392.881	392.49
393.26	381.87
393.639	399.04
394.018	380.51
394.397	385.71
394.776	387.97
395.155	384.13
395.534	391.13
395.913	392.04
396.292	409.66
396.671	391.36
397.05	413.96
397.429	416.22
397.808	394.52
398.186	378.7
398.565	386.16
398.944	409.66
399.323	429.78
399.701	405.37
400.08	422.55
400.458	437.69
400.837	433.84
401.215	424.81
401.594	427.52
401.972	441.3
402.351	429.78
402.729	439.27
403.107	440.62
403.486	434.97
403.864	439.49
404.242	459.38
404.62	440.17
404.999	460.51
405.377	454.63
405.755	452.83
406.133	469.32
406.511	474.3
406.889	476.78
407.267	467.74
407.645	482.43
408.023	497.57
408.401	474.07
408.779	489.89
409.156	520.85
409.534	502.77
409.912	484.01
410.29	519.27
410.667	547.51
411.045	514.97
411.422	530.57
411.8	521.53
412.178	561.3
412.555	555.88
412.933	555.88
413.31	575.76
413.687	574.86
414.065	573.73
414.442	591.58
414.819	587.51
415.197	610.34
415.574	598.81
415.951	626.61
416.328	646.04
416.705	637.91
417.082	638.13
417.46	634.07
417.837	657.57
418.214	634.29
418.591	667.06
418.967	679.49
419.344	691.92
419.721	693.05
420.098	698.24
420.475	710.9
420.852	730.56
421.228	710.22
421.605	726.94
421.982	732.82
422.358	768.75
422.735	744.12
423.111	782.54
423.488	799.71
423.864	782.99
424.241	785.47
424.617	798.81
424.994	805.36
425.37	848.3
425.746	823.89
426.123	845.59
426.499	865.92
426.875	830.44
427.251	872.7
427.627	893.95
428.003	908.86
428.379	909.76
428.756	927.62
429.132	944.79
429.507	966.71
429.883	971.68
430.259	958.35
430.635	958.58
431.011	1001.74
431.387	1000.84
431.763	1029.08
432.138	1008.07
432.514	1030.44
432.89	1043.32
433.265	1079.7
433.641	1088.52
434.016	1095.52
434.392	1122.87
434.767	1142.3
435.143	1156.09
435.518	1150.89
435.894	1134.62
436.269	1168.29
436.644	1194.73
437.02	1234.73
437.395	1240.6
437.77	1268.4
438.145	1283.54
438.52	1295.06
438.895	1317.66
439.271	1325.12
439.646	1341.17
440.021	1341.62
440.395	1375.51
440.77	1369.87
441.145	1408.28
441.52	1442.63
441.895	1415.06
442.27	1456.19
442.645	1481.5
443.019	1459.13
443.394	1446.47
443.769	1478.56
444.143	1480.37
444.518	1483.08
444.892	1516.08
445.267	1523.08
445.641	1535.51
446.016	1530.54
446.39	1563.53
446.764	1566.92
447.139	1556.75
447.513	1575.74
447.887	1591.1
448.262	1586.13
448.636	1631.1
449.01	1626.58
449.384	1627.03
449.758	1625.23
450.132	1696.86
450.506	1651.21
450.88	1700.93
451.254	1684.43
451.628	1726.47
452.002	1743.64
452.376	1693.7
452.75	1743.41
453.123	1779.57
453.497	1771.21
453.871	1765.56
454.244	1811.21
454.618	1851.66
454.992	1852.11
455.365	1839.68
455.739	1864.99
456.112	1919.91
456.486	1903.41
456.859	1919
457.232	1942.96
457.606	1961.04
457.979	1950.87
458.352	1999
458.725	2018.44
459.099	2022.5
459.472	2107.02
459.845	2090.75
460.218	2078.55
460.591	2172.56
460.964	2131.43
461.337	2168.04
461.71	2192.89
462.083	2234.25
462.456	2241.93
462.829	2219.79
463.201	2276.51
463.574	2266.79
463.947	2294.13
464.32	2328.71
464.692	2335.04
465.065	2360.12
465.438	2392.89
465.81	2422.04
466.183	2435.6
466.555	2464.75
466.928	2520.34
467.3	2519.21
467.672	2547.01
468.045	2538.87
468.417	2627.01
468.789	2597.63
469.161	2624.3
469.534	2664.52
469.906	2730.06
470.278	2742.48
470.65	2728.93
471.022	2802.6
471.394	2822.93
471.766	2870.62
472.138	2864.52
472.51	2952.2
472.882	2966.43
473.253	2954.23
473.625	3011.63
473.997	3077.84
474.369	3093.44
474.74	3110.61
475.112	3166.88
475.484	3251.17
475.855	3268.35
476.227	3248.91
476.598	3398.74
476.97	3351.06
477.341	3428.79
477.713	3464.95
478.084	3498.85
478.455	3565.51
478.827	3560.54
479.198	3661.78
479.569	3690.93
479.94	3734.1
480.311	3803.47
480.682	3854.55
481.053	3932.28
481.424	3949.68
481.795	3993.98
482.166	4085.27
482.537	4057.03
482.908	4127.53
483.279	4227.87
483.65	4250.47
484.021	4319.62
484.391	4382.67
484.762	4318.49
485.133	4399.62
485.503	4443
485.874	4548.09
486.244	4580.85
486.615	4656.11
486.985	4684.13
487.356	4727.06
487.726	4776.78
488.097	4840.28
488.467	4868.53
488.837	4935.2
489.207	4961.64
489.578	5047.96
489.948	5080.5
490.318	5153.27
490.688	5176.77
491.058	5184
491.428	5269.42
491.798	5325.24
492.168	5422.87
492.538	5435.75
492.908	5466.48
493.278	5529.53
493.648	5476.42
494.017	5536.31
494.387	5583.31
494.757	5658.11
495.126	5709.86
495.496	5729.07
495.866	5737.43
496.235	5795.06
496.605	5835.06
496.974	5861.5
497.344	5911.67
497.713	5905.11
498.082	5966.81
498.452	5991.89
498.821	5993.25
499.19	5992.34
499.559	6114.83
499.928	6054.94
500.298	6091.55
500.667	6154.6
501.036	6183.75
501.405	6230.08
501.774	6219.23
502.143	6305.33
502.512	6263.52
502.88	6300.13
503.249	6270.75
503.618	6323.86
503.987	6333.8
504.356	6338.77
504.724	6399.34
505.093	6451.31
505.462	6410.41
505.83	6401.37
506.199	6472.33
506.567	6557.53
506.936	6529.28
507.304	6589.61
507.672	6638.2
508.041	6621.7
508.409	6674.13
508.777	6714.58
509.145	6730.4
509.514	6700.8
509.882	6734.47
510.25	6739.44
510.618	6767.01
510.986	6783.28
511.354	6881.58
511.722	6868.93
512.09	6913.22
512.458	6878.42
512.826	6989.83
513.193	6952.77
513.561	6975.14
513.929	7006.33
514.297	7058.3
514.664	7048.81
515.032	7080.68
515.4	7066.89
515.767	7096.72
516.135	7110.73
516.502	7093.33
516.869	7158.41
517.237	7141.46
517.604	7088.36
517.972	7182.37
518.339	7214.01
518.706	7215.14
519.073	7198.19
519.44	7206.1
519.808	7327.22
520.175	7284.29
520.542	7356.83
520.909	7370.16
521.276	7391.4
521.643	7442.25
522.009	7445.19
522.376	7420.78
522.743	7468.91
523.11	7558.18
523.477	7531.29
523.843	7574.22
524.21	7655.8
524.577	7635.01
524.943	7651.28
525.31	7610.38
525.676	7724.27
526.043	7762.24
526.409	7742.13
526.776	7810.83
527.142	7806.08
527.508	7830.26
527.874	7887.89
528.241	7789.13
528.607	7876.81
528.973	7997.71
529.339	7938.05
529.705	7966.08
530.071	8041.1
530.437	8078.16
530.803	8063.7
531.169	8079.97
531.535	8101.89
531.901	8111.61
532.267	8128.78
532.632	8154.32
532.998	8180.99
533.364	8213.08
533.73	8225.28
534.095	8166.07
534.461	8246.07
534.826	8268.67
535.192	8257.14
535.557	8321.77
535.923	8276.35
536.288	8355.44
536.653	8259.4
537.019	8277.03
537.384	8238.39
537.749	8315.22
538.114	8317.25
538.479	8306.86
538.845	8390.92
539.21	8345.27
539.575	8406.97
539.94	8374.2
540.305	8403.58
540.67	8419.85
541.034	8384.82
541.399	8392.51
541.764	8456.91
542.129	8451.49
542.494	8449.23
542.858	8482.67
543.223	8448.1
543.587	8497.36
543.952	8505.27
544.316	8490.13
544.681	8470.02
545.045	8540.75
545.41	8564.48
545.774	8654.65
546.138	8498.04
546.503	8571.94
546.867	8537.13
547.231	8654.87
547.595	8601.77
547.959	8630.92
548.324	8606.51
548.688	8610.8
549.052	8617.13
549.416	8670.92
549.779	8647.19
550.143	8623.01
550.507	8674.08
550.871	8687.41
551.235	8715.21
551.599	8753.17
551.962	8736.23
552.326	8778.71
552.689	8805.15
553.053	8779.39
553.417	8794.3
553.78	8836.79
554.143	8809.22
554.507	8848.54
554.87	8800.4
555.234	8889.89
555.597	8827.97
555.96	8877.46
556.323	8870.01
556.686	8892.15
557.05	8960.17
557.413	8955.65
557.776	8917.69
558.139	9059.38
558.502	9033.17
558.865	9038.59
559.228	9072.49
559.59	9076.1
559.953	9048.08
560.316	9134.18
560.679	9204.01
561.041	9221.86
561.404	9276.55
561.767	9291.69
562.129	9204.01
562.492	9360.39
562.854	9326.72
563.217	9297.79
563.579	9350.22
563.941	9361.07
564.304	9387.51
564.666	9551.12
565.028	9479.71
565.39	9538.24
565.753	9584.79
566.115	9614.17
566.477	9620.95
566.839	9644
567.201	9671.34
567.563	9604.45
567.925	9724.67
568.287	9698.23
568.648	9738.23
569.01	9804.9
569.372	9848.51
569.734	9866.14
570.095	9867.27
570.457	9972.12
570.819	9940.04
571.18	9968.06
571.542	10022.29
571.903	9979.13
572.265	10083.31
572.626	10130.76
572.987	10122.63
573.349	10154.27
573.71	10224.77
574.071	10175.06
574.432	10290.99
574.794	10362.85
575.155	10331.44
575.516	10305.22
575.877	10349.06
576.238	10408.72
576.599	10389.97
576.96	10456.18
577.32	10493.69
577.681	10584.31
578.042	10563.97
578.403	10540.7
578.763	10591.32
579.124	10634.03
579.485	10690.07
579.845	10676.29
580.206	10677.87
580.566	10793.57
580.927	10786.57
581.287	10818.43
581.648	10795.83
582.008	10958.09
582.368	10880.58
582.728	10874.25
583.089	10882.16
583.449	11009.39
583.809	11013.91
584.169	11064.75
584.529	11121.93
584.889	11140.23
585.249	11092.77
585.609	11100.46
585.969	11219.55
586.329	11202.6
586.688	11224.07
587.048	11199.44
587.408	11277.4
587.768	11286.21
588.127	11304.75
588.487	11271.75
588.846	11347.23
589.206	11310.62
589.565	11420.9
589.925	11407.12
590.284	11393.1
590.643	11518.3
591.003	11504.06
591.362	11532.54
591.721	11542.48
592.08	11583.16
592.44	11610.27
592.799	11644.85
593.158	11624.28
593.517	11594.68
593.876	11772.76
594.235	11703.38
594.593	11720.33
594.952	11786.77
595.311	11698.63
595.67	11829.25
596.029	11838.52
596.387	11825.18
596.746	11917.16
597.104	11853.43
597.463	11941.11
597.822	11997.83
598.18	11983.82
598.538	11948.57
598.897	12036.7
599.255	11956.71
599.613	12138.85
599.972	12116.48
600.33	12023.37
600.688	12043.48
601.046	12047.78
601.404	12148.34
601.762	12145.85
602.12	12215.46
602.478	12210.48
602.836	12172.07
603.194	12113.54
603.552	12184.72
603.91	12133.42
604.268	12259.3
604.625	12122.58
604.983	12263.36
605.341	12150.6
605.698	12254.1
606.056	12358.95
606.413	12250.48
606.771	12365.96
607.128	12351.5
607.485	12307.2
607.843	12335
608.2	12406.86
608.557	12437.37
608.914	12403.93
609.272	12469.69
609.629	12415.9
609.986	12512.4
610.343	12495.9
610.7	12548.1
611.057	12532.51
611.414	12521.44
611.771	12532.51
612.127	12532.06
612.484	12584.94
612.841	12556.01
613.198	12576.35
613.554	12609.12
613.911	12618.38
614.267	12628.55
614.624	12660.87
614.98	12614.32
615.337	12725.5
615.693	12646.4
616.05	12686.63
616.406	12798.04
616.762	12700.64
617.118	12726.63
617.475	12714.65
617.831	12725.27
618.187	12742
618.543	12789.68
618.899	12837.59
619.255	12762.11
619.611	12800.98
619.967	12816.12
620.323	12865.61
620.678	12856.79
621.034	12820.64
621.39	12738.61
621.746	12718.49
622.101	12904.03
622.457	12790.13
622.812	12869.9
623.168	12855.66
623.523	12829.22
623.879	12858.6
624.234	12822.67
624.589	12786.29
624.945	12815.44
625.3	12893.63
625.655	12918.49
626.01	12922.33
626.365	12936.79
626.72	12900.86
627.075	12885.49
627.43	12827.87
627.785	12828.55
628.14	12890.69
628.495	12953.74
628.85	12820.19
629.205	12780.86
629.559	12881.2
629.914	12851.6
630.269	12749.23
630.623	12810.69
630.978	12756.46
631.332	12886.4
631.687	12789
632.041	12685.95
632.396	12657.48
632.75	12725.95
633.104	12747.87
633.459	12565.05
633.813	12627.42
634.167	12657.7
634.521	12621.32
634.875	12622.45
635.229	12647.08
635.583	12593.75
635.937	12576.8
636.291	12573.64
636.645	12586.29
636.999	12586.97
637.352	12605.28
637.706	12490.93
638.06	12490.25
638.413	12434.21
638.767	12454.77
639.121	12545.16
639.474	12371.38
639.828	12427.43
640.181	12473.3
640.534	12456.13
640.888	12401.21
641.241	12335.9
641.594	12308.56
641.947	12301.56
642.301	12359.41
642.654	12345.17
643.007	12358.05
643.36	12321.67
643.713	12318.96
644.066	12315.11
644.419	12290.71
644.771	12317.37
645.124	12120.99
645.477	12051.39
645.83	11999.42
646.182	12006.87
646.535	11846.65
646.888	11954.9
647.24	11885.07
647.593	11943.15
647.945	11949.7
648.298	11810.72
648.65	11932.07
649.002	11816.82
649.355	11922.81
649.707	11835.13
650.059	11971.39
650.411	12045.52
650.763	12125.51
651.115	12112.63
651.467	12196.02
651.819	12141.79
652.171	12156.02
652.523	12095.91
652.875	12079.19
653.227	12087.32
653.578	12155.57
653.93	12126.19
654.282	12014.33
654.633	11983.37
654.985	12061.56
655.337	12088.68
655.688	12114.44
656.039	12151.95
656.391	12077.83
656.742	12096.14
657.094	12070.37
657.445	12176.36
657.796	12109.7
658.147	12061.56
658.498	12086.87
658.849	12149.24
659.2	12004.84
659.551	12074.89
659.902	12166.19
660.253	12052.52
660.604	12127.55
660.955	12080.32
661.306	12111.96
661.656	12126.42
662.007	12072.86
662.358	12179.75
662.708	12064.5
663.059	12140.66
663.409	11999.87
663.76	12153.08
664.11	12086.65
664.461	12117.61
664.811	12189.02
665.161	12114.22
665.511	12071.73
665.862	12067.44
666.212	12081.22
666.562	12088.68
666.912	12107.66
667.262	12042.58
667.612	12068.79
667.962	12062.01
668.312	12048.91
668.662	12117.83
669.011	12068.79
669.361	12069.24
669.711	12082.8
670.06	12030.15
670.41	12089.81
670.76	12019.3
671.109	12106.53
671.459	12029.25
671.808	12044.84
672.157	12114.44
672.507	11928.23
672.856	11947.44
673.205	11967.55
673.554	12022.01
673.904	12001.68
674.253	11996.93
674.602	12014.78
674.951	11841.45
675.3	11749.93
675.649	11932.53
675.998	11967.33
676.346	11891.17
676.695	12025.63
677.044	11881.91
677.393	11873.54
677.741	11917.84
678.09	11874.45
678.438	11812.53
678.787	11855.24
679.135	11868.35
679.484	11672.87
679.832	11778.18
680.181	11711.29
680.529	11733.43
680.877	11731.4
681.225	11710.38
681.573	11711.06
681.922	11688.01
682.27	11629.71
682.618	11613.66
682.966	11535.93
683.314	11608.47
683.661	11588.81
684.009	11528.69
684.357	11406.44
684.705	11447.11
685.053	11420
685.4	11415.25
685.748	11374.57
686.095	11394.69
686.443	11309.94
686.79	11286.44
687.138	11358.98
687.485	11309.04
687.832	11240.79
688.18	11261.36
688.527	11185.65
688.874	11235.14
689.221	11190.62
689.568	11057.07
689.915	11120.12
690.262	11107.91
690.609	11095.71
690.956	11025.88
691.303	10956.28
691.65	10983.85
691.997	10872.21
692.344	10904.98
692.69	10824.98
693.037	10895.94
693.383	10719.68
693.73	10777.75
694.077	10673.8
694.423	10665.67
694.769	10662.95
695.116	10629.06
695.462	10572.56
695.808	10559
696.155	10591.09
696.501	10457.08
696.847	10443.52
697.193	10412.79
697.539	10396.52
697.885	10352
698.231	10346.8
698.577	10274.49
698.923	10290.76
699.269	10202.18
699.614	10083.99
699.96	10086.92
700.306	10119.01
700.651	10066.59
700.997	9999.02
701.342	10004.67
701.688	9965.35
702.033	9970.77
702.379	9909.53
702.724	9859.36
703.069	9924.44
703.415	9778.01
703.76	9766.71
704.105	9710.44
704.45	9771.9
704.795	9661.17
705.14	9667.73
705.485	9658.46
705.83	9592.7
706.175	9615.3
706.52	9548.18
706.865	9503.66
707.209	9508.41
707.554	9483.78
707.899	9448.97
708.243	9389.09
708.588	9427.05
708.932	9316.1
709.277	9427.28
709.621	9312.26
709.966	9318.58
710.31	9299.15
710.654	9248.08
710.998	9286.27
711.342	9210.79
711.687	9292.37
712.031	9210.56
712.375	9081.75
712.719	9103.45
713.063	9176.44
713.407	9079.49
713.75	9113.16
714.094	9159.26
714.438	9038.14
714.782	9067.29
715.125	8946.16
715.469	9023.68
715.812	9044.01
716.156	8981.87
716.499	9011.47
716.843	9003.11
717.186	8914.3
717.53	8873.85
717.873	8922.66
718.216	8903
718.559	8830.91
718.902	8825.49
719.246	8838.82
719.589	8743.23
719.932	8754.53
720.275	8779.16
720.617	8754.08
720.96	8774.19
721.303	8722.89
721.646	8770.12
721.989	8723.34
722.331	8774.42
722.674	8754.53
723.016	8705.04
723.359	8722.89
723.701	8669.33
724.044	8660.29
724.386	8594.08
724.729	8758.15
725.071	8650.13
725.413	8637.24
725.755	8592.5
726.097	8613.74
726.439	8538.72
726.782	8547.76
727.124	8550.92
727.465	8523.35
727.807	8560.41
728.149	8568.09
728.491	8500.07
728.833	8518.15
729.175	8470.7
729.516	8505.5
729.858	8519.28
730.199	8506.4
730.541	8449
730.882	8453.29
731.224	8457.14
731.565	8469.57
731.906	8445.16
732.248	8520.41
732.589	8480.64
732.93	8519.51
733.271	8384.82
733.612	8373.97
733.953	8448.78
734.294	8483.12
734.635	8342.56
734.976	8425.72
735.317	8371.94
735.658	8498.49
735.999	8366.74
736.339	8387.99
736.68	8486.51
737.021	8427.08
737.361	8407.87
737.702	8464.59
738.042	8414.43
738.383	8437.48
738.723	8493.07
739.063	8434.54
739.404	8483.12
739.744	8449.23
740.084	8444.03
740.424	8499.17
740.764	8460.98
741.104	8560.86
741.444	8529.9
741.784	8445.39
742.124	8504.14
742.464	8472.28
742.804	8493.07
743.143	8536.91
743.483	8596.79
743.823	8514.54
744.162	8584.59
744.502	8512.28
744.841	8583.01
745.181	8665.49
745.52	8624.59
745.86	8676.34
746.199	8711.82
746.538	8682.67
746.877	8792.72
747.216	8859.16
747.556	8802.66
747.895	8872.04
748.234	8842.44
748.573	8947.97
748.911	8972.6
749.25	9010.34
749.589	9040.17
749.928	9106.16
750.267	9201.07
750.605	9200.17
750.944	9333.05
751.283	9328.98
751.621	9436.55
751.96	9520.84
752.298	9488.07
752.636	9660.95
752.975	9667.95
753.313	9746.14
753.651	9896.65
753.989	9935.06
754.327	10061.61
754.666	10121.95
755.004	10212.57
755.342	10326.92
755.679	10506.57
756.017	10495.95
756.355	10658.21
756.693	10715.16
757.031	10936.85
757.368	10938.88
757.706	11136.16
758.044	11288.93
758.381	11423.61
758.719	11479.2
759.056	11704.28
759.394	11824.73
759.731	11956.93
760.068	12133.42
760.405	12161.45
760.743	12291.84
761.08	12512.17
761.417	12613.19
761.754	12723.01
762.091	12952.39
762.428	13010.01
762.765	13139.73
763.102	13376.1
763.438	13415.88
763.775	13585.82
764.112	13706.26
764.449	13899.25
764.785	14051.79
765.122	14174.05
765.458	14317.1
765.795	14488.16
766.131	14691.32
766.467	14763.64
766.804	14925.67
767.14	14943.97
767.476	15122.72
767.812	15188.94
768.148	15369.72
768.485	15465.99
768.821	15538.53
769.157	15677.96
769.492	15950.95
769.828	15994.34
770.164	15972.19
770.5	16126.99
770.836	16289.47
771.171	16339.64
771.507	16442.92
771.842	16385.97
772.178	16548.9
772.513	16717.03
772.849	16757.48
773.184	16780.99
773.519	16915.22
773.855	17002.22
774.19	17041.09
774.525	17057.81
774.86	17209.9
775.195	17223.46
775.53	17335.32
775.865	17270.46
776.2	17387.52
776.535	17353.85
776.87	17429.33
777.205	17459.84
777.539	17415.77
777.874	17603.11
778.209	17521.53
778.543	17559.5
778.878	17549.55
779.212	17667.29
779.547	17672.49
779.881	17691.7
780.215	17758.81
780.55	17801.98
780.884	17830
781.218	17710.23
781.552	17915.87
781.886	17813.73
782.22	17791.58
782.554	17665.48
782.888	17710
783.222	17756.55
783.556	17751.58
783.889	17737.12
784.223	17594.98
784.557	17674.3
784.89	17782.31
785.224	17610.79
785.557	17664.13
785.891	17691.92
786.224	17701.19
786.558	17771.69
786.891	17628.19
787.224	17512.72
787.557	17588.65
787.891	17616.22
788.224	17575.77
788.557	17563.79
788.89	17534.19
789.223	17614.18
789.556	17511.59
789.888	17512.04
790.221	17427.75
790.554	17305.72
790.887	17397.47
791.219	17359.73
791.552	17380.29
791.884	17291.03
792.217	17292.38
792.549	17246.28
792.882	17165.16
793.214	17091.71
793.546	17141.43
793.879	17026.63
794.211	16964.71
794.543	17056.01
794.875	16966.07
795.207	17147.98
795.539	16930.13
795.871	16991.83
796.203	16852.85
796.535	16804.26
796.867	16790.93
797.198	16784.38
797.53	16757.94
797.862	16691.95
798.193	16743.02
798.525	16545.06
798.856	16566.53
799.188	16398.17
799.519	16487.43
799.85	16410.37
800.182	16450.15
800.513	16412.41
800.844	16298.96
801.175	16320.88
801.506	16369.47
801.837	16283.15
802.168	16242.47
802.499	16170.83
802.83	16100.78
803.161	16148.46
803.491	16182.36
803.822	16180.78
804.153	15999.99
804.483	15924.51
804.814	15891.97
805.145	15898.97
805.475	15828.69
805.805	15840.22
806.136	15825.08
806.466	15772.42
806.796	15907.79
807.126	15587.8
807.457	15627.34
807.787	15645.42
808.117	15581.02
808.447	15507.12
808.777	15569.94
809.107	15469.61
809.436	15445.43
809.766	15475.71
810.096	15403.39
810.426	15386.45
810.755	15447.69
811.085	15412.21
811.414	15312.55
811.744	15168.37
812.073	15108.49
812.403	15116.4
812.732	15150.52
813.061	15136.73
813.39	15061.26
813.719	15067.58
814.049	15185.55
814.378	15114.81
814.707	14953.46
815.036	14976.74
815.365	14942.16
815.693	14813.81
816.022	14871.21
816.351	14797.31
816.68	14714.15
817.008	14810.87
817.337	14632.34
817.665	14635.51
817.994	14605.9
818.322	14626.92
818.651	14574.04
818.979	14540.37
819.307	14618.56
819.636	14525.45
819.964	14431.67
820.292	14595.73
820.62	14553.93
820.948	14483.64
821.276	14509.63
821.604	14442.97
821.932	14530.65
822.259	14484.77
822.587	14456.3
822.915	14420.14
823.243	14446.13
823.57	14444.78
823.898	14473.25
824.225	14329.52
824.553	14396.19
824.88	14454.94
825.207	14529.75
825.535	14575.62
825.862	14489.29
826.189	14407.04
826.516	14529.75
826.843	14517.99
827.17	14541.5
827.497	14535.62
827.824	14516.41
828.151	14552.12
828.478	14466.92
828.805	14509.41
829.131	14471.67
829.458	14473.48
829.785	14444.32
830.111	14436.64
830.438	14580.37
830.764	14479.58
831.09	14494.49
831.417	14459.92
831.743	14508.95
832.069	14510.76
832.395	14389.86
832.722	14520.48
833.048	14430.54
833.374	14440.71
833.7	14333.14
834.026	14466.92
834.351	14402.29
834.677	14426.02
835.003	14425.79
835.329	14350.77
835.654	14263.31
835.98	14299.69
836.306	14275.51
836.631	14231.9
836.956	14239.81
837.282	14278
837.607	14278
837.932	14189.64
838.258	14214.05
838.583	14145.57
838.908	14063.09
839.233	14119.13
839.558	14145.8
839.883	14035.75
840.208	13965.24
840.533	13934.51
840.858	13977.44
841.182	14054.28
841.507	13915.3
841.832	13861.74
842.156	13888.63
842.481	13915.3
842.805	13880.5
843.13	13804.11
843.454	13739.71
843.778	13777.22
844.103	13703.55
844.427	13715.3
844.751	13676.66
845.075	13683.44
845.399	13586.04
845.723	13453.84
846.047	13544.23
846.371	13321.42
846.695	13338.36
847.019	13333.39
847.343	13271.93
847.666	13212.72
847.99	13189.44
848.313	13155.09
848.637	13041.42
848.96	13046.17
849.284	12960.97
849.607	12868.09
849.931	12924.36
850.254	12737.93
850.577	12695.67
850.9	12650.02
851.223	12675.33
851.546	12585.16
851.869	12532.06
852.192	12567.76
852.515	12508.33
852.838	12393.53
853.161	12373.64
853.483	12281.67
853.806	12296.58
854.129	12223.82
854.451	12208.9
854.774	12090.71
855.096	12187.21
855.419	12145.63
855.741	12057.72
856.063	11981.34
856.385	11971.17
856.708	11924.16
857.03	11899.31
857.352	11892.07
857.674	11825.64
857.996	11788.8
858.318	11764.62
858.64	11752.87
858.961	11803.72
859.283	11661.8
859.605	11588.13
859.926	11650.72
860.248	11599.2
860.57	11546.77
860.891	11563.04
861.212	11492.99
861.534	11496.38
861.855	11413.89
862.176	11486.89
862.498	11381.58
862.819	11444.85
863.14	11298.64
863.461	11377.96
863.782	11306.78
864.103	11346.1
864.424	11277.63
864.745	11230.17
865.065	11236.72
865.386	11173.22
865.707	11160.12
866.027	11222.49
866.348	11112.43
866.668	11140
866.989	11163.05
867.309	11017.97
867.63	11121.02
867.95	11095.03
868.27	10925.55
868.59	11010.74
868.91	11008.71
869.23	11037.41
869.55	10944.98
869.87	10965.55
870.19	10981.36
870.51	10936.39
870.83	10979.56
871.15	10821.14
871.469	10845.55
871.789	10859.79
872.109	10778.21
872.428	10798.09
872.748	10816.62
873.067	10768.04
873.386	10735.04
873.706	10779.79
874.025	10728.72
874.344	10619.11
874.663	10714.93
874.982	10649.17
875.301	10664.08
875.62	10592
875.939	10676.06
876.258	10619.34
876.577	10601.71
876.896	10580.47
877.214	10542.73
877.533	10546.35
877.852	10573.01
878.17	10564.2
878.489	10525.56
878.807	10496.63
879.125	10373.7
879.444	10407.59
879.762	10357.65
880.08	10425.45
880.398	10308.84
880.716	10357.2
881.034	10362.85
881.352	10332.79
881.67	10368.95
881.988	10297.31
882.306	10294.83
882.624	10243.53
882.941	10161.5
883.259	10173.48
883.577	10113.59
883.894	10122.18
884.212	10071.11
884.529	10130.76
884.846	10065.68
885.164	10068.39
885.481	9971.45
885.798	9991.79
886.115	9948.17
886.432	9949.3
886.75	9872.24
887.067	9942.3
887.383	9883.99
887.7	9895.97
888.017	9736.2
888.334	9848.51
888.651	9733.71
888.967	9714.28
889.284	9724.67
889.6	9703.21
889.917	9587.95
890.233	9691
890.55	9653.49
890.866	9596.32
891.182	9610.55
891.498	9505.92
891.815	9443.1
892.131	9465.7
892.447	9388.19
892.763	9422.08
893.079	9408.75
893.395	9370.78
893.71	9298.24
894.026	9340.5
894.342	9330.33
894.657	9243.56
894.973	9158.36
895.289	9199.26
895.604	9164.24
895.92	9026.61
896.235	9019.61
896.55	9093.05
896.865	9030.68
897.181	8966.5
897.496	8982.55
897.811	8994.98
898.126	8872.72
898.441	8832.72
898.756	8818.48
899.071	8751.82
899.386	8781.65
899.7	8759.5
900.015	8697.81
900.33	8618.04
900.644	8603.8
900.959	8624.14
901.273	8532.16
901.588	8594.76
901.902	8522.9
902.216	8444.26
902.531	8417.36
902.845	8468.89
903.159	8370.81
903.473	8332.85
903.787	8295.56
904.101	8197.71
904.415	8227.09
904.729	8210.59
905.042	8106.86
905.356	8202.23
905.67	8119.52
905.984	8127.65
906.297	8102.12
906.611	8079.75
906.924	8026.87
907.237	7974.21
907.551	7955
907.864	7972.4
908.177	7904.61
908.491	7910.03
908.804	7831.39
909.117	7797.27
909.43	7772.86
909.743	7728.12
910.056	7693.31
910.368	7679.53
910.681	7658.97
910.994	7622.13
911.307	7588.68
911.619	7529.03
911.932	7505.97
912.244	7486.09
912.557	7414.45
912.869	7408.35
913.181	7342.14
913.494	7307.11
913.806	7265.08
914.118	7299.43
914.43	7193.67
914.742	7253.1
915.054	7179.2
915.366	7160
915.678	7148.47
915.99	7123.84
916.302	7042.48
916.613	7064.63
916.925	7011.07
917.236	6963.84
917.548	6971.75
917.859	6903.73
918.171	6847.01
918.482	6832.77
918.794	6822.6
919.105	6842.04
919.416	6788.03
919.727	6753
920.038	6719.78
920.349	6691.76
920.66	6720.91
920.971	6646.11
921.282	6650.4
921.593	6600.01
921.903	6566.79
922.214	6518.66
922.525	6564.3
922.835	6504.65
923.146	6419.9
923.456	6426.91
923.767	6391.65
924.077	6409.51
924.387	6331.99
924.697	6329.73
925.008	6346.91
925.318	6322.96
925.628	6249.28
925.938	6210.19
926.248	6168.61
926.558	6195.73
926.867	6127.25
927.177	6154.15
927.487	6131.1
927.796	6100.81
928.106	6039.12
928.416	6022.4
928.725	5980.37
929.034	5999.8
929.344	6010.42
929.653	6033.7
929.962	5867.83
930.271	5880.25
930.581	5860.82
930.89	5876.64
931.199	5779.92
931.508	5786.7
931.817	5773.37
932.125	5708.96
932.434	5709.86
932.743	5649.98
933.051	5652.24
933.36	5669.87
933.669	5632.8
933.977	5548.96
934.286	5595.52
934.594	5540.15
934.902	5509.87
935.21	5559.59
935.519	5483.2
935.827	5458.12
936.135	5462.86
936.443	5387.16
936.751	5392.58
937.059	5354.17
937.367	5366.6
937.674	5356.2
937.982	5343.32
938.29	5301.29
938.597	5297.9
938.905	5207.28
939.213	5198.24
939.52	5215.87
939.827	5200.72
940.135	5183.55
940.442	5141.74
940.749	5148.3
941.056	5122.99
941.363	5032.37
941.67	5034.4
941.977	5008.19
942.284	5035.98
942.591	5039.37
942.898	4960.05
943.205	4902.43
943.511	4920.28
943.818	4921.86
944.125	4857.23
944.431	4854.07
944.738	4862.43
945.044	4855.88
945.35	4808.64
945.657	4783.79
945.963	4734.07
946.269	4741.08
946.575	4727.52
946.881	4717.12
947.187	4675.77
947.493	4645.94
947.799	4640.51
948.105	4597.58
948.41	4562.32
948.716	4558.26
949.022	4580.4
949.327	4551.48
949.633	4485.72
949.938	4492.95
950.244	4496.56
950.549	4404.36
950.854	4454.76
951.16	4509.67
951.465	4388.09
951.77	4398.71
952.075	4364.59
952.38	4343.57
952.685	4377.24
952.99	4276.46
953.294	4298.15
953.599	4271.48
953.904	4250.69
954.209	4213.18
954.513	4229.45
954.818	4198.94
955.122	4175.44
955.426	4166.85
955.731	4132.96
956.035	4159.62
956.339	4090.7
956.643	4082.56
956.948	4051.83
957.252	4052.96
957.556	4020.64
957.86	4011.38
958.163	4038.04
958.467	3988.33
958.771	3988.78
959.075	3958.72
959.378	3918.95
959.682	3941.77
959.985	3893.64
960.289	3902.91
960.592	3878.95
960.896	3870.36
961.199	3832.4
961.502	3856.58
961.805	3809.57
962.108	3764.38
962.411	3750.14
962.714	3809.35
963.017	3752.63
963.32	3714.21
963.623	3718.28
963.926	3706.07
964.228	3633.99
964.531	3653.19
964.833	3654.32
965.136	3576.81
965.438	3604.61
965.741	3614.33
966.043	3560.99
966.345	3581.11
966.648	3535.01
966.95	3571.84
967.252	3532.75
967.554	3501.33
967.856	3502.92
968.158	3439.42
968.46	3482.8
968.761	3444.39
969.063	3415.46
969.365	3409.59
969.666	3395.8
969.968	3383.37
970.269	3368.91
970.571	3342.47
970.872	3326.88
971.174	3324.84
971.475	3336.37
971.776	3303.37
972.077	3266.76
972.378	3255.92
972.679	3273.77
972.98	3215.01
973.281	3206.65
973.582	3264.73
973.883	3199.2
974.183	3179.08
974.484	3203.49
974.785	3202.59
975.085	3168.01
975.386	3147.9
975.686	3100.67
975.986	3129.59
976.287	3094.57
976.587	3060.44
976.887	3056.83
977.187	3062.7
977.487	3021.57
977.787	3010.05
978.087	3042.59
978.387	3007.56
978.687	2982.03
978.987	2964.17
979.286	2941.35
979.586	2937.28
979.885	2942.03
980.185	2899.09
980.484	2901.35
980.784	2882.82
981.083	2865.42
981.382	2879.43
981.682	2877.62
981.981	2835.36
982.28	2791.75
982.579	2782.48
982.878	2815.93
983.177	2763.05
983.475	2761.69
983.774	2735.25
984.073	2755.82
984.372	2733.9
984.67	2727.12
984.969	2713.78
985.267	2670.4
985.566	2694.12
985.864	2640.34
986.162	2672.2
986.461	2636.95
986.759	2647.12
987.057	2606.89
987.355	2589.04
987.653	2602.83
987.951	2597.86
988.249	2570.29
988.547	2576.61
988.844	2556.05
989.142	2531.87
989.44	2498.2
989.737	2507.01
990.035	2506.33
990.332	2514.69
990.63	2476.05
990.927	2488.03
991.224	2476.05
991.521	2438.99
991.819	2431.98
992.116	2429.95
992.413	2423.4
992.71	2409.16
993.006	2392.21
993.303	2383.4
993.6	2407.58
993.897	2382.49
994.193	2339.56
994.49	2326
994.787	2297.75
995.083	2302.04
995.379	2275.15
995.676	2258.66
995.972	2289.61
996.268	2254.81
996.565	2263.4
996.861	2235.38
997.157	2250.75
997.453	2228.15
997.749	2210.52
998.044	2165.55
998.34	2182.73
998.636	2179.11
998.932	2163.06
999.227	2143.18
999.523	2108.38
999.818	2177.53
1000.114	2117.87
1000.409	2144.53
1000.704	2092.78
1001	2090.3
1001.295	2088.94
1001.59	2083.29
1001.885	2037.87
1002.18	2060.02
1002.475	2013.92
1002.77	2039.45
1003.065	2006.68
1003.359	1982.05
1003.654	1982.5
1003.949	1959.91
1004.243	1979.79
1004.538	1928.04
1004.832	1948.83
1005.127	1941.6
1005.421	1931.21
1005.715	1914.48
1006.009	1886.91
1006.304	1900.7
1006.598	1870.87
1006.892	1882.62
1007.186	1839.91
1007.48	1849.17
1007.773	1835.62
1008.067	1827.03
1008.361	1788.16
1008.655	1795.84
1008.948	1798.78
1009.242	1774.37
1009.535	1797.2
1009.829	1773.02
1010.122	1757.88
1010.415	1724.66
1010.708	1758.78
1011.001	1742.74
1011.295	1684.43
1011.588	1684.89
1011.881	1705.45
1012.173	1686.01
1012.466	1684.21
1012.759	1642.4
1013.052	1648.73
1013.344	1630.2
1013.637	1640.14
1013.93	1627.26
1014.222	1637.65
1014.514	1636.07
1014.807	1587.49
1015.099	1587.49
1015.391	1565.11
1015.683	1533.93
1015.976	1584.77
1016.268	1558.11
1016.56	1540.71
1016.851	1546.13
1017.143	1526.7
1017.435	1533.93
1017.727	1512.91
1018.018	1489.64
1018.31	1490.09
1018.602	1448.96
1018.893	1466.59
1019.185	1475.17
1019.476	1455.74
1019.767	1431.78
1020.058	1431.11
1020.35	1431.78
1020.641	1392.92
1020.932	1374.16
1021.223	1420.71
1021.514	1375.97
1021.804	1350.66
1022.095	1362.63
1022.386	1371.9
1022.677	1345.46
1022.967	1342.52
1023.258	1341.39
1023.548	1318.34
1023.839	1315.4
1024.129	1303.88
1024.419	1290.09
1024.709	1290.55
1025	1280.83
1025.29	1263.88
1025.58	1262.52
1025.87	1228.63
1026.16	1261.62
1026.449	1247.38
1026.739	1223.65
1027.029	1240.38
1027.319	1233.6
1027.608	1219.36
1027.898	1232.47
1028.187	1200.15
1028.477	1164.22
1028.766	1184.79
1029.055	1180.49
1029.344	1161.51
1029.634	1152.02
1029.923	1137.33
1030.212	1145.92
1030.501	1141.85
1030.79	1120.38
1031.078	1107.05
1031.367	1114.28
1031.656	1098.46
1031.945	1088.06
1032.233	1078.35
1032.522	1084.9
1032.81	1063.43
1033.099	1062.75
1033.387	1058.69
1033.675	1044.9
1033.963	1025.92
1034.251	1048.52
1034.54	1026.15
1034.828	1018.01
1035.116	993.83
1035.403	999.71
1035.691	1022.08
1035.979	998.35
1036.267	990.21
1036.554	954.96
1036.842	1008.74
1037.129	986.6
1037.417	989.54
1037.704	981.4
1037.992	961.74
1038.279	955.64
1038.566	928.75
1038.853	928.75
1039.14	928.75
