Data from hue_100_FLMS001491_00062.txt Node
Date: Tue Feb 07 17:03:29 GMT 2017
User: dcchb
Spectrometer: FLMS00149
Trigger mode: 0
Integration Time (sec): 2.000000E-2
Scans to average: 10
Electric dark correction enabled: true
Nonlinearity correction enabled: false
Boxcar width: 0
XAxis mode: Wavelengths
Number of Pixels in Spectrum: 2048
>>>>>Begin Spectral Data<<<<<
341.393	-8.69
341.776	-8.69
342.16	-8.69
342.543	-68.8
342.927	-69.02
343.31	-63.6
343.693	-73.09
344.077	-70.83
344.46	-81
344.843	-49.36
345.226	-41.91
345.61	-36.03
345.993	-4.17
346.376	-10.27
346.759	-5.07
347.142	31.99
347.525	39.67
347.908	76.96
348.291	68.15
348.674	104.08
349.057	114.47
349.44	126
349.823	151.99
350.206	177.98
350.588	201.48
350.971	210.52
351.354	228.6
351.737	229.5
352.119	264.98
352.502	279.67
352.884	252.78
353.267	284.87
353.65	294.13
354.032	284.87
354.414	316.73
354.797	338.88
355.179	303.85
355.562	341.14
355.944	339.55
356.326	334.13
356.709	337.07
357.091	333.68
357.473	345.65
357.855	337.07
358.238	359.21
358.62	351.76
359.002	343.85
359.384	361.7
359.766	336.62
360.148	350.17
360.53	340.01
360.912	344.75
361.294	334.58
361.676	332.55
362.057	319.44
362.439	335.26
362.821	320.57
363.203	319.89
363.584	314.92
363.966	328.93
364.348	336.39
364.729	327.58
365.111	321.25
365.493	324.41
365.874	332.32
366.256	325.77
366.637	330.06
367.019	307.01
367.4	329.84
367.781	327.35
368.163	327.35
368.544	313.57
368.925	331.19
369.306	309.05
369.688	319.21
370.069	305.2
370.45	320.34
370.831	322.38
371.212	307.01
371.593	323.06
371.974	309.05
372.355	321.02
372.736	308.37
373.117	329.84
373.498	323.06
373.879	303.85
374.26	314.24
374.641	335.71
375.021	317.41
375.402	334.81
375.783	323.96
376.163	333
376.544	317.18
376.925	361.02
377.305	336.84
377.686	328.25
378.066	331.87
378.447	342.72
378.827	347.46
379.208	328.03
379.588	339.33
379.968	326.22
380.349	345.88
380.729	325.77
381.109	338.65
381.489	338.88
381.87	351.3
382.25	349.27
382.63	358.08
383.01	323.51
383.39	352.43
383.77	343.62
384.15	355.6
384.53	344.98
384.91	380.46
385.29	352.89
385.67	354.47
386.049	358.08
386.429	379.78
386.809	348.82
387.189	360.8
387.568	370.29
387.948	375.71
388.328	351.08
388.707	389.27
389.087	378.65
389.466	363.06
389.846	367.12
390.225	387.46
390.605	391.08
390.984	359.89
391.363	382.49
391.743	363.28
392.122	391.3
392.501	387.69
392.881	370.74
393.26	398.31
393.639	398.99
394.018	402.15
394.397	389.27
394.776	405.09
395.155	386.11
395.534	420.68
395.913	390.4
396.292	398.31
396.671	417.74
397.05	399.89
397.429	420.46
397.808	411.42
398.186	400.79
398.565	407.35
398.944	432.88
399.323	393.56
399.701	399.89
400.08	409.16
400.458	432.66
400.837	416.84
401.215	411.87
401.594	433.11
401.972	420.68
402.351	414.13
402.729	435.14
403.107	443.05
403.486	459.78
403.864	438.53
404.242	436.73
404.62	426.1
404.999	456.61
405.377	446.44
405.755	451.41
406.133	463.17
406.511	436.05
406.889	453.22
407.267	474.69
407.645	448.25
408.023	461.58
408.401	446.22
408.779	465.2
409.156	466.1
409.534	470.4
409.912	486.22
410.29	486.89
410.667	498.42
411.045	483.73
411.422	487.8
411.8	515.59
412.178	526.21
412.555	540.45
412.933	539.32
413.31	499.32
413.687	509.04
414.065	535.03
414.442	537.06
414.819	558.98
415.197	537.29
415.574	548.36
415.951	535.93
416.328	547.46
416.705	553.56
417.082	555.59
417.46	549.49
417.837	546.1
418.214	558.76
418.591	556.72
418.967	549.94
419.344	560.56
419.721	559.43
420.098	545.42
420.475	568.47
420.852	582.26
421.228	608.47
421.605	581.35
421.982	594.91
422.358	596.27
422.735	594.01
423.111	606.21
423.488	583.39
423.864	610.51
424.241	624.52
424.617	621.58
424.994	622.03
425.37	627
425.746	650.96
426.123	609.38
426.499	638.98
426.875	643.05
427.251	635.14
427.627	662.93
428.003	670.17
428.379	692.76
428.756	681.69
429.132	669.94
429.507	666.78
429.883	675.82
430.259	684.18
430.635	718.07
431.011	681.47
431.387	691.41
431.763	738.64
432.138	721.92
432.514	711.97
432.89	716.49
433.265	711.97
433.641	763.95
434.016	749.26
434.392	777.28
434.767	775.25
435.143	767.11
435.518	790.84
435.894	789.48
436.269	778.19
436.644	792.42
437.02	792.87
437.395	809.6
437.77	832.65
438.145	850.05
438.52	833.55
438.895	837.62
439.271	837.17
439.646	843.72
440.021	870.61
440.395	874.68
440.77	849.37
441.145	875.81
441.52	871.74
441.895	877.17
442.27	890.95
442.645	908.58
443.019	923.27
443.394	905.41
443.769	925.07
444.143	923.49
444.518	947.45
444.892	929.37
445.267	938.86
445.641	939.31
446.016	947.22
446.39	961.01
446.764	953.1
447.139	954.45
447.513	961.46
447.887	985.86
448.262	962.59
448.636	994.23
449.01	980.89
449.384	1010.72
449.758	1027.44
450.132	1007.11
450.506	1045.52
450.88	1019.76
451.254	1019.54
451.628	1049.82
452.002	1054.11
452.376	1069.93
452.75	1081.91
453.123	1103.83
453.497	1096.37
453.871	1113.54
454.244	1151.28
454.618	1136.59
454.992	1162.13
455.365	1123.49
455.739	1175.01
456.112	1203.71
456.486	1192.19
456.859	1201.9
457.232	1226.99
457.606	1243.03
457.979	1246.2
458.352	1262.24
458.725	1283.48
459.099	1299.3
459.472	1336.59
459.845	1353.31
460.218	1359.41
460.591	1379.07
460.964	1376.59
461.337	1384.72
461.71	1398.51
462.083	1433.99
462.456	1438.51
462.829	1453.87
463.201	1473.53
463.574	1466.76
463.947	1545.17
464.32	1544.72
464.692	1563.7
465.065	1591.5
465.438	1599.63
465.81	1619.07
466.183	1658.61
466.555	1689.8
466.928	1705.39
467.3	1695.45
467.672	1729.8
468.045	1777.71
468.417	1827.65
468.789	1817.71
469.161	1847.76
469.534	1899.96
469.906	1928.89
470.278	1933.41
470.65	2000.75
471.022	2032.62
471.394	2091.37
471.766	2092.73
472.138	2121.43
472.51	2165.04
472.882	2249.11
473.253	2297.47
473.625	2305.6
473.997	2411.36
474.369	2452.49
474.74	2479.16
475.112	2525.03
475.484	2612.49
475.855	2632.37
476.227	2681.86
476.598	2782.88
476.97	2853.84
477.341	2963.89
477.713	2993.72
478.084	3060.16
478.455	3160.27
478.827	3199.37
479.198	3320.27
479.569	3410.66
479.94	3521.39
480.311	3573.82
480.682	3706.02
481.053	3807.26
481.424	3943.53
481.795	4008.38
482.166	4126.8
482.537	4225.78
482.908	4400.69
483.279	4488.6
483.65	4638.88
484.021	4785.76
484.391	4844.52
484.762	4964.74
485.133	5108.92
485.503	5252.19
485.874	5334.22
486.244	5520.43
486.615	5655.57
486.985	5761.11
487.356	5958.39
487.726	6069.35
488.097	6270.7
488.467	6375.33
488.837	6603.8
489.207	6762.89
489.578	6938.02
489.948	7085.82
490.318	7207.85
490.688	7350.44
491.058	7504.34
491.428	7704.33
491.798	7881.73
492.168	8107.71
492.538	8254.37
492.908	8423.18
493.278	8631.09
493.648	8698.43
494.017	8847.35
494.387	9034.47
494.757	9190.39
495.126	9391.07
495.496	9431.07
495.866	9611.17
496.235	9763.94
496.605	9959.64
496.974	10045.96
497.344	10251.38
497.713	10299.29
498.082	10489.34
498.452	10729.34
498.821	10790.35
499.19	10872.84
499.559	11019.05
499.928	11162.32
500.298	11305.82
500.667	11407.51
501.036	11577.45
501.405	11726.15
501.774	11689.76
502.143	11903.09
502.512	11984.44
502.88	12145.8
503.249	12244.55
503.618	12390.31
503.987	12476.86
504.356	12517.09
504.724	12705.33
505.093	12772.9
505.462	12812.9
505.83	12919.56
506.199	13142.15
506.567	13243.17
506.936	13288.82
507.304	13427.12
507.672	13483.39
508.041	13613.1
508.409	13714.79
508.777	13750.27
509.145	13888.12
509.514	13939.87
509.882	14022.81
510.25	14016.48
510.618	14157.95
510.986	14206.53
511.354	14313.88
511.722	14433.87
512.09	14500.08
512.458	14488.56
512.826	14634.54
513.193	14745.28
513.561	14733.75
513.929	14837.03
514.297	14954.54
514.664	15024.14
515.032	15049
515.4	15212.83
515.767	15199.28
516.135	15216.45
516.502	15139.16
516.869	15358.82
517.237	15390.91
517.604	15434.07
517.972	15564.24
518.339	15484.24
518.706	15526.95
519.073	15602.88
519.44	15654.18
519.808	15735.31
520.175	15611.92
520.542	15874.51
520.909	15895.98
521.276	15903.89
521.643	16039.03
522.009	16052.36
522.376	16112.02
522.743	16222.98
523.11	16241.73
523.477	16327.83
523.843	16337.32
524.21	16487.38
524.577	16595.62
524.943	16494.38
525.31	16592.01
525.676	16643.31
526.043	16575.96
526.409	16641.95
526.776	16781.15
527.142	16757.2
527.508	16877.2
527.874	16908.38
528.241	16882.62
528.607	16860.7
528.973	16999.45
529.339	16901.15
529.705	17060.7
530.071	17059.79
530.437	17127.81
530.803	17077.42
531.169	17132.11
531.535	17107.47
531.901	17083.75
532.267	17013.01
532.632	17003.52
532.998	17064.54
533.364	17079
533.73	17113.8
534.095	17052.79
534.461	17039.23
534.826	17100.02
535.192	17014.14
535.557	17160.35
535.923	17039.23
536.288	17094.37
536.653	17074.03
537.019	16963.3
537.384	16877.2
537.749	17029.28
538.114	16876.52
538.479	16805.56
538.845	16881.27
539.21	16814.37
539.575	16838.33
539.94	16746.13
540.305	16817.31
540.67	16691.89
541.034	16606.24
541.399	16691.44
541.764	16731.66
542.129	16601.05
542.494	16532.35
542.858	16623.87
543.223	16506.81
543.587	16519.24
543.952	16483.31
544.316	16378.91
544.681	16355.18
545.045	16339.36
545.41	16495.06
545.774	16377.32
546.138	16280.15
546.503	16286.25
546.867	16191.79
547.231	16198.57
547.595	16290.32
547.959	16107.95
548.324	16121.74
548.688	15983.21
549.052	16074.73
549.416	16055.75
549.779	15966.94
550.143	15891.69
550.507	15984.57
550.871	16022.3
551.235	15851.91
551.599	15905.47
551.962	15839.94
552.326	15774.4
552.689	15880.61
553.053	15663.9
553.417	15610.79
553.78	15822.76
554.143	15660.51
554.507	15735.98
554.87	15746.61
555.234	15669.32
555.597	15640.17
555.96	15587.97
556.323	15651.02
556.686	15573.95
557.05	15516.56
557.413	15618.93
557.776	15645.59
558.139	15583.67
558.502	15595.2
558.865	15549.55
559.228	15520.85
559.59	15666.83
559.953	15510.68
560.316	15633.61
560.679	15554.75
561.041	15723.56
561.404	15665.48
561.767	15622.09
562.129	15597.46
562.492	15707.06
562.854	15566.27
563.217	15628.64
563.579	15650.11
563.941	15696.66
564.304	15693.73
564.666	15707.28
565.028	15698.92
565.39	15635.65
565.753	15666.16
566.115	15772.37
566.477	15838.35
566.839	15780.05
567.201	15923.55
567.563	15848.75
567.925	15866.15
568.287	15849.65
568.648	15886.49
569.01	15900.95
569.372	15952.7
569.734	15970.1
570.095	16018.91
570.457	16041.97
570.819	15937.34
571.18	15980.5
571.542	16005.36
571.903	16082.42
572.265	16018.01
572.626	16039.48
572.987	16005.81
573.349	16097.78
573.71	16125.58
574.071	16152.92
574.432	16133.04
574.794	16215.52
575.155	16142.98
575.516	16074.05
575.877	16109.08
576.238	16227.95
576.599	16183.66
576.96	16188.85
577.32	16194.28
577.681	16149.98
578.042	16187.05
578.403	16203.54
578.763	16241.06
579.124	16225.01
579.485	16246.25
579.845	16270.21
580.206	16170.32
580.566	16184.11
580.927	16274.05
581.287	16259.59
581.648	16101.4
582.008	16262.3
582.368	16173.04
582.728	16217.33
583.089	16207.38
583.449	16189.08
583.809	16199.02
584.169	16148.18
584.529	16133.04
584.889	16232.92
585.249	16096.88
585.609	16033.6
585.969	16076.31
586.329	16047.61
586.688	16109.99
587.048	16112.47
587.408	16036.32
587.768	16048.07
588.127	16034.28
588.487	15961.29
588.846	16119.48
589.206	15956.77
589.565	15987.73
589.925	15995.41
590.284	15992.02
590.643	16101.4
591.003	16036.77
591.362	16109.53
591.721	16018.24
592.08	16004.9
592.44	15968.75
592.799	15932.59
593.158	15982.98
593.517	15935.75
593.876	15957.22
594.235	15893.72
594.593	15907.73
594.952	16032.47
595.311	15778.02
595.67	15776.66
596.029	15982.31
596.387	15933.95
596.746	15983.21
597.104	15814.85
597.463	15886.72
597.822	15884
598.18	15812.37
598.538	15834.29
598.897	15944.57
599.255	15789.32
599.613	15937.11
599.972	15817.56
600.33	15814.85
600.688	15708.19
601.046	15835.64
601.404	16011.23
601.762	15884.91
602.12	15964.91
602.478	15946.15
602.836	15968.07
603.194	15829.09
603.552	15815.53
603.91	15775.76
604.268	15846.72
604.625	15848.52
604.983	15845.13
605.341	15813.04
605.698	15862.31
606.056	15851.01
606.413	15811.91
606.771	15919.48
607.128	15869.77
607.485	15860.5
607.843	15889.2
608.2	15921.97
608.557	15927.39
608.914	15920.39
609.272	16057.11
609.629	16033.38
609.986	16067.28
610.343	15989.99
610.7	16146.37
611.057	16045.35
611.414	15984.57
611.771	16035.41
612.127	16136.88
612.484	16084.45
612.841	16140.72
613.198	16083.32
613.554	16038.12
613.911	16112.47
614.267	16076.09
614.624	16086.03
614.98	16099.59
615.337	16235.18
615.693	16203.32
616.05	16145.24
616.406	16207.84
616.762	16180.72
617.118	16197.44
617.475	16165.13
617.831	16241.28
618.187	16140.72
618.543	16205.12
618.899	16424.1
619.255	16306.82
619.611	16270.43
619.967	16326.93
620.323	16345.23
620.678	16336.19
621.034	16345.91
621.39	16229.76
621.746	16260.49
622.101	16489.86
622.457	16276.54
622.812	16293.03
623.168	16435.63
623.523	16320.6
623.879	16361.05
624.234	16363.54
624.589	16363.76
624.945	16390.2
625.3	16373.48
625.655	16229.08
626.01	16362.18
626.365	16410.09
626.72	16358.12
627.075	16311.11
627.43	16267.27
627.785	16269.76
628.14	16304.56
628.495	16317.89
628.85	16322.64
629.205	16262.75
629.559	16359.02
629.914	16227.05
630.269	16232.47
630.623	16225.92
630.978	16184.79
631.332	16273.6
631.687	16215.29
632.041	16170.1
632.396	16180.04
632.75	16203.99
633.104	16216.42
633.459	16126.03
633.813	16136.43
634.167	15997.22
634.521	16139.82
634.875	16050.1
635.229	16015.75
635.583	16025.92
635.937	16004.23
636.291	15942.08
636.645	15930.78
636.999	15865.92
637.352	16000.84
637.706	15887.17
638.06	15923.55
638.413	15886.26
638.767	15880.84
639.121	15885.13
639.474	15712.71
639.828	15768.3
640.181	15755.42
640.534	15801.52
640.888	15737.11
641.241	15717.68
641.594	15711.8
641.947	15757.68
642.301	15689.66
642.654	15818.69
643.007	15820.5
643.36	15705.25
643.713	15676.55
644.066	15665.03
644.419	15593.39
644.771	15586.84
645.124	15394.3
645.477	15334.87
645.83	15312.27
646.182	15250.8
646.535	15234.75
646.888	15197.24
647.24	15180.52
647.593	15141.2
647.945	15197.69
648.298	15013.07
648.65	15074.76
649.002	15057.81
649.355	15168.99
649.707	15136.9
650.059	15123.12
650.411	15278.37
650.763	15350.01
651.115	15433.39
651.467	15368.31
651.819	15403.79
652.171	15530.11
652.523	15368.76
652.875	15344.58
653.227	15357.69
653.578	15466.84
653.93	15467.29
654.282	15359.27
654.633	15386.84
654.985	15395.43
655.337	15413.73
655.688	15487.86
656.039	15513.84
656.391	15397.01
656.742	15400.4
657.094	15457.57
657.445	15481.3
657.796	15464.13
658.147	15425.48
658.498	15391.36
658.849	15469.55
659.2	15483.34
659.551	15420.96
659.902	15476.56
660.253	15392.94
660.604	15425.03
660.955	15385.49
661.306	15510.45
661.656	15561.75
662.007	15480.85
662.358	15561.07
662.708	15582.77
663.059	15469.1
663.409	15386.39
663.76	15537.57
664.11	15507.29
664.461	15488.99
664.811	15470.45
665.161	15486.73
665.511	15441.75
665.862	15456.67
666.212	15507.29
666.562	15590.45
666.912	15533.96
667.262	15516.1
667.612	15506.16
667.962	15604.91
668.312	15454.86
668.662	15550.45
669.011	15434.98
669.361	15502.09
669.711	15553.84
670.06	15420.06
670.41	15380.06
670.76	15417.35
671.109	15458.25
671.459	15438.59
671.808	15468.19
672.157	15449.44
672.507	15388.65
672.856	15279.73
673.205	15402.21
673.554	15418.93
673.904	15266.17
674.253	15464.35
674.602	15382.1
674.951	15174.87
675.3	15026.62
675.649	15235.66
675.998	15248.09
676.346	15252.38
676.695	15256
677.044	15165.38
677.393	15177.58
677.741	15293.51
678.09	15171.93
678.438	15158.37
678.787	15183
679.135	15167.64
679.484	15089.45
679.832	15178.03
680.181	14994.08
680.529	15093.29
680.877	15080.86
681.225	15048.54
681.573	15118.15
681.922	14964.25
682.27	14821.88
682.618	15073.86
682.966	14865.72
683.314	14944.14
683.661	14790.02
684.009	14803.35
684.357	14684.26
684.705	14765.61
685.053	14689.91
685.4	14751.6
685.748	14596.81
686.095	14593.19
686.443	14505.51
686.79	14582.34
687.138	14477.03
687.485	14542.34
687.832	14494.44
688.18	14402.01
688.527	14286.98
688.874	14279.98
689.221	14334.44
689.568	14313.65
689.915	14190.04
690.262	14183.03
690.609	14161.34
690.956	14123.15
691.303	14202.92
691.65	14106.2
691.997	13982.81
692.344	13916.82
692.69	13876.6
693.037	13866.66
693.383	13758.86
693.73	13821.46
694.077	13759.31
694.423	13720.22
694.769	13597.28
695.116	13621.46
695.462	13584.4
695.808	13535.36
696.155	13486.1
696.501	13416.72
696.847	13376.5
697.193	13233.9
697.539	13359.1
697.885	13136.28
698.231	13129.5
698.577	13211.31
698.923	13133.12
699.269	13031.42
699.614	13021.71
699.96	12994.36
700.306	12957.75
700.651	12879.56
700.997	12879.34
701.342	12754.37
701.688	12746.91
702.033	12755.95
702.379	12665.33
702.724	12614.26
703.069	12590.98
703.415	12464.21
703.76	12534.49
704.105	12433.02
704.45	12430.08
704.795	12322.29
705.14	12341.05
705.485	12287.71
705.83	12208.39
706.175	12314.15
706.52	12164.1
706.865	12173.59
707.209	12172.91
707.554	12111.22
707.899	12047.95
708.243	11998
708.588	12083.43
708.932	11803.88
709.277	11871.91
709.621	11790.33
709.966	11778.57
710.31	11762.53
710.654	11682.31
710.998	11709.42
711.342	11703.77
711.687	11654.51
712.031	11621.52
712.375	11498.13
712.719	11573.61
713.063	11548.07
713.407	11636.66
713.75	11505.36
714.094	11449.32
714.438	11412.03
714.782	11524.34
715.125	11377.23
715.469	11434.63
715.812	11340.17
716.156	11307.85
716.499	11344.24
716.843	11251.13
717.186	11351.24
717.53	11341.98
717.873	11335.2
718.216	11246.16
718.559	11200.06
718.902	11139.5
719.246	11216.1
719.589	11176.33
719.932	11095.65
720.275	11108.31
720.617	11147.86
720.96	11070.57
721.303	11053.17
721.646	11053.85
721.989	11032.83
722.331	11027.86
722.674	10963.91
723.016	11032.38
723.359	11003.68
723.701	11046.62
724.044	10913.51
724.386	10918.03
724.729	10956.9
725.071	10978.6
725.413	10949.67
725.755	10942.66
726.097	10940.63
726.439	10847.53
726.782	10811.59
727.124	10918.71
727.465	10766.17
727.807	10832.38
728.149	10806.4
728.491	10794.87
728.833	10853.4
729.175	10781.99
729.516	10846.4
729.858	10786.06
730.199	10901.31
730.541	10753.97
730.882	10762.33
731.224	10846.62
731.565	10756.68
731.906	10730.24
732.248	10789.9
732.589	10822.67
732.93	10674.87
733.271	10720.75
733.612	10728.66
733.953	10744.03
734.294	10719.17
734.635	10719.85
734.976	10796.45
735.317	10752.16
735.658	10803.01
735.999	10713.97
736.339	10770.47
736.68	10757.13
737.021	10747.19
737.361	10784.7
737.702	10796.91
738.042	10750.13
738.383	10846.85
738.723	10816.34
739.063	10780.63
739.404	10923.46
739.744	10864.93
740.084	10778.83
740.424	10883.91
740.764	10904.47
741.104	10898.6
741.444	10860.63
741.784	10843.23
742.124	10956.22
742.464	10958.26
742.804	11003.45
743.143	11011.14
743.483	11037.13
743.823	11075.99
744.162	11042.55
744.502	11119.83
744.841	11076.45
745.181	11224.01
745.52	11189.44
745.86	11237.8
746.199	11323.9
746.538	11339.94
746.877	11443.89
747.216	11530.22
747.556	11584.68
747.895	11608.86
748.234	11698.35
748.573	11705.81
748.911	11791
749.25	11825.8
749.589	11906.25
749.928	12026.7
750.267	12114.16
750.605	12096.98
750.944	12248.39
751.283	12291.33
751.621	12454.94
751.96	12452.46
752.298	12581.27
752.636	12769.96
752.975	12743.97
753.313	12931.99
753.651	13049.5
753.989	13167.01
754.327	13249.72
754.666	13338.08
755.004	13487.23
755.342	13702.14
755.679	13829.59
756.017	13932.64
756.355	14161.34
756.693	14335.34
757.031	14543.47
757.368	14598.16
757.706	14752.96
758.044	14866.85
758.381	15098.04
758.719	15246.96
759.056	15499.15
759.394	15656.21
759.731	15815.3
760.068	16001.74
760.405	16128.29
760.743	16417.1
761.08	16575.96
761.417	16716.3
761.754	16915.61
762.091	17174.36
762.428	17185.21
762.765	17440.8
763.102	17671.53
763.438	17758.76
763.775	18117.84
764.112	18228.12
764.449	18494.1
764.785	18563.25
765.122	18638.51
765.458	18856.58
765.795	19042.11
766.131	19232.84
766.467	19391.03
766.804	19446.62
767.14	19572.04
767.476	19804.58
767.812	19866.27
768.148	20077.34
768.485	20197.11
768.821	20198.24
769.157	20421.51
769.492	20472.58
769.828	20645.46
770.164	20647.49
770.5	20858.56
770.836	20984.21
771.171	20947.15
771.507	21082.51
771.842	21097.65
772.178	21223.98
772.513	21380.58
772.849	21346.23
773.184	21482.5
773.519	21640.01
773.855	21579.22
774.19	21663.51
774.525	21733.79
774.86	21856.05
775.195	21890.62
775.53	21968.59
775.865	21943.96
776.2	21773.11
776.535	21851.76
776.87	21963.84
777.205	21969.72
777.539	22002.03
777.874	22117.29
778.209	22008.59
778.543	22168.81
778.878	22029.83
779.212	22120
779.547	22026.67
779.881	22185.76
780.215	22106.89
780.55	22209.03
780.884	22007.46
781.218	22169.04
781.552	22268.92
781.886	22137.4
782.22	22115.25
782.554	22117.96
782.888	21964.3
783.222	21976.05
783.556	21989.83
783.889	22004.97
784.223	21877.29
784.557	21868.7
784.89	22075.48
785.224	21867.12
785.557	21794.13
785.891	21854.24
786.224	21759.55
786.558	21739.22
786.891	21744.64
787.224	21642.27
787.557	21635.49
787.891	21588.26
788.224	21513.69
788.557	21658.77
788.89	21680.91
789.223	21625.32
789.556	21427.13
789.888	21383.29
790.221	21386.91
790.554	21200.7
790.887	21221.72
791.219	21160.47
791.552	21168.38
791.884	21074.15
792.217	21131.55
792.549	20949.18
792.882	21001.83
793.214	20830.77
793.546	21023.08
793.879	20797.77
794.211	20702.41
794.543	20803.2
794.875	20747.6
795.207	20863.53
795.539	20685.68
795.871	20632.8
796.203	20570.21
796.535	20409.76
796.867	20448.85
797.198	20410.89
797.53	20372.92
797.862	20280.05
798.193	20242.76
798.525	20168.41
798.856	20197.56
799.188	19966.16
799.519	20031.01
799.85	19873.28
800.182	19951.01
800.513	19951.24
800.844	19717.57
801.175	19925.48
801.506	19793.73
801.837	19839.61
802.168	19677.58
802.499	19640.74
802.83	19554.64
803.161	19582.21
803.491	19576.34
803.822	19524.59
804.153	19475.1
804.483	19231.71
804.814	19246.63
805.145	19225.84
805.475	19209.79
805.805	19158.04
806.136	19179.74
806.466	19135.67
806.796	19154.2
807.126	18981.32
807.457	18885.96
807.787	18986.29
808.117	18896.81
808.447	18766.64
808.777	18824.49
809.107	18787.2
809.436	18676.7
809.766	18595.34
810.096	18636.93
810.426	18582.01
810.755	18543.37
811.085	18529.81
811.414	18430.15
811.744	18421.79
812.073	18277.84
812.403	18339.53
812.732	18344.96
813.061	18220.44
813.39	18092.98
813.719	18137.73
814.049	18157.39
814.378	18104.74
814.707	17999.2
815.036	18017.28
815.365	17974.57
815.693	17828.13
816.022	17806.44
816.351	17851.86
816.68	17671.3
817.008	17795.59
817.337	17526.9
817.665	17536.39
817.994	17601.25
818.322	17561.02
818.651	17547.46
818.979	17391.08
819.307	17577.97
819.636	17532.32
819.964	17400.12
820.292	17457.07
820.62	17488.03
820.948	17323.51
821.276	17412.1
821.604	17414.58
821.932	17398.99
822.259	17443.96
822.587	17393.34
822.915	17318.54
823.243	17351.54
823.57	17310.86
823.898	17377.52
824.225	17256.85
824.553	17299.79
824.88	17283.74
825.207	17405.55
825.535	17374.59
825.862	17415.26
826.189	17311.99
826.516	17403.96
826.843	17435.6
827.17	17444.41
827.497	17448.71
827.824	17356.28
828.151	17423.4
828.478	17329.84
828.805	17409.84
829.131	17449.84
829.458	17265.21
829.785	17309.73
830.111	17340.46
830.438	17384.98
830.764	17391.31
831.09	17350.63
831.417	17212.78
831.743	17314.02
832.069	17248.04
832.395	17311.99
832.722	17348.37
833.048	17262.27
833.374	17210.3
833.7	17208.49
834.026	17230.63
834.351	17240.13
834.677	17175.95
835.003	17202.84
835.329	17176.62
835.654	17136.17
835.98	17121.03
836.306	17152.67
836.631	17039.91
836.956	17068.6
837.282	17100.47
837.607	16993.35
837.932	16961.49
838.258	16904.09
838.583	16926.91
838.908	16830.65
839.233	16935.05
839.558	16767.14
839.883	16919.23
840.208	16796.97
840.533	16790.42
840.858	16702.51
841.182	16705.45
841.507	16715.85
841.832	16592.01
842.156	16560.6
842.481	16565.57
842.805	16577.09
843.13	16517.43
843.454	16456.42
843.778	16476.76
844.103	16319.92
844.427	16324.22
844.751	16322.64
845.075	16307.27
845.399	16318.34
845.723	16089.42
846.047	16211.23
846.371	16010.1
846.695	16006.03
847.019	15886.04
847.343	15794.97
847.666	15677
847.99	15677.91
848.313	15689.66
848.637	15629.77
848.96	15609.66
849.284	15573.95
849.607	15433.85
849.931	15406.05
850.254	15281.08
850.577	15130.12
850.9	15065.72
851.223	15185.49
851.546	15027.98
851.869	14996.12
852.192	14909.34
852.515	14804.94
852.838	14784.15
853.161	14782.56
853.483	14715.9
853.806	14660.53
854.129	14677.71
854.451	14543.25
854.774	14510.71
855.096	14344.61
855.419	14421.67
855.741	14378.05
856.063	14329.92
856.385	14284.72
856.708	14177.38
857.03	14212.18
857.352	14176.7
857.674	14122.47
857.996	14100.77
858.318	14000.66
858.64	13995.47
858.961	13979.19
859.283	13908.24
859.605	13804.06
859.926	13913.21
860.248	13806.77
860.57	13779.43
860.891	13737.17
861.212	13691.29
861.534	13631.18
861.855	13638.64
862.176	13671.41
862.498	13677.28
862.819	13630.05
863.14	13546.89
863.461	13534.01
863.782	13459.89
864.103	13446.1
864.424	13434.12
864.745	13467.34
865.065	13354.8
865.386	13307.8
865.707	13288.59
866.027	13323.84
866.348	13275.71
866.668	13276.16
866.989	13261.93
867.309	13204.75
867.63	13142.83
867.95	13209.27
868.27	13040.69
868.59	13071.2
868.91	13077.98
869.23	13016.51
869.55	12944.19
869.87	13063.96
870.19	12967.92
870.51	13042.27
870.83	13042.5
871.15	12866.91
871.469	13002.05
871.789	12934.93
872.109	12928.37
872.428	12830.52
872.748	12880.69
873.067	12776.74
873.386	12795.5
873.706	12746.46
874.025	12668.95
874.344	12666.69
874.663	12707.82
874.982	12731.09
875.301	12669.85
875.62	12627.14
875.939	12695.39
876.258	12546.69
876.577	12539.23
876.896	12597.54
877.214	12496.07
877.533	12555.5
877.852	12425.56
878.17	12484.77
878.489	12472.79
878.807	12503.08
879.125	12428.95
879.444	12391.21
879.762	12390.08
880.08	12379.01
880.398	12363.19
880.716	12308.73
881.034	12326.58
881.352	12376.98
881.67	12275.51
881.988	12279.13
882.306	12168.17
882.624	12148.51
882.941	12134.72
883.259	12031.45
883.577	12032.35
883.894	12042.3
884.212	12051.56
884.529	11945.35
884.846	11954.16
885.164	11957.1
885.481	11921.4
885.798	11915.75
886.115	11776.54
886.432	11759.37
886.75	11794.85
887.067	11755.3
887.383	11682.31
887.7	11742.42
888.017	11694.96
888.334	11687.5
888.651	11622.87
888.967	11664.68
889.284	11619.48
889.6	11489.77
889.917	11364.8
890.233	11472.82
890.55	11429.21
890.866	11466.94
891.182	11344.46
891.498	11322.32
891.815	11219.49
892.131	11234.86
892.447	11097.01
892.763	11160.29
893.079	11158.25
893.395	11057.46
893.71	11122.09
894.026	11071.25
894.342	11044.36
894.657	10961.87
894.973	10996.9
895.289	10898.37
895.604	10915.09
895.92	10844.36
896.235	10845.04
896.55	10808.88
896.865	10744.25
897.181	10662.9
897.496	10693.41
897.811	10632.84
898.126	10540.19
898.441	10554.88
898.756	10524.14
899.071	10495.67
899.386	10457.71
899.7	10312.4
900.015	10291.83
900.33	10270.14
900.644	10192.85
900.959	10276.02
901.273	10189.92
901.588	10153.98
901.902	10118.28
902.216	10069.69
902.531	10055.46
902.845	10023.37
903.159	9931.39
903.473	9897.04
903.787	9906.31
904.101	9784.05
904.415	9869.7
904.729	9758.97
905.042	9725.52
905.356	9722.36
905.67	9706.09
905.984	9612.98
906.297	9638.97
906.611	9546.54
906.924	9539.99
907.237	9504.28
907.551	9438.52
907.864	9416.15
908.177	9388.35
908.491	9402.14
908.804	9348.36
909.117	9244.86
909.43	9226.33
909.743	9125.54
910.056	9161.24
910.368	9121.24
910.681	9071.3
910.994	9027.01
911.307	9003.28
911.619	8982.72
911.932	9001.92
912.244	8882.38
912.557	8824.53
912.869	8849.84
913.181	8776.39
913.494	8753.57
913.806	8715.83
914.118	8665.44
914.43	8669.5
914.742	8564.65
915.054	8597.87
915.366	8568.49
915.678	8498.21
915.99	8445.1
916.302	8404.65
916.613	8394.26
916.925	8345.44
917.236	8369.17
917.548	8267.71
917.859	8257.31
918.171	8262.28
918.482	8213.92
918.794	8186.58
919.105	8085.79
919.416	8064.32
919.727	8042.4
920.038	7983.19
920.349	7939.58
920.66	7981.39
920.971	7997.2
921.282	7928.28
921.593	7817.32
921.903	7756.76
922.214	7800.6
922.525	7767.38
922.835	7668.4
923.146	7591.34
923.456	7625.01
923.767	7581.85
924.077	7594.5
924.387	7564.9
924.697	7501.62
925.008	7436.77
925.318	7445.13
925.628	7444.45
925.938	7392.93
926.248	7320.84
926.558	7349.76
926.867	7334.85
927.177	7264.34
927.487	7254.4
927.796	7157.68
928.106	7129.66
928.416	7161.75
928.725	7095.76
929.034	7067.06
929.344	7112.26
929.653	7090.11
929.962	6994.97
930.271	6989.1
930.581	6947.74
930.89	6925.82
931.199	6845.37
931.508	6865.03
931.817	6850.34
932.125	6771.25
932.434	6842.89
932.743	6745.49
933.051	6764.02
933.36	6702.32
933.669	6682.89
933.977	6665.94
934.286	6585.49
934.594	6646.96
934.902	6496.45
935.21	6548.88
935.519	6491.93
935.827	6470.47
936.135	6375.1
936.443	6336.68
936.751	6366.97
937.059	6346.63
937.367	6323.8
937.674	6320.19
937.982	6285.84
938.29	6232.51
938.597	6251.04
938.905	6158.38
939.213	6160.64
939.52	6118.16
939.827	6113.64
940.135	6110.47
940.442	6095.79
940.749	6039.06
941.056	6000.42
941.363	5965.17
941.67	5990.7
941.977	5894.44
942.284	5907.54
942.591	5875.23
942.898	5825.06
943.205	5855.79
943.511	5771.95
943.818	5765.17
944.125	5726.53
944.431	5797.49
944.738	5694.44
945.044	5669.36
945.35	5605.18
945.657	5577.16
945.963	5617.83
946.269	5569.47
946.575	5601.56
946.881	5486.31
947.187	5486.99
947.493	5507.1
947.799	5501
948.105	5456.48
948.41	5345.3
948.716	5422.36
949.022	5381.68
949.327	5357.27
949.633	5273.21
949.938	5303.04
950.244	5286.77
950.549	5261.91
950.854	5230.95
951.16	5204.96
951.465	5222.59
951.77	5122.25
952.075	5129.48
952.38	5144.85
952.685	5109.82
952.99	5091.74
953.294	5017.17
953.599	5022.59
953.904	4999.77
954.209	4990.96
954.513	4930.17
954.818	4937.85
955.122	4896.95
955.426	4906.44
955.731	4866.89
956.035	4879.09
956.339	4765.88
956.643	4840.45
956.948	4769.04
957.252	4743.73
957.556	4752.09
957.86	4737.86
958.163	4728.82
958.467	4721.81
958.771	4698.99
959.075	4649.27
959.378	4640.46
959.682	4601.59
959.985	4555.04
960.289	4574.24
960.592	4566.79
960.896	4516.84
961.199	4502.61
961.502	4485.66
961.805	4444.53
962.108	4506.68
962.411	4404.31
962.714	4387.81
963.017	4381.71
963.32	4407.24
963.623	4348.04
963.926	4339.22
964.228	4303.29
964.531	4313.01
964.833	4318.88
965.136	4218.55
965.438	4239.79
965.741	4236.17
966.043	4233.91
966.345	4187.14
966.648	4160.47
966.95	4146.46
967.252	4103.75
967.554	4102.17
967.856	4066.46
968.158	4057.42
968.46	4086.12
968.761	4002.51
969.063	4009.29
969.365	4021.26
969.666	3952.11
969.968	3955.73
970.269	3955.5
970.571	3941.04
970.872	3946.01
971.174	3903.3
971.475	3883.64
971.776	3883.41
972.077	3860.59
972.378	3848.39
972.679	3840.7
972.98	3865.34
973.281	3749.63
973.582	3802.51
973.883	3743.31
974.183	3742.18
974.484	3706.02
974.785	3687.71
975.085	3690.88
975.386	3673.7
975.686	3630.31
975.986	3600.03
976.287	3624.89
976.587	3592.8
976.887	3563.88
977.187	3580.6
977.487	3546.25
977.787	3502.86
978.087	3554.61
978.387	3493.82
978.687	3464.89
978.987	3445.69
979.286	3452.24
979.586	3475.74
979.885	3435.52
980.185	3371.79
980.484	3397.78
980.784	3369.53
981.083	3407.04
981.382	3360.72
981.682	3367.27
981.981	3334.28
982.28	3269.87
982.579	3276.65
982.878	3291.11
983.177	3268.52
983.475	3260.83
983.774	3199.37
984.073	3197.56
984.372	3192.13
984.67	3210.89
984.969	3204.34
985.267	3156.43
985.566	3129.76
985.864	3139.71
986.162	3085.02
986.461	3108.29
986.759	3120.72
987.057	3023.78
987.355	3054.74
987.653	3016.77
987.951	3028.52
988.249	3026.71
988.547	2990.56
988.844	2981.52
989.142	2984.91
989.44	2934.74
989.737	2982.42
990.035	2939.48
990.332	2944.46
990.63	2933.16
990.927	2863.1
991.224	2880.05
991.521	2866.27
991.819	2881.63
992.116	2840.28
992.413	2841.86
992.71	2792.14
993.006	2800.51
993.303	2761.86
993.6	2762.54
993.897	2748.53
994.193	2739.26
994.49	2689.77
994.787	2690.45
995.083	2714.41
995.379	2666.05
995.676	2686.61
995.972	2672.6
996.268	2639.38
996.565	2631.47
996.861	2619.27
997.157	2583.34
997.453	2576.56
997.749	2568.65
998.044	2556.67
998.34	2557.57
998.636	2540.85
998.932	2528.65
999.227	2535.43
999.523	2525.03
999.818	2468.99
1000.114	2456.56
1000.409	2438.26
1000.704	2443.68
1001	2396.67
1001.295	2390.12
1001.59	2423.79
1001.885	2411.82
1002.18	2355.32
1002.475	2384.25
1002.77	2340.63
1003.065	2330.24
1003.359	2337.92
1003.654	2322.55
1003.949	2318.26
1004.243	2283.23
1004.538	2266.51
1004.832	2263.8
1005.127	2258.15
1005.421	2261.54
1005.715	2214.08
1006.009	2216.34
1006.304	2201.43
1006.598	2189
1006.892	2180.63
1007.186	2146.74
1007.48	2142.9
1007.773	2109
1008.067	2122.33
1008.361	2094.54
1008.655	2094.76
1008.948	2073.29
1009.242	2133.86
1009.535	2050.24
1009.829	2039.85
1010.122	2031.03
1010.415	2018.61
1010.708	2025.16
1011.001	2011.6
1011.295	1971.15
1011.588	1971.6
1011.881	1953.75
1012.173	1957.36
1012.466	1967.53
1012.759	1951.94
1013.052	1963.47
1013.344	1908.1
1013.637	1881.43
1013.93	1880.98
1014.222	1893.86
1014.514	1888.21
1014.807	1854.77
1015.099	1823.36
1015.391	1811.15
1015.683	1828.1
1015.976	1812.06
1016.268	1790.14
1016.56	1789.46
1016.851	1768.89
1017.143	1761.89
1017.435	1728.67
1017.727	1739.97
1018.018	1748.78
1018.31	1712.4
1018.602	1722.57
1018.893	1692.96
1019.185	1692.06
1019.476	1703.13
1019.767	1676.92
1020.058	1666.75
1020.35	1638.05
1020.641	1600.54
1020.932	1631.5
1021.223	1603.47
1021.514	1583.14
1021.804	1590.59
1022.095	1565.51
1022.386	1584.04
1022.677	1532.74
1022.967	1559.41
1023.258	1505.17
1023.548	1529.58
1023.839	1530.48
1024.129	1499.97
1024.419	1503.59
1024.709	1471.5
1025	1469.92
1025.29	1452.74
1025.58	1466.53
1025.87	1439.86
1026.16	1436.93
1026.449	1430.37
1026.739	1448.45
1027.029	1399.64
1027.319	1404.61
1027.608	1354.22
1027.898	1408
1028.187	1350.15
1028.477	1363.03
1028.766	1339.53
1029.055	1347.66
1029.344	1343.82
1029.634	1338.85
1029.923	1301.11
1030.212	1317.83
1030.501	1316.7
1030.79	1291.39
1031.078	1305.86
1031.367	1255.69
1031.656	1270.6
1031.945	1238.29
1032.233	1248.46
1032.522	1236.03
1032.81	1221.56
1033.099	1200.32
1033.387	1207.33
1033.675	1219.76
1033.963	1176.59
1034.251	1183.37
1034.54	1206.88
1034.828	1167.55
1035.116	1166.65
1035.403	1135.46
1035.691	1161.68
1035.979	1158.51
1036.267	1107.22
1036.554	1127.33
1036.842	1113.54
1037.129	1108.35
1037.417	1110.15
1037.704	1088.69
1037.992	1104.96
1038.279	1057.73
1038.566	1049.37
1038.853	1049.37
1039.14	1049.37
