Data from hue_50_FLMS001491_23.txt Node
Date: Mon Feb 06 15:09:48 GMT 2017
User: dcchb
Spectrometer: FLMS00149
Trigger mode: 0
Integration Time (sec): 2.000000E-2
Scans to average: 10
Electric dark correction enabled: true
Nonlinearity correction enabled: false
Boxcar width: 0
XAxis mode: Wavelengths
Number of Pixels in Spectrum: 2048
>>>>>Begin Spectral Data<<<<<
341.393	-2.03
341.776	-2.03
342.16	-2.03
342.543	-38.87
342.927	-44.07
343.31	-60.34
343.693	-75.25
344.077	-58.53
344.46	-54.46
344.843	-42.03
345.226	-51.75
345.61	-20.56
345.993	-22.37
346.376	-11.75
346.759	15.82
347.142	-4.07
347.525	44.74
347.908	61.24
348.291	73.22
348.674	85.42
349.057	120.67
349.44	134.69
349.823	148.02
350.206	165.65
350.588	196.83
350.971	229.37
351.354	230.95
351.737	253.78
352.119	275.47
352.502	278.86
352.884	288.81
353.267	297.62
353.65	295.13
354.032	299.2
354.414	308.47
354.797	305.3
355.179	320.67
355.562	333.78
355.944	326.32
356.326	328.35
356.709	341.69
357.091	352.99
357.473	347.34
357.855	348.92
358.238	355.92
358.62	341.01
359.002	351.86
359.384	363.38
359.766	348.24
360.148	348.47
360.53	353.44
360.912	363.38
361.294	355.92
361.676	348.47
362.057	344.4
362.439	330.39
362.821	356.15
363.203	342.82
363.584	342.36
363.966	322.7
364.348	322.03
364.729	315.92
365.111	327
365.493	323.61
365.874	325.87
366.256	335.36
366.637	325.19
367.019	314.12
367.4	295.81
367.781	295.81
368.163	308.69
368.544	315.7
368.925	294.23
369.306	339.2
369.688	319.77
370.069	309.6
370.45	315.02
370.831	305.75
371.212	302.36
371.593	308.47
371.974	331.06
372.355	309.6
372.736	318.18
373.117	319.31
373.498	318.41
373.879	312.99
374.26	328.13
374.641	315.25
375.021	301.24
375.402	324.06
375.783	298.98
376.163	315.02
376.544	337.17
376.925	298.3
377.305	314.34
377.686	335.58
378.066	343.04
378.447	351.63
378.827	325.19
379.208	320.44
379.588	347.11
379.968	342.82
380.349	343.49
380.729	327.22
381.109	328.8
381.489	308.24
381.87	314.34
382.25	324.29
382.63	341.01
383.01	345.75
383.39	346.21
383.77	346.66
384.15	326.32
384.53	359.09
384.91	359.76
385.29	361.35
385.67	337.84
386.049	343.72
386.429	348.92
386.809	344.17
387.189	363.83
387.568	352.99
387.948	364.28
388.328	356.15
388.707	355.24
389.087	359.76
389.466	339.43
389.846	368.8
390.225	361.8
390.605	353.44
390.984	364.06
391.363	380.33
391.743	370.39
392.122	377.17
392.501	359.76
392.881	390.72
393.26	370.61
393.639	373.55
394.018	382.36
394.397	361.35
394.776	385.3
395.155	387.33
395.534	349.14
395.913	367.45
396.292	368.13
396.671	347.56
397.05	362.02
397.429	380.1
397.808	376.04
398.186	390.95
398.565	383.04
398.944	382.36
399.323	372.65
399.701	368.8
400.08	387.11
400.458	389.59
400.837	400.67
401.215	383.27
401.594	371.29
401.972	394.34
402.351	376.71
402.729	408.35
403.107	388.24
403.486	387.79
403.864	393.66
404.242	402.48
404.62	399.76
404.999	404.28
405.377	394.11
405.755	410.16
406.133	405.87
406.511	408.12
406.889	397.05
407.267	409.93
407.645	429.59
408.023	422.36
408.401	433.21
408.779	423.27
409.156	422.81
409.534	423.27
409.912	431.85
410.29	424.4
410.667	423.27
411.045	433.43
411.422	435.47
411.8	449.48
412.178	433.66
412.555	459.42
412.933	441.34
413.31	445.41
413.687	457.16
414.065	449.25
414.442	435.47
414.819	466.43
415.197	462.36
415.574	478.18
415.951	487.44
416.328	483.6
416.705	478.86
417.082	476.82
417.46	473.66
417.837	470.5
418.214	478.18
418.591	476.15
418.967	480.44
419.344	486.54
419.721	490.61
420.098	493.55
420.475	491.51
420.852	510.27
421.228	526.99
421.605	498.07
421.982	500.78
422.358	503.26
422.735	503.94
423.111	513.66
423.488	540.1
423.864	544.84
424.241	537.61
424.617	547.33
424.994	540.32
425.37	546.65
425.746	556.37
426.123	545.75
426.499	544.62
426.875	539.42
427.251	543.26
427.627	573.32
428.003	566.76
428.379	550.04
428.756	556.82
429.132	571.96
429.507	566.31
429.883	580.1
430.259	592.53
430.635	576.03
431.011	582.13
431.387	578.29
431.763	601.34
432.138	603.15
432.514	618.74
432.89	601.11
433.265	607.44
433.641	633.2
434.016	608.8
434.392	641.79
434.767	626.65
435.143	629.36
435.518	650.6
435.894	639.31
436.269	639.31
436.644	635.92
437.02	653.32
437.395	651.51
437.77	666.65
438.145	686.76
438.52	670.94
438.895	685.41
439.271	675.91
439.646	679.98
440.021	683.82
440.395	690.83
440.77	698.06
441.145	698.06
441.52	716.59
441.895	723.6
442.27	706.42
442.645	723.6
443.019	733.31
443.394	731.05
443.769	708
444.143	719.98
444.518	751.62
444.892	743.71
445.267	738.51
445.641	752.07
446.016	752.97
446.39	750.71
446.764	743.48
447.139	761.34
447.513	778.74
447.887	746.2
448.262	771.73
448.636	774.22
449.01	771.51
449.384	782.58
449.758	772.41
450.132	804.72
450.506	798.4
450.88	810.15
451.254	820.09
451.628	832.29
452.002	826.87
452.376	815.12
452.75	836.36
453.123	834.78
453.497	819.41
453.871	846.08
454.244	846.76
454.618	849.24
454.992	875.46
455.365	883.82
455.739	884.95
456.112	898.51
456.486	901.67
456.859	926.53
457.232	928.34
457.606	923.37
457.979	954.55
458.352	965.62
458.725	943.25
459.099	967.43
459.472	993.42
459.845	972.18
460.218	1008.34
460.591	984.83
460.964	1002.46
461.337	1041.55
461.71	1040.2
462.083	1072.74
462.456	1048.79
462.829	1062.12
463.201	1067.99
463.574	1096.92
463.947	1099.18
464.32	1127.2
464.692	1122.46
465.065	1143.47
465.438	1178.73
465.81	1171.04
466.183	1173.75
466.555	1198.84
466.928	1238.39
467.3	1215.56
467.672	1261.66
468.045	1294.88
468.417	1314.09
468.789	1294.43
469.161	1326.97
469.534	1359.29
469.906	1389.12
470.278	1408.1
470.65	1402.45
471.022	1434.76
471.394	1459.62
471.766	1494.88
472.138	1497.81
472.51	1561.09
472.882	1594.31
473.253	1617.13
473.625	1625.27
473.997	1702.33
474.369	1718.82
474.74	1738.03
475.112	1792.5
475.484	1813.06
475.855	1892.83
476.227	1886.05
476.598	1961.98
476.97	1991.59
477.341	2052.83
477.713	2088.53
478.084	2142.99
478.455	2218.02
478.827	2247.4
479.198	2335.31
479.569	2358.81
479.94	2474.29
480.311	2509.54
480.682	2559.71
481.053	2696.43
481.424	2758.8
481.795	2772.36
482.166	2884.44
482.537	2938.23
482.908	3058.22
483.279	3100.26
483.65	3187.94
484.021	3310.42
484.391	3394.71
484.762	3475.84
485.133	3562.62
485.503	3611.66
485.874	3760.35
486.244	3836.28
486.615	4026.33
486.985	4108.59
487.356	4182.71
487.726	4330.06
488.097	4412.99
488.467	4538.86
488.837	4652.76
489.207	4769.37
489.578	4900.44
489.948	5016.59
490.318	5103.14
490.688	5166.42
491.058	5357.83
491.428	5462.23
491.798	5632.62
492.168	5739.06
492.538	5805.27
492.908	5981.31
493.278	6144.92
493.648	6168.43
494.017	6377.91
494.387	6526.61
494.757	6606.61
495.126	6774.29
495.496	6816.32
495.866	6988.29
496.235	7094.28
496.605	7301.95
496.974	7364.78
497.344	7469.86
497.713	7655.39
498.082	7693.81
498.452	7844.09
498.821	7945.33
499.19	8016.06
499.559	8226.45
499.928	8282.49
500.298	8380.12
500.667	8546.67
501.036	8692.88
501.405	8775.36
501.774	8777.85
502.143	8961.8
502.512	9080.67
502.88	9143.49
503.249	9261.68
503.618	9403.59
503.987	9509.58
504.356	9589.35
504.724	9674.1
505.093	9834.77
505.462	9851.04
505.83	10024.6
506.199	10149.34
506.567	10246.06
506.936	10375.55
507.304	10464.81
507.672	10608.08
508.041	10683.56
508.409	10752.49
508.777	10885.36
509.145	10971.01
509.514	11101.4
509.882	11134.4
510.25	11188.86
510.618	11301.17
510.986	11434.28
511.354	11566.48
511.722	11709.75
512.09	11831.55
512.458	11887.6
512.826	11952.91
513.193	12043.75
513.561	12168.72
513.929	12229.96
514.297	12399.22
514.664	12441.71
515.032	12527.81
515.4	12655.49
515.767	12710.63
516.135	12836.95
516.502	12835.14
516.869	13067.45
517.237	13096.6
517.604	13081.69
517.972	13246.21
518.339	13330.72
518.706	13388.12
519.073	13470.15
519.44	13636.03
519.808	13741.11
520.175	13706.76
520.542	13945.62
520.909	14051.16
521.276	13988.56
521.643	14187.2
522.009	14278.04
522.376	14356.01
522.743	14485.49
523.11	14669.9
523.477	14762.55
523.843	14850.68
524.21	14974.52
524.577	15109.43
524.943	15171.35
525.31	15292.48
525.676	15458.35
526.043	15537.44
526.409	15676.88
526.776	15781.28
527.142	15878.68
527.508	15928.85
527.874	16101.27
528.241	16141.72
528.607	16208.84
528.973	16394.6
529.339	16355.05
529.705	16483.41
530.071	16677.53
530.437	16804.53
530.803	16915.26
531.169	16889.05
531.535	16929.05
531.901	17108.25
532.267	17166.1
532.632	17336.72
532.998	17388.24
533.364	17420.78
533.73	17479.77
534.095	17616.26
534.461	17669.37
534.826	17688.35
535.192	17872.98
535.557	17907.1
535.923	17973.76
536.288	17977.83
536.653	18126.76
537.019	18089.47
537.384	18183.93
537.749	18400.19
538.114	18366.07
538.479	18532.62
538.845	18545.73
539.21	18473.19
539.575	18564.26
539.94	18652.16
540.305	18770.13
540.67	18852.39
541.034	18911.37
541.399	18975.09
541.764	19004.47
542.129	19283.79
542.494	19260.06
542.858	19293.28
543.223	19295.31
543.587	19374.41
543.952	19396.33
544.316	19430
544.681	19480.17
545.045	19619.82
545.41	19678.58
545.774	19720.16
546.138	19746.37
546.503	19837.9
546.867	19823.21
547.231	20051.9
547.595	20082.64
547.959	20151.11
548.324	20137.78
548.688	20198.56
549.052	20257.32
549.416	20345.91
549.779	20387.94
550.143	20419.8
550.507	20527.14
550.871	20623.19
551.235	20640.14
551.599	20748.83
551.962	20819.34
552.326	20880.81
552.689	21024.08
553.053	20930.75
553.417	21095.49
553.78	21358.08
554.143	21238.76
554.507	21311.76
554.87	21380.23
555.234	21622.03
555.597	21515.59
555.96	21591.97
556.323	21763.04
556.686	21781.35
557.05	21973.21
557.413	21989.7
557.776	21941.12
558.139	22167.33
558.502	22333.42
558.865	22349.02
559.228	22460.2
559.59	22540.2
559.953	22575.23
560.316	22772.51
560.679	22768.67
561.041	22895.44
561.404	23026.29
561.767	23131.14
562.129	23054.08
562.492	23341.99
562.854	23252.72
563.217	23222.44
563.579	23379.27
563.941	23666.5
564.304	23727.74
564.666	23912.14
565.028	23849.09
565.39	23966.6
565.753	24111.23
566.115	24084.56
566.477	24265.8
566.839	24259.02
567.201	24379.47
567.563	24508.06
567.925	24568.17
568.287	24654.27
568.648	24770.2
569.01	24868.72
569.372	25030.53
569.734	24979.23
570.095	25099.9
570.457	25392.55
570.819	25261.71
571.18	25438.65
571.542	25579.21
571.903	25663.28
572.265	25677.52
572.626	25762.94
572.987	25850.17
573.349	25949.37
573.71	26136.04
574.071	26175.13
574.432	26307.56
574.794	26353.66
575.155	26452.41
575.516	26283.6
575.877	26553.88
576.238	26699.41
576.599	26800.2
576.96	26784.83
577.32	26846.98
577.681	26965.39
578.042	27177.36
578.403	27118.83
578.763	27256.68
579.124	27420.97
579.485	27448.77
579.845	27513.63
580.206	27626.17
580.566	27649.67
580.927	27784.81
581.287	27979.15
581.648	27957.91
582.008	28082.88
582.368	28145.47
582.728	28309.99
583.089	28331.68
583.449	28424.11
583.809	28511.34
584.169	28621.39
584.529	28660.94
584.889	28880.6
585.249	28861.84
585.609	28902.06
585.969	29105
586.329	29014.15
586.688	29307.03
587.048	29451.88
587.408	29402.16
587.768	29542.95
588.127	29711.31
588.487	29609.39
588.846	29963.05
589.206	29887.58
589.565	30018.19
589.925	30116.95
590.284	30292.08
590.643	30253.22
591.003	30441.01
591.362	30692.3
591.721	30558.07
592.08	30746.76
592.44	30909.02
592.799	30913.54
593.158	31024.72
593.517	31097.26
593.876	31249.12
594.235	31212.74
594.593	31316.24
594.952	31523.01
595.311	31379.74
595.67	31609.11
596.029	31765.04
596.387	31869.22
596.746	31982.66
597.104	32033.51
597.463	32087.07
597.822	32195.99
598.18	32233.28
598.538	32509.88
598.897	32599.37
599.255	32322.09
599.613	32939.92
599.972	32736.54
600.33	32932.24
600.688	32920.49
601.046	32892.24
601.404	33119.81
601.762	33231.44
602.12	33310.76
602.478	33402.74
602.836	33455.39
603.194	33296.53
603.552	33397.09
603.91	33493.58
604.268	33746.01
604.625	33674.82
604.983	33756.4
605.341	33741.49
605.698	34001.82
606.056	34066.9
606.413	34031.87
606.771	34091.08
607.128	34240.23
607.485	34187.35
607.843	34471.18
608.2	34485.42
608.557	34668.92
608.914	34538.07
609.272	34768.8
609.629	34868.24
609.986	35058.06
610.343	34861.46
610.7	35314.1
611.057	35188.45
611.414	35157.27
611.771	35324.95
612.127	35571.27
612.484	35362.91
612.841	35655.33
613.198	35516.81
613.554	35480.87
613.911	35845.84
614.267	35904.37
614.624	35818.95
614.98	35809.45
615.337	36125.6
615.693	35988.21
616.05	35968.55
616.406	36215.77
616.762	36159.05
617.118	36220.06
617.475	36147.75
617.831	36283.11
618.187	36467.74
618.543	36487.4
618.899	36704.35
619.255	36661.41
619.611	36669.32
619.967	36784.57
620.323	36773.27
620.678	36718.13
621.034	36844
621.39	36794.51
621.746	36844.91
622.101	37149.53
622.457	36975.75
622.812	36984.56
623.168	37114.28
623.523	37199.7
623.879	37338.23
624.234	37098.91
624.589	37321.5
624.945	37236.31
625.3	37325.35
625.655	37243.99
626.01	37476.08
626.365	37443.31
626.72	37418.23
627.075	37446.47
627.43	37300.94
627.785	37388.17
628.14	37409.41
628.495	37536.19
628.85	37476.3
629.205	37390.66
629.559	37559.46
629.914	37364.89
630.269	37565.57
630.623	37276.76
630.978	37354.5
631.332	37585.23
631.687	37349.75
632.041	37358.11
632.396	37368.73
632.75	37328.96
633.104	37443.54
633.459	37449.64
633.813	37241.28
634.167	37285.8
634.521	37324.89
634.875	37498.45
635.229	37198.57
635.583	37063.21
635.937	37242.86
636.291	37188.85
636.645	37184.56
636.999	37104.79
637.352	37116.09
637.706	37046.03
638.06	37172.81
638.413	37003.09
638.767	36885.36
639.121	37059.14
639.474	36750.45
639.828	36899.37
640.181	36868.64
640.534	36860.5
640.888	36872.25
641.241	36769.65
641.594	36721.29
641.947	36925.13
642.301	36793.16
642.654	36807.62
643.007	36664.35
643.36	36826.6
643.713	36634.74
644.066	36850.78
644.419	36494.18
644.771	36425.93
645.124	36063.23
645.477	35919.28
645.83	35782.79
646.182	35632.06
646.535	35643.58
646.888	35505.28
647.24	35375.79
647.593	35700.3
647.945	35579.4
648.298	35484.04
648.65	35406.98
649.002	35287.66
649.355	35543.92
649.707	35462.57
650.059	35451.72
650.411	35944.82
650.763	35990.92
651.115	36392.72
651.467	36226.17
651.819	36136.22
652.171	36109.56
652.523	35922.22
652.875	36042.22
653.227	35984.59
653.578	36116.11
653.93	36052.84
654.282	35992.73
654.633	35806.06
654.985	35818.72
655.337	35931.03
655.688	35960.18
656.039	36023.23
656.391	35711.6
656.742	35712.28
657.094	35824.82
657.445	35912.73
657.796	35814.65
658.147	35744.14
658.498	35709.8
658.849	35865.27
659.2	35715.45
659.551	35727.65
659.902	35827.08
660.253	35718.16
660.604	35772.62
660.955	35607.88
661.306	35656.92
661.656	35728.55
662.007	35658.72
662.358	35714.77
662.708	35719.29
663.059	35626.86
663.409	35352.29
663.76	35779.17
664.11	35688.33
664.461	35714.54
664.811	35580.08
665.161	35596.35
665.511	35442.91
665.862	35716.35
666.212	35718.38
666.562	35707.54
666.912	35515.22
667.262	35533.3
667.612	35559.97
667.962	35544.83
668.312	35675.22
668.662	35702.56
669.011	35568.56
669.361	35462.34
669.711	35439.75
670.06	35436.36
670.41	35325.4
670.76	35338.96
671.109	35519.07
671.459	35340.77
671.808	35346.87
672.157	35417.6
672.507	35215.57
672.856	35215.12
673.205	35202.69
673.554	35317.72
673.904	35253.76
674.253	35379.63
674.602	35308.45
674.951	34827.33
675.3	34693.1
675.649	35262.58
675.998	35175.12
676.346	35147.32
676.695	35399.07
677.044	35020.55
677.393	35026.2
677.741	35160.43
678.09	35131.28
678.438	35084.28
678.787	35012.41
679.135	34985.29
679.484	34765.87
679.832	34906.43
680.181	34647.68
680.529	34878.4
680.877	34742.82
681.225	34627.34
681.573	34829.59
681.922	34704.4
682.27	34482.94
682.618	34534.91
682.966	34555.02
683.314	34534.46
683.661	34463.05
684.009	34138.76
684.357	34198.42
684.705	34118.88
685.053	34328.59
685.4	34144.19
685.748	33982.38
686.095	33999.33
686.443	33893.57
686.79	33770.41
687.138	33889.5
687.485	33885.44
687.832	33813.8
688.18	33814.25
688.527	33642.05
688.874	33636.18
689.221	33566.12
689.568	33496.07
689.915	33381.95
690.262	33432.79
690.609	33303.31
690.956	33190.09
691.303	33068.06
691.65	32968.62
691.997	33028.51
692.344	32820.61
692.69	32829.87
693.037	32846.59
693.383	32488.19
693.73	32693.6
694.077	32417.9
694.423	32572.25
694.769	32383.33
695.116	32323.67
695.462	32264.46
695.808	32205.93
696.155	32157.57
696.501	31974.3
696.847	31942.21
697.193	31787.64
697.539	31890.01
697.885	31600.53
698.231	31513.52
698.577	31633.74
698.923	31507.87
699.269	31208.44
699.614	31092.74
699.96	31265.39
700.306	31094.32
700.651	31071.5
700.997	30913.76
701.342	30930.49
701.688	30839.19
702.033	30631.06
702.379	30741.56
702.724	30572.98
703.069	30761.23
703.415	30357.85
703.76	30414.79
704.105	30326.89
704.45	30176.16
704.795	30062.71
705.14	30040.11
705.485	30089.6
705.83	29889.16
706.175	29935.94
706.52	29733.46
706.865	29735.72
707.209	29707.69
707.554	29408.72
707.899	29695.26
708.243	29505.66
708.588	29409.4
708.932	29184.54
709.277	29220.47
709.621	29180.93
709.966	28965.11
710.31	29100.25
710.654	28894.61
710.998	28893.25
711.342	28919.47
711.687	28798.79
712.031	28717.89
712.375	28541.17
712.719	28623.2
713.063	28585.69
713.407	28684.9
713.75	28497.56
714.094	28448.07
714.438	28346.6
714.782	28446.26
715.125	28254.85
715.469	28267.96
715.812	28214.4
716.156	27986.38
716.499	28025.93
716.843	27997.91
717.186	27911.81
717.53	28013.05
717.873	28112.26
718.216	27884.24
718.559	27815.31
718.902	27675.66
719.246	27666.17
719.589	27589.78
719.932	27580.74
720.275	27471.59
720.617	27446.28
720.96	27293.29
721.303	27448.77
721.646	27382.1
721.989	27202.67
722.331	27395.21
722.674	27108.67
723.016	27154.54
723.359	27116.58
723.701	27062.79
724.044	26926.98
724.386	26782.57
724.729	26877.03
725.071	26804.04
725.413	26802.01
725.755	26858.05
726.097	26674.78
726.439	26600.88
726.782	26508.91
727.124	26733.31
727.465	26559.75
727.807	26563.6
728.149	26428.91
728.491	26317.95
728.833	26412.64
729.175	26302.13
729.516	26131.97
729.858	26289.25
730.199	26254.68
730.541	26318.18
730.882	26023.5
731.224	26316.37
731.565	26077.73
731.906	26047.22
732.248	26063.5
732.589	26064.4
732.93	25790.51
733.271	25812.2
733.612	25929.26
733.953	25890.39
734.294	25760.9
734.635	25787.57
734.976	25803.16
735.317	25689.72
735.658	25700.34
735.999	25555.49
736.339	25447.01
736.68	25539.44
737.021	25463.51
737.361	25369.73
737.702	25601.59
738.042	25528.82
738.383	25300.58
738.723	25466.68
739.063	25195.27
739.404	25289.5
739.744	25177.42
740.084	25036.4
740.424	25140.58
740.764	25165.89
741.104	25202.05
741.444	24998.66
741.784	24837.99
742.124	25033.69
742.464	24938.55
742.804	24865.11
743.143	24848.61
743.483	24750.99
743.823	24859.01
744.162	24872.57
744.502	24779.24
744.841	24638.45
745.181	24667.15
745.52	24640.03
745.86	24710.31
746.199	24531.56
746.538	24521.84
746.877	24638.22
747.216	24605
747.556	24464.67
747.895	24510.32
748.234	24337.67
748.573	24233.26
748.911	24256.54
749.25	24249.98
749.589	24198.46
749.928	24190.55
750.267	24127.28
750.605	24085.47
750.944	23992.14
751.283	23903.78
751.621	24022.87
751.96	23882.54
752.298	23848.41
752.636	23921.86
752.975	23757.57
753.313	23605.71
753.651	23777
753.989	23521.42
754.327	23570.23
754.666	23455.88
755.004	23510.12
755.342	23491.36
755.679	23375.88
756.017	23278.03
756.355	23323.45
756.693	23263.57
757.031	23338.6
757.368	23079.17
757.706	23016.12
758.044	23015.44
758.381	23017.25
758.719	22800.98
759.056	22892.28
759.394	22842.11
759.731	22690.7
760.068	22644.15
760.405	22607.99
760.743	22436.02
761.08	22566.86
761.417	22351.28
761.754	22358.51
762.091	22306.53
762.428	22246.65
762.765	22071.06
763.102	22148.12
763.438	22029.93
763.775	22009.14
764.112	21892.08
764.449	21856.6
764.785	21836.94
765.122	21688.24
765.458	21702.03
765.795	21727.34
766.131	21550.17
766.467	21480.34
766.804	21419.32
767.14	21231.98
767.476	21205.32
767.812	21143.4
768.148	21171.19
768.485	20969.39
768.821	20996.06
769.157	21003.97
769.492	20870.41
769.828	20852.56
770.164	20565.79
770.5	20565.56
770.836	20530.31
771.171	20516.97
771.507	20479.69
771.842	20218.9
772.178	20319.01
772.513	20305.91
772.849	20214.16
773.184	20015.52
773.519	20142.52
773.855	19950.89
774.19	19822.08
774.525	19795.19
774.86	19884.45
775.195	19750.67
775.53	19586.6
775.865	19486.95
776.2	19414.63
776.535	19291.7
776.87	19368.08
777.205	19297.35
777.539	19151.81
777.874	19150.46
778.209	19011.93
778.543	19004.7
778.878	18825.72
779.212	18863.23
779.547	18779.17
779.881	18759.05
780.215	18538.95
780.55	18680.41
780.884	18536.69
781.218	18492.4
781.552	18516.58
781.886	18268.22
782.22	18242.23
782.554	18191.61
782.888	18040.43
783.222	17992.97
783.556	17995.69
783.889	17864.16
784.223	17742.36
784.557	17705.07
784.89	17727.22
785.224	17695.13
785.557	17566.32
785.891	17516.6
786.224	17459.2
786.558	17543.49
786.891	17340.11
787.224	17188.93
787.557	17206.55
787.891	17148.25
788.224	17040.46
788.557	17084.3
788.89	16974.24
789.223	17049.5
789.556	16882.49
789.888	16765.66
790.221	16744.42
790.554	16642.95
790.887	16793.46
791.219	16619.22
791.552	16459.45
791.884	16462.39
792.217	16359.34
792.549	16317.09
792.882	16305.11
793.214	16292
793.546	16186.24
793.879	16134.49
794.211	15969.98
794.543	16097.2
794.875	15917.1
795.207	16055.85
795.539	15951.9
795.871	15905.34
796.203	15753.71
796.535	15668.74
796.867	15618.8
797.198	15673.49
797.53	15545.35
797.862	15442.76
798.193	15515.75
798.525	15448.63
798.856	15380.84
799.188	15210.67
799.519	15205.02
799.85	15070.34
800.182	15170.22
800.513	15068.53
800.844	14906.5
801.175	15116.66
801.506	14977.91
801.837	14974.97
802.168	14926.16
802.499	14795.54
802.83	14801.19
803.161	14654.08
803.491	14742.89
803.822	14638.49
804.153	14630.58
804.483	14414.31
804.814	14441.2
805.145	14473.52
805.475	14367.53
805.805	14387.42
806.136	14398.72
806.466	14355.33
806.796	14304.26
807.126	14109.46
807.457	14170.25
807.787	14160.08
808.117	14108.78
808.447	14064.94
808.777	14110.59
809.107	14007.54
809.436	13970.03
809.766	13959.63
810.096	13948.79
810.426	13801.22
810.755	13929.35
811.085	13808.45
811.414	13746.98
811.744	13672.86
812.073	13676.25
812.403	13619.75
812.732	13614.78
813.061	13543.6
813.39	13469.25
813.719	13401.68
814.049	13479.87
814.378	13442.81
814.707	13359.42
815.036	13360.1
815.365	13339.54
815.693	13118.75
816.022	13255.02
816.351	13176.6
816.68	13109.71
817.008	13159.88
817.337	12998.98
817.665	13043.95
817.994	12959.66
818.322	12981.13
818.651	12853.45
818.979	12930.96
819.307	12940.45
819.636	12841.92
819.964	12732.55
820.292	12847.8
820.62	12865.65
820.948	12799.44
821.276	12800.57
821.604	12696.39
821.932	12790.4
822.259	12763.05
822.587	12701.36
822.915	12684.64
823.243	12838.76
823.57	12728.93
823.898	12686.67
824.225	12634.02
824.553	12673.57
824.88	12714.02
825.207	12699.33
825.535	12659.78
825.862	12674.24
826.189	12657.07
826.516	12739.1
826.843	12779.1
827.17	12695.26
827.497	12705.65
827.824	12695.94
828.151	12763.51
828.478	12678.31
828.805	12796.27
829.131	12770.74
829.458	12647.35
829.785	12605.77
830.111	12647.35
830.438	12620.46
830.764	12661.81
831.09	12599.22
831.417	12578.2
831.743	12685.99
832.069	12704.07
832.395	12566.22
832.722	12655.26
833.048	12579.56
833.374	12581.59
833.7	12502.5
834.026	12451.65
834.351	12475.83
834.677	12559.22
835.003	12539.78
835.329	12490.52
835.654	12462.27
835.98	12386.12
836.306	12476.96
836.631	12363.29
836.956	12430.63
837.282	12464.76
837.607	12398.09
837.932	12314.25
838.258	12263.41
838.583	12288.26
838.908	12227.25
839.233	12307.02
839.558	12284.2
839.883	12176.85
840.208	12151.32
840.533	12137.53
840.858	12156.52
841.182	12110.87
841.507	12166.01
841.832	12007.14
842.156	12044.43
842.481	12040.14
842.805	12000.36
843.13	11948.61
843.454	11961.72
843.778	11950.87
844.103	11853.02
844.427	11820.71
844.751	11803.08
845.075	11762.63
845.399	11693.93
845.723	11729.41
846.047	11758.56
846.371	11663.65
846.695	11589.3
847.019	11561.05
847.343	11508.17
847.666	11407.84
847.99	11420.26
848.313	11353.6
848.637	11293.26
848.96	11239.25
849.284	11221.4
849.607	11149.76
849.931	11163.1
850.254	11040.61
850.577	11048.98
850.9	10925.59
851.223	10940.5
851.546	10902.31
851.869	10818.7
852.192	10861.64
852.515	10724.46
852.838	10677.23
853.161	10731.47
853.483	10692.15
853.806	10615.77
854.129	10590
854.451	10569.21
854.774	10597.91
855.096	10472.27
855.419	10481.08
855.741	10403.12
856.063	10357.02
856.385	10320.86
856.708	10350.24
857.03	10280.18
857.352	10295.77
857.674	10167.42
857.996	10230.01
858.318	10070.47
858.64	10164.03
858.961	10130.13
859.283	10008.1
859.605	10032.5
859.926	10081.09
860.248	10044.03
860.57	9914.54
860.891	9955.44
861.212	9950.92
861.534	9969.91
861.855	9896.46
862.176	9920.42
862.498	9844.71
862.819	9905.28
863.14	9776.92
863.461	9827.31
863.782	9764.26
864.103	9724.49
864.424	9712.51
864.745	9742.34
865.065	9678.84
865.386	9615.79
865.707	9630.71
866.027	9563.59
866.348	9647.2
866.668	9582.12
866.989	9611.72
867.309	9490.6
867.63	9517.49
867.95	9545.51
868.27	9468.23
868.59	9499.64
868.91	9477.04
869.23	9446.76
869.55	9432.07
869.87	9466.64
870.19	9350.04
870.51	9429.58
870.83	9351.17
871.15	9304.61
871.469	9395.46
871.789	9331.05
872.109	9366.53
872.428	9277.5
872.748	9300.09
873.067	9290.15
873.386	9259.64
873.706	9266.42
874.025	9195.01
874.344	9221.23
874.663	9175.8
874.982	9252.86
875.301	9176.48
875.62	9157.5
875.939	9098.74
876.258	9155.24
876.577	9063.49
876.896	9075.92
877.214	9057.39
877.533	9052.64
877.852	9029.59
878.17	9077.05
878.489	9025.98
878.807	8933.78
879.125	8990.05
879.444	8962.02
879.762	8915.7
880.08	8938.52
880.398	8908.01
880.716	8870.05
881.034	8901.69
881.352	8903.27
881.67	8805.87
881.988	8835.93
882.306	8804.74
882.624	8766.1
882.941	8786.66
883.259	8722.03
883.577	8751.41
883.894	8711.41
884.212	8679.32
884.529	8677.74
884.846	8644.07
885.164	8627.8
885.481	8623.95
885.798	8612.65
886.115	8509.83
886.432	8583.5
886.75	8538.53
887.067	8488.36
887.383	8494.47
887.7	8509.61
888.017	8430.29
888.334	8537.85
888.651	8423.28
888.967	8401.81
889.284	8330.18
889.6	8340.57
889.917	8235.26
890.233	8244.75
890.55	8237.75
890.866	8272.1
891.182	8284.3
891.498	8224.87
891.815	8200.91
892.131	8082.05
892.447	8145.77
892.763	8172.21
893.079	8137.64
893.395	8020.35
893.71	8056.29
894.026	7962.5
894.342	8018.32
894.657	7897.19
894.973	7947.59
895.289	7939.68
895.604	7919.34
895.92	7867.36
896.235	7806.57
896.55	7804.99
896.865	7848.61
897.181	7749.4
897.496	7835.05
897.811	7691.78
898.126	7677.76
898.441	7645.22
898.756	7646.13
899.071	7595.51
899.386	7553.25
899.7	7544.43
900.015	7460.14
900.33	7462.63
900.644	7506.47
900.959	7457.66
901.273	7430.09
901.588	7359.35
901.902	7367.04
902.216	7352.58
902.531	7277.1
902.845	7280.94
903.159	7196.42
903.473	7175.86
903.787	7156.2
904.101	7096.99
904.415	7136.31
904.729	7132.92
905.042	7112.81
905.356	7095.86
905.67	6998.23
905.984	6986.03
906.297	6992.13
906.611	7027.61
906.924	6985.81
907.237	6913.04
907.551	6916.43
907.864	6870.55
908.177	6870.33
908.491	6887.28
908.804	6780.16
909.117	6752.14
909.43	6721.63
909.743	6689.77
910.056	6724.57
910.368	6671.01
910.681	6640.73
910.994	6532.71
911.307	6546.49
911.619	6488.64
911.932	6517.79
912.244	6446.16
912.557	6521.86
912.869	6461.98
913.181	6403.22
913.494	6379.04
913.806	6382.43
914.118	6311.7
914.43	6284.58
914.742	6302.21
915.054	6235.99
915.366	6259.04
915.678	6228.99
915.99	6172.72
916.302	6134.3
916.613	6137.69
916.925	6127.75
917.236	6085.26
917.548	6049.33
917.859	6030.35
918.171	5944.93
918.482	5946.74
918.794	5963.23
919.105	5950.58
919.416	5887.08
919.727	5862.67
920.038	5883.24
920.349	5860.64
920.66	5830.81
920.971	5779.06
921.282	5760.3
921.593	5718.95
921.903	5662.45
922.214	5697.25
922.525	5680.3
922.835	5644.15
923.146	5597.59
923.456	5586.75
923.767	5592.85
924.077	5578.84
924.387	5526.41
924.697	5481.66
925.008	5511.04
925.318	5459.29
925.628	5435.56
925.938	5448.22
926.248	5400.99
926.558	5378.16
926.867	5341.33
927.177	5290.48
927.487	5312.63
927.796	5233.53
928.106	5242.35
928.416	5280.54
928.725	5316.47
929.034	5199.19
929.344	5207.32
929.653	5175.23
929.962	5092.07
930.271	5144.27
930.581	5082.58
930.89	5091.62
931.199	5066.31
931.508	5038.96
931.817	5035.35
932.125	4986.76
932.434	4972.07
932.743	4925.97
933.051	4884.84
933.36	4882.13
933.669	4834.9
933.977	4820.44
934.286	4856.37
934.594	4806.43
934.902	4742.7
935.21	4765.98
935.519	4755.36
935.827	4729.14
936.135	4720.33
936.443	4711.51
936.751	4644.4
937.059	4640.1
937.367	4614.57
937.674	4656.6
937.982	4608.47
938.29	4545.19
938.597	4557.39
938.905	4530.5
939.213	4499.32
939.52	4474.01
939.827	4476.94
940.135	4480.79
940.442	4439.43
940.749	4438.53
941.056	4433.33
941.363	4342.94
941.67	4365.99
941.977	4326.21
942.284	4279.66
942.591	4263.84
942.898	4327.57
943.205	4241.24
943.511	4217.52
943.818	4236.5
944.125	4204.41
944.431	4220.45
944.738	4188.82
945.044	4184.07
945.35	4170.51
945.657	4122.15
945.963	4139.33
946.269	4086.45
946.575	4025.43
946.881	4056.39
947.187	4093.68
947.493	4034.7
947.799	4022.49
948.105	4000.57
948.41	3997.86
948.716	3998.54
949.022	3914.02
949.327	3924.87
949.633	3859.79
949.938	3842.61
950.244	3874.93
950.549	3876.28
950.854	3841.93
951.16	3824.76
951.465	3820.24
951.77	3816.4
952.075	3782.73
952.38	3758.32
952.685	3750.86
952.99	3704.31
953.294	3719.68
953.599	3691.88
953.904	3661.82
954.209	3642.62
954.513	3667.25
954.818	3653.69
955.122	3643.97
955.426	3586.35
955.731	3607.81
956.035	3568.04
956.339	3601.71
956.643	3555.16
956.948	3501.15
957.252	3529.17
957.556	3517.42
957.86	3495.5
958.163	3495.05
958.467	3483.52
958.771	3451.21
959.075	3426.8
959.378	3429.06
959.682	3410.31
959.985	3409.4
960.289	3380.48
960.592	3351.32
960.896	3316.75
961.199	3306.35
961.502	3334.6
961.805	3307.94
962.108	3265.45
962.411	3269.29
962.714	3248.28
963.017	3257.32
963.32	3239.46
963.623	3197.66
963.926	3198.33
964.228	3183.42
964.531	3173.93
964.833	3163.08
965.136	3142.52
965.438	3132.57
965.741	3109.52
966.043	3126.92
966.345	3103.42
966.648	3066.81
966.95	3080.82
967.252	3047.83
967.554	3050.32
967.856	3010.54
968.158	3019.58
968.46	3014.38
968.761	2972.35
969.063	2972.8
969.365	2958.57
969.666	2921.05
969.968	2877.21
970.269	2917.89
970.571	2905.46
970.872	2908.4
971.174	2877.89
971.475	2861.39
971.776	2854.84
972.077	2886.03
972.378	2857.1
972.679	2813.26
972.98	2797.89
973.281	2815.07
973.582	2811.68
973.883	2793.15
974.183	2753.6
974.484	2759.93
974.785	2722.87
975.085	2735.07
975.386	2738.23
975.686	2688.06
975.986	2681.29
976.287	2702.08
976.587	2687.61
976.887	2667.5
977.187	2669.53
977.487	2628.63
977.787	2619.82
978.087	2623.43
978.387	2622.08
978.687	2623.21
978.987	2548.41
979.286	2572.59
979.586	2559.93
979.885	2528.75
980.185	2510.44
980.484	2519.48
980.784	2475.87
981.083	2486.04
981.382	2509.54
981.682	2498.47
981.981	2478.58
982.28	2446.04
982.579	2447.85
982.878	2410.78
983.177	2437.9
983.475	2443.55
983.774	2392.71
984.073	2375.3
984.372	2387.96
984.67	2362.88
984.969	2345.93
985.267	2364.46
985.566	2354.74
985.864	2332.82
986.162	2337.57
986.461	2304.35
986.759	2315.65
987.057	2278.13
987.355	2268.41
987.653	2252.6
987.951	2243.56
988.249	2253.95
988.547	2228.87
988.844	2226.16
989.142	2218.7
989.44	2196.55
989.737	2215.08
990.035	2187.74
990.332	2155.88
990.63	2154.75
990.927	2175.76
991.224	2172.15
991.521	2126.05
991.819	2113.84
992.116	2121.07
992.413	2108.87
992.71	2123.56
993.006	2074.75
993.303	2105.26
993.6	2078.82
993.897	2083.79
994.193	2067.52
994.49	2025.94
994.787	2032.04
995.083	2004.24
995.379	2010.12
995.676	2027.97
995.972	2001.98
996.268	1997.91
996.565	1976.67
996.861	2005.37
997.157	1931.47
997.453	1953.62
997.749	1986.39
998.044	1913.85
998.34	1921.31
998.636	1921.76
998.932	1918.59
999.227	1881.76
999.523	1865.49
999.818	1862.55
1000.114	1834.08
1000.409	1864.81
1000.704	1850.12
1001	1860.74
1001.295	1845.15
1001.59	1799.73
1001.885	1839.95
1002.18	1793.4
1002.475	1801.99
1002.77	1816
1003.065	1782.78
1003.359	1775.55
1003.654	1751.37
1003.949	1736
1004.243	1738.71
1004.538	1737.36
1004.832	1705.94
1005.127	1732.84
1005.421	1703.23
1005.715	1702.33
1006.009	1685.61
1006.304	1658.26
1006.598	1658.04
1006.892	1672.95
1007.186	1639.05
1007.48	1645.15
1007.773	1658.94
1008.067	1616.45
1008.361	1593.63
1008.655	1573.52
1008.948	1600.41
1009.242	1579.17
1009.535	1562.67
1009.829	1564.03
1010.122	1554.76
1010.415	1558.6
1010.708	1526.51
1011.001	1512.73
1011.295	1504.37
1011.588	1520.86
1011.881	1528.32
1012.173	1542.11
1012.466	1495.33
1012.759	1481.77
1013.052	1478.38
1013.344	1458.49
1013.637	1442
1013.93	1459.17
1014.222	1455.78
1014.514	1457.59
1014.807	1446.29
1015.099	1421.88
1015.391	1397.25
1015.683	1418.27
1015.976	1394.77
1016.268	1393.64
1016.56	1399.29
1016.851	1370.36
1017.143	1382.56
1017.435	1355.44
1017.727	1327.42
1018.018	1323.58
1018.31	1330.81
1018.602	1339.4
1018.893	1304.6
1019.185	1308.89
1019.476	1308.89
1019.767	1296.46
1020.058	1277.71
1020.35	1277.03
1020.641	1273.64
1020.932	1249.91
1021.223	1263.47
1021.514	1236.58
1021.804	1243.58
1022.095	1217.14
1022.386	1223.92
1022.677	1217.6
1022.967	1202.68
1023.258	1186.41
1023.548	1194.32
1023.839	1186.86
1024.129	1177.37
1024.419	1163.59
1024.709	1138.28
1025	1145.05
1025.29	1147.99
1025.58	1130.59
1025.87	1126.98
1026.16	1122.23
1026.449	1139.86
1026.739	1131.95
1027.029	1077.26
1027.319	1120.2
1027.608	1090.14
1027.898	1110.93
1028.187	1088.33
1028.477	1042.46
1028.766	1064.83
1029.055	1070.48
1029.344	1067.99
1029.634	1060.31
1029.923	1014.89
1030.212	1021.44
1030.501	1014.21
1030.79	1039.97
1031.078	1016.24
1031.367	994.1
1031.656	1002.69
1031.945	997.04
1032.233	964.49
1032.522	991.16
1032.81	987.32
1033.099	957.26
1033.387	967.88
1033.675	979.18
1033.963	957.04
1034.251	944.38
1034.54	918.62
1034.828	932.63
1035.116	920.65
1035.403	914.55
1035.691	926.76
1035.979	888.56
1036.267	895.34
1036.554	919.3
1036.842	902.58
1037.129	867.1
1037.417	882.91
1037.704	880.2
1037.992	869.81
1038.279	881.56
1038.566	880.2
1038.853	880.2
1039.14	880.2
