Data from hue_140_FLMS001491_00060.txt Node
Date: Tue Feb 07 16:56:08 GMT 2017
User: dcchb
Spectrometer: FLMS00149
Trigger mode: 0
Integration Time (sec): 2.000000E-2
Scans to average: 10
Electric dark correction enabled: true
Nonlinearity correction enabled: false
Boxcar width: 0
XAxis mode: Wavelengths
Number of Pixels in Spectrum: 2048
>>>>>Begin Spectral Data<<<<<
341.393	-28.36
341.776	-28.36
342.16	-28.36
342.543	-53.9
342.927	-67
343.31	-50.28
343.693	-81.24
344.077	-55.03
344.46	-67.23
344.843	-71.52
345.226	-65.2
345.61	-28.59
345.993	-27.46
346.376	8.25
346.759	7.57
347.142	23.62
347.525	35.59
347.908	67.46
348.291	96.61
348.674	93.67
349.057	113.78
349.44	121.69
349.823	161.92
350.206	170.5
350.588	180
350.971	217.28
351.354	221.58
351.737	225.64
352.119	263.38
352.502	243.5
352.884	271.52
353.267	277.39
353.65	272.42
354.032	298.18
354.414	314.46
354.797	308.58
355.179	339.09
355.562	329.6
355.944	352.87
356.326	323.49
356.709	327.11
357.091	332.53
357.473	323.04
357.855	324.85
358.238	346.32
358.62	348.35
359.002	339.09
359.384	335.25
359.766	351.29
360.148	332.31
360.53	342.7
360.912	340.67
361.294	347
361.676	328.24
362.057	339.99
362.439	339.99
362.821	331.86
363.203	333.21
363.584	322.14
363.966	320.78
364.348	329.6
364.729	322.59
365.111	314.46
365.493	309.71
365.874	339.54
366.256	304.29
366.637	326.66
367.019	298.41
367.4	313.55
367.781	317.17
368.163	332.99
368.544	293.44
368.925	322.59
369.306	332.53
369.688	326.66
370.069	298.86
370.45	331.18
370.831	342.02
371.212	305.64
371.593	311.52
371.974	315.36
372.355	306.77
372.736	318.75
373.117	311.97
373.498	336.83
373.879	317.39
374.26	324.85
374.641	323.95
375.021	319.88
375.402	323.27
375.783	329.82
376.163	320.56
376.544	349.26
376.925	318.97
377.305	317.39
377.686	342.25
378.066	335.7
378.447	326.21
378.827	342.7
379.208	334.57
379.588	329.14
379.968	313.1
380.349	339.09
380.729	338.86
381.109	336.38
381.489	342.48
381.87	341.57
382.25	349.03
382.63	360.1
383.01	326.21
383.39	352.42
383.77	340.67
384.15	343.61
384.53	355.58
384.91	345.19
385.29	352.19
385.67	330.05
386.049	354.23
386.429	349.93
386.809	346.09
387.189	348.13
387.568	369.14
387.948	353.78
388.328	351.06
388.707	342.25
389.087	357.84
389.466	373.21
389.846	367.33
390.225	359.43
390.605	388.8
390.984	360.78
391.363	358.07
391.743	384.06
392.122	372.98
392.501	383.61
392.881	384.74
393.26	389.26
393.639	379.31
394.018	384.51
394.397	371.63
394.776	382.93
395.155	383.15
395.534	376.37
395.913	372.76
396.292	378.86
396.671	389.48
397.05	403.49
397.429	374.79
397.808	387.9
398.186	405.3
398.565	379.09
398.944	392.65
399.323	404.85
399.701	382.93
400.08	419.31
400.458	417.73
400.837	401.68
401.215	425.64
401.594	426.77
401.972	406.2
402.351	417.05
402.729	415.02
403.107	419.99
403.486	415.92
403.864	408.01
404.242	443.27
404.62	428.35
404.999	410.5
405.377	432.19
405.755	443.49
406.133	426.54
406.511	446.65
406.889	442.81
407.267	427.9
407.645	460.67
408.023	461.34
408.401	455.24
408.779	436.94
409.156	440.55
409.534	438.97
409.912	443.94
410.29	468.8
410.667	476.48
411.045	492.3
411.422	473.55
411.8	472.19
412.178	493.43
412.555	483.04
412.933	488.91
413.31	490.72
413.687	488.01
414.065	486.65
414.442	490.27
414.819	492.76
415.197	488.46
415.574	500.89
415.951	527.1
416.328	495.47
416.705	517.84
417.082	520.1
417.46	529.82
417.837	511.29
418.214	522.81
418.591	543.6
418.967	541.57
419.344	552.41
419.721	545.41
420.098	531.85
420.475	550.83
420.852	560.1
421.228	546.99
421.605	565.97
421.982	557.39
422.358	567.33
422.735	576.82
423.111	599.65
423.488	578.18
423.864	563.04
424.241	600.32
424.617	597.39
424.994	597.39
425.37	582.92
425.746	595.35
426.123	620.44
426.499	596.71
426.875	609.59
427.251	616.14
427.627	611.85
428.003	636.03
428.379	613.66
428.756	616.82
429.132	643.03
429.507	669.7
429.883	635.35
430.259	644.16
430.635	657.27
431.011	661.34
431.387	670.6
431.763	671.28
432.138	691.39
432.514	685.07
432.89	693.65
433.265	711.05
433.641	735.69
434.016	714.44
434.392	707.89
434.767	742.47
435.143	760.54
435.518	722.58
435.894	748.34
436.269	728.46
436.644	738.4
437.02	768
437.395	747.89
437.77	779.75
438.145	768.45
438.52	803.03
438.895	792.18
439.271	796.25
439.646	821.56
440.021	833.99
440.395	801.67
440.77	806.87
441.145	826.53
441.52	864.05
441.895	854.78
442.27	850.71
442.645	838.06
443.019	853.88
443.394	834.89
443.769	880.32
444.143	848
444.518	903.59
444.892	903.59
445.267	891.16
445.641	903.59
446.016	888.45
446.39	913.54
446.764	885.51
447.139	920.99
447.513	899.3
447.887	936.13
448.262	920.99
448.636	937.94
449.01	958.05
449.384	969.81
449.758	961.44
450.132	955.57
450.506	980.2
450.88	980.2
451.254	988.56
451.628	984.95
452.002	1026.75
452.376	1002.12
452.75	1012.06
453.123	1037.15
453.497	994.21
453.871	1043.25
454.244	1053.87
454.618	1050.25
454.992	1063.59
455.365	1097.03
455.739	1096.81
456.112	1134.09
456.486	1134.55
456.859	1121.67
457.232	1152.4
457.606	1153.53
457.979	1153.98
458.352	1193.98
458.725	1214.54
459.099	1242.34
459.472	1223.13
459.845	1238.72
460.218	1255.22
460.591	1262.9
460.964	1298.61
461.337	1298.16
461.71	1348.1
462.083	1373.64
462.456	1350.59
462.829	1360.53
463.201	1382.22
463.574	1358.95
463.947	1417.93
464.32	1469.45
464.692	1456.35
465.065	1501.09
465.438	1492.28
465.81	1504.25
466.183	1522.56
466.555	1566.63
466.928	1573.4
467.3	1566.85
467.672	1601.2
468.045	1636
468.417	1668.09
468.789	1694.98
469.161	1709.67
469.534	1725.27
469.906	1812.72
470.278	1814.3
470.65	1815.66
471.022	1834.87
471.394	1899.72
471.766	1926.62
472.138	1925.03
472.51	2036.22
472.882	2083
473.253	2094.07
473.625	2139.49
473.997	2209.32
474.369	2228.08
474.74	2266.04
475.112	2322.76
475.484	2354.85
475.855	2439.14
476.227	2492.48
476.598	2538.35
476.97	2590.1
477.341	2677.1
477.713	2714.39
478.084	2768.63
478.455	2874.39
478.827	2892.69
479.198	3005.68
479.569	3065.34
479.94	3212.91
480.311	3240.03
480.682	3380.36
481.053	3473.47
481.424	3546.69
481.795	3632.33
482.166	3771.09
482.537	3810.41
482.908	3879.33
483.279	3957.52
483.65	4102.83
484.021	4291.53
484.391	4320.23
484.762	4421.24
485.133	4518.86
485.503	4607.22
485.874	4759.99
486.244	4910.27
486.615	4993.2
486.985	5122.46
487.356	5248.11
487.726	5365.62
488.097	5509.8
488.467	5583.92
488.837	5730.13
489.207	5901.65
489.578	6053.97
489.948	6192.72
490.318	6300.29
490.688	6386.61
491.058	6612.59
491.428	6700.28
491.798	6771.01
492.168	7008.74
492.538	7099.36
492.908	7225.91
493.278	7346.36
493.648	7417.32
494.017	7646.24
494.387	7787.48
494.757	7886.91
495.126	8097.53
495.496	8155.6
495.866	8243.96
496.235	8391.3
496.605	8556.72
496.974	8661.35
497.344	8847.34
497.713	8901.57
498.082	8957.39
498.452	9191.28
498.821	9253.65
499.19	9290.72
499.559	9441.22
499.928	9539.98
500.298	9697.26
500.667	9790.14
501.036	9775.9
501.405	9967.76
501.774	9978.83
502.143	10109.23
502.512	10247.98
502.88	10358.26
503.249	10391.03
503.618	10499.5
503.987	10600.51
504.356	10728.87
504.724	10759.38
505.093	10869.66
505.462	10847.29
505.83	11009.09
506.199	11132.48
506.567	11285.69
506.936	11237.33
507.304	11425.12
507.672	11450.21
508.041	11519.58
508.409	11587.83
508.777	11764.78
509.145	11812.68
509.514	11846.81
509.882	11935.84
510.25	11921.38
510.618	12016.07
510.986	12045.22
511.354	12183.97
511.722	12225.55
512.09	12310.75
512.458	12289.73
512.826	12475.72
513.193	12479.11
513.561	12492.44
513.929	12511.2
514.297	12642.27
514.664	12671.87
515.032	12714.35
515.4	12844.3
515.767	12803.39
516.135	12870.06
516.502	12842.26
516.869	12962.03
517.237	13007
517.604	12971.07
517.972	13027.34
518.339	13114.57
518.706	13092.42
519.073	13142.37
519.44	13222.36
519.808	13261.01
520.175	13263.72
520.542	13317.28
520.909	13425.97
521.276	13368.12
521.643	13497.84
522.009	13504.62
522.376	13568.57
522.743	13569.93
523.11	13636.59
523.477	13776.47
523.843	13722.69
524.21	13774.89
524.577	13870.26
524.943	13809.02
525.31	13854.66
525.676	13939.63
526.043	13993.19
526.409	14015.56
526.776	14047.88
527.142	14045.17
527.508	14126.07
527.874	14150.25
528.241	14135.56
528.607	14195.45
528.973	14238.83
529.339	14160.19
529.705	14305.5
530.071	14329.23
530.437	14295.56
530.803	14315.44
531.169	14364.48
531.535	14316.57
531.901	14243.35
532.267	14308.44
532.632	14273.86
532.998	14264.14
533.364	14426.17
533.73	14314.54
534.095	14369.23
534.461	14274.09
534.826	14356.12
535.192	14348.66
535.557	14322.22
535.923	14263.47
536.288	14297.14
536.653	14282.45
537.019	14208.55
537.384	14280.64
537.749	14183.92
538.114	14172.4
538.479	14146.41
538.845	14209
539.21	14074.77
539.575	14013.53
539.94	14001.78
540.305	14046.75
540.67	14018.05
541.034	13986.19
541.399	14022.12
541.764	13967.2
542.129	13916.81
542.494	13906.87
542.858	13937.83
543.223	13895.57
543.587	13963.81
543.952	13780.54
544.316	13820.77
544.681	13698.74
545.045	13712.97
545.41	13706.19
545.774	13681.56
546.138	13638.62
546.503	13579.42
546.867	13623.48
547.231	13598.85
547.595	13560.43
547.959	13513.66
548.324	13464.17
548.688	13414.9
549.052	13454
549.416	13483.83
549.779	13449.93
550.143	13377.61
550.507	13405.41
550.871	13328.12
551.235	13302.36
551.599	13325.86
551.962	13300.55
552.326	13248.8
552.689	13261.46
553.053	13233.44
553.417	13196.38
553.78	13259.43
554.143	13091.52
554.507	13142.14
554.87	13110.95
555.234	13172.2
555.597	13097.17
555.96	13042.93
556.323	13174
556.686	13072.31
557.05	13120.22
557.413	13054.46
557.776	13083.84
558.139	13121.58
558.502	13082.03
558.865	13049.04
559.228	13128.58
559.59	13133.78
559.953	13098.07
560.316	13238.86
560.679	13062.14
561.041	13148.92
561.404	13179.88
561.767	13157.96
562.129	13126.1
562.492	13160.9
562.854	13082.03
563.217	13100.11
563.579	13171.97
563.941	13171.07
564.304	13160.9
564.666	13269.82
565.028	13209.26
565.39	13214.45
565.753	13313.44
566.115	13310.5
566.477	13320.44
566.839	13364.73
567.201	13311.18
567.563	13383.94
567.925	13489.7
568.287	13428.46
568.648	13374.9
569.01	13386.2
569.372	13477.95
569.734	13363.38
570.095	13443.15
570.457	13488.57
570.819	13476.82
571.18	13448.57
571.542	13562.02
571.903	13580.32
572.265	13593.65
572.626	13584.16
572.987	13558.85
573.349	13599.98
573.71	13621.68
574.071	13646.31
574.432	13709.36
574.794	13722.01
575.155	13651.05
575.516	13569.25
575.877	13704.39
576.238	13725.63
576.599	13749.36
576.96	13733.99
577.32	13747.32
577.681	13666.87
578.042	13727.66
578.403	13709.81
578.763	13705.97
579.124	13781.45
579.485	13741.45
579.845	13848.79
580.206	13692.41
580.566	13777.83
580.927	13732.86
581.287	13801.78
581.648	13764.72
582.008	13755.91
582.368	13772.86
582.728	13854.21
583.089	13762.69
583.449	13799.98
583.809	13671.17
584.169	13746.19
584.529	13662.35
584.889	13803.37
585.249	13659.41
585.609	13607.21
585.969	13678.85
586.329	13718.62
586.688	13697.15
587.048	13705.52
587.408	13590.72
587.768	13704.61
588.127	13673.43
588.487	13585.97
588.846	13623.94
589.206	13530.6
589.565	13578.96
589.925	13684.72
590.284	13690.15
590.643	13637.72
591.003	13585.29
591.362	13612.41
591.721	13554.56
592.08	13518.18
592.44	13642.47
592.799	13702.58
593.158	13544.16
593.517	13502.58
593.876	13628.46
594.235	13427.56
594.593	13515.69
594.952	13512.53
595.311	13475.46
595.67	13557.95
596.029	13617.38
596.387	13565.63
596.746	13562.47
597.104	13514.79
597.463	13416.94
597.822	13571.96
598.18	13504.39
598.538	13511.62
598.897	13541.9
599.255	13510.72
599.613	13583.94
599.972	13500.55
600.33	13566.54
600.688	13620.77
601.046	13559.3
601.404	13566.08
601.762	13579.42
602.12	13507.1
602.478	13562.24
602.836	13500.55
603.194	13507.1
603.552	13556.59
603.91	13499.87
604.268	13494.67
604.625	13454.67
604.983	13462.36
605.341	13481.79
605.698	13590.26
606.056	13573.54
606.413	13543.94
606.771	13569.25
607.128	13554.11
607.485	13498.06
607.843	13499.65
608.2	13633.43
608.557	13647.89
608.914	13569.47
609.272	13639.98
609.629	13659.64
609.986	13680.88
610.343	13581.9
610.7	13683.6
611.057	13665.74
611.414	13745.51
611.771	13644.73
612.127	13717.94
612.484	13722.92
612.841	13828.45
613.198	13745.97
613.554	13816.7
613.911	13787.77
614.267	13851.73
614.624	13753.65
614.98	13791.84
615.337	13927.2
615.693	13823.48
616.05	13816.92
616.406	13977.82
616.762	13799.75
617.118	13769.02
617.475	13835.23
617.831	13929.01
618.187	13846.3
618.543	13908.9
618.899	13974.66
619.255	13897.6
619.611	13939.18
619.967	13967.43
620.323	13965.85
620.678	13901.44
621.034	13890.37
621.39	13930.82
621.746	13873.65
622.101	14006.07
622.457	13988.67
622.812	13939.63
623.168	13982.57
623.523	14012.17
623.879	14035.68
624.234	13888.11
624.589	14004.04
624.945	14021.44
625.3	14065.51
625.655	13956.81
626.01	13940.09
626.365	14009.24
626.72	13923.36
627.075	13990.48
627.43	13935.57
627.785	13987.99
628.14	13979.86
628.495	14003.13
628.85	13962.91
629.205	13894.21
629.559	13896.02
629.914	13880.88
630.269	13887.66
630.623	13935.11
630.978	13844.27
631.332	13925.17
631.687	13987.77
632.041	13872.74
632.396	13954.1
632.75	13817.38
633.104	13791.61
633.459	13838.17
633.813	13714.55
634.167	13750.49
634.521	13692.41
634.875	13758.17
635.229	13761.11
635.583	13586.65
635.937	13597.27
636.291	13654.22
636.645	13667.32
636.999	13591.39
637.352	13557.72
637.706	13575.58
638.06	13529.93
638.413	13560.66
638.767	13530.15
639.121	13461.45
639.474	13429.14
639.828	13544.62
640.181	13539.19
640.534	13461.91
640.888	13448.12
641.241	13355.92
641.594	13486.99
641.947	13437.5
642.301	13413.32
642.654	13365.41
643.007	13449.48
643.36	13410.83
643.713	13424.39
644.066	13468.91
644.419	13309.37
644.771	13289.26
645.124	13162.93
645.477	13092.2
645.83	13080.9
646.182	12945.08
646.535	12938.76
646.888	12974.01
647.24	12814.69
647.593	12985.08
647.945	12865.76
648.298	12787.35
648.65	12814.01
649.002	12804.52
649.355	12925.65
649.707	12914.8
650.059	12990.05
650.411	13141.46
650.763	13101.46
651.115	13274.57
651.467	13158.86
651.819	13182.59
652.171	13208.13
652.523	13249.48
652.875	13198.86
653.227	13068.47
653.578	13248.58
653.93	13300.1
654.282	13076.15
654.633	13096.04
654.985	13224.85
655.337	13229.82
655.688	13083.38
656.039	13180.11
656.391	13127.23
656.742	13146.66
657.094	13098.53
657.445	13198.41
657.796	13197.73
658.147	13165.64
658.498	13127.45
658.849	13206.77
659.2	13181.01
659.551	13097.85
659.902	13211.07
660.253	13150.28
660.604	13186.21
660.955	13165.87
661.306	13137.39
661.656	13164.51
662.007	13170.39
662.358	13169.26
662.708	13171.52
663.059	13116.15
663.409	13134.23
663.76	13179.88
664.11	13155.93
664.461	13098.98
664.811	13232.53
665.161	13235.7
665.511	13107.56
665.862	13210.84
666.212	13225.98
666.562	13233.66
666.912	13191.18
667.262	13294.45
667.612	13137.17
667.962	13201.57
668.312	13143.95
668.662	13255.81
669.011	13214
669.361	13171.74
669.711	13239.09
670.06	13162.48
670.41	13094.68
670.76	13104.4
671.109	13187.79
671.459	13138.07
671.808	13076.83
672.157	13176.26
672.507	13002.48
672.856	13072.09
673.205	13078.64
673.554	13123.38
673.904	13013.78
674.253	13092.2
674.602	13095.14
674.951	12819.44
675.3	12793.67
675.649	13037.51
675.998	13011.3
676.346	13025.08
676.695	13060.33
677.044	12941.47
677.393	12971.98
677.741	12898.76
678.09	12935.59
678.438	12868.48
678.787	12972.43
679.135	12922.26
679.484	12903.28
679.832	12923.84
680.181	12768.59
680.529	12818.53
680.877	12761.81
681.225	12782.83
681.573	12891.53
681.922	12655.6
682.27	12655.83
682.618	12709.38
682.966	12656.73
683.314	12649.05
683.661	12685.66
684.009	12504.19
684.357	12470.52
684.705	12492.67
685.053	12470.52
685.4	12465.1
685.748	12370.41
686.095	12356.85
686.443	12337.87
686.79	12317.3
687.138	12456.73
687.485	12329.96
687.832	12332.9
688.18	12273.91
688.527	12215.16
688.874	12205.22
689.221	12154.6
689.568	12151.21
689.915	12004.77
690.262	12107.37
690.609	12063.75
690.956	12031.44
691.303	11990.98
691.65	11911.44
691.997	11908.5
692.344	11768.39
692.69	11784.44
693.037	11830.76
693.383	11621.73
693.73	11748.73
694.077	11699.92
694.423	11607.27
694.769	11621.5
695.116	11592.8
695.462	11492.01
695.808	11409.76
696.155	11478.68
696.501	11414.28
696.847	11384.67
697.193	11281.4
697.539	11295.86
697.885	11249.31
698.231	11177.9
698.577	11290.66
698.923	11231.23
699.269	11115.75
699.614	11009.54
699.96	11054.96
700.306	11031.69
700.651	10950.33
700.997	10961.41
701.342	10897
701.688	10871.47
702.033	10800.73
702.379	10780.62
702.724	10820.17
703.069	10809.32
703.415	10679.38
703.76	10710.57
704.105	10623.56
704.45	10664.47
704.795	10558.25
705.14	10533.62
705.485	10530.68
705.83	10437.35
706.175	10421.76
706.52	10460.85
706.865	10393.29
707.209	10361.42
707.554	10324.81
707.899	10350.58
708.243	10250.24
708.588	10252.95
708.932	10238.94
709.277	10156.91
709.621	10217.47
709.966	10122.56
710.31	10093.18
710.654	10010.25
710.998	10078.04
711.342	10008.66
711.687	10003.01
712.031	9963.24
712.375	9930.25
712.719	9897.25
713.063	9917.14
713.407	9938.61
713.75	9888.89
714.094	9816.58
714.438	9849.12
714.782	9835.56
715.125	9800.99
715.469	9744.26
715.812	9705.62
716.156	9644.61
716.499	9673.98
716.843	9758.27
717.186	9659.75
717.53	9732.06
717.873	9677.15
718.216	9695.45
718.559	9593.76
718.902	9562.8
719.246	9608
719.589	9537.49
719.932	9530.94
720.275	9556.02
720.617	9508.56
720.96	9506.08
721.303	9509.69
721.646	9475.8
721.989	9475.57
722.331	9482.8
722.674	9435.12
723.016	9415.46
723.359	9384.05
723.701	9420.88
724.044	9408.45
724.386	9333.43
724.729	9346.08
725.071	9365.52
725.413	9359.19
725.755	9359.87
726.097	9196.71
726.439	9328.68
726.782	9281
727.124	9464.5
727.465	9318.51
727.807	9311.05
728.149	9303.37
728.491	9293.88
728.833	9369.13
729.175	9238.51
729.516	9296.37
729.858	9192.87
730.199	9254.56
730.541	9216.59
730.882	9181.57
731.224	9292.75
731.565	9144.05
731.906	9287.1
732.248	9269.25
732.589	9161
732.93	9165.07
733.271	9153.54
733.612	9257.5
733.953	9182.92
734.294	9196.03
734.635	9172.53
734.976	9203.71
735.317	9131.85
735.658	9226.76
735.999	9193.32
736.339	9171.62
736.68	9220.44
737.021	9171.62
737.361	9197.16
737.702	9240.77
738.042	9199.19
738.383	9242.36
738.723	9237.16
739.063	9190.15
739.404	9245.75
739.744	9250.04
740.084	9193.32
740.424	9308.79
740.764	9247.78
741.104	9312.64
741.444	9283.71
741.784	9266.76
742.124	9300.66
742.464	9342.69
742.804	9372.07
743.143	9306.53
743.483	9421.33
743.823	9375.23
744.162	9292.52
744.502	9438.51
744.841	9384.05
745.181	9410.04
745.52	9490.03
745.86	9494.1
746.199	9572.74
746.538	9572.74
746.877	9641.22
747.216	9708.56
747.556	9650.93
747.895	9757.82
748.234	9781.1
748.573	9829.91
748.911	9928.21
749.25	9924.82
749.589	9923.69
749.928	10041.66
750.267	10126.85
750.605	10258.83
750.944	10246.62
751.283	10348.77
751.621	10396.22
751.96	10448.65
752.298	10483.23
752.636	10597.8
752.975	10650.68
753.313	10720.51
753.651	10936.32
753.989	10911.01
754.327	11006.15
754.666	11150.33
755.004	11273.49
755.342	11324.56
755.679	11498.79
756.017	11568.62
756.355	11820.37
756.693	11748.05
757.031	11995.05
757.368	12051.32
757.706	12259.23
758.044	12339.9
758.381	12586.67
758.719	12703.06
759.056	12903.73
759.394	12990.96
759.731	13137.17
760.068	13270.27
760.405	13368.8
760.743	13545.07
761.08	13730.83
761.417	13854.66
761.754	13965.4
762.091	14047.43
762.428	14261.88
762.765	14390.47
763.102	14610.8
763.438	14779.39
763.775	14847.63
764.112	15141.18
764.449	15214.85
764.785	15465.92
765.122	15428.41
765.458	15580.27
765.795	15767.16
766.131	15922.41
766.467	15994.95
766.804	16210.53
767.14	16277.43
767.476	16461.15
767.812	16499.57
768.148	16772.78
768.485	16749.96
768.821	16838.99
769.157	16987.24
769.492	17167.8
769.828	17232.65
770.164	17258.64
770.5	17395.59
770.836	17506.09
771.171	17534.34
771.507	17740.44
771.842	17616.15
772.178	17844.16
772.513	17958.74
772.849	18058.17
773.184	17976.82
773.519	18133.42
773.855	18110.6
774.19	18131.61
774.525	18208.67
774.86	18280.99
775.195	18375.45
775.53	18492.28
775.865	18362.12
776.2	18436.24
776.535	18498.38
776.87	18508.33
777.205	18581.32
777.539	18562.11
777.874	18642.79
778.209	18673.97
778.543	18589.91
778.878	18716.01
779.212	18799.84
779.547	18743.35
779.881	18824.02
780.215	18749.45
780.55	18865.38
780.884	18778.15
781.218	18757.59
781.552	18857.7
781.886	18791.71
782.22	18742.67
782.554	18779.51
782.888	18656.57
783.222	18592.84
783.556	18753.29
783.889	18656.57
784.223	18564.82
784.557	18575.44
784.89	18645.5
785.224	18626.74
785.557	18557.82
785.891	18445.5
786.224	18570.47
786.558	18521.89
786.891	18356.92
787.224	18403.7
787.557	18337.94
787.891	18361.21
788.224	18347.88
788.557	18299.29
788.89	18360.76
789.223	18346.75
789.556	18392.85
789.888	18245.96
790.221	18285.73
790.554	18121.9
790.887	18179.07
791.219	18073.31
791.552	18063.37
791.884	18093.42
792.217	18024.72
792.549	17985.63
792.882	17897.95
793.214	17896.37
793.546	17900.43
793.879	17826.76
794.211	17771.4
794.543	17797.16
794.875	17736.14
795.207	17867.89
795.539	17755.8
795.871	17637.84
796.203	17529.6
796.535	17494.57
796.867	17455.93
797.198	17479.43
797.53	17451.41
797.862	17345.42
798.193	17385.87
798.525	17262.03
798.856	17294.35
799.188	17141.13
799.519	17114.01
799.85	17012.55
800.182	17048.03
800.513	17032.43
800.844	16915.15
801.175	17034.92
801.506	17084.64
801.837	16946.79
802.168	16855.04
802.499	16916.5
802.83	16683.29
803.161	16752.89
803.491	16681.48
803.822	16655.04
804.153	16766
804.483	16533.01
804.814	16447.82
805.145	16466.35
805.475	16455.27
805.805	16351.32
806.136	16403.3
806.466	16402.17
806.796	16332.56
807.126	16220.03
807.457	16243.3
807.787	16164.43
808.117	16186.13
808.447	16096.41
808.777	16057.77
809.107	16093.7
809.436	15986.59
809.766	16143.42
810.096	15924.21
810.426	15909.75
810.755	15999.24
811.085	15901.84
811.414	15907.04
811.744	15746.37
812.073	15634.73
812.403	15751.11
812.732	15634.5
813.061	15645.13
813.39	15552.47
813.719	15575.52
814.049	15571
814.378	15586.82
814.707	15463.89
815.036	15504.79
815.365	15409.88
815.693	15255.76
816.022	15333.04
816.351	15261.41
816.68	15196.55
817.008	15170.11
817.337	15111.58
817.665	15105.25
817.994	15146.38
818.322	15083.33
818.651	15107.51
818.979	15006.95
819.307	15088.53
819.636	14951.13
819.964	14963.11
820.292	14956.56
820.62	14939.16
820.948	14894.86
821.276	14956.1
821.604	14905.94
821.932	14926.73
822.259	14970.34
822.587	14956.78
822.915	14881.76
823.243	15003.11
823.57	14937.8
823.898	14900.06
824.225	14943.67
824.553	14914.75
824.88	14851.7
825.207	14955.88
825.535	14891.25
825.862	14967.4
826.189	14839.72
826.516	14964.01
826.843	14975.09
827.17	15044.69
827.497	14925.37
827.824	14957.69
828.151	14968.31
828.478	14913.62
828.805	15002.88
829.131	14967.18
829.458	14966.73
829.785	14859.61
830.111	14864.58
830.438	14976.67
830.764	14856.67
831.09	14897.57
831.417	14813.96
831.743	14847.18
832.069	14871.13
832.395	14766.73
832.722	14921.75
833.048	14881.98
833.374	14859.84
833.7	14795.66
834.026	14820.51
834.351	14878.14
834.677	14799.5
835.003	14818.03
835.329	14792.04
835.654	14731.03
835.98	14731.93
836.306	14666.62
836.631	14575.32
836.956	14744.58
837.282	14745.49
837.607	14620.75
837.932	14624.14
838.258	14547.98
838.583	14624.81
838.908	14485.16
839.233	14576.68
839.558	14477.7
839.883	14549.33
840.208	14367.19
840.533	14425.5
840.858	14398.38
841.182	14420.52
841.507	14404.03
841.832	14359.28
842.156	14241.32
842.481	14278.83
842.805	14289.68
843.13	14172.17
843.454	14120.65
843.778	14165.84
844.103	14043.13
844.427	14049.24
844.751	13976.92
845.075	14078.16
845.399	13978.05
845.723	13916.13
846.047	13902.8
846.371	13738.28
846.695	13847.66
847.019	13714.55
847.343	13688.11
847.666	13557.5
847.99	13580.32
848.313	13564.5
848.637	13455.8
848.96	13408.35
849.284	13355.92
849.607	13326.32
849.931	13235.47
850.254	13166.32
850.577	13061.01
850.9	13016.72
851.223	13044.97
851.546	12926.78
851.869	12881.13
852.192	12945.54
852.515	12839.32
852.838	12764.75
853.161	12779.44
853.483	12661.7
853.806	12595.71
854.129	12592.1
854.451	12581.93
854.774	12507.81
855.096	12614.47
855.419	12459.67
855.741	12420.13
856.063	12391.88
856.385	12358.43
856.708	12276.63
857.03	12239.57
857.352	12292.9
857.674	12162.05
857.996	12143.07
858.318	12042.96
858.64	12054.03
858.961	12032.34
859.283	11951.89
859.605	11978.33
859.926	11930.87
860.248	11897.88
860.57	11872.34
860.891	11797.32
861.212	11792.12
861.534	11775.85
861.855	11727.94
862.176	11772.23
862.498	11717.09
862.819	11645.46
863.14	11613.59
863.461	11677.55
863.782	11586.02
864.103	11557.32
864.424	11577.66
864.745	11550.32
865.065	11503.77
865.386	11411.34
865.707	11430.32
866.027	11492.69
866.348	11402.98
866.668	11445.91
866.989	11421.51
867.309	11329.76
867.63	11352.81
867.95	11321.62
868.27	11346.71
868.59	11234.39
868.91	11273.71
869.23	11249.08
869.55	11141.06
869.87	11301.28
870.19	11213.83
870.51	11199.14
870.83	11181.51
871.15	11138.58
871.469	11212.93
871.789	11127.05
872.109	11127.28
872.428	11073.27
872.748	11076.21
873.067	11093.83
873.386	11082.99
873.706	11036.88
874.025	10973.61
874.344	10967.51
874.663	11018.58
874.982	10952.59
875.301	10947.85
875.62	10942.65
875.939	10919.15
876.258	10927.74
876.577	10936.1
876.896	10854.97
877.214	10812.48
877.533	10868.75
877.852	10819.72
878.17	10766.16
878.489	10744.92
878.807	10771.13
879.125	10709.89
879.444	10790.34
879.762	10694.3
880.08	10624.92
880.398	10612.49
880.716	10652.49
881.034	10611.81
881.352	10568.2
881.67	10584.92
881.988	10606.61
882.306	10540.63
882.624	10490.23
882.941	10368.65
883.259	10413.17
883.577	10345.83
883.894	10388.99
884.212	10381.31
884.529	10338.37
884.846	10341.08
885.164	10291.59
885.481	10320.29
885.798	10273.06
886.115	10146.06
886.432	10192.61
886.75	10139.51
887.067	10168.89
887.383	10070.13
887.7	10182.67
888.017	10076.23
888.334	10093.86
888.651	10053.41
888.967	10013.64
889.284	10031.04
889.6	9930.47
889.917	9886.63
890.233	9894.99
890.55	9802.57
890.866	9846.63
891.182	9765.05
891.498	9815.67
891.815	9762.12
892.131	9655.23
892.447	9649.12
892.763	9615
893.079	9619.3
893.395	9618.17
893.71	9594.21
894.026	9570.71
894.342	9510.82
894.657	9455.91
894.973	9458.85
895.289	9416.14
895.604	9368.91
895.92	9375.46
896.235	9324.16
896.55	9251.85
896.865	9216.14
897.181	9220.66
897.496	9216.14
897.811	9187.89
898.126	9157.16
898.441	9099.08
898.756	9108.57
899.071	9022.7
899.386	8977.28
899.7	8969.14
900.015	8912.2
900.33	8870.61
900.644	8828.81
900.959	8904.06
901.273	8812.76
901.588	8764.63
901.902	8716.49
902.216	8722.82
902.531	8654.12
902.845	8706.1
903.159	8620.68
903.473	8582.03
903.787	8507.23
904.101	8427.91
904.415	8530.06
904.729	8432.21
905.042	8406.45
905.356	8368.71
905.67	8338.2
905.984	8324.64
906.297	8311.98
906.611	8281.7
906.924	8239.67
907.237	8217.75
907.551	8160.12
907.864	8092.1
908.177	8130.07
908.491	8088.49
908.804	8073.12
909.117	7991.32
909.43	7931.88
909.743	7913.58
910.056	7961.94
910.368	7861.38
910.681	7824.54
910.994	7814.82
911.307	7771.21
911.619	7796.52
911.932	7713.13
912.244	7595.39
912.557	7692.57
912.869	7668.61
913.181	7562.17
913.494	7540.25
913.806	7487.83
914.118	7437.88
914.43	7435.4
914.742	7453.7
915.054	7397.43
915.366	7378.68
915.678	7342.74
915.99	7314.72
916.302	7231.34
916.613	7203.09
916.925	7195.86
917.236	7186.36
917.548	7083.32
917.859	7152.24
918.171	7111.11
918.482	7058.91
918.794	7042.19
919.105	7073.37
919.416	6984.34
919.727	6961.96
920.038	6975.07
920.349	6881.29
920.66	6835.64
920.971	6822.53
921.282	6864.11
921.593	6787.05
921.903	6728.3
922.214	6746.38
922.525	6712.93
922.835	6711.35
923.146	6650.79
923.456	6615.53
923.767	6611.92
924.077	6555.65
924.387	6489.89
924.697	6520.85
925.008	6526.27
925.318	6434.75
925.628	6446.72
925.938	6425.48
926.248	6374.63
926.558	6366.27
926.867	6386.16
927.177	6276.56
927.487	6288.99
927.796	6188.2
928.106	6215.99
928.416	6190.46
928.725	6195.88
929.034	6159.73
929.344	6164.47
929.653	6061.2
929.962	6026.85
930.271	6064.36
930.581	6048.77
930.89	5960.86
931.199	5965.15
931.508	5912.95
931.817	5922.22
932.125	5947.08
932.434	5885.61
932.743	5827.76
933.051	5846.74
933.36	5788.89
933.669	5754.09
933.977	5723.35
934.286	5700.3
934.594	5674.09
934.902	5673.64
935.21	5673.18
935.519	5653.75
935.827	5600.19
936.135	5568.1
936.443	5547.99
936.751	5542.11
937.059	5525.17
937.367	5516.58
937.674	5503.25
937.982	5452.85
938.29	5421.67
938.597	5453.3
938.905	5413.76
939.213	5342.57
939.52	5351.38
939.827	5308
940.135	5317.49
940.442	5286.3
940.749	5248.79
941.056	5291.73
941.363	5205.85
941.67	5154.78
941.977	5133.54
942.284	5175.12
942.591	5144.61
942.898	5082.69
943.205	5075.23
943.511	5063.71
943.818	5048.12
944.125	5021.22
944.431	5006.99
944.738	4992.52
945.044	4966.76
945.35	4933.09
945.657	4905.07
945.963	4832.53
946.269	4881.11
946.575	4861.45
946.881	4816.48
947.187	4786.88
947.493	4776.48
947.799	4791.85
948.105	4765.19
948.41	4729.48
948.716	4702.81
949.022	4689.71
949.327	4623.49
949.633	4621.69
949.938	4633.66
950.244	4632.31
950.549	4581.01
950.854	4570.61
951.16	4533.1
951.465	4491.75
951.77	4528.58
952.075	4492.42
952.38	4463.95
952.685	4456.49
952.99	4389.15
953.294	4369.49
953.599	4379.88
953.904	4363.61
954.209	4315.93
954.513	4392.09
954.818	4270.28
955.122	4264.86
955.426	4232.32
955.731	4216.5
956.035	4203.62
956.339	4191.87
956.643	4221.92
956.948	4158.87
957.252	4142.38
957.556	4135.37
957.86	4102.83
958.163	4102.38
958.467	4084.98
958.771	4065.09
959.075	4087.46
959.378	4041.81
959.682	4002.49
959.985	4026.67
960.289	3969.5
960.592	3940.57
960.896	3974.47
961.199	3915.94
961.502	3916.62
961.805	3910.07
962.108	3897.64
962.411	3926.34
962.714	3870.52
963.017	3887.24
963.32	3840.01
963.623	3798.43
963.926	3792.78
964.228	3789.62
964.531	3734.25
964.833	3767.47
965.136	3714.14
965.438	3726.79
965.741	3694.03
966.043	3652.22
966.345	3661.71
966.648	3641.37
966.95	3618.1
967.252	3638.44
967.554	3579
967.856	3578.55
968.158	3553.47
968.46	3562.28
968.761	3522.51
969.063	3475.5
969.365	3506.24
969.666	3475.28
969.968	3441.83
970.269	3425.79
970.571	3464.43
970.872	3457.42
971.174	3375.84
971.475	3411.55
971.776	3359.12
972.077	3363.41
972.378	3348.5
972.679	3332.91
972.98	3352.34
973.281	3317.77
973.582	3306.47
973.883	3290.2
974.183	3253.36
974.484	3286.13
974.785	3232.12
975.085	3229.86
975.386	3280.03
975.686	3181.27
975.986	3109.64
976.287	3156.87
976.587	3131.56
976.887	3118.68
977.187	3101.95
977.487	3140.6
977.787	3115.74
978.087	3077.55
978.387	3059.69
978.687	3087.26
978.987	3009.98
979.286	2992.12
979.586	3013.59
979.885	3005.68
980.185	2999.13
980.484	2978.34
980.784	2947.15
981.083	2939.7
981.382	2954.84
981.682	2942.86
981.981	2929.98
982.28	2917.78
982.579	2874.16
982.878	2852.69
983.177	2887.27
983.475	2878.68
983.774	2852.69
984.073	2791.45
984.372	2801.62
984.67	2806.82
984.969	2799.59
985.267	2791.9
985.566	2754.16
985.864	2756.42
986.162	2753.94
986.461	2707.61
986.759	2704.9
987.057	2686.6
987.355	2703.09
987.653	2708.97
987.951	2675.3
988.249	2656.09
988.547	2624.45
988.844	2623.77
989.142	2578.12
989.44	2604.79
989.737	2605.47
990.035	2559.59
990.332	2547.39
990.63	2541.06
990.927	2525.02
991.224	2520.05
991.521	2521.18
991.819	2490.22
992.116	2476.66
992.413	2479.82
992.71	2459.26
993.006	2462.87
993.303	2438.47
993.6	2442.08
993.897	2447.51
994.193	2380.16
994.49	2409.54
994.787	2401.86
995.083	2348.07
995.379	2354.85
995.676	2348.75
995.972	2335.64
996.268	2352.37
996.565	2285.25
996.861	2313.27
997.157	2308.98
997.453	2284.12
997.749	2266.49
998.044	2291.13
998.34	2239.15
998.636	2244.57
998.932	2215.87
999.227	2231.24
999.523	2202.77
999.818	2177
1000.114	2186.72
1000.409	2134.75
1000.704	2157.34
1001	2145.59
1001.295	2149.66
1001.59	2141.98
1001.885	2119.83
1002.18	2082.09
1002.475	2089.78
1002.77	2067.63
1003.065	2055.88
1003.359	2054.07
1003.654	2035.77
1003.949	2033.28
1004.243	2026.5
1004.538	2023.79
1004.832	2026.5
1005.127	2017.46
1005.421	2000.29
1005.715	1957.8
1006.009	1972.72
1006.304	1945.37
1006.598	1933.4
1006.892	1923.9
1007.186	1891.36
1007.48	1889.78
1007.773	1884.36
1008.067	1895.2
1008.361	1875.77
1008.655	1837.58
1008.948	1829.44
1009.242	1850.23
1009.535	1835.09
1009.829	1817.01
1010.122	1829.9
1010.415	1800.29
1010.708	1793.51
1011.001	1777.02
1011.295	1753.74
1011.588	1726.17
1011.881	1704.02
1012.173	1710.35
1012.466	1712.61
1012.759	1734.98
1013.052	1733.85
1013.344	1697.7
1013.637	1698.37
1013.93	1704.7
1014.222	1658.15
1014.514	1657.24
1014.807	1651.59
1015.099	1654.08
1015.391	1648.21
1015.683	1623.35
1015.976	1626.96
1016.268	1596.68
1016.56	1594.2
1016.851	1595.1
1017.143	1562.11
1017.435	1518.72
1017.727	1556.68
1018.018	1545.84
1018.31	1539.73
1018.602	1528.66
1018.893	1483.01
1019.185	1482.79
1019.476	1492.05
1019.767	1504.71
1020.058	1466.74
1020.35	1433.07
1020.641	1483.69
1020.932	1442.79
1021.223	1419.51
1021.514	1427.87
1021.804	1422.45
1022.095	1411.38
1022.386	1402.11
1022.677	1377.25
1022.967	1375.67
1023.258	1362.11
1023.548	1359.4
1023.839	1383.58
1024.129	1347.87
1024.419	1342.9
1024.709	1297.93
1025	1318.04
1025.29	1297.71
1025.58	1310.36
1025.87	1292.28
1026.16	1260.19
1026.449	1269.91
1026.739	1273.07
1027.029	1224.71
1027.319	1254.77
1027.608	1233.07
1027.898	1219.74
1028.187	1219.97
1028.477	1200.53
1028.766	1207.31
1029.055	1169.8
1029.344	1178.84
1029.634	1176.35
1029.923	1176.35
1030.212	1183.13
1030.501	1173.19
1030.79	1154.66
1031.078	1166.41
1031.367	1141.33
1031.656	1130.03
1031.945	1146.07
1032.233	1129.57
1032.522	1097.03
1032.81	1118.5
1033.099	1094.1
1033.387	1118.5
1033.675	1087.32
1033.963	1052.51
1034.251	1087.09
1034.54	1075.34
1034.828	1064.49
1035.116	1062.46
1035.403	1058.16
1035.691	1025.17
1035.979	1033.53
1036.267	1024.04
1036.554	1011.39
1036.842	1008.45
1037.129	1011.61
1037.417	1018.39
1037.704	995.57
1037.992	989.24
1038.279	980.43
1038.566	974.55
1038.853	974.55
1039.14	974.55
