Data from hue_20_FLMS001491_52.txt Node
Date: Mon Feb 06 15:34:18 GMT 2017
User: dcchb
Spectrometer: FLMS00149
Trigger mode: 0
Integration Time (sec): 2.000000E-2
Scans to average: 10
Electric dark correction enabled: true
Nonlinearity correction enabled: false
Boxcar width: 0
XAxis mode: Wavelengths
Number of Pixels in Spectrum: 2048
>>>>>Begin Spectral Data<<<<<
341.393	-23.02
341.776	-23.02
342.16	-23.02
342.543	-78.39
342.927	-63.02
343.31	-68.22
343.693	-69.12
344.077	-69.12
344.46	-45.62
344.843	-51.72
345.226	-32.97
345.61	-39.29
345.993	-10.37
346.376	-24.6
346.759	-11.95
347.142	20.82
347.525	55.17
347.908	51.78
348.291	84.09
348.674	95.84
349.057	115.28
349.44	143.98
349.823	130.65
350.206	136.97
350.588	198.67
350.971	192.57
351.354	238.89
351.737	240.7
352.119	238.21
352.502	282.51
352.884	276.41
353.267	280.7
353.65	284.99
354.032	297.2
354.414	301.04
354.797	321.38
355.179	307.82
355.562	330.19
355.944	311.88
356.326	343.3
356.709	310.75
357.091	344.2
357.473	339
357.855	308.27
358.238	359.57
358.62	346.01
359.002	344.2
359.384	340.13
359.766	349.85
360.148	336.97
360.53	319.79
360.912	324.09
361.294	344.65
361.676	327.93
362.057	344.43
362.439	312.11
362.821	340.13
363.203	324.99
363.584	314.6
363.966	296.07
364.348	315.27
364.729	306.46
365.111	314.37
365.493	334.03
365.874	303.75
366.256	310.53
366.637	332.9
367.019	323.18
367.4	322.28
367.781	311.66
368.163	328.61
368.544	301.72
368.925	317.53
369.306	313.47
369.688	309.4
370.069	327.03
370.45	310.3
370.831	304.88
371.212	308.04
371.593	313.92
371.974	286.57
372.355	312.34
372.736	305.56
373.117	324.31
373.498	303.75
373.879	324.54
374.26	341.04
374.641	343.97
375.021	322.28
375.402	313.47
375.783	314.37
376.163	345.56
376.544	315.27
376.925	315.05
377.305	321.15
377.686	324.99
378.066	310.3
378.447	331.54
378.827	341.04
379.208	345.56
379.588	336.52
379.968	323.41
380.349	325.9
380.729	344.88
381.109	331.32
381.489	353.01
381.87	321.6
382.25	349.62
382.63	326.12
383.01	363.63
383.39	353.24
383.77	340.13
384.15	351.66
384.53	357.98
384.91	346.01
385.29	353.92
385.67	342.84
386.049	360.7
386.429	355.73
386.809	355.05
387.189	336.74
387.568	371.32
387.948	343.3
388.328	360.02
388.707	361.6
389.087	349.4
389.466	374.71
389.846	386.68
390.225	362.96
390.605	365.67
390.984	361.15
391.363	360.92
391.743	384.88
392.122	366.8
392.501	378.78
392.881	398.66
393.26	380.36
393.639	378.55
394.018	393.24
394.397	385.55
394.776	379.91
395.155	395.72
395.534	401.6
395.913	399.57
396.292	393.01
396.671	370.64
397.05	404.54
397.429	384.65
397.808	398.21
398.186	392.79
398.565	384.88
398.944	404.31
399.323	403.63
399.701	409.51
400.08	394.59
400.458	402.73
400.837	419
401.215	420.36
401.594	406.12
401.972	408.61
402.351	420.58
402.729	423.97
403.107	421.94
403.486	434.82
403.864	428.94
404.242	429.85
404.62	421.49
404.999	433.46
405.377	425.55
405.755	417.19
406.133	464.42
406.511	436.85
406.889	453.8
407.267	455.61
407.645	454.48
408.023	474.14
408.401	464.65
408.779	463.07
409.156	436.85
409.534	458.1
409.912	463.74
410.29	485.21
410.667	468.26
411.045	473.24
411.422	475.95
411.8	469.62
412.178	501.94
412.555	496.29
412.933	481.82
413.31	495.61
413.687	490.41
414.065	495.38
414.442	493.57
414.819	485.67
415.197	506
415.574	500.35
415.951	528.15
416.328	548.49
416.705	523.63
417.082	501.03
417.46	548.26
417.837	516.62
418.214	531.99
418.591	536.29
418.967	532.9
419.344	540.35
419.721	559.56
420.098	557.98
420.475	560.92
420.852	553.01
421.228	559.34
421.605	578.32
421.982	582.84
422.358	545.32
422.735	555.95
423.111	577.64
423.488	571.31
423.864	584.65
424.241	575.15
424.617	578.32
424.994	580.35
425.37	612.22
425.746	589.39
426.123	598.43
426.499	598.88
426.875	632.78
427.251	608.15
427.627	621.03
428.003	628.26
428.379	644.08
428.756	603.85
429.132	652.21
429.507	666.45
429.883	649.95
430.259	653.34
430.635	652.89
431.011	687.02
431.387	679.78
431.763	673
432.138	712.33
432.514	680.69
432.89	680.24
433.265	707.81
433.641	713.46
434.016	726.79
434.392	722.5
434.767	738.09
435.143	750.97
435.518	745.77
435.894	741.03
436.269	757.3
436.644	748.03
437.02	778.54
437.395	748.26
437.77	772.89
438.145	792.1
438.52	801.36
438.895	769.5
439.271	801.14
439.646	810.4
440.021	811.31
440.395	827.35
440.77	827.8
441.145	831.42
441.52	826
441.895	843.4
442.27	842.27
442.645	847.46
443.019	851.98
443.394	868.71
443.769	851.08
444.143	857.86
444.518	886.56
444.892	876.16
445.267	896.95
445.641	863.96
446.016	903.73
446.39	869.84
446.764	908.93
447.139	895.82
447.513	887.91
447.887	901.47
448.262	935.6
448.636	905.09
449.01	913.9
449.384	930.17
449.758	921.36
450.132	944.64
450.506	928.59
450.88	932.43
451.254	923.62
451.628	962.71
452.002	986.44
452.376	980.57
452.75	980.34
453.123	1011.08
453.497	1005.65
453.871	1033
454.244	1030.74
454.618	1036.61
454.992	1044.52
455.365	1057.63
455.739	1068.7
456.112	1093.78
456.486	1080.45
456.859	1105.76
457.232	1129.04
457.606	1103.95
457.979	1137.85
458.352	1145.99
458.725	1129.94
459.099	1162.48
459.472	1205.42
459.845	1188.7
460.218	1220.34
460.591	1205.65
460.964	1235.02
461.337	1228.02
461.71	1267.34
462.083	1280.45
462.456	1275.47
462.829	1286.32
463.201	1319.77
463.574	1320.67
463.947	1332.65
464.32	1339.43
464.692	1359.99
465.065	1377.85
465.438	1412.65
465.81	1428.01
466.183	1418.97
466.555	1463.94
466.928	1463.94
467.3	1471.63
467.672	1481.57
468.045	1513.89
468.417	1536.49
468.789	1522.7
469.161	1552.98
469.534	1570.83
469.906	1629.36
470.278	1638.86
470.65	1631.4
471.022	1633.21
471.394	1709.59
471.766	1714.11
472.138	1751.39
472.51	1796.59
472.882	1798.17
473.253	1798.17
473.625	1848.79
473.997	1871.17
474.369	1895.35
474.74	1923.59
475.112	1962.91
475.484	2000.88
475.855	2035
476.227	2014.89
476.598	2088.11
476.97	2119.97
477.341	2159.97
477.713	2169.24
478.084	2173.76
478.455	2281.32
478.827	2285.84
479.198	2381.89
479.569	2374.66
479.94	2416.01
480.311	2441.55
480.682	2528.32
481.053	2544.37
481.424	2625.95
481.795	2616.46
482.166	2672.5
482.537	2732.84
482.908	2764.25
483.279	2775.77
483.65	2857.35
484.021	2938.26
484.391	2983.68
484.762	3026.62
485.133	3036.56
485.503	3079.5
485.874	3172.83
486.244	3158.59
486.615	3216.21
486.985	3304.12
487.356	3325.14
487.726	3378.47
488.097	3432.93
488.467	3458.24
488.837	3520.16
489.207	3607.39
489.578	3689.65
489.948	3683.32
490.318	3734.17
490.688	3738.24
491.058	3826.14
491.428	3868.4
491.798	3927.61
492.168	3967.61
492.538	3993.82
492.908	4033.82
493.278	4131.45
493.648	4110.43
494.017	4164.89
494.387	4232.01
494.757	4328.95
495.126	4293.7
495.496	4360.14
495.866	4323.76
496.235	4410.53
496.605	4439.69
496.974	4489.4
497.344	4503.19
497.713	4599.91
498.082	4588.61
498.452	4704.09
498.821	4692.79
499.19	4688.04
499.559	4759.45
499.928	4819.11
500.298	4793.35
500.667	4857.3
501.036	4822.73
501.405	4890.75
501.774	4910.86
502.143	4945.66
502.512	4980.69
502.88	4986.56
503.249	5007.13
503.618	5054.81
503.987	5057.07
504.356	5151.53
504.724	5181.13
505.093	5198.08
505.462	5250.29
505.83	5246.44
506.199	5308.36
506.567	5373.9
506.936	5341.36
507.304	5400.79
507.672	5435.37
508.041	5436.72
508.409	5462.71
508.777	5539.77
509.145	5516.49
509.514	5588.58
509.882	5580.45
510.25	5545.42
510.618	5643.04
510.986	5645.53
511.354	5722.59
511.722	5753.32
512.09	5805.75
512.458	5788.8
512.826	5823.15
513.193	5873.09
513.561	5863.83
513.929	5953.32
514.297	5961.23
514.664	5991.28
515.032	6008.68
515.4	6049.13
515.767	6076.03
516.135	6119.87
516.502	6041.23
516.869	6165.06
517.237	6174.33
517.604	6163.03
517.972	6237.83
518.339	6258.62
518.706	6304.04
519.073	6330.03
519.44	6321.44
519.808	6369.8
520.175	6382.23
520.542	6462.68
520.909	6473.08
521.276	6466.52
521.643	6500.87
522.009	6575
522.376	6593.53
522.743	6665.39
523.11	6737.03
523.477	6763.69
523.843	6714.88
524.21	6814.09
524.577	6907.42
524.943	6879.17
525.31	6933.18
525.676	7024.93
526.043	6985.83
526.409	7000.97
526.776	7144.93
527.142	7115.55
527.508	7203.23
527.874	7223.79
528.241	7204.81
528.607	7206.17
528.973	7347.63
529.339	7340.4
529.705	7338.59
530.071	7465.14
530.437	7510.57
530.803	7546.72
531.169	7581.75
531.535	7577.23
531.901	7622.88
532.267	7646.38
532.632	7650.67
532.998	7682.09
533.364	7753.95
533.73	7835.08
534.095	7828.3
534.461	7932.7
534.826	7933.38
535.192	7999.59
535.557	7988.97
535.923	8001.63
536.288	8036.43
536.653	8068.06
537.019	8094.05
537.384	8078.23
537.749	8160.49
538.114	8198.91
538.479	8201.39
538.845	8238.46
539.21	8304.22
539.575	8291.79
539.94	8374.95
540.305	8379.69
540.67	8358.68
541.034	8477.32
541.399	8489.97
541.764	8442.07
542.129	8552.57
542.494	8543.98
542.858	8632.12
543.223	8640.48
543.587	8678.22
543.952	8692
544.316	8664.66
544.681	8741.72
545.045	8746.46
545.41	8812.9
545.774	8821.04
546.138	8853.35
546.503	8929.51
546.867	8970.19
547.231	8980.81
547.595	9002.5
547.959	8990.3
548.324	9021.49
548.688	9097.42
549.052	9176.28
549.416	9117.3
549.779	9166.34
550.143	9188.49
550.507	9264.42
550.871	9230.52
551.235	9277.52
551.599	9379.89
551.962	9349.39
552.326	9367.01
552.689	9477.29
553.053	9356.62
553.417	9477.07
553.78	9522.04
554.143	9529.72
554.507	9600
554.87	9651.53
555.234	9705.76
555.597	9658.08
555.96	9706.44
556.323	9676.84
556.686	9747.79
557.05	9838.87
557.413	9846.32
557.776	9894.46
558.139	9925.42
558.502	9931.52
558.865	9981.91
559.228	10103.04
559.59	10082.48
559.953	10044.74
560.316	10256.71
560.679	10253.77
561.041	10207.9
561.404	10313.88
561.767	10348.46
562.129	10281.11
562.492	10402.69
562.854	10430.49
563.217	10462.13
563.579	10464.84
563.941	10529.92
564.304	10592.97
564.666	10703.02
565.028	10676.13
565.39	10685.62
565.753	10754.55
566.115	10662.8
566.477	10847.2
566.839	10864.38
567.201	10878.61
567.563	10904.37
567.925	11010.59
568.287	10992.06
568.648	10986.18
569.01	11043.13
569.372	11082.22
569.734	11180.3
570.095	11193.63
570.457	11267.53
570.819	11326.28
571.18	11390.92
571.542	11420.74
571.903	11434.98
572.265	11508.43
572.626	11529.44
572.987	11597.01
573.349	11679.04
573.71	11638.37
574.071	11724.01
574.432	11759.72
574.794	11928.98
575.155	11845.59
575.516	11921.97
575.877	11973.05
576.238	12061.86
576.599	12261.63
576.96	12235.86
577.32	12244.23
577.681	12385.69
578.042	12495.29
578.403	12547.27
578.763	12610.09
579.124	12725.57
579.485	12824.32
579.845	12920.82
580.206	13046.24
580.566	13043.3
580.927	13160.81
581.287	13352.45
581.648	13391.99
582.008	13586.79
582.368	13672.89
582.728	13831.3
583.089	13898.65
583.449	13971.86
583.809	14187.23
584.169	14404.17
584.529	14560.1
584.889	14787.89
585.249	14817.72
585.609	14981.33
585.969	15259.97
586.329	15436.91
586.688	15671.03
587.048	15835.54
587.408	16034.63
587.768	16244.57
588.127	16383.78
588.487	16612.92
588.846	16996.87
589.206	17142.63
589.565	17278.67
589.925	17630.75
590.284	17809.96
590.643	18116.84
591.003	18300.79
591.362	18728.12
591.721	18784.17
592.08	19173.76
592.44	19385.73
592.799	19779.17
593.158	19867.3
593.517	20195.88
593.876	20564.91
594.235	20735.53
594.593	21048.74
594.952	21386.58
595.311	21590.42
595.67	21965.33
596.029	22391.98
596.387	22756.94
596.746	22934.11
597.104	23129.14
597.463	23454.1
597.822	23810.93
598.18	24007.08
598.538	24377.24
598.897	24853.16
599.255	24901.07
599.613	25520.71
599.972	25642.29
600.33	26059.68
600.688	26174.26
601.046	26460.35
601.404	26942.14
601.762	27098.52
602.12	27520.89
602.478	27667.32
602.836	27913.64
603.194	28195.9
603.552	28587.98
603.91	28726.05
604.268	29084.24
604.625	29323.55
604.983	29702.07
605.341	29771.45
605.698	30188.39
606.056	30522.16
606.413	30664.08
606.771	30926.9
607.128	31369.82
607.485	31482.82
607.843	31656.82
608.2	32043.93
608.557	32506.07
608.914	32510.59
609.272	32770.69
609.629	33029.44
609.986	33573.38
610.343	33433.27
610.7	33834.17
611.057	34053.82
611.414	34272.8
611.771	34457.88
612.127	34782.84
612.484	34870.98
612.841	35162.95
613.198	35218.54
613.554	35505.54
613.911	35771.29
614.267	35892.19
614.624	35950.04
614.98	36361.56
615.337	36536.47
615.693	36590.03
616.05	36781.43
616.406	37084.48
616.762	37102.56
617.118	37345.26
617.475	37422.1
617.831	37713.39
618.187	37810.79
618.543	37968.3
618.899	38352.24
619.255	38342.52
619.611	38384.33
619.967	38652.8
620.323	38990.19
620.678	38845.33
621.034	38875.62
621.39	38896.41
621.746	39094.82
622.101	39636.05
622.457	39438.54
622.812	39509.27
623.168	39695.71
623.523	39707.23
623.879	40032.2
624.234	39822.26
624.589	40143.83
624.945	40281
625.3	40336.37
625.655	40431.06
626.01	40401.45
626.365	40550.83
626.72	40537.72
627.075	40607.32
627.43	40692.74
627.785	40748.11
628.14	40754.89
628.495	40864.72
628.85	40920.76
629.205	40759.63
629.559	41087.99
629.914	40967.54
630.269	41046.63
630.623	41143.58
630.978	40991.72
631.332	41252.73
631.687	41379.96
632.041	41183.35
632.396	41353.29
632.75	41332.73
633.104	41309.68
633.459	41270.36
633.813	41183.13
634.167	41323.69
634.521	41283.69
634.875	41360.3
635.229	41418.83
635.583	41219.74
635.937	41330.47
636.291	41351.26
636.645	41392.61
636.999	41335.89
637.352	41503.8
637.706	41194.43
638.06	41375.44
638.413	41325.27
638.767	41180.41
639.121	41365.95
639.474	41144.94
639.828	41216.35
640.181	41232.39
640.534	41283.01
640.888	41170.92
641.241	41035.33
641.594	41246.18
641.947	41295.89
642.301	41133.41
642.654	41319.85
643.007	41199.85
643.36	41379.73
643.713	41115.56
644.066	41313.29
644.419	40993.75
644.771	40809.12
645.124	40501.56
645.477	40406.65
645.83	40130.05
646.182	40140.67
646.535	39907.91
646.888	40031.74
647.24	39845.99
647.593	40256.14
647.945	40047.79
648.298	39832.2
648.65	39893.67
649.002	39696.84
649.355	39949.26
649.707	39854.35
650.059	40054.34
650.411	40502.24
650.763	40449.13
651.115	40895.45
651.467	40669.02
651.819	40743.14
652.171	40677.15
652.523	40519.87
652.875	40634.21
653.227	40524.39
653.578	40748.79
653.93	40631.28
654.282	40501.11
654.633	40299.08
654.985	40527.55
655.337	40391.28
655.688	40411.62
656.039	40615.01
656.391	40321
656.742	40355.13
657.094	40370.27
657.445	40499.98
657.796	40391.06
658.147	40335.24
658.498	40436.25
658.849	40407.78
659.2	40370.27
659.551	40324.84
659.902	40302.47
660.253	40230.61
660.604	40285.75
660.955	40204.39
661.306	40448.23
661.656	40261.12
662.007	40408.91
662.358	40320.1
662.708	40233.55
663.059	40164.17
663.409	39948.13
663.76	40245.3
664.11	40250.72
664.461	40381.11
664.811	40255.69
665.161	40143.38
665.511	40146.32
665.862	40224.06
666.212	40297.95
666.562	40361.23
666.912	40192.87
667.262	40100.67
667.612	40080.56
667.962	40258.18
668.312	40088.01
668.662	40304.73
669.011	40172.53
669.361	40091.18
669.711	40004.85
670.06	39901.8
670.41	39869.49
670.76	40071.74
671.109	40123.04
671.459	39939.09
671.808	39931.18
672.157	40055.25
672.507	39655.71
672.856	39744.52
673.205	39770.28
673.554	39865.87
673.904	39843.27
674.253	39932.54
674.602	40013.21
674.951	39292.55
675.3	39140.02
675.649	39760.34
675.998	39782.26
676.346	39891.63
676.695	39938.41
677.044	39564.41
677.393	39693.45
677.741	39681.47
678.09	39621.59
678.438	39484.87
678.787	39584.98
679.135	39754.69
679.484	39235.83
679.832	39585.65
680.181	39356.96
680.529	39494.36
680.877	39305.21
681.225	39261.14
681.573	39506.79
681.922	39119.23
682.27	39077.19
682.618	39018.66
682.966	38869.06
683.314	38952.22
683.661	38793.13
684.009	38681.27
684.357	38612.12
684.705	38486.02
685.053	38642.18
685.4	38590.2
685.748	38460.94
686.095	38368.74
686.443	38206.48
686.79	38296.42
687.138	38252.36
687.485	38342.97
687.832	38086.94
688.18	38198.12
688.527	37868.41
688.874	37970.78
689.221	37959.26
689.568	37830.45
689.915	37724.91
690.262	37748.41
690.609	37557.46
690.956	37524.47
691.303	37409.89
691.65	37253.74
691.997	37391.59
692.344	37115.89
692.69	36937.36
693.037	37096.45
693.383	36703.24
693.73	36753.19
694.077	36650.14
694.423	36592.29
694.769	36540.99
695.116	36521.33
695.462	36400.43
695.808	36420.09
696.155	36345.97
696.501	36149.81
696.847	36054.67
697.193	35876.37
697.539	36021
697.885	35842.7
698.231	35696.94
698.577	35635.7
698.923	35462.82
699.269	35488.59
699.614	35197.07
699.96	35280.46
700.306	35267.58
700.651	35084.53
700.997	34833.24
701.342	34939.67
701.688	34810.86
702.033	34710.53
702.379	34727.25
702.724	34594.15
703.069	34634.6
703.415	34179.92
703.76	34358.67
704.105	34251.78
704.45	34042.97
704.795	34084.33
705.14	34047.72
705.485	33972.69
705.83	33800.5
706.175	33817.44
706.52	33739.71
706.865	33564.12
707.209	33662.87
707.554	33503.33
707.899	33559.15
708.243	33411.35
708.588	33319.83
708.932	33044.13
709.277	32956.45
709.621	33193.28
709.966	32778.6
710.31	32922.1
710.654	32517.37
710.998	32658.38
711.342	32714.87
711.687	32531.83
712.031	32413.41
712.375	32263.36
712.719	32449.8
713.063	32231.5
713.407	32400.76
713.75	32167.77
714.094	32147.43
714.438	32029.69
714.782	32124.16
715.125	31931.17
715.469	31879.64
715.812	31881.22
716.156	31692.53
716.499	31718.52
716.843	31723.49
717.186	31533.44
717.53	31695.92
717.873	31710.61
718.216	31538.63
718.559	31562.81
718.902	31304.06
719.246	31381.12
719.589	31268.58
719.932	31104.07
720.275	31036.05
720.617	31010.74
720.96	30944.98
721.303	30976.16
721.646	30975.26
721.989	30696.85
722.331	30856.62
722.674	30799.67
723.016	30617.3
723.359	30667.7
723.701	30634.48
724.044	30534.37
724.386	30311.32
724.729	30460.92
725.071	30365.11
725.413	30321.04
725.755	30340.02
726.097	30289.85
726.439	30002.4
726.782	30172.79
727.124	30196.07
727.465	29951.33
727.807	29959.01
728.149	29858.68
728.491	29830.43
728.833	29794.05
729.175	29731.22
729.516	29655.52
729.858	29635.86
730.199	29710.43
730.541	29717.44
730.882	29615.29
731.224	29658.46
731.565	29440.16
731.906	29429.31
732.248	29389.76
732.589	29400.39
732.93	29310.9
733.271	29308.18
733.612	29262.99
733.953	29362.65
734.294	29052.6
734.635	28998.59
734.976	29161.07
735.317	28903.45
735.658	28987.74
735.999	28928.99
736.339	28932.37
736.68	29027.29
737.021	28824.36
737.361	28778.71
737.702	28879.49
738.042	28764.24
738.383	28771.25
738.723	28699.61
739.063	28637.02
739.404	28616.68
739.744	28637.92
740.084	28508.88
740.424	28489.45
740.764	28452.61
741.104	28574.87
741.444	28413.29
741.784	28269.12
742.124	28329.45
742.464	28297.36
742.804	28333.97
743.143	28205.16
743.483	28071.15
743.823	28008.11
744.162	27910.25
744.502	28111.83
744.841	28026.64
745.181	28122.45
745.52	27849.92
745.86	27959.52
746.199	27872.97
746.538	27864.15
746.877	27809.24
747.216	27828
747.556	27783.7
747.895	27664.84
748.234	27621.67
748.573	27549.36
748.911	27446.99
749.25	27505.07
749.589	27468.01
749.928	27423.94
750.267	27459.19
750.605	27212.19
750.944	27323.15
751.283	27180.56
751.621	27350.72
751.96	27173.33
752.298	27057.62
752.636	27018.07
752.975	26988.7
753.313	26924.07
753.651	27015.14
753.989	26960.22
754.327	26863.95
754.666	26743.28
755.004	26775.6
755.342	26830.51
755.679	26733.79
756.017	26581.48
756.355	26580.8
756.693	26455.15
757.031	26559.1
757.368	26382.39
757.706	26347.36
758.044	26327.25
758.381	26307.36
758.719	26183.75
759.056	26177.42
759.394	26245.67
759.731	25955.28
760.068	25947.14
760.405	25821.27
760.743	25776.98
761.08	25683.87
761.417	25633.93
761.754	25576.98
762.091	25570.88
762.428	25451.56
762.765	25233.04
763.102	25503.31
763.438	25245.92
763.775	25069.2
764.112	25187.61
764.449	25150.55
764.785	25000.27
765.122	24817.91
765.458	24766.61
765.795	24749.43
766.131	24572.26
766.467	24543.56
766.804	24477.58
767.14	24351.03
767.476	24323
767.812	24353.96
768.148	24294.98
768.485	24106.06
768.821	24049.11
769.157	23964.6
769.492	23892.51
769.828	23908.1
770.164	23690.48
770.5	23659.52
770.836	23682.34
771.171	23428.56
771.507	23456.13
771.842	23317.16
772.178	23259.08
772.513	23236.71
772.849	23175.01
773.184	23014.79
773.519	23015.02
773.855	22902.48
774.19	22861.35
774.525	22740.67
774.86	22766.66
775.195	22696.83
775.53	22604.41
775.865	22424.52
776.2	22265.21
776.535	22209.84
776.87	22103.4
777.205	21978.43
777.539	21994.93
777.874	21964.65
778.209	21814.6
778.543	21904.09
778.878	21641.72
779.212	21617.76
779.547	21577.99
779.881	21552.91
780.215	21378
780.55	21476.98
780.884	21250.99
781.218	21205.57
781.552	21279.47
781.886	21080.38
782.22	20995.63
782.554	20909.99
782.888	20724
783.222	20758.58
783.556	20609.43
783.889	20515.42
784.223	20370.57
784.557	20335.31
784.89	20460.51
785.224	20304.35
785.557	20107.52
785.891	20015.1
786.224	19972.38
786.558	20114.3
786.891	19861.65
787.224	19778.94
787.557	19681.77
787.891	19705.27
788.224	19590.7
788.557	19674.99
788.89	19569.01
789.223	19607.2
789.556	19302.57
789.888	19361.78
790.221	19264.15
790.554	19109.13
790.887	19118.85
791.219	19119.07
791.552	18982.58
791.884	18919.3
792.217	18769.25
792.549	18807.67
792.882	18662.36
793.214	18594.34
793.546	18559.09
793.879	18515.93
794.211	18325.42
794.543	18431.41
794.875	18395.7
795.207	18368.58
795.539	18214.24
795.871	18190.96
796.203	17996.39
796.535	17975.6
796.867	17939.22
797.198	17906.9
797.53	17843.85
797.862	17786
798.193	17839.11
798.525	17635.95
798.856	17695.61
799.188	17464.43
799.519	17395.96
799.85	17362.51
800.182	17362.74
800.513	17357.99
800.844	17301.04
801.175	17328.16
801.506	17228.28
801.837	17095.62
802.168	17170.42
802.499	16996.19
802.83	16913.03
803.161	16941.73
803.491	16880.04
803.822	16947.15
804.153	16869.42
804.483	16751
804.814	16638.69
805.145	16624
805.475	16595.07
805.805	16508.29
806.136	16560.27
806.466	16563.89
806.796	16407.51
807.126	16276.44
807.457	16273.72
807.787	16350.11
808.117	16261.97
808.447	16116.67
808.777	16169.32
809.107	16130.68
809.436	16078.93
809.766	15963
810.096	16076.22
810.426	15927.07
810.755	15962.77
811.085	15835.54
811.414	15868.76
811.744	15717.13
812.073	15625.83
812.403	15690.69
812.732	15537.92
813.061	15554.42
813.39	15426.74
813.719	15407.31
814.049	15523.01
814.378	15422.22
814.707	15311.94
815.036	15373.86
815.365	15274.88
815.693	15187.43
816.022	15166.41
816.351	15060.88
816.68	14981.78
817.008	15113.3
817.337	14979.52
817.665	14912.4
817.994	14920.77
818.322	14883.25
818.651	14906.53
818.979	14842.12
819.307	14829.69
819.636	14750.6
819.964	14668.57
820.292	14798.51
820.62	14667.44
820.948	14687.78
821.276	14715.57
821.604	14563.94
821.932	14606.88
822.259	14692.75
822.587	14689.59
822.915	14586.76
823.243	14582.47
823.57	14569.59
823.898	14538.63
824.225	14545.63
824.553	14539.08
824.88	14556.93
825.207	14610.94
825.535	14521.91
825.862	14618.63
826.189	14511.51
826.516	14636.48
826.843	14681
827.17	14623.6
827.497	14625.41
827.824	14652.07
828.151	14646.87
828.478	14624.73
828.805	14690.94
829.131	14533.21
829.458	14492.75
829.785	14515.13
830.111	14491.85
830.438	14540.89
830.764	14465.18
831.09	14592.19
831.417	14491.4
831.743	14596.25
832.069	14539.76
832.395	14456.15
832.722	14555.8
833.048	14452.08
833.374	14472.19
833.7	14371.18
834.026	14455.47
834.351	14397.62
834.677	14339.99
835.003	14432.42
835.329	14397.39
835.654	14367.11
835.98	14303.15
836.306	14327.34
836.631	14229.03
836.956	14229.94
837.282	14284.4
837.607	14184.97
837.932	14200.33
838.258	14174.34
838.583	14118.53
838.908	14081.69
839.233	14086.66
839.558	14044.18
839.883	14097.28
840.208	14041.47
840.533	13992.43
840.858	13868.59
841.182	13934.58
841.507	13951.98
841.832	13859.32
842.156	13863.84
842.481	13831.08
842.805	13818.2
843.13	13748.59
843.454	13740.91
843.778	13707.24
844.103	13666.79
844.427	13634.25
844.751	13559.45
845.075	13601.48
845.399	13585.21
845.723	13495.49
846.047	13487.58
846.371	13368.94
846.695	13394.48
847.019	13212.34
847.343	13143.41
847.666	13182.05
847.99	13053.47
848.313	12970.99
848.637	13012.12
848.96	12948.84
849.284	12945.68
849.607	12816.41
849.931	12889.86
850.254	12778.22
850.577	12650.54
850.9	12547.04
851.223	12574.84
851.546	12508.85
851.869	12410.78
852.192	12477.44
852.515	12384.79
852.838	12302.98
853.161	12318.12
853.483	12303.89
853.806	12140.27
854.129	12278.35
854.451	12126.49
854.774	12179.37
855.096	12013.72
855.419	11961.3
855.741	12015.31
856.063	11987.96
856.385	11889.66
856.708	11910.9
857.03	11796.33
857.352	11778.7
857.674	11797.46
857.996	11752.04
858.318	11611.7
858.64	11586.62
858.961	11660.29
859.283	11532.38
859.605	11488.09
859.926	11548.2
860.248	11536
860.57	11397.02
860.891	11355.44
861.212	11336.45
861.534	11334.87
861.855	11295.55
862.176	11332.61
862.498	11268.88
862.819	11291.71
863.14	11192.73
863.461	11244.03
863.782	11148.44
864.103	11127.19
864.424	11121.54
864.745	11164.25
865.065	11163.35
865.386	11021.66
865.707	11017.14
866.027	11034.09
866.348	11064.6
866.668	11109.57
866.989	10974.88
867.309	10950.93
867.63	10947.54
867.95	10967.88
868.27	10918.16
868.59	10933.07
868.91	10858.05
869.23	10863.47
869.55	10795.9
869.87	10889.23
870.19	10798.84
870.51	10817.6
870.83	10822.57
871.15	10694.21
871.469	10801.78
871.789	10765.62
872.109	10743.47
872.428	10687.43
872.748	10740.08
873.067	10667.54
873.386	10729.01
873.706	10596.36
874.025	10631.84
874.344	10647.88
874.663	10571.5
874.982	10456.25
875.301	10510.49
875.62	10525.63
875.939	10423.48
876.258	10498.96
876.577	10415.12
876.896	10513.88
877.214	10409.47
877.533	10444.27
877.852	10346.42
878.17	10403.37
878.489	10397.72
878.807	10330.38
879.125	10338.51
879.444	10356.14
879.762	10258.74
880.08	10322.24
880.398	10285.18
880.716	10208.8
881.034	10277.95
881.352	10246.09
881.67	10171.74
881.988	10147.56
882.306	10152.3
882.624	10094.68
882.941	10087.9
883.259	10039.09
883.577	10029.14
883.894	10002.7
884.212	9971.52
884.529	9995.25
884.846	10025.08
885.164	9920.67
885.481	9927.68
885.798	9977.62
886.115	9867.34
886.432	9823.72
886.75	9842.93
887.067	9804.29
887.383	9779.88
887.7	9747.57
888.017	9659.66
888.334	9710.96
888.651	9732.88
888.967	9730.85
889.284	9570.4
889.6	9633.67
889.917	9508.7
890.233	9540.57
890.55	9467.58
890.866	9458.31
891.182	9423.96
891.498	9441.36
891.815	9412.21
892.131	9362.04
892.447	9321.37
892.763	9237.07
893.079	9270.97
893.395	9242.05
893.71	9241.59
894.026	9263.06
894.342	9212.67
894.657	9121.82
894.973	9128.6
895.289	9075.5
895.604	9087.25
895.92	8984.2
896.235	8958.66
896.55	8955.72
896.865	8940.81
897.181	8856.97
897.496	8896.52
897.811	8915.95
898.126	8822.62
898.441	8828.04
898.756	8795.96
899.071	8760.7
899.386	8681.83
899.7	8681.83
900.015	8608.62
900.33	8572.91
900.644	8581.27
900.959	8543.98
901.273	8515.28
901.588	8452.46
901.902	8462.63
902.216	8386.7
902.531	8421.95
902.845	8369.98
903.159	8398.45
903.473	8303.76
903.787	8228.74
904.101	8226.93
904.415	8287.04
904.729	8183.54
905.042	8161.4
905.356	8151.23
905.67	8088.86
905.984	8077.78
906.297	8077.1
906.611	7988.07
906.924	7981.29
907.237	7932.25
907.551	7921.63
907.864	7888.86
908.177	7905.36
908.491	7848.18
908.804	7785.36
909.117	7740.84
909.43	7731.35
909.743	7641.64
910.056	7671.46
910.368	7607.51
910.681	7582.2
910.994	7521.64
911.307	7525.93
911.619	7442.77
911.932	7496.1
912.244	7476.89
912.557	7441.19
912.869	7354.19
913.181	7357.35
913.494	7301.31
913.806	7271.7
914.118	7271.7
914.43	7215.43
914.742	7183.57
915.054	7151.93
915.366	7136.56
915.678	7165.26
915.99	7078.49
916.302	7020.86
916.613	7003.91
916.925	6948.09
917.236	6970.92
917.548	6938.15
917.859	6915.55
918.171	6865.84
918.482	6856.35
918.794	6802.56
919.105	6871.71
919.416	6789.45
919.727	6754.88
920.038	6702.68
920.349	6641.66
920.66	6708.55
920.971	6634.43
921.282	6607.99
921.593	6538.84
921.903	6519.86
922.214	6452.74
922.525	6503.36
922.835	6494.32
923.146	6436.7
923.456	6351.27
923.767	6358.28
924.077	6359.18
924.387	6397.15
924.697	6314.66
925.008	6328.45
925.318	6243.25
925.628	6213.42
925.938	6175.46
926.248	6195.35
926.558	6127.32
926.867	6120.32
927.177	6121.68
927.487	6092.98
927.796	6041.23
928.106	6028.8
928.416	6006.2
928.725	5974.56
929.034	5902.25
929.344	5938.86
929.653	5904.96
929.962	5887.33
930.271	5832.19
930.581	5818.41
930.89	5785.64
931.199	5777.5
931.508	5747.67
931.817	5729.37
932.125	5706.09
932.434	5667.45
932.743	5622.93
933.051	5600.11
933.36	5569.15
933.669	5497.96
933.977	5505.65
934.286	5521.46
934.594	5515.59
934.902	5497.74
935.21	5448.7
935.519	5416.83
935.827	5379.1
936.135	5382.71
936.443	5313.11
936.751	5299.55
937.059	5333
937.367	5235.14
937.674	5238.99
937.982	5286.89
938.29	5244.64
938.597	5201.25
938.905	5105.2
939.213	5148.82
939.52	5129.84
939.827	5137.97
940.135	5100.46
940.442	5037.64
940.749	5068.14
941.056	5095.04
941.363	4980.46
941.67	4971.2
941.977	4906.34
942.284	4921.93
942.591	4940.46
942.898	4921.25
943.205	4896.17
943.511	4890.97
943.818	4818.66
944.125	4796.74
944.431	4839.9
944.738	4747.25
945.044	4760.81
945.35	4797.64
945.657	4713.35
945.963	4688.04
946.269	4652.79
946.575	4672.9
946.881	4622.96
947.187	4608.49
947.493	4556.29
947.799	4563.3
948.105	4573.92
948.41	4550.87
948.716	4531.89
949.022	4474.49
949.327	4498.22
949.633	4392
949.938	4426.8
950.244	4447.82
950.549	4401.04
950.854	4382.51
951.16	4375.73
951.465	4381.16
951.77	4327.6
952.075	4325.79
952.38	4347.71
952.685	4296.64
952.99	4240.82
953.294	4215.96
953.599	4200.82
953.904	4224.78
954.209	4188.17
954.513	4157.43
954.818	4141.84
955.122	4082.86
955.426	4102.52
955.731	4096.87
956.035	4065.01
956.339	4027.04
956.643	4043.31
956.948	4005.35
957.252	3957.21
957.556	3989.3
957.86	3941.17
958.163	3954.95
958.467	3955.63
958.771	3906.37
959.075	3879.02
959.378	3885.58
959.682	3832.02
959.985	3800.61
960.289	3823.88
960.592	3817.33
960.896	3812.36
961.199	3809.42
961.502	3748.18
961.805	3748.4
962.108	3737.33
962.411	3690.78
962.714	3655.07
963.017	3714.51
963.32	3695.3
963.623	3649.42
963.926	3665.02
964.228	3570.1
964.531	3592.02
964.833	3582.98
965.136	3561.06
965.438	3576.21
965.741	3487.62
966.043	3513.38
966.345	3504.57
966.648	3509.99
966.95	3499.6
967.252	3462.08
967.554	3398.13
967.856	3445.59
968.158	3418.02
968.46	3379.83
968.761	3393.84
969.063	3402.2
969.365	3390.22
969.666	3369.43
969.968	3355.19
970.269	3335.99
970.571	3284.91
970.872	3280.17
971.174	3263.45
971.475	3253.73
971.776	3243.11
972.077	3218.25
972.378	3224.12
972.679	3211.7
972.98	3206.27
973.281	3175.99
973.582	3140.74
973.883	3157.69
974.183	3128.99
974.484	3125.37
974.785	3105.48
975.085	3109.55
975.386	3132.15
975.686	3054.19
975.986	2999.95
976.287	3026.62
976.587	2987.29
976.887	3015.32
977.187	2968.31
977.487	3000.4
977.787	3015.99
978.087	2911.36
978.387	2938.93
978.687	2954.3
978.987	2909.33
979.286	2887.64
979.586	2900.74
979.885	2846.06
980.185	2854.42
980.484	2841.54
980.784	2852.16
981.083	2869.33
981.382	2843.34
981.682	2856.22
981.981	2808.77
982.28	2774.64
982.579	2727.64
982.878	2747.53
983.177	2745.04
983.475	2736.91
983.774	2689.9
984.073	2750.92
984.372	2690.58
984.67	2691.71
984.969	2651.03
985.267	2696.45
985.566	2661.65
985.864	2624.59
986.162	2653.07
986.461	2623.91
986.759	2607.87
987.057	2585.05
987.355	2555.89
987.653	2570.13
987.951	2578.72
988.249	2530.36
988.547	2548.44
988.844	2553.41
989.142	2552.28
989.44	2470.47
989.737	2487.65
990.035	2501.21
990.332	2451.04
990.63	2458.04
990.927	2418.95
991.224	2423.69
991.521	2437.25
991.819	2419.17
992.116	2391.38
992.413	2378.72
992.71	2368.1
993.006	2352.51
993.303	2363.58
993.6	2385.05
993.897	2323.58
994.193	2322.23
994.49	2300.31
994.787	2323.58
995.083	2254.21
995.379	2284.04
995.676	2248.56
995.972	2232.29
996.268	2230.03
996.565	2227.09
996.861	2237.48
997.157	2192.06
997.453	2223.47
997.749	2208.78
998.044	2209.01
998.34	2163.59
998.636	2182.57
998.932	2145.96
999.227	2113.64
999.523	2152.97
999.818	2115.68
1000.114	2126.98
1000.409	2094.66
1000.704	2096.7
1001	2077.71
1001.295	2081.56
1001.59	2079.07
1001.885	2062.57
1002.18	2026.42
1002.475	2022.57
1002.77	1966.98
1003.065	1980.09
1003.359	2002.69
1003.654	1981.22
1003.949	1956.81
1004.243	1930.37
1004.538	1925.4
1004.832	1941.22
1005.127	1922.92
1005.421	1906.42
1005.715	1886.53
1006.009	1896.48
1006.304	1889.47
1006.598	1880.66
1006.892	1854.22
1007.186	1837.49
1007.48	1831.62
1007.773	1821.68
1008.067	1768.8
1008.361	1810.15
1008.655	1796.37
1008.948	1798.17
1009.242	1764.05
1009.535	1764.95
1009.829	1747.1
1010.122	1749.13
1010.415	1741.9
1010.708	1717.72
1011.001	1706.65
1011.295	1713.43
1011.588	1720.66
1011.881	1706.88
1012.173	1671.62
1012.466	1670.49
1012.759	1674.11
1013.052	1671.17
1013.344	1609.03
1013.637	1649.48
1013.93	1626.65
1014.222	1610.16
1014.514	1601.57
1014.807	1586.88
1015.099	1584.85
1015.391	1586.65
1015.683	1566.77
1015.976	1570.16
1016.268	1557.73
1016.56	1564.96
1016.851	1539.2
1017.143	1523.38
1017.435	1522.93
1017.727	1497.62
1018.018	1479.76
1018.31	1476.15
1018.602	1490.16
1018.893	1469.59
1019.185	1453.1
1019.476	1432.98
1019.767	1441.12
1020.058	1414.23
1020.35	1406.54
1020.641	1394.79
1020.932	1398.18
1021.223	1391.86
1021.514	1393.66
1021.804	1374.68
1022.095	1374.91
1022.386	1341.01
1022.677	1336.26
1022.967	1332.2
1023.258	1339.65
1023.548	1306.89
1023.839	1300.56
1024.129	1306.43
1024.419	1311.18
1024.709	1275.02
1025	1272.76
1025.29	1247.91
1025.58	1272.54
1025.87	1259.66
1026.16	1243.16
1026.449	1255.36
1026.739	1247.45
1027.029	1218.08
1027.319	1197.28
1027.608	1190.51
1027.898	1194.57
1028.187	1179.43
1028.477	1194.12
1028.766	1168.81
1029.055	1161.35
1029.344	1185.53
1029.634	1156.83
1029.923	1154.57
1030.212	1139.66
1030.501	1117.29
1030.79	1114.12
1031.078	1103.73
1031.367	1080.23
1031.656	1088.14
1031.945	1094.69
1032.233	1074.12
1032.522	1080.68
1032.81	1054.69
1033.099	1065.08
1033.387	1056.72
1033.675	1046.78
1033.963	1047.01
1034.251	1034.35
1034.54	1023.28
1034.828	1003.62
1035.116	1025.76
1035.403	981.92
1035.691	992.77
1035.979	998.42
1036.267	1009.04
1036.554	998.87
1036.842	999.78
1037.129	962.26
1037.417	964.52
1037.704	946.67
1037.992	979.89
1038.279	948.48
1038.566	932.89
1038.853	932.89
1039.14	932.89
