Data from hue_350_FLMS001491_67.txt Node
Date: Mon Feb 06 15:38:22 GMT 2017
User: dcchb
Spectrometer: FLMS00149
Trigger mode: 0
Integration Time (sec): 2.000000E-2
Scans to average: 10
Electric dark correction enabled: true
Nonlinearity correction enabled: false
Boxcar width: 0
XAxis mode: Wavelengths
Number of Pixels in Spectrum: 2048
>>>>>Begin Spectral Data<<<<<
341.393	-40.52
341.776	-40.52
342.16	-40.52
342.543	-70.58
342.927	-57.92
343.31	-73.06
343.693	-64.48
344.077	-61.31
344.46	-67.19
344.843	-46.62
345.226	-33.52
345.61	-38.49
345.993	-24.7
346.376	11.23
346.759	-13.4
347.142	26.37
347.525	39.93
347.908	62.07
348.291	84.9
348.674	92.81
349.057	105.46
349.44	109.31
349.823	134.16
350.206	159.02
350.588	198.12
350.971	204.44
351.354	214.61
351.737	267.94
352.119	257.32
352.502	268.62
352.884	310.43
353.267	270.43
353.65	331.9
354.032	297.55
354.414	302.07
354.797	301.84
355.179	328.73
355.562	320.37
355.944	340.03
356.326	328.96
356.709	338.68
357.091	339.81
357.473	336.19
357.855	347.94
358.238	333.71
358.62	349.07
359.002	349.07
359.384	339.58
359.766	325.8
360.148	333.71
360.53	333.93
360.912	334.16
361.294	356.08
361.676	340.71
362.057	329.86
362.439	319.24
362.821	342.52
363.203	317.44
363.584	317.66
363.966	307.04
364.348	329.64
364.729	319.69
365.111	307.49
365.493	331.45
365.874	336.64
366.256	317.44
366.637	323.76
367.019	327.38
367.4	324.21
367.781	327.15
368.163	308.4
368.544	316.31
368.925	296.64
369.306	331.45
369.688	307.04
370.069	315.85
370.45	320.15
370.831	313.37
371.212	312.69
371.593	318.34
371.974	299.36
372.355	322.86
372.736	305.46
373.117	325.12
373.498	314.5
373.879	319.02
374.26	296.19
374.641	325.34
375.021	321.28
375.402	307.49
375.783	323.99
376.163	321.95
376.544	321.73
376.925	314.27
377.305	323.31
377.686	323.99
378.066	312.92
378.447	328.28
378.827	329.41
379.208	330.32
379.588	329.86
379.968	329.41
380.349	337.55
380.729	347.72
381.109	348.62
381.489	322.63
381.87	330.54
382.25	340.71
382.63	324.44
383.01	326.25
383.39	325.8
383.77	343.42
384.15	325.8
384.53	350.88
384.91	340.49
385.29	351.33
385.67	345.23
386.049	347.94
386.429	341.16
386.809	343.42
387.189	335.29
387.568	339.13
387.948	330.54
388.328	341.16
388.707	348.85
389.087	354.5
389.466	351.78
389.846	377.77
390.225	368.28
390.605	366.7
390.984	354.27
391.363	366.7
391.743	374.61
392.122	352.91
392.501	333.48
392.881	354.5
393.26	346.81
393.639	360.37
394.018	371.22
394.397	364.44
394.776	366.7
395.155	334.38
395.534	396.3
395.913	379.81
396.292	373.93
396.671	362.41
397.05	384.33
397.429	362.41
397.808	383.42
398.186	342.07
398.565	372.57
398.944	374.61
399.323	392.24
399.701	395.17
400.08	385.23
400.458	389.52
400.837	407.38
401.215	390.2
401.594	383.87
401.972	394.72
402.351	399.92
402.729	379.58
403.107	381.84
403.486	385.23
403.864	394.27
404.242	398.56
404.62	400.6
404.999	414.83
405.377	394.5
405.755	384.78
406.133	415.06
406.511	414.61
406.889	403.76
407.267	431.78
407.645	428.84
408.023	408.51
408.401	427.26
408.779	419.35
409.156	412.12
409.534	420.71
409.912	424.1
410.29	422.07
410.667	462.97
411.045	447.15
411.422	430.88
411.8	459.8
412.178	439.92
412.555	447.83
412.933	438.34
413.31	456.64
413.687	469.52
414.065	466.81
414.442	469.75
414.819	475.62
415.197	495.74
415.574	486.7
415.951	487.37
416.328	474.72
416.705	468.62
417.082	501.61
417.46	465.91
417.837	499.13
418.214	482.4
418.591	492.57
418.967	511.33
419.344	487.6
419.721	524.44
420.098	516.53
420.475	497.09
420.852	502.74
421.228	512.68
421.605	526.02
421.982	525.57
422.358	521.95
422.735	530.54
423.111	509.97
423.488	552.23
423.864	548.84
424.241	550.42
424.617	535.28
424.994	551.33
425.37	559.69
425.746	544.32
426.123	561.95
426.499	559.69
426.875	545
427.251	573.47
427.627	566.47
428.003	580.03
428.379	565.11
428.756	585.68
429.132	616.41
429.507	604.43
429.883	606.02
430.259	605.79
430.635	618.9
431.011	610.99
431.387	623.87
431.763	615.96
432.138	647.82
432.514	633.36
432.89	647.82
433.265	663.19
433.641	661.38
434.016	651.66
434.392	667.26
434.767	683.75
435.143	674.04
435.518	702.96
435.894	659.8
436.269	704.32
436.644	690.31
437.02	711.1
437.395	718.78
437.77	709.52
438.145	710.42
438.52	717.88
438.895	730.31
439.271	728.95
439.646	716.29
440.021	748.61
440.395	751.32
440.77	743.86
441.145	750.87
441.52	762.4
441.895	748.38
442.27	741.83
442.645	766.01
443.019	777.08
443.394	774.37
443.769	761.49
444.143	754.26
444.518	772.34
444.892	773.69
445.267	783.41
445.641	773.24
446.016	783.86
446.39	797.87
446.764	780.47
447.139	806.69
447.513	781.83
447.887	796.97
448.262	804.2
448.636	812.34
449.01	797.2
449.384	846.46
449.758	829.51
450.132	834.71
450.506	812.56
450.88	846.46
451.254	853.01
451.628	860.47
452.002	858.66
452.376	878.78
452.75	886.91
453.123	887.14
453.497	890.08
453.871	888.04
454.244	888.72
454.618	879
454.992	902.5
455.365	915.39
455.739	947.02
456.112	939.79
456.486	928.49
456.859	934.37
457.232	954.71
457.606	975.95
457.979	974.37
458.352	1003.29
458.725	992.45
459.099	995.84
459.472	1004.42
459.845	1016.4
460.218	1006
460.591	1044.87
460.964	1028.38
461.337	1043.07
461.71	1058.88
462.083	1093.01
462.456	1071.31
462.829	1072.22
463.201	1118.09
463.574	1106.34
463.947	1134.59
464.32	1140.01
464.692	1125.78
465.065	1141.14
465.438	1146.57
465.81	1159.22
466.183	1166.23
466.555	1225.43
466.928	1220.91
467.3	1186.56
467.672	1211.42
468.045	1225.66
468.417	1242.61
468.789	1236.73
469.161	1257.98
469.534	1297.97
469.906	1313.34
470.278	1338.2
470.65	1321.25
471.022	1365.09
471.394	1374.58
471.766	1395.37
472.138	1392.44
472.51	1412.1
472.882	1426.78
473.253	1466.33
473.625	1460.46
473.997	1478.31
474.369	1501.58
474.74	1525.54
475.112	1570.28
475.484	1562.37
475.855	1612.09
476.227	1622.26
476.598	1666.33
476.97	1646.89
477.341	1698.64
477.713	1744.29
478.084	1737.96
478.455	1779.54
478.827	1810.73
479.198	1839.2
479.569	1838.3
479.94	1917.17
480.311	1941.35
480.682	1957.39
481.053	2009.14
481.424	2051.17
481.795	2086.65
482.166	2059.08
482.537	2111.96
482.908	2149.03
483.279	2181.79
483.65	2184.05
484.021	2259.98
484.391	2316.7
484.762	2318.51
485.133	2346.08
485.503	2394.44
485.874	2419.98
486.244	2468.34
486.615	2519.19
486.985	2529.58
487.356	2582.01
487.726	2589.69
488.097	2631.95
488.467	2657.94
488.837	2718.73
489.207	2709.69
489.578	2756.02
489.948	2811.15
490.318	2838.95
490.688	2850.7
491.058	2884.83
491.428	2933.86
491.798	2976.35
492.168	3022
492.538	3058.15
492.908	3080.3
493.278	3102.45
493.648	3151.03
494.017	3171.6
494.387	3216.79
494.757	3200.75
495.126	3253.4
495.496	3284.59
495.866	3299.28
496.235	3339.73
496.605	3325.94
496.974	3370.91
497.344	3396
497.713	3418.14
498.082	3457.24
498.452	3525.26
498.821	3514.19
499.19	3553.73
499.559	3577.24
499.928	3579.95
500.298	3588.31
500.667	3627.86
501.036	3614.3
501.405	3662.21
501.774	3666.5
502.143	3697.91
502.512	3715.09
502.88	3744.46
503.249	3762.54
503.618	3759.38
503.987	3774.75
504.356	3819.04
504.724	3847.29
505.093	3861.75
505.462	3855.87
505.83	3871.01
506.199	3879.6
506.567	3939.71
506.936	3928.64
507.304	3977
507.672	3992.59
508.041	3995.08
508.409	4005.47
508.777	4052.25
509.145	4088.86
509.514	4049.77
509.882	4071.46
510.25	4092.93
510.618	4119.14
510.986	4132.02
511.354	4172.02
511.722	4185.58
512.09	4210.44
512.458	4189.2
512.826	4275.75
513.193	4282.53
513.561	4244.56
513.929	4318.23
514.297	4353.04
514.664	4324.56
515.032	4360.27
515.4	4371.11
515.767	4371.34
516.135	4332.02
516.502	4382.19
516.869	4429.19
517.237	4461.06
517.604	4442.75
517.972	4458.8
518.339	4472.58
518.706	4504.44
519.073	4460.83
519.44	4527.72
519.808	4536.76
520.175	4544.67
520.542	4602.29
520.909	4559.13
521.276	4580.83
521.643	4631.9
522.009	4655.63
522.376	4661.95
522.743	4677.32
523.11	4681.84
523.477	4731.1
523.843	4774.27
524.21	4795.96
524.577	4802.74
524.943	4843.64
525.31	4834.83
525.676	4926.81
526.043	4898.11
526.409	4934.71
526.776	5031.44
527.142	5040.93
527.508	5012.23
527.874	5074.37
528.241	5084.32
528.607	5063.75
528.973	5063.98
529.339	5097.65
529.705	5164.77
530.071	5226.23
530.437	5208.15
530.803	5255.61
531.169	5231.88
531.535	5254.48
531.901	5321.15
532.267	5305.78
532.632	5344.65
532.998	5338.32
533.364	5353.91
533.73	5411.54
534.095	5437.75
534.461	5437.07
534.826	5514.13
535.192	5517.07
535.557	5534.47
535.923	5546.45
536.288	5567.24
536.653	5618.76
537.019	5593
537.384	5622.61
537.749	5630.29
538.114	5668.48
538.479	5676.39
538.845	5700.12
539.21	5739.21
539.575	5735.15
539.94	5731.3
540.305	5813.79
540.67	5793
541.034	5846.56
541.399	5869.83
541.764	5870.96
542.129	5867.8
542.494	5922.03
542.858	5899.89
543.223	5986.89
543.587	6021.24
543.952	6025.76
544.316	6015.14
544.681	6107.57
545.045	6060.34
545.41	6103.95
545.774	6133.33
546.138	6180.56
546.503	6164.29
546.867	6183.95
547.231	6252.19
547.595	6232.53
547.959	6281.35
548.324	6314.34
548.688	6295.81
549.052	6352.3
549.416	6368.12
549.779	6362.93
550.143	6383.04
550.507	6429.36
550.871	6429.59
551.235	6461.91
551.599	6491.28
551.962	6487.22
552.326	6512.07
552.689	6549.36
553.053	6525.63
553.417	6544.62
553.78	6679.98
554.143	6563.37
554.507	6624.16
554.87	6655.12
555.234	6701.45
555.597	6682.69
555.96	6776.02
556.323	6716.81
556.686	6775.8
557.05	6762.24
557.413	6783.03
557.776	6785.97
558.139	6886.08
558.502	6835.23
558.865	6903.48
559.228	6953.64
559.59	6948
559.953	6898.51
560.316	7011.27
560.679	7063.02
561.041	7049.69
561.404	7038.84
561.767	7104.83
562.129	7124.04
562.492	7118.84
562.854	7158.16
563.217	7208.1
563.579	7204.94
563.941	7234.77
564.304	7248.1
564.666	7297.36
565.028	7285.84
565.39	7310.25
565.753	7314.31
566.115	7361.54
566.477	7378.49
566.839	7419.85
567.201	7489.22
567.563	7455.78
567.925	7529.22
568.287	7510.47
568.648	7543.46
569.01	7609.45
569.372	7658.49
569.734	7685.38
570.095	7691.25
570.457	7753.85
570.819	7771.93
571.18	7736.68
571.542	7807.41
571.903	7883.79
572.265	7898.7
572.626	7878.37
572.987	7971.25
573.349	7984.13
573.71	8036.1
574.071	8078.14
574.432	8229.77
574.794	8218.7
575.155	8290.56
575.516	8245.14
575.877	8335.53
576.238	8457.11
576.599	8453.49
576.96	8457.79
577.32	8614.62
577.681	8645.13
578.042	8760.38
578.403	8739.13
578.763	8905.23
579.124	8978
579.485	9067.04
579.845	9206.69
580.206	9244.21
580.566	9361.49
580.927	9394.71
581.287	9647.13
581.648	9664.31
582.008	9782.05
582.368	9893.23
582.728	10062.94
583.089	10118.53
583.449	10299.77
583.809	10487.56
584.169	10619.09
584.529	10768.91
584.889	11001.45
585.249	11064.27
585.609	11253.87
585.969	11508.1
586.329	11613.86
586.688	11877.81
587.048	12066.73
587.408	12202.77
587.768	12441.18
588.127	12668.52
588.487	12877.56
588.846	13166.14
589.206	13374.27
589.565	13521.38
589.925	13881.15
590.284	14045.44
590.643	14301.47
591.003	14662.82
591.362	14894.68
591.721	15068.69
592.08	15384.61
592.44	15673.64
592.799	15851.26
593.158	16137.81
593.517	16488.08
593.876	16741.64
594.235	17017.79
594.593	17276.09
594.952	17672.69
595.311	17877.43
595.67	18128.94
596.029	18580.01
596.387	18900.68
596.746	19063.83
597.104	19210.5
597.463	19635.35
597.822	19993.08
598.18	20129.57
598.538	20391.26
598.897	20840.74
599.255	20927.29
599.613	21425.58
599.972	21593.03
600.33	21931.33
600.688	22248.61
601.046	22539.22
601.404	22847.69
601.762	23092.66
602.12	23426.21
602.478	23741.45
602.836	23973.54
603.194	24180.08
603.552	24448.1
603.91	24639.06
604.268	25064.13
604.625	25160.62
604.983	25685.13
605.341	25640.61
605.698	26066.59
606.056	26309.07
606.413	26499.8
606.771	26931.42
607.128	27080.8
607.485	27142.94
607.843	27567.34
608.2	27856.6
608.557	28094.56
608.914	28243.48
609.272	28523.7
609.629	28719.4
609.986	29127.98
610.343	29170.01
610.7	29536.78
611.057	29675.08
611.414	29852.93
611.771	30086.6
612.127	30330.88
612.484	30543.99
612.841	30783.53
613.198	30939
613.554	31041.15
613.911	31360.23
614.267	31479.33
614.624	31597.06
614.98	31857.4
615.337	32032.53
615.693	32115.24
616.05	32389.36
616.406	32593.2
616.762	32511.62
617.118	32776.02
617.475	32915.45
617.831	33095.56
618.187	33194.54
618.543	33297.81
618.899	33646.28
619.255	33630.68
619.611	33916.1
619.967	34022.09
620.323	34111.12
620.678	34227.73
621.034	34260.05
621.39	34360.61
621.746	34473.15
622.101	34872.46
622.457	34577.1
622.812	34876.3
623.168	35021.38
623.523	35121.94
623.879	35374.82
624.234	35149.06
624.589	35472.44
624.945	35698.65
625.3	35614.81
625.655	35702.04
626.01	35743.17
626.365	35835.37
626.72	35792.21
627.075	35998.08
627.43	35984.07
627.785	35964.86
628.14	36044.18
628.495	36172.76
628.85	36229.26
629.205	36154.01
629.559	36413.89
629.914	36280.56
630.269	36401.68
630.623	36433.77
630.978	36315.58
631.332	36563.26
631.687	36663.37
632.041	36447.56
632.396	36626.99
632.75	36465.64
633.104	36687.1
633.459	36359.2
633.813	36413.21
634.167	36501.57
634.521	36613.88
634.875	36589.25
635.229	36633.54
635.583	36399.42
635.937	36459.54
636.291	36574.11
636.645	36465.41
636.999	36626.31
637.352	36767.55
637.706	36507.22
638.06	36643.49
638.413	36535.01
638.767	36571.4
639.121	36556.03
639.474	36535.47
639.828	36555.8
640.181	36619.08
640.534	36558.29
640.888	36461.8
641.241	36382.48
641.594	36528.69
641.947	36650.49
642.301	36442.14
642.654	36515.35
643.007	36542.7
643.36	36511.74
643.713	36488.46
644.066	36471.96
644.419	36333.44
644.771	36225.42
645.124	35816.39
645.477	35784.07
645.83	35639.67
646.182	35511.99
646.535	35394.25
646.888	35440.13
647.24	35368.04
647.593	35520.13
647.945	35417.08
648.298	35288.27
648.65	35213.92
649.002	35120.14
649.355	35219.12
649.707	35226.8
650.059	35478.32
650.411	35796.28
650.763	35877.63
651.115	36224.06
651.467	36020.45
651.819	36059.77
652.171	36016.84
652.523	36067.23
652.875	36062.48
653.227	35907.46
653.578	36193.33
653.93	36011.41
654.282	35888.48
654.633	35762.38
654.985	35920.57
655.337	35882.6
655.688	36014.8
656.039	36046.21
656.391	35661.59
656.742	35846.67
657.094	35815.48
657.445	35943.62
657.796	35856.84
658.147	35698.88
658.498	35757.18
658.849	35871.98
659.2	35809.16
659.551	35805.54
659.902	35851.42
660.253	35779.1
660.604	35864.3
660.955	35632.89
661.306	35868.36
661.656	35828.14
662.007	35723.74
662.358	35628.15
662.708	35694.36
663.059	35668.6
663.409	35476.74
663.76	35772.1
664.11	35661.82
664.461	35768.93
664.811	35657.97
665.161	35625.21
665.511	35557.19
665.862	35670.86
666.212	35700.91
666.562	35726.67
666.912	35589.05
667.262	35624.76
667.612	35694.13
667.962	35655.26
668.312	35657.3
668.662	35629.5
669.011	35749.72
669.361	35654.59
669.711	35438.09
670.06	35567.58
670.41	35510.86
670.76	35470.18
671.109	35646.45
671.459	35611.65
671.808	35406.46
672.157	35558.99
672.507	35370.52
672.856	35316.51
673.205	35383.18
673.554	35516.06
673.904	35330.75
674.253	35538.88
674.602	35374.37
674.951	34904.1
675.3	34743.87
675.649	35201.94
675.998	35166.91
676.346	35270.87
676.695	35367.59
677.044	35058.44
677.393	35276.97
677.741	35177.31
678.09	35164.2
678.438	35089.18
678.787	35161.72
679.135	35110.87
679.484	35023.64
679.832	35150.87
680.181	34882.85
680.529	34972.12
680.877	34813.93
681.225	34782.74
681.573	34864.32
681.922	34746.81
682.27	34612.13
682.618	34770.09
682.966	34582.07
683.314	34603.54
683.661	34616.19
684.009	34291.46
684.357	34326.48
684.705	34308.63
685.053	34383.88
685.4	34262.53
685.748	34166.71
686.095	34110.9
686.443	33965.82
686.79	33984.12
687.138	33997.68
687.485	33886.5
687.832	33869.55
688.18	33835.88
688.527	33765.6
688.874	33714.07
689.221	33737.57
689.568	33570.8
689.915	33429.78
690.262	33488.09
690.609	33464.13
690.956	33307.08
691.303	33145.5
691.65	33115.44
691.997	33071.6
692.344	32910.48
692.69	32768.56
693.037	32873.42
693.383	32676.58
693.73	32818.95
694.077	32544.38
694.423	32573.54
694.769	32410.6
695.116	32330.15
695.462	32445.4
695.808	32164.96
696.155	32243.83
696.501	32025.3
696.847	31958.64
697.193	31851.75
697.539	31971.07
697.885	31660.11
698.231	31623.96
698.577	31688.81
698.923	31486.11
699.269	31457.41
699.614	31233.01
699.96	31288.15
700.306	31253.57
700.651	31042.5
700.997	30984.2
701.342	30809.29
701.688	30946.01
702.033	30787.82
702.379	30797.09
702.724	30745.79
703.069	30750.08
703.415	30317.1
703.76	30472.35
704.105	30429.64
704.45	30225.8
704.795	30201.85
705.14	29999.59
705.485	29951.46
705.83	29895.19
706.175	29972.7
706.52	29827.39
706.865	29655.87
707.209	29670.79
707.554	29628.08
707.899	29729.77
708.243	29574.52
708.588	29471.02
708.932	29372.72
709.277	29177.24
709.621	29277.58
709.966	29086.62
710.31	29309.89
710.654	28884.82
710.998	28939.28
711.342	29059.05
711.687	28868.32
712.031	28796.91
712.375	28632.17
712.719	28828.78
713.063	28716.46
713.407	28618.16
713.75	28560.76
714.094	28511.5
714.438	28384.49
714.782	28477.82
715.125	28292.97
715.469	28381.78
715.812	28153.31
716.156	28043.26
716.499	28025.86
716.843	28153.77
717.186	27875.81
717.53	28169.13
717.873	28021.57
718.216	27971.17
718.559	27828.8
718.902	27663.38
719.246	27727.79
719.589	27697.73
719.932	27497.29
720.275	27539.32
720.617	27567.57
720.96	27410.73
721.303	27356.05
721.646	27444.86
721.989	27243.51
722.331	27300.23
722.674	27171.42
723.016	27351.07
723.359	27163.51
723.701	27149.27
724.044	26991.54
724.386	26785.21
724.729	26992.89
725.071	26885.1
725.413	26962.61
725.755	26900.47
726.097	26767.59
726.439	26723.97
726.782	26632.22
727.124	26786.12
727.465	26598.33
727.807	26539.34
728.149	26558.33
728.491	26571.66
728.833	26493.92
729.175	26383.64
729.516	26400.59
729.858	26398.11
730.199	26346.81
730.541	26256.41
730.882	26260.26
731.224	26302.06
731.565	26078.57
731.906	26237.88
732.248	26068.4
732.589	25906.37
732.93	25990.88
733.271	25991.79
733.612	25992.01
733.953	26031.79
734.294	25777.1
734.635	25822.53
734.976	25938.23
735.317	25685.81
735.658	25567.17
735.999	25657.11
736.339	25721.06
736.68	25677.67
737.021	25498.24
737.361	25513.38
737.702	25642.42
738.042	25408.07
738.383	25438.81
738.723	25457.34
739.063	25259.15
739.404	25463.89
739.744	25217.8
740.084	25196.56
740.424	25283.56
740.764	25247.85
741.104	25252.37
741.444	25049.44
741.784	25096.67
742.124	25133.73
742.464	25056.45
742.804	24987.75
743.143	24868.88
743.483	25066.84
743.823	24887.41
744.162	24869.56
744.502	24871.82
744.841	24667.53
745.181	24795.21
745.52	24672.05
745.86	24698.49
746.199	24736.68
746.538	24542.33
746.877	24666.63
747.216	24577.36
747.556	24554.54
747.895	24501.88
748.234	24424.37
748.573	24342.57
748.911	24291.27
749.25	24302.79
749.589	24202
749.928	24292.4
750.267	24315.67
750.605	24173.31
750.944	24260.53
751.283	24119.97
751.621	24157.26
751.96	23892.41
752.298	23928.11
752.636	24001.33
752.975	23868.68
753.313	23825.07
753.651	23864.39
753.989	23792.3
754.327	23709.36
754.666	23699.87
755.004	23654.9
755.342	23625.3
755.679	23537.16
756.017	23439.77
756.355	23485.87
756.693	23329.03
757.031	23388.69
757.368	23334.23
757.706	23361.35
758.044	23200
758.381	23157.51
758.719	23150.06
759.056	23137.17
759.394	22996.61
759.731	22745.32
760.068	22853.11
760.405	22806.34
760.743	22723.4
761.08	22830.06
761.417	22609.5
761.754	22505.55
762.091	22511.88
762.428	22369.51
762.765	22263.75
763.102	22394.37
763.438	22210.42
763.775	22182.62
764.112	22173.13
764.449	22196.86
764.785	21997.32
765.122	21901.5
765.458	21882.52
765.795	21788.28
766.131	21734.27
766.467	21701.05
766.804	21724.56
767.14	21488.4
767.476	21500.61
767.812	21427.16
768.148	21354.62
768.485	21301.97
768.821	21210.9
769.157	21124.8
769.492	21123.44
769.828	21139.26
770.164	20836.9
770.5	20818.82
770.836	20809.78
771.171	20628.77
771.507	20619.73
771.842	20564.36
772.178	20401.65
772.513	20454.53
772.849	20390.13
773.184	20328.21
773.519	20236.69
773.855	20154.65
774.19	20080.31
774.525	20049.12
774.86	19962.12
775.195	19860.65
775.53	19943.81
775.865	19793.99
776.2	19591.05
776.535	19562.58
776.87	19485.97
777.205	19565.29
777.539	19359.42
777.874	19478.74
778.209	19319.2
778.543	19256.15
778.878	19059.99
779.212	19090.05
779.547	18928.47
779.881	18941.58
780.215	18856.16
780.55	18849.38
780.884	18728.93
781.218	18558.09
781.552	18720.57
781.886	18559.89
782.22	18427.92
782.554	18366.9
782.888	18320.8
783.222	18194.71
783.556	18106.8
783.889	18084.65
784.223	17927.82
784.557	17919.46
784.89	17843.75
785.224	17815.51
785.557	17711.78
785.891	17715.4
786.224	17597.88
786.558	17618
786.891	17584.1
787.224	17424.1
787.557	17366.93
787.891	17371.68
788.224	17368.29
788.557	17264.79
788.89	17223.88
789.223	17202.19
789.556	17049.42
789.888	16963.33
790.221	17010.56
790.554	16830.67
790.887	16918.13
791.219	16707.51
791.552	16719.72
791.884	16677.68
792.217	16644.92
792.549	16513.17
792.882	16358.6
793.214	16328.99
793.546	16401.53
793.879	16236.56
794.211	16115.89
794.543	16227.98
794.875	16225.72
795.207	16171.26
795.539	16128.09
795.871	15978.27
796.203	15929.91
796.535	15853.75
796.867	15822.56
797.198	15808.1
797.53	15812.39
797.862	15620.31
798.193	15700.31
798.525	15558.16
798.856	15678.39
799.188	15385.29
799.519	15412.18
799.85	15355.01
800.182	15320.66
800.513	15289.47
800.844	15166.99
801.175	15283.6
801.506	15173.09
801.837	15127.67
802.168	15072.98
802.499	15028.46
802.83	14958.18
803.161	14935.36
803.491	14884.06
803.822	14800.9
804.153	14786.66
804.483	14648.81
804.814	14555.25
805.145	14629.38
805.475	14634.8
805.805	14570.17
806.136	14476.16
806.466	14568.59
806.796	14466.89
807.126	14263.74
807.457	14260.35
807.787	14379.44
808.117	14282.94
808.447	14170.86
808.777	14228.48
809.107	14157.3
809.436	14093.57
809.766	14139.22
810.096	14035.27
810.426	13889.96
810.755	14041.82
811.085	13920.02
811.414	13982.84
811.744	13771.54
812.073	13811.32
812.403	13771.77
812.732	13748.27
813.061	13732.9
813.39	13621.27
813.719	13636.41
814.049	13671.21
814.378	13619.46
814.707	13487.48
815.036	13566.8
815.365	13442.97
815.693	13305.79
816.022	13381.27
816.351	13278.68
816.68	13311.67
817.008	13306.47
817.337	13157.1
817.665	13129.75
817.994	13136.08
818.322	13046.82
818.651	13112.58
818.979	12951.45
819.307	13079.59
819.636	12984.9
819.964	12887.05
820.292	12994.62
820.62	12957.78
820.948	12873.04
821.276	12904.22
821.604	12855.18
821.932	12867.16
822.259	13010.21
822.587	12852.7
822.915	12921.17
823.243	12862.19
823.57	12848.63
823.898	12904.45
824.225	12888.4
824.553	12863.32
824.88	12895.64
825.207	12882.3
825.535	12836.65
825.862	12868.74
826.189	12818.35
826.516	12912.81
826.843	12877.1
827.17	12789.42
827.497	12902.64
827.824	12760.72
828.151	12908.06
828.478	12810.89
828.805	12808.63
829.131	12791.01
829.458	12803.89
829.785	12764.57
830.111	12702.65
830.438	12845.02
830.764	12776.54
831.09	12776.09
831.417	12738.13
831.743	12896.99
832.069	12739.26
832.395	12749.65
832.722	12701.97
833.048	12736.09
833.374	12775.86
833.7	12674.62
834.026	12719.37
834.351	12756.66
834.677	12663.78
835.003	12677.79
835.329	12664.68
835.654	12672.59
835.98	12504.46
836.306	12632.37
836.631	12558.02
836.956	12602.31
837.282	12631.69
837.607	12520.73
837.932	12538.13
838.258	12490.22
838.583	12451.35
838.908	12418.81
839.233	12439.15
839.558	12356.89
839.883	12378.13
840.208	12424.46
840.533	12367.97
840.858	12242.09
841.182	12319.15
841.507	12274.63
841.832	12181.3
842.156	12168.65
842.481	12264.69
842.805	12080.29
843.13	12219.5
843.454	12133.17
843.778	12083.45
844.103	12038.71
844.427	12000.74
844.751	12000.74
845.075	11866.28
845.399	11931.37
845.723	11895.89
846.047	11840.07
846.371	11802.1
846.695	11796.68
847.019	11574.31
847.343	11634.2
847.666	11619.28
847.99	11554.43
848.313	11511.04
848.637	11468.78
848.96	11403.25
849.284	11384.04
849.607	11279.63
849.931	11294.32
850.254	11222.01
850.577	11120.54
850.9	11091.62
851.223	11057.27
851.546	11055.01
851.869	10895.46
852.192	11060.2
852.515	10906.99
852.838	10846.2
853.161	10887.33
853.483	10850.27
853.806	10749.7
854.129	10749.48
854.451	10766.88
854.774	10645.3
855.096	10583.61
855.419	10515.13
855.741	10526.66
856.063	10460.9
856.385	10429.94
856.708	10484.85
857.03	10403.72
857.352	10406.21
857.674	10358.08
857.996	10316.72
858.318	10305.42
858.64	10269.04
858.961	10222.03
859.283	10171.64
859.605	10153.11
859.926	10193.56
860.248	10152.66
860.57	10125.54
860.891	10100.23
861.212	10049.83
861.534	10044.19
861.855	10069.27
862.176	10013.23
862.498	9963.51
862.819	9968.71
863.14	9954.24
863.461	9886
863.782	9961.02
864.103	9887.8
864.424	9782.05
864.745	9833.12
865.065	9784.76
865.386	9760.58
865.707	9813.46
866.027	9749.5
866.348	9721.26
866.668	9705.66
866.989	9688.71
867.309	9587.93
867.63	9573.01
867.95	9612.56
868.27	9617.53
868.59	9595.16
868.91	9656.4
869.23	9596.51
869.55	9553.35
869.87	9542.5
870.19	9495.95
870.51	9489.62
870.83	9591.99
871.15	9479.91
871.469	9483.52
871.789	9436.07
872.109	9486.23
872.428	9396.52
872.748	9451.66
873.067	9444.2
873.386	9393.58
873.706	9390.19
874.025	9344.09
874.344	9317.65
874.663	9387.03
874.982	9321.04
875.301	9311.1
875.62	9187.48
875.939	9196.98
876.258	9232.91
876.577	9232.45
876.896	9243.08
877.214	9182.74
877.533	9193.81
877.852	9176.41
878.17	9170.08
878.489	9136.64
878.807	9151.33
879.125	9128.28
879.444	9113.59
879.762	9042.63
880.08	9045.12
880.398	9030.88
880.716	9003.08
881.034	9017.77
881.352	9009.86
881.67	8973.7
881.988	8980.03
882.306	8917.89
882.624	8888.06
882.941	8879.92
883.259	8794.73
883.577	8835.63
883.894	8816.42
884.212	8827.27
884.529	8805.8
884.846	8784.56
885.164	8718.8
885.481	8724.45
885.798	8642.19
886.115	8643.09
886.432	8677.67
886.75	8646.71
887.067	8591.34
887.383	8632.92
887.7	8550.89
888.017	8527.84
888.334	8594.73
888.651	8538.46
888.967	8503.89
889.284	8440.16
889.6	8446.03
889.917	8385.02
890.233	8378.69
890.55	8350.9
890.866	8419.37
891.182	8358.58
891.498	8340.05
891.815	8333.04
892.131	8201.75
892.447	8206.72
892.763	8099.15
893.079	8214.18
893.395	8171.24
893.71	8204.01
894.026	8122.43
894.342	8123.11
894.657	7964.92
894.973	7943.45
895.289	8009.44
895.604	8055.08
895.92	7894.41
896.235	7906.61
896.55	7924.92
896.865	7943.68
897.181	7832.49
897.496	7854.86
897.811	7841.53
898.126	7821.42
898.441	7777.8
898.756	7741.19
899.071	7688.31
899.386	7693.74
899.7	7662.33
900.015	7593.18
900.33	7533.97
900.644	7609.67
900.959	7600.63
901.273	7503.23
901.588	7483.12
901.902	7442.9
902.216	7445.38
902.531	7467.53
902.845	7426.4
903.159	7361.32
903.473	7334.88
903.787	7291.04
904.101	7248.55
904.415	7250.36
904.729	7232.28
905.042	7175.56
905.356	7112.28
905.67	7129.69
905.984	7126.3
906.297	7099.86
906.611	7007.43
906.924	6990.25
907.237	7002.46
907.551	7039.52
907.864	6967.2
908.177	6938.05
908.491	6913.65
908.804	6915.91
909.117	6853.99
909.43	6776.02
909.743	6787.77
910.056	6765.4
910.368	6685.18
910.681	6695.57
910.994	6680.21
911.307	6608.57
911.619	6602.24
911.932	6555.01
912.244	6541.9
912.557	6551.62
912.869	6526.76
913.181	6443.38
913.494	6430.27
913.806	6421.46
914.118	6352.98
914.43	6426.43
914.742	6366.32
915.054	6277.5
915.366	6300.1
915.678	6268.47
915.99	6228.01
916.302	6219.2
916.613	6164.97
916.925	6227.56
917.236	6127.23
917.548	6161.58
917.859	6144.63
918.171	6056.49
918.482	6042.93
918.794	6021.47
919.105	5983.27
919.416	6014.23
919.727	5950.73
920.038	5887.68
920.349	5878.87
920.66	5859.21
920.971	5904.86
921.282	5882.03
921.593	5833.9
921.903	5735.37
922.214	5724.75
922.525	5756.39
922.835	5730.17
923.146	5661.7
923.456	5675.26
923.767	5643.17
924.077	5634.36
924.387	5617.63
924.697	5583.74
925.008	5595.94
925.318	5534.47
925.628	5504.19
925.938	5536.51
926.248	5441.37
926.558	5408.83
926.867	5449.5
927.177	5369.05
927.487	5324.31
927.796	5346.68
928.106	5341.26
928.416	5284.31
928.725	5298.32
929.034	5259
929.344	5305.33
929.653	5240.7
929.962	5185.1
930.271	5187.82
930.581	5100.13
930.89	5159.79
931.199	5042.73
931.508	5058.55
931.817	5083.19
932.125	5066.91
932.434	5042.96
932.743	4999.8
933.051	4927.26
933.36	4926.81
933.669	4921.61
933.977	4833.7
934.286	4933.58
934.594	4855.17
934.902	4795.96
935.21	4837.54
935.519	4827.37
935.827	4790.31
936.135	4795.51
936.443	4741.73
936.751	4722.29
937.059	4727.49
937.367	4666.02
937.674	4634.84
937.982	4692.24
938.29	4641.62
938.597	4665.8
938.905	4576.76
939.213	4595.74
939.52	4489.08
939.827	4525.91
940.135	4478.46
940.442	4426.48
940.749	4508.29
941.056	4499.25
941.363	4435.07
941.67	4396.88
941.977	4362.07
942.284	4348.52
942.591	4360.72
942.898	4360.94
943.205	4352.58
943.511	4290.21
943.818	4306.48
944.125	4258.57
944.431	4263.09
944.738	4234.39
945.044	4199.14
945.35	4175.41
945.657	4227.39
945.963	4140.16
946.269	4074.85
946.575	4133.38
946.881	4082.31
947.187	4096.77
947.493	4042.76
947.799	4045.47
948.105	4044.12
948.41	4020.39
948.716	4046.15
949.022	4005.93
949.327	3992.14
949.633	3925.48
949.938	3938.81
950.244	3959.15
950.549	3886.15
950.854	3845.25
951.16	3885.93
951.465	3848.64
951.77	3852.26
952.075	3815.42
952.38	3827.85
952.685	3804.35
952.99	3773.16
953.294	3740.85
953.599	3718.7
953.904	3723
954.209	3740.62
954.513	3697.23
954.818	3682.32
955.122	3654.75
955.426	3646.16
955.731	3633.05
956.035	3608.2
956.339	3638.7
956.643	3594.19
956.948	3580.4
957.252	3558.71
957.556	3507.18
957.86	3534.3
958.163	3507.18
958.467	3497.92
958.771	3516.22
959.075	3452.95
959.378	3440.29
959.682	3450.01
959.985	3440.52
960.289	3416.11
960.592	3367.98
960.896	3353.74
961.199	3381.31
961.502	3341.76
961.805	3333.63
962.108	3327.3
962.411	3340.41
962.714	3279.39
963.017	3278.71
963.32	3250.92
963.623	3255.66
963.926	3211.6
964.228	3189.68
964.531	3200.3
964.833	3172.28
965.136	3129.11
965.438	3173.18
965.741	3130.69
966.043	3130.47
966.345	3067.65
966.648	3100.19
966.95	3061.32
967.252	3069.45
967.554	3081.88
967.856	3057.02
968.158	3012.73
968.46	3089.34
968.761	2989.91
969.063	2981.55
969.365	2983.81
969.666	2957.82
969.968	2939.97
970.269	2945.61
970.571	2931.15
970.872	2901.32
971.174	2925.28
971.475	2924.6
971.776	2910.59
972.077	2883.92
972.378	2878.5
972.679	2869.46
972.98	2833.08
973.281	2831.72
973.582	2804.83
973.883	2806.18
974.183	2787.88
974.484	2802.79
974.785	2759.86
975.085	2748.11
975.386	2759.86
975.686	2753.76
975.986	2743.59
976.287	2687.77
976.587	2685.96
976.887	2654.1
977.187	2685.06
977.487	2676.7
977.787	2657.94
978.087	2630.14
978.387	2622.91
978.687	2618.84
978.987	2603.25
979.286	2625.4
979.586	2573.2
979.885	2558.73
980.185	2526.42
980.484	2561.44
980.784	2514.21
981.083	2565.96
981.382	2511.73
981.682	2494.33
981.981	2486.19
982.28	2495.91
982.579	2466.31
982.878	2472.86
983.177	2397.15
983.475	2437.38
983.774	2422.01
984.073	2395.12
984.372	2353.54
984.67	2417.72
984.969	2384.05
985.267	2341.34
985.566	2383.82
985.864	2323.26
986.162	2365.97
986.461	2343.14
986.759	2328
987.057	2311.28
987.355	2321.9
987.653	2295.69
987.951	2303.15
988.249	2286.87
988.547	2256.82
988.844	2227.67
989.142	2259.76
989.44	2230.15
989.737	2252.3
990.035	2241.23
990.332	2204.39
990.63	2189.93
990.927	2168.23
991.224	2193.54
991.521	2182.7
991.819	2146.31
992.116	2138.63
992.413	2139.76
992.71	2129.82
993.006	2109.7
993.303	2096.82
993.6	2093.89
993.897	2129.59
994.193	2084.62
994.49	2059.08
994.787	2063.38
995.083	2059.54
995.379	2031.51
995.676	2043.27
995.972	2020.22
996.268	2028.58
996.565	1993.55
996.861	1993.55
997.157	1969.6
997.453	1950.84
997.749	1976.83
998.044	1953.78
998.34	1956.71
998.636	1925.53
998.932	1955.13
999.227	1901.12
999.523	1921.23
999.818	1867.45
1000.114	1866.32
1000.409	1853.44
1000.704	1853.44
1001	1847.11
1001.295	1861.35
1001.59	1831.52
1001.885	1851.18
1002.18	1821.58
1002.475	1805.53
1002.77	1794.01
1003.065	1796.49
1003.359	1781.13
1003.654	1755.59
1003.949	1798.07
1004.243	1747.68
1004.538	1768.92
1004.832	1743.16
1005.127	1763.27
1005.421	1742.26
1005.715	1686.66
1006.009	1679.21
1006.304	1674.01
1006.598	1681.69
1006.892	1687.12
1007.186	1645.99
1007.48	1649.83
1007.773	1646.21
1008.067	1608.7
1008.361	1626.55
1008.655	1615.71
1008.948	1632.65
1009.242	1609.15
1009.535	1555.37
1009.829	1579.55
1010.122	1573.67
1010.415	1559.44
1010.708	1552.43
1011.001	1543.62
1011.295	1544.52
1011.588	1537.74
1011.881	1546.56
1012.173	1520.79
1012.466	1480.57
1012.759	1471.98
1013.052	1528.02
1013.344	1462.26
1013.637	1471.98
1013.93	1464.07
1014.222	1447.35
1014.514	1431.98
1014.807	1431.53
1015.099	1426.11
1015.391	1439.44
1015.683	1404.86
1015.976	1400.34
1016.268	1403.96
1016.56	1414.81
1016.851	1385.2
1017.143	1372.55
1017.435	1343.4
1017.727	1348.14
1018.018	1351.53
1018.31	1328.48
1018.602	1356.96
1018.893	1332.55
1019.185	1319.67
1019.476	1308.82
1019.767	1296.39
1020.058	1278.99
1020.35	1269.27
1020.641	1238.31
1020.932	1263.85
1021.223	1281.7
1021.514	1278.54
1021.804	1247.13
1022.095	1248.26
1022.386	1236.96
1022.677	1210.52
1022.967	1216.17
1023.258	1215.04
1023.548	1197.86
1023.839	1182.72
1024.129	1146.11
1024.419	1170.75
1024.709	1156.06
1025	1177.53
1025.29	1143.4
1025.58	1149.96
1025.87	1143.63
1026.16	1136.17
1026.449	1139.33
1026.739	1124.65
1027.029	1090.75
1027.319	1093.91
1027.608	1127.81
1027.898	1116.74
1028.187	1087.36
1028.477	1088.71
1028.766	1095.95
1029.055	1080.58
1029.344	1055.27
1029.634	1049.62
1029.923	1079.22
1030.212	1064.31
1030.501	1042.84
1030.79	1020.92
1031.078	1021.37
1031.367	1020.24
1031.656	1013.46
1031.945	985.44
1032.233	1009.62
1032.522	999.68
1032.81	995.84
1033.099	966.23
1033.387	973.69
1033.675	980.02
1033.963	959.9
1034.251	954.71
1034.54	916.74
1034.828	921.71
1035.116	943.18
1035.403	906.12
1035.691	930.07
1035.979	933.92
1036.267	929.17
1036.554	935.95
1036.842	891.21
1037.129	925.55
1037.417	904.76
1037.704	890.75
1037.992	875.16
1038.279	877.42
1038.566	904.99
1038.853	904.99
1039.14	904.99
