Data from hue_210_FLMS001491_00072.txt Node
Date: Tue Feb 07 16:41:40 GMT 2017
User: dcchb
Spectrometer: FLMS00149
Trigger mode: 0
Integration Time (sec): 2.000000E-2
Scans to average: 10
Electric dark correction enabled: true
Nonlinearity correction enabled: false
Boxcar width: 0
XAxis mode: Wavelengths
Number of Pixels in Spectrum: 2048
>>>>>Begin Spectral Data<<<<<
341.393	10.03
341.776	10.03
342.16	10.03
342.543	-55.51
342.927	-58.22
343.31	-71.1
343.693	-72.46
344.077	-66.81
344.46	-51.89
344.843	-64.55
345.226	-33.36
345.61	-33.81
345.993	-1.05
346.376	-16.64
346.759	17.94
347.142	12.74
347.525	43.7
347.908	63.13
348.291	75.11
348.674	78.27
349.057	120.76
349.44	116.92
349.823	126.64
350.206	161.44
350.588	200.08
350.971	213.64
351.354	219.74
351.737	238.5
352.119	261.77
352.502	274.2
352.884	286.63
353.267	262.22
353.65	306.29
354.032	289.57
354.414	298.83
354.797	309.46
355.179	314.2
355.562	316.01
355.944	321.43
356.326	327.99
356.709	342.9
357.091	339.06
357.473	325.95
357.855	340.87
358.238	325.73
358.62	344.71
359.002	319.4
359.384	370.24
359.766	349.68
360.148	330.25
360.53	330.47
360.912	330.47
361.294	360.3
361.676	338.83
362.057	356.46
362.439	349.45
362.821	333.41
363.203	334.77
363.584	308.33
363.966	330.25
364.348	311.49
364.729	323.24
365.111	313.3
365.493	319.85
365.874	328.66
366.256	325.95
366.637	308.78
367.019	310.59
367.4	323.69
367.781	336.8
368.163	299.51
368.544	306.29
368.925	290.47
369.306	310.13
369.688	316.91
370.069	305.61
370.45	315.1
370.831	322.56
371.212	321.66
371.593	319.4
371.974	321.66
372.355	306.29
372.736	292.05
373.117	323.92
373.498	317.82
373.879	326.86
374.26	320.3
374.641	302.68
375.021	319.17
375.402	311.26
375.783	320.3
376.163	317.59
376.544	323.24
376.925	331.83
377.305	314.2
377.686	312.39
378.066	326.86
378.447	316.91
378.827	333.86
379.208	323.24
379.588	318.27
379.968	336.8
380.349	348.78
380.729	341.54
381.109	314.2
381.489	337.48
381.87	323.69
382.25	351.04
382.63	322.56
383.01	347.19
383.39	351.94
383.77	338.83
384.15	356.46
384.53	347.19
384.91	353.52
385.29	365.27
385.67	348.55
386.049	353.3
386.429	341.54
386.809	347.87
387.189	342.22
387.568	359.17
387.948	327.53
388.328	370.7
388.707	362.11
389.087	346.74
389.466	338.38
389.846	354.65
390.225	375.67
390.605	370.7
390.984	382.22
391.363	364.14
391.743	372.73
392.122	379.06
392.501	375.22
392.881	387.42
393.26	372.96
393.639	393.29
394.018	380.41
394.397	390.58
394.776	405.05
395.155	395.55
395.534	397.81
395.913	405.72
396.292	393.97
396.671	387.65
397.05	397.81
397.429	409.57
397.808	388.32
398.186	397.81
398.565	399.4
398.944	402.33
399.323	417.47
399.701	400.98
400.08	426.29
400.458	417.02
400.837	439.4
401.215	424.48
401.594	408.21
401.972	428.77
402.351	437.59
402.729	432.39
403.107	436.91
403.486	431.71
403.864	444.59
404.242	427.19
404.62	443.01
404.999	459.73
405.377	451.6
405.755	449.34
406.133	454.76
406.511	468.55
406.889	471.03
407.267	498.38
407.645	483.24
408.023	495.89
408.401	475.33
408.779	507.87
409.156	514.65
409.534	535.89
409.912	526.62
410.29	509
410.667	534.08
411.045	546.96
411.422	572.95
411.8	558.94
412.178	588.77
412.555	585.83
412.933	579.73
413.31	596.23
413.687	610.92
414.065	591.48
414.442	612.72
414.819	622.89
415.197	637.58
415.574	649.56
415.951	649.56
416.328	663.34
416.705	683.23
417.082	683
417.46	684.81
417.837	711.25
418.214	698.37
418.591	708.77
418.967	693.63
419.344	719.84
419.721	752.16
420.098	755.55
420.475	779.73
420.852	774.75
421.228	781.31
421.605	783.79
421.982	819.05
422.358	831.93
422.735	837.12
423.111	848.42
423.488	845.03
423.864	862.89
424.241	901.98
424.617	912.83
424.994	941.08
425.37	950.34
425.746	942.88
426.123	934.52
426.499	973.39
426.875	984.24
427.251	982.88
427.627	1008.87
428.003	1033.05
428.379	1045.71
428.756	1039.15
429.132	1060.62
429.507	1074.18
429.883	1112.15
430.259	1124.8
430.635	1110.34
431.011	1129.32
431.387	1131.58
431.763	1170.45
432.138	1164.12
432.514	1194.18
432.89	1226.04
433.265	1212.03
433.641	1262.2
434.016	1285.93
434.392	1311.69
434.767	1353.5
435.143	1348.75
435.518	1360.73
435.894	1415.19
436.269	1412.7
436.644	1466.03
437.02	1461.06
437.395	1464.23
437.77	1499.93
438.145	1508.29
438.52	1530.21
438.895	1585.81
439.271	1600.72
439.646	1637.78
440.021	1630.55
440.395	1637.33
440.77	1667.84
441.145	1735.86
441.52	1720.49
441.895	1754.16
442.27	1779.47
442.645	1781.28
443.019	1820.83
443.394	1814.05
443.769	1821.51
444.143	1806.14
444.518	1874.84
444.892	1888.62
445.267	1896.53
445.641	1932.92
446.016	1946.02
446.39	1947.6
446.764	1969.52
447.139	1904.44
447.513	1996.42
447.887	2015.17
448.262	2022.4
448.636	2014.27
449.01	2055.17
449.384	2062.18
449.758	2087.94
450.132	2078
450.506	2146.47
450.88	2099.01
451.254	2131.55
451.628	2160.48
452.002	2213.13
452.376	2204.32
452.75	2260.36
453.123	2252.68
453.497	2306.69
453.871	2292.91
454.244	2324.77
454.618	2355.96
454.992	2399.8
455.365	2402.06
455.739	2471.21
456.112	2459.91
456.486	2493.8
456.859	2508.95
457.232	2534.71
457.606	2506.46
457.979	2629.85
458.352	2641.82
458.725	2638.66
459.099	2644.08
459.472	2742.61
459.845	2700.35
460.218	2744.87
460.591	2821.93
460.964	2818.32
461.337	2895.38
461.71	2922.95
462.083	2950.29
462.456	2921.59
462.829	2948.93
463.201	3001.59
463.574	2996.84
463.947	3030.29
464.32	3126.56
464.692	3154.13
465.065	3196.84
465.438	3206.33
465.81	3285.65
466.183	3270.06
466.555	3358.41
466.928	3385.76
467.3	3358.19
467.672	3436.6
468.045	3536.71
468.417	3498.98
468.789	3544.85
469.161	3565.87
469.534	3629.14
469.906	3705.75
470.278	3694.68
470.65	3747.1
471.022	3798.85
471.394	3875.69
471.766	3897.84
472.138	3955.91
472.51	4034.78
472.882	4086.53
473.253	4112.07
473.625	4143.7
473.997	4203.59
474.369	4282.68
474.74	4295.57
475.112	4345.73
475.484	4444.04
475.855	4496.01
476.227	4566.52
476.598	4664.37
476.97	4686.06
477.341	4753.41
477.713	4825.49
478.084	4858.49
478.455	4960.18
478.827	5018.03
479.198	5134.19
479.569	5143
479.94	5261.42
480.311	5297.12
480.682	5375.99
481.053	5519.94
481.424	5594.06
481.795	5650.78
482.166	5686.04
482.537	5708.86
482.908	5826.6
483.279	5928.06
483.65	6019.14
484.021	6108.4
484.391	6145.46
484.762	6151.34
485.133	6289.64
485.503	6308.62
485.874	6470.88
486.244	6454.6
486.615	6540.03
486.985	6619.35
487.356	6736.4
487.726	6792.22
488.097	6893.46
488.467	6944.53
488.837	7117.19
489.207	7121.03
489.578	7205.55
489.948	7314.47
490.318	7329.16
490.688	7434.24
491.058	7425.2
491.428	7529.83
491.798	7619.32
492.168	7775.7
492.538	7780.45
492.908	7829.03
493.278	7948.58
493.648	7955.36
494.017	8005.07
494.387	8079.19
494.757	8117.61
495.126	8163.03
495.496	8191.51
495.866	8216.14
496.235	8304.95
496.605	8367.77
496.974	8363.93
497.344	8515.57
497.713	8474.44
498.082	8572.06
498.452	8596.47
498.821	8650.93
499.19	8641.89
499.559	8717.37
499.928	8695.9
500.298	8707.65
500.667	8829.68
501.036	8804.6
501.405	8873.07
501.774	8949.68
502.143	8878.95
502.512	9042.78
502.88	8989.45
503.249	8925.95
503.618	9085.95
503.987	9030.13
504.356	9065.84
504.724	9071.71
505.093	9101.09
505.462	9158.94
505.83	9171.14
506.199	9216.11
506.567	9228.99
506.936	9285.26
507.304	9363.91
507.672	9398.26
508.041	9382.44
508.409	9404.13
508.777	9512.6
509.145	9513.05
509.514	9432.83
509.882	9500.85
510.25	9522.55
510.618	9576.78
510.986	9605.48
511.354	9624.01
511.722	9634.18
512.09	9651.58
512.458	9658.14
512.826	9702.88
513.193	9730.22
513.561	9724.35
513.929	9746.95
514.297	9814.97
514.664	9810.22
515.032	9838.92
515.4	9792.14
515.767	9791.01
516.135	9840.5
516.502	9783.56
516.869	9927.28
517.237	9898.81
517.604	9875.98
517.972	9982.42
518.339	9926.38
518.706	9873.27
519.073	9948.75
519.44	9942.42
519.808	9981.97
520.175	9898.36
520.542	10045.92
520.909	10012.25
521.276	9946.72
521.643	9965.47
522.009	10049.99
522.376	10086.15
522.743	10040.72
523.11	10126.82
523.477	10180.16
523.843	10113.72
524.21	10199.59
524.577	10212.02
524.943	10174.28
525.31	10226.03
525.676	10259.25
526.043	10235.97
526.409	10260.83
526.776	10292.92
527.142	10304.45
527.508	10313.03
527.874	10271.91
528.241	10330.66
528.607	10277.55
528.973	10331.79
529.339	10202.53
529.705	10341.73
530.071	10295.41
530.437	10390.32
530.803	10327.5
531.169	10362.98
531.535	10226.48
531.901	10233.04
532.267	10227.39
532.632	10235.3
532.998	10214.73
533.364	10258.8
533.73	10244.79
534.095	10301.73
534.461	10210.21
534.826	10218.12
535.192	10168.86
535.557	10202.75
535.923	10124.56
536.288	10084.11
536.653	10100.61
537.019	10087.5
537.384	10049.99
537.749	10057.9
538.114	9973.61
538.479	9933.38
538.845	10001.18
539.21	9889.54
539.575	9905.81
539.94	9823.78
540.305	9873.95
540.67	9863.78
541.034	9881.41
541.399	9821.3
541.764	9718.47
542.129	9767.96
542.494	9676.21
542.858	9694.52
543.223	9672.82
543.587	9634.63
543.952	9557.12
544.316	9622.88
544.681	9558.48
545.045	9574.3
545.41	9614.75
545.774	9456.56
546.138	9480.29
546.503	9435.54
546.867	9477.35
547.231	9423.79
547.595	9387.18
547.959	9320.52
548.324	9347.18
548.688	9350.12
549.052	9301.54
549.416	9270.8
549.779	9208.88
550.143	9199.16
550.507	9220.41
550.871	9106.51
551.235	9076
551.599	9138.15
551.962	9049.11
552.326	9117.59
552.689	9100.86
553.053	9012.5
553.417	9002.11
553.78	9074.2
554.143	8952.39
554.507	8994.65
554.87	8940.19
555.234	8928.89
555.597	8911.26
555.96	8935.67
556.323	8845.05
556.686	8802.79
557.05	8813.64
557.413	8840.76
557.776	8807.08
558.139	8820.64
558.502	8803.02
558.865	8711.72
559.228	8788.1
559.59	8807.76
559.953	8823.58
560.316	8843.92
560.679	8744.71
561.041	8792.4
561.404	8864.03
561.767	8847.99
562.129	8774.32
562.492	8824.71
562.854	8763.24
563.217	8801.89
563.579	8812.96
563.941	8782.45
564.304	8838.72
564.666	8863.35
565.028	8885.5
565.39	8847.31
565.753	8804.37
566.115	8845.05
566.477	8874.88
566.839	8872.85
567.201	8842.11
567.563	8890.7
567.925	8846.86
568.287	8881.66
568.648	8868.55
569.01	8947.87
569.372	8996.46
569.734	8925.5
570.095	8997.59
570.457	8944.26
570.819	8993.75
571.18	8969.57
571.542	9002.56
571.903	8981.09
572.265	9019.51
572.626	9024.48
572.987	9062.22
573.349	9045.04
573.71	9019.51
574.071	9052.5
574.432	9135.89
574.794	9110.81
575.155	9161.88
575.516	9135.44
575.877	9120.3
576.238	9093.18
576.599	9177.47
576.96	9145.61
577.32	9239.84
577.681	9142.67
578.042	9210.46
578.403	9184.02
578.763	9191.48
579.124	9156.23
579.485	9255.21
579.845	9237.13
580.206	9260.41
580.566	9225.15
580.927	9131.14
581.287	9299.28
581.648	9246.62
582.008	9330.91
582.368	9340.18
582.728	9394.41
583.089	9322.55
583.449	9333.4
583.809	9399.84
584.169	9386.73
584.529	9337.01
584.889	9435.54
585.249	9349.44
585.609	9281.42
585.969	9392.38
586.329	9356.67
586.688	9368.65
587.048	9293.17
587.408	9328.2
587.768	9390.35
588.127	9440.74
588.487	9336.34
588.846	9504.47
589.206	9375.43
589.565	9376.56
589.925	9430.57
590.284	9405.94
590.643	9392.15
591.003	9415.43
591.362	9457.69
591.721	9503.79
592.08	9483
592.44	9477.12
592.799	9503.79
593.158	9483.23
593.517	9445.49
593.876	9443.45
594.235	9448.2
594.593	9470.8
594.952	9473.28
595.311	9526.84
595.67	9449.55
596.029	9566.84
596.387	9520.51
596.746	9532.04
597.104	9488.2
597.463	9479.84
597.822	9474.19
598.18	9459.72
598.538	9497.69
598.897	9565.03
599.255	9438.48
599.613	9589.21
599.972	9493.62
600.33	9473.06
600.688	9501.08
601.046	9544.24
601.404	9541.3
601.762	9537.46
602.12	9563.22
602.478	9579.27
602.836	9566.16
603.194	9531.36
603.552	9481.64
603.91	9469.89
604.268	9536.33
604.625	9512.15
604.983	9524.13
605.341	9520.51
605.698	9567.52
606.056	9609.1
606.413	9570.91
606.771	9602.32
607.128	9577.46
607.485	9566.39
607.843	9577.91
608.2	9568.19
608.557	9607.29
608.914	9553.96
609.272	9620.85
609.629	9610.23
609.986	9696.33
610.343	9572.04
610.7	9660.4
611.057	9671.24
611.414	9601.41
611.771	9597.35
612.127	9636.67
612.484	9655.42
612.841	9632.15
613.198	9680.51
613.554	9731.81
613.911	9760.96
614.267	9747.63
614.624	9669.66
614.98	9704.91
615.337	9763.22
615.693	9774.52
616.05	9737.68
616.406	9839.37
616.762	9769.55
617.118	9789.21
617.475	9707.4
617.831	9795.76
618.187	9770
618.543	9786.72
618.899	9833.05
619.255	9778.13
619.611	9789.66
619.967	9833.05
620.323	9915.76
620.678	9830.56
621.034	9853.61
621.39	9800.73
621.746	9801.63
622.101	9944.68
622.457	9827.17
622.812	9808.41
623.168	9895.42
623.523	9885.7
623.879	9904.46
624.234	9813.16
624.589	9836.89
624.945	9864.01
625.3	9880.73
625.655	9803.89
626.01	9892.71
626.365	9849.32
626.72	9891.8
627.075	9824.23
627.43	9827.17
627.785	9876.66
628.14	9836.21
628.495	9781.97
628.85	9840.28
629.205	9745.82
629.559	9828.3
629.914	9731.81
630.269	9779.71
630.623	9706.72
630.978	9715.76
631.332	9745.82
631.687	9739.04
632.041	9681.41
632.396	9735.65
632.75	9695.2
633.104	9735.42
633.459	9695.88
633.813	9683.9
634.167	9635.99
634.521	9712.37
634.875	9642.32
635.229	9704.46
635.583	9611.13
635.937	9626.05
636.291	9601.41
636.645	9532.49
636.999	9533.17
637.352	9588.08
637.706	9546.27
638.06	9515.99
638.413	9588.31
638.767	9538.82
639.121	9590.57
639.474	9537.01
639.828	9476.67
640.181	9495.43
640.534	9536.78
640.888	9471.02
641.241	9398.48
641.594	9479.38
641.947	9400.74
642.301	9455.2
642.654	9415.2
643.007	9499.04
643.36	9319.84
643.713	9434.64
644.066	9450.01
644.419	9435.09
644.771	9304.25
645.124	9255.43
645.477	9203.46
645.83	9184.7
646.182	9118.49
646.535	9115.33
646.888	9075.33
647.24	9076.91
647.593	9158.26
647.945	9087.3
648.298	9061.54
648.65	9028.1
649.002	9062.9
649.355	9081.65
649.707	9076.91
650.059	9112.61
650.411	9171.6
650.763	9206.17
651.115	9332.72
651.467	9241.2
651.819	9201.2
652.171	9337.47
652.523	9220.18
652.875	9268.09
653.227	9197.13
653.578	9262.67
653.93	9320.74
654.282	9275.55
654.633	9152.16
654.985	9273.74
655.337	9257.47
655.688	9241.42
656.039	9233.06
656.391	9235.77
656.742	9249.33
657.094	9251.37
657.445	9281.87
657.796	9218.6
658.147	9254.3
658.498	9226.73
658.849	9260.63
659.2	9269.67
659.551	9271.48
659.902	9243.68
660.253	9264.93
660.604	9331.59
660.955	9284.81
661.306	9276
661.656	9255.43
662.007	9278.03
662.358	9305.15
662.708	9290.91
663.059	9298.6
663.409	9255.43
663.76	9296.34
664.11	9367.75
664.461	9314.19
664.811	9409.55
665.161	9325.26
665.511	9304.47
665.862	9348.09
666.212	9306.28
666.562	9355.54
666.912	9299.95
667.262	9275.55
667.612	9317.35
667.962	9291.59
668.312	9326.17
668.662	9417.92
669.011	9325.49
669.361	9322.33
669.711	9271.03
670.06	9278.94
670.41	9265.38
670.76	9225.6
671.109	9285.49
671.459	9239.84
671.808	9322.55
672.157	9294.53
672.507	9211.14
672.856	9301.76
673.205	9311.48
673.554	9322.1
673.904	9304.47
674.253	9284.59
674.602	9243.68
674.951	9067.64
675.3	9068.32
675.649	9231.03
675.998	9159.39
676.346	9143.35
676.695	9178.37
677.044	9035.33
677.393	9173.4
677.741	9224.02
678.09	9064.03
678.438	9140.64
678.787	9126.17
679.135	9057.47
679.484	8995.1
679.832	9071.71
680.181	9074.65
680.529	9021.09
680.877	9027.19
681.225	8977.48
681.573	8981.77
681.922	8999.17
682.27	8891.6
682.618	8915.78
682.966	8840.98
683.314	8862.9
683.661	8850.7
684.009	8814.54
684.357	8815.67
684.705	8734.77
685.053	8844.15
685.4	8763.47
685.748	8680.99
686.095	8779.06
686.443	8705.84
686.79	8671.5
687.138	8688.9
687.485	8672.4
687.832	8667.2
688.18	8676.92
688.527	8598.73
688.874	8595.79
689.221	8640.54
689.568	8567.32
689.915	8586.75
690.262	8488.22
690.609	8501.33
690.956	8415.23
691.303	8460.2
691.65	8377.27
691.997	8407.1
692.344	8334.78
692.69	8350.6
693.037	8296.82
693.383	8209.36
693.73	8342.24
694.077	8245.29
694.423	8263.6
694.769	8219.98
695.116	8138.85
695.462	8138.63
695.808	8098.4
696.155	8143.37
696.501	8004.17
696.847	8034.68
697.193	7996.26
697.539	8025.41
697.885	7951.74
698.231	7905.19
698.577	7929.37
698.923	7869.48
699.269	7820.9
699.614	7812.08
699.96	7755.36
700.306	7792.2
700.651	7633.56
700.997	7620.22
701.342	7625.65
701.688	7621.81
702.033	7628.13
702.379	7553.33
702.724	7597.63
703.069	7559.66
703.415	7450.06
703.76	7475.82
704.105	7389.72
704.45	7472.2
704.795	7333.68
705.14	7374.58
705.485	7376.61
705.83	7317.86
706.175	7266.33
706.52	7267.46
706.865	7233.79
707.209	7255.04
707.554	7193.57
707.899	7248.26
708.243	7163.06
708.588	7149.5
708.932	7085.1
709.277	7131.87
709.621	7106.34
709.966	7017.53
710.31	7078.32
710.654	6964.42
710.998	6987.02
711.342	7063.85
711.687	6964.65
712.031	6895.04
712.375	6941.82
712.719	6923.74
713.063	6901.6
713.407	6910.41
713.75	6888.04
714.094	6907.02
714.438	6900.02
714.782	6866.12
715.125	6845.1
715.469	6909.96
715.812	6803.52
716.156	6808.95
716.499	6793.35
716.843	6833.58
717.186	6705.9
717.53	6807.14
717.873	6747.93
718.216	6722.39
718.559	6734.82
718.902	6711.55
719.246	6676.97
719.589	6657.08
719.932	6660.93
720.275	6648.95
720.617	6627.26
720.96	6675.16
721.303	6679.01
721.646	6670.42
721.989	6597.2
722.331	6655.73
722.674	6589.52
723.016	6590.42
723.359	6589.74
723.701	6565.11
724.044	6558.33
724.386	6588.84
724.729	6598.56
725.071	6555.39
725.413	6550.42
725.755	6560.82
726.097	6528.05
726.439	6489.86
726.782	6510.2
727.124	6547.03
727.465	6550.2
727.807	6475.62
728.149	6461.61
728.491	6508.39
728.833	6536.86
729.175	6496.64
729.516	6488.5
729.858	6512.46
730.199	6572.79
730.541	6503.64
730.882	6506.81
731.224	6505.9
731.565	6550.2
731.906	6507.71
732.248	6514.49
732.589	6419.35
732.93	6429.52
733.271	6506.13
733.612	6510.65
733.953	6449.41
734.294	6510.42
734.635	6546.13
734.976	6565.79
735.317	6482.17
735.658	6508.61
735.999	6497.09
736.339	6487.15
736.68	6507.48
737.021	6451.67
737.361	6477.43
737.702	6560.82
738.042	6547.26
738.383	6531.44
738.723	6537.54
739.063	6501.83
739.404	6502.29
739.744	6549.29
740.084	6510.2
740.424	6575.96
740.764	6558.56
741.104	6623.41
741.444	6610.76
741.784	6577.54
742.124	6588.84
742.464	6625.45
742.804	6637.2
743.143	6621.15
743.483	6636.52
743.823	6672.68
744.162	6737.53
744.502	6710.42
744.841	6763.3
745.181	6778.89
745.52	6815.72
745.86	6871.32
746.199	6855.05
746.538	6887.14
746.877	6995.61
747.216	7003.06
747.556	7044.42
747.895	7068.6
748.234	7141.59
748.573	7223.4
748.911	7192.89
749.25	7330.74
749.589	7320.12
749.928	7415.93
750.267	7366.44
750.605	7480.11
750.944	7568.25
751.283	7641.01
751.621	7752.2
751.96	7761.69
752.298	7868.35
752.636	8026.99
752.975	8071.06
753.313	8157.84
753.651	8233.99
753.989	8354.89
754.327	8488.22
754.666	8535
755.004	8652.74
755.342	8826.52
755.679	8968.44
756.017	9007.08
756.355	9200.07
756.693	9285.26
757.031	9379.05
757.368	9599.38
757.706	9772.71
758.044	9912.37
758.381	10067.39
758.719	10114.17
759.056	10287.95
759.394	10468.74
759.731	10687.49
760.068	10801.83
760.405	10961.15
760.743	11056.97
761.08	11255.61
761.417	11462.61
761.754	11585.54
762.091	11846.33
762.428	11971.52
762.765	12148.47
763.102	12311.85
763.438	12509.36
763.775	12599.98
764.112	12870.93
764.449	13042.23
764.785	13222.79
765.122	13348.43
765.458	13469.79
765.795	13670.69
766.131	13862.32
766.467	13897.35
766.804	14061.41
767.14	14158.36
767.476	14392.7
767.812	14505.47
768.148	14709.3
768.485	14796.31
768.821	14882.41
769.157	15082.17
769.492	15275.39
769.828	15270.42
770.164	15342.05
770.5	15495.04
770.836	15749.95
771.171	15809.61
771.507	15990.4
771.842	15976.39
772.178	16101.58
772.513	16262.26
772.849	16220
773.184	16367.34
773.519	16477.62
773.855	16554.45
774.19	16663.6
774.525	16714.9
774.86	16802.58
775.195	16879.19
775.53	16885.74
775.865	16997.38
776.2	16972.52
776.535	16968
776.87	17076.02
777.205	17055
777.539	17099.97
777.874	17197.15
778.209	17310.59
778.543	17276.92
778.878	17342.68
779.212	17336.8
779.547	17311.49
779.881	17522.34
780.215	17435.78
780.55	17488.21
780.884	17494.31
781.218	17504.48
781.552	17647.53
781.886	17545.61
782.22	17435.78
782.554	17558.27
782.888	17443.02
783.222	17489.12
783.556	17546.29
783.889	17469.23
784.223	17376.58
784.557	17485.27
784.89	17445.28
785.224	17436.69
785.557	17364.15
785.891	17395.33
786.224	17429.01
786.558	17605.27
786.891	17425.62
787.224	17407.99
787.557	17419.97
787.891	17352.62
788.224	17425.84
788.557	17410.93
788.89	17430.59
789.223	17356.01
789.556	17345.84
789.888	17352.4
790.221	17360.31
790.554	17233.3
790.887	17209.58
791.219	17166.87
791.552	17187.2
791.884	17102.69
792.217	17169.12
792.549	17166.41
792.882	17016.36
793.214	16980.88
793.546	17061.56
793.879	16928
794.211	16805.29
794.543	16917.61
794.875	16796.25
795.207	16946.53
795.539	16794.67
795.871	16817.04
796.203	16718.29
796.535	16675.8
796.867	16658.86
797.198	16616.82
797.53	16661.34
797.862	16521.46
798.193	16539.99
798.525	16483.95
798.856	16486.2
799.188	16410.5
799.519	16361.01
799.85	16298.19
800.182	16350.16
800.513	16309.26
800.844	16154.91
801.175	16295.7
801.506	16255.93
801.837	16170.51
802.168	16138.42
802.499	16119.89
802.83	16054.58
803.161	16060
803.491	16051.87
803.822	16050.51
804.153	15922.6
804.483	15841.02
804.814	15761.7
805.145	15765.32
805.475	15857.07
805.805	15756.05
806.136	15718.32
806.466	15685.1
806.796	15628.83
807.126	15593.12
807.457	15530.52
807.787	15558.09
808.117	15542.95
808.447	15456.4
808.777	15537.98
809.107	15452.33
809.436	15395.16
809.766	15405.1
810.096	15336.63
810.426	15246.24
810.755	15300.93
811.085	15246.01
811.414	15231.55
811.744	15107.94
812.073	15120.82
812.403	15069.75
812.732	15063.64
813.061	15073.13
813.39	15029.52
813.719	14883.31
814.049	15029.75
814.378	14884.44
814.707	14865.46
815.036	14937.55
815.365	14818.45
815.693	14755.18
816.022	14764.89
816.351	14730.09
816.68	14629.76
817.008	14747.49
817.337	14519.25
817.665	14539.82
817.994	14602.19
818.322	14565.58
818.651	14511.34
818.979	14469.53
819.307	14497.56
819.636	14469.99
819.964	14348.41
820.292	14435.86
820.62	14397.22
820.948	14432.02
821.276	14427.95
821.604	14377.79
821.932	14476.54
822.259	14472.7
822.587	14415.75
822.915	14379.14
823.243	14365.58
823.57	14410.1
823.898	14358.13
824.225	14359.48
824.553	14344.11
824.88	14310.44
825.207	14444.9
825.535	14472.02
825.862	14431.12
826.189	14301.63
826.516	14451.68
826.843	14522.64
827.17	14506.14
827.497	14488.29
827.824	14440.16
828.151	14501.62
828.478	14428.18
828.805	14411.68
829.131	14429.08
829.458	14453.26
829.785	14435.64
830.111	14416.43
830.438	14498.01
830.764	14445.81
831.09	14455.75
831.417	14345.47
831.743	14474.96
832.069	14445.35
832.395	14325.81
832.722	14484.9
833.048	14309.99
833.374	14377.79
833.7	14327.17
834.026	14399.25
834.351	14337.79
834.677	14329.43
835.003	14306.15
835.329	14318.58
835.654	14307.73
835.98	14268.41
836.306	14215.76
836.631	14284.91
836.956	14244.46
837.282	14286.49
837.607	14205.59
837.932	14115.42
838.258	14203.33
838.583	14125.36
838.908	14080.17
839.233	14092.14
839.558	14030
839.883	14002.65
840.208	13996.1
840.533	14013.05
840.858	13929.89
841.182	13909.32
841.507	13868.19
841.832	13834.52
842.156	13905.48
842.481	13832.04
842.805	13726.96
843.13	13810.8
843.454	13727.18
843.778	13717.24
844.103	13717.01
844.427	13543.68
844.751	13606.51
845.075	13612.38
845.399	13517.24
845.723	13451.93
846.047	13519.96
846.371	13355.44
846.695	13444.48
847.019	13249
847.343	13289.68
847.666	13128.33
847.99	13115.45
848.313	13067.99
848.637	13037.03
848.96	12998.84
849.284	12959.74
849.607	12833.42
849.931	12938.28
850.254	12746.42
850.577	12726.76
850.9	12657.83
851.223	12584.61
851.546	12632.75
851.869	12498.06
852.192	12562.01
852.515	12405.63
852.838	12417.61
853.161	12379.42
853.483	12260.78
853.806	12248.8
854.129	12279.99
854.451	12211.29
854.774	12163.38
855.096	12164.28
855.419	12101.01
855.741	12068.24
856.063	11934.91
856.385	11918.42
856.708	11808.14
857.03	11858.08
857.352	11857.63
857.674	11753.22
857.996	11720.91
858.318	11673.68
858.64	11736.5
858.961	11606.11
859.283	11637.52
859.605	11602.94
859.926	11580.57
860.248	11593.68
860.57	11416.28
860.891	11541.02
861.212	11488.82
861.534	11452.44
861.855	11428.71
862.176	11393.46
862.498	11358.2
862.819	11390.07
863.14	11335.38
863.461	11331.54
863.782	11306.91
864.103	11256.06
864.424	11226.91
864.745	11228.72
865.065	11236.4
865.386	11103.3
865.707	11115.95
866.027	11140.36
866.348	11083.41
866.668	11065.1
866.989	11047.48
867.309	11049.06
867.63	11044.54
867.95	11023.52
868.27	10986.69
868.59	10967.25
868.91	10964.77
869.23	10949.18
869.55	10813.81
869.87	10953.02
870.19	10850.87
870.51	10887.71
870.83	10883.19
871.15	10841.38
871.469	10830.53
871.789	10902.62
872.109	10804.32
872.428	10727.49
872.748	10861.72
873.067	10760.48
873.386	10720.93
873.706	10634.38
874.025	10619.01
874.344	10624.21
874.663	10735.17
874.982	10676.19
875.301	10673.93
875.62	10591.67
875.939	10585.8
876.258	10589.86
876.577	10519.13
876.896	10526.59
877.214	10516.87
877.533	10496.98
877.852	10482.07
878.17	10449.75
878.489	10502.86
878.807	10487.72
879.125	10371.56
879.444	10413.14
879.762	10393.48
880.08	10384.22
880.398	10379.02
880.716	10333.6
881.034	10292.02
881.352	10278.46
881.67	10250.44
881.988	10207.27
882.306	10236.88
882.624	10205.47
882.941	10109.88
883.259	10125.69
883.577	10144.9
883.894	10090.44
884.212	10079.37
884.529	10140.16
884.846	10026.04
885.164	10047.73
885.481	9975.19
885.798	10035.98
886.115	9952.14
886.432	9927.06
886.75	9889.99
887.067	9858.13
887.383	9778.36
887.7	9842.09
888.017	9785.36
888.334	9738.59
888.651	9719.83
888.967	9670.34
889.284	9647.51
889.6	9718.7
889.917	9585.37
890.233	9618.59
890.55	9545.82
890.866	9610.91
891.182	9529.78
891.498	9479.61
891.815	9442.55
892.131	9475.77
892.447	9423.79
892.763	9357.8
893.079	9362.1
893.395	9293.4
893.71	9338.37
894.026	9306.73
894.342	9227.19
894.657	9171.6
894.973	9159.84
895.289	9125.04
895.604	9118.94
895.92	9138.38
896.235	8998.27
896.55	9105.83
896.865	9031.03
897.181	8995.33
897.496	8995.1
897.811	8928.66
898.126	8933.18
898.441	8887.53
898.756	8873.98
899.071	8759.18
899.386	8812.96
899.7	8738.84
900.015	8662
900.33	8594.66
900.644	8592.63
900.959	8636.24
901.273	8615.9
901.588	8539.75
901.902	8438.51
902.216	8433.99
902.531	8438.28
902.845	8455.91
903.159	8438.73
903.473	8423.59
903.787	8307.66
904.101	8318.06
904.415	8263.6
904.729	8185.63
905.042	8154.45
905.356	8133.43
905.67	8122.58
905.984	8140.66
906.297	8075.58
906.611	8042.59
906.924	8059.31
907.237	7961.23
907.551	7965.07
907.864	7887.11
908.177	7883.04
908.491	7935.02
908.804	7830.39
909.117	7784.74
909.43	7652.31
909.743	7668.13
910.056	7643.73
910.368	7612.99
910.681	7608.7
910.994	7641.69
911.307	7593.78
911.619	7508.36
911.932	7572.99
912.244	7449.61
912.557	7410.96
912.869	7335.49
913.181	7374.13
913.494	7309.95
913.806	7263.4
914.118	7261.14
914.43	7259.55
914.742	7206
915.054	7136.85
915.366	7201.25
915.678	7063.4
915.99	7078.32
916.302	7069.28
916.613	7016.62
916.925	7039.22
917.236	7031.99
917.548	6926.46
917.859	6999.22
918.171	6889.4
918.482	6832.67
918.794	6860.24
919.105	6817.76
919.416	6826.57
919.727	6753.81
920.038	6704.77
920.349	6659.8
920.66	6650.31
920.971	6670.42
921.282	6595.62
921.593	6641.49
921.903	6505
922.214	6516.3
922.525	6532.79
922.835	6481.72
923.146	6373.48
923.456	6403.98
923.767	6430.2
924.077	6341.61
924.387	6357.88
924.697	6268.85
925.008	6292.35
925.318	6302.29
925.628	6258.45
925.938	6234.5
926.248	6181.17
926.558	6194.27
926.867	6126.7
927.177	6099.59
927.487	6050.32
927.796	6056.2
928.106	6086.03
928.416	5992.24
928.725	6029.98
929.034	5996.76
929.344	5982.75
929.653	6000.83
929.962	5947.72
930.271	5853.26
930.581	5883.55
930.89	5829.54
931.199	5751.12
931.508	5829.76
931.817	5830.67
932.125	5755.64
932.434	5715.87
932.743	5682.42
933.051	5722.19
933.36	5625.93
933.669	5613.5
933.977	5600.39
934.286	5579.6
934.594	5625.93
934.902	5568.07
935.21	5504.57
935.519	5470.9
935.827	5486.04
936.135	5472.26
936.443	5393.39
936.751	5373.05
937.059	5445.37
937.367	5359.94
937.674	5339.15
937.982	5317.69
938.29	5316.78
938.597	5312.94
938.905	5256.67
939.213	5210.57
939.52	5195.2
939.827	5161.3
940.135	5136.45
940.442	5169.21
940.749	5125.37
941.056	5092.83
941.363	5058.93
941.67	5028.2
941.977	5016.68
942.284	4963.8
942.591	5030.01
942.898	4939.62
943.205	4972.16
943.511	4903.23
943.818	4939.16
944.125	4835.89
944.431	4881.09
944.738	4809
945.044	4835.21
945.35	4760.41
945.657	4778.94
945.963	4764.03
946.269	4721.77
946.575	4692.62
946.881	4668.66
947.187	4690.13
947.493	4664.82
947.799	4603.35
948.105	4615.33
948.41	4632.05
948.716	4600.19
949.022	4558.16
949.327	4548.44
949.633	4527.88
949.938	4513.41
950.244	4501.21
950.549	4454.43
950.854	4470.02
951.16	4397.94
951.465	4405.62
951.77	4424.83
952.075	4377.6
952.38	4357.03
952.685	4363.81
952.99	4268
953.294	4330.59
953.599	4266.87
953.904	4278.16
954.209	4184.38
954.513	4201.1
954.818	4222.35
955.122	4169.92
955.426	4207.21
955.731	4141.44
956.035	4121.33
956.339	4132.18
956.643	4132.18
956.948	4023.03
957.252	4056.48
957.556	4016.93
957.86	4010.37
958.163	4039.53
958.467	3931.05
958.771	3964.5
959.075	3966.53
959.378	3883.15
959.682	3937.16
959.985	3935.8
960.289	3868.01
960.592	3873.88
960.896	3854.45
961.199	3844.96
961.502	3836.82
961.805	3768.35
962.108	3759.08
962.411	3761.57
962.714	3763.15
963.017	3777.84
963.32	3726.09
963.623	3682.7
963.926	3723.83
964.228	3702.36
964.531	3659.88
964.833	3639.76
965.136	3614.23
965.438	3590.95
965.741	3581.91
966.043	3550.05
966.345	3551.63
966.648	3556.83
966.95	3506.89
967.252	3496.72
967.554	3456.94
967.856	3455.59
968.158	3463.27
968.46	3433.21
968.761	3433.89
969.063	3413.33
969.365	3438.64
969.666	3374.46
969.968	3368.13
970.269	3362.03
970.571	3370.84
970.872	3371.3
971.174	3322.03
971.475	3312.77
971.776	3292.88
972.077	3261.02
972.378	3249.04
972.679	3253.56
972.98	3297.85
973.281	3200.45
973.582	3196.84
973.883	3190.51
974.183	3212.43
974.484	3190.51
974.785	3131.08
975.085	3175.14
975.386	3175.82
975.686	3140.34
975.986	3106.22
976.287	3134.92
976.587	3104.41
976.887	3060.8
977.187	3046.56
977.487	3000.01
977.787	3043.62
978.087	3018.31
978.387	2990.74
978.687	3006.33
978.987	2976.5
979.286	2947.13
979.586	2960.01
979.885	2957.75
980.185	2927.01
980.484	2888.6
980.784	2892.66
981.083	2906.45
981.382	2852.44
981.682	2904.87
981.981	2866
982.28	2825.32
982.579	2804.98
982.878	2815.83
983.177	2816.73
983.475	2767.02
983.774	2733.12
984.073	2742.84
984.372	2712.56
984.67	2692.9
984.969	2721.82
985.267	2709.62
985.566	2721.82
985.864	2673.91
986.162	2686.57
986.461	2674.36
986.759	2654.48
987.057	2624.42
987.355	2648.38
987.653	2602.5
987.951	2570.19
988.249	2574.25
988.547	2595.72
988.844	2584.65
989.142	2539
989.44	2558.44
989.737	2528.15
990.035	2496.06
990.332	2508.27
990.63	2481.83
990.927	2476.86
991.224	2466.23
991.521	2486.35
991.819	2444.77
992.116	2449.51
992.413	2428.72
992.71	2444.54
993.006	2393.92
993.303	2375.84
993.6	2376.07
993.897	2355.73
994.193	2344.2
994.49	2354.15
994.787	2309.4
995.083	2323.87
995.379	2327.48
995.676	2291.78
995.972	2289.29
996.268	2223.53
996.565	2274.6
996.861	2245.22
997.157	2241.38
997.453	2256.3
997.749	2226.69
998.044	2208.61
998.34	2194.6
998.636	2177.43
998.932	2151.44
999.227	2151.44
999.523	2131.33
999.818	2156.19
1000.114	2118.45
1000.409	2092.23
1000.704	2102.4
1001	2097.2
1001.295	2087.26
1001.59	2063.08
1001.885	2089.75
1002.18	2067.6
1002.475	2034.83
1002.77	2021.95
1003.065	2002.07
1003.359	1988.28
1003.654	2037.09
1003.949	2000.94
1004.243	1998.45
1004.538	1972.46
1004.832	1952.58
1005.127	1976.76
1005.421	1930.88
1005.715	1901.05
1006.009	1906.25
1006.304	1904.22
1006.598	1895.85
1006.892	1889.3
1007.186	1869.64
1007.48	1863.76
1007.773	1866.48
1008.067	1835.74
1008.361	1798.91
1008.655	1783.54
1008.948	1804.33
1009.242	1778.34
1009.535	1786.03
1009.829	1780.15
1010.122	1761.85
1010.415	1751.9
1010.708	1765.46
1011.001	1698.8
1011.295	1751.23
1011.588	1711
1011.881	1731.34
1012.173	1718.23
1012.466	1704.67
1012.759	1685.69
1013.052	1690.89
1013.344	1686.82
1013.637	1628.97
1013.93	1607.05
1014.222	1607.27
1014.514	1593.49
1014.807	1601.4
1015.099	1605.01
1015.391	1597.78
1015.683	1586.94
1015.976	1596.43
1016.268	1557.11
1016.56	1551.68
1016.851	1517.33
1017.143	1566.15
1017.435	1525.47
1017.727	1515.98
1018.018	1507.39
1018.31	1475.53
1018.602	1502.64
1018.893	1482.76
1019.185	1457
1019.476	1472.59
1019.767	1476.2
1020.058	1441.4
1020.35	1449.99
1020.641	1425.36
1020.932	1421.97
1021.223	1397.11
1021.514	1410.44
1021.804	1381.29
1022.095	1400.5
1022.386	1393.72
1022.677	1399.14
1022.967	1359.82
1023.258	1334.96
1023.548	1312.82
1023.839	1348.98
1024.129	1301.07
1024.419	1335.87
1024.709	1314.85
1025	1279.6
1025.29	1263.78
1025.58	1300.16
1025.87	1259.71
1026.16	1243.44
1026.449	1252.93
1026.739	1261.29
1027.029	1228.08
1027.319	1226.95
1027.608	1212.48
1027.898	1181.75
1028.187	1184.91
1028.477	1192.82
1028.766	1209.32
1029.055	1168.87
1029.344	1185.82
1029.634	1163.22
1029.923	1141.07
1030.212	1139.26
1030.501	1165.48
1030.79	1127.96
1031.078	1137.23
1031.367	1122.32
1031.656	1094.29
1031.945	1093.84
1032.233	1082.77
1032.522	1109.89
1032.81	1100.17
1033.099	1092.49
1033.387	1102.65
1033.675	1076.67
1033.963	1073.73
1034.251	1063.56
1034.54	1048.42
1034.828	1034.63
1035.116	1030.34
1035.403	1026.95
1035.691	1019.27
1035.979	1030.79
1036.267	999.83
1036.554	1004.58
1036.842	1013.62
1037.129	995.09
1037.417	978.14
1037.704	993.05
1037.992	959.61
1038.279	976.1
1038.566	929.78
1038.853	929.78
1039.14	929.78
