Data from hue_110_FLMS001491_00042.txt Node
Date: Tue Feb 07 17:01:22 GMT 2017
User: dcchb
Spectrometer: FLMS00149
Trigger mode: 0
Integration Time (sec): 2.000000E-2
Scans to average: 10
Electric dark correction enabled: true
Nonlinearity correction enabled: false
Boxcar width: 0
XAxis mode: Wavelengths
Number of Pixels in Spectrum: 2048
>>>>>Begin Spectral Data<<<<<
341.393	-0.92
341.776	-0.92
342.16	-0.92
342.543	-70.07
342.927	-65.1
343.31	-98.77
343.693	-73.68
344.077	-60.58
344.46	-37.98
344.843	-51.09
345.226	-27.36
345.61	-33.46
345.993	-26.91
346.376	-4.53
346.759	19.87
347.142	17.39
347.525	32.75
347.908	58.74
348.291	77.05
348.674	94.67
349.057	113.88
349.44	121.11
349.823	143.48
350.206	170.83
350.588	192.98
350.971	208.12
351.354	226.65
351.737	216.03
352.119	254.22
352.502	279.53
352.884	275.23
353.267	281.79
353.65	306.87
354.032	302.58
354.414	318.17
354.797	330.37
355.179	332.86
355.562	311.16
355.944	343.48
356.326	354.1
356.709	331.05
357.091	331.05
357.473	336.47
357.855	335.34
358.238	355
358.62	350.49
359.002	341.9
359.384	336.02
359.766	324.5
360.148	345.51
360.53	331.5
360.912	340.54
361.294	347.77
361.676	331.05
362.057	352.07
362.439	334.44
362.821	326.3
363.203	335.57
363.584	326.98
363.966	342.12
364.348	339.64
364.729	342.35
365.111	321.11
365.493	323.14
365.874	323.37
366.256	322.69
366.637	301.22
367.019	313.42
367.4	323.14
367.781	322.92
368.163	327.66
368.544	318.4
368.925	310.71
369.306	317.72
369.688	315.68
370.069	312.97
370.45	311.84
370.831	320.88
371.212	312.75
371.593	321.33
371.974	322.24
372.355	318.85
372.736	320.66
373.117	336.93
373.498	304.16
373.879	326.76
374.26	348.68
374.641	319.53
375.021	335.8
375.402	331.95
375.783	340.09
376.163	347.32
376.544	346.19
376.925	332.63
377.305	314.33
377.686	330.6
378.066	335.57
378.447	339.64
378.827	335.57
379.208	334.44
379.588	344.84
379.968	361.78
380.349	343.71
380.729	343.93
381.109	365.17
381.489	341.22
381.87	348
382.25	356.13
382.63	353.2
383.01	344.61
383.39	356.36
383.77	358.62
384.15	366.53
384.53	350.26
384.91	357.94
385.29	359.75
385.67	366.76
386.049	368.34
386.429	370.6
386.809	372.63
387.189	371.73
387.568	352.07
387.948	361.56
388.328	374.89
388.707	378.73
389.087	373.54
389.466	378.73
389.846	376.93
390.225	382.57
390.605	388
390.984	361.11
391.363	383.7
391.743	387.77
392.122	383.48
392.501	403.59
392.881	374.67
393.26	376.93
393.639	407.43
394.018	391.84
394.397	393.42
394.776	411.05
395.155	416.47
395.534	407.21
395.913	415.12
396.292	421.22
396.671	429.58
397.05	421.9
397.429	413.08
397.808	414.44
398.186	406.98
398.565	415.12
398.944	419.86
399.323	427.77
399.701	432.06
400.08	409.92
400.458	418.51
400.837	433.65
401.215	437.71
401.594	441.56
401.972	433.87
402.351	436.36
402.729	432.97
403.107	435
403.486	431.16
403.864	432.06
404.242	430.48
404.62	442.91
404.999	444.72
405.377	464.83
405.755	446.3
406.133	453.76
406.511	471.61
406.889	465.06
407.267	487.88
407.645	465.74
408.023	468.67
408.401	450.37
408.779	457.83
409.156	460.54
409.534	468.22
409.912	472.97
410.29	486.75
410.667	491.5
411.045	485.62
411.422	480.43
411.8	491.72
412.178	499.18
412.555	501.44
412.933	508.22
413.31	524.94
413.687	505.51
414.065	511.16
414.442	526.75
414.819	529.92
415.197	528.33
415.574	540.99
415.951	540.76
416.328	559.29
416.705	556.58
417.082	517.94
417.46	544.38
417.837	561.33
418.214	546.86
418.591	559.75
418.967	581.21
419.344	580.54
419.721	600.42
420.098	573.08
420.475	590.93
420.852	573.08
421.228	582.57
421.605	589.57
421.982	600.42
422.358	598.84
422.735	626.18
423.111	630.25
423.488	598.61
423.864	625.05
424.241	634.77
424.617	637.71
424.994	628.22
425.37	631.83
425.746	667.76
426.123	642.23
426.499	635.22
426.875	653.75
427.251	676.8
427.627	659.86
428.003	696.24
428.379	679.06
428.756	698.5
429.132	702.79
429.507	682.68
429.883	697.14
430.259	709.57
430.635	730.14
431.011	703.47
431.387	741.89
431.763	736.24
432.138	735.79
432.514	733.3
432.89	750.7
433.265	768.1
433.641	774.2
434.016	774.65
434.392	787.08
434.767	796.8
435.143	806.07
435.518	794.99
435.894	806.29
436.269	820.08
436.644	818.72
437.02	808.1
437.395	824.37
437.77	845.39
438.145	849.91
438.52	871.6
438.895	870.7
439.271	872.96
439.646	886.29
440.021	860.98
440.395	893.97
440.77	917.7
441.145	913.18
441.52	918.38
441.895	932.84
442.27	942.11
442.645	925.39
443.019	943.01
443.394	954.09
443.769	948.21
444.143	942.11
444.518	948.44
444.892	941.88
445.267	951.6
445.641	998.83
446.016	966.06
446.39	993.86
446.764	998.83
447.139	988.21
447.513	1000.86
447.887	1025.5
448.262	1025.5
448.636	1029.11
449.01	1025.5
449.384	1021.43
449.758	1051.03
450.132	1054.42
450.506	1067.3
450.88	1071.6
451.254	1093.29
451.628	1087.41
452.002	1100.97
452.376	1083.12
452.75	1135.32
453.123	1113.85
453.497	1130.13
453.871	1162.44
454.244	1143.01
454.618	1158.37
454.992	1190.24
455.365	1199.28
455.739	1225.26
456.112	1244.47
456.486	1230.24
456.859	1260.52
457.232	1274.75
457.606	1271.59
457.979	1293.51
458.352	1326.73
458.725	1337.35
459.099	1356.33
459.472	1363.34
459.845	1388.88
460.218	1414.41
460.591	1415.99
460.964	1438.37
461.337	1448.54
461.71	1493.51
462.083	1490.34
462.456	1538.02
462.829	1522.21
463.201	1541.19
463.574	1561.07
463.947	1598.36
464.32	1643.56
464.692	1627.97
465.065	1672.03
465.438	1676.55
465.81	1705.7
466.183	1728.08
466.555	1789.54
466.928	1793.39
467.3	1816.21
467.672	1849.65
468.045	1879.94
468.417	1903.21
468.789	1905.92
469.161	1961.06
469.534	1999.48
469.906	2031.12
470.278	2064.34
470.65	2106.82
471.022	2140.95
471.394	2188.85
471.766	2227.05
472.138	2255.29
472.51	2288.29
472.882	2333.71
473.253	2432.24
473.625	2467.04
473.997	2547.04
474.369	2565.57
474.74	2630.2
475.112	2665
475.484	2734.15
475.855	2829.52
476.227	2881.27
476.598	2961.72
476.97	2971.21
477.341	3081.94
477.713	3190.18
478.084	3241.26
478.455	3344.53
478.827	3422.27
479.198	3573
479.569	3595.82
479.94	3727.57
480.311	3803.95
480.682	3894.35
481.053	4072.42
481.424	4113.78
481.795	4267.44
482.166	4380.66
482.537	4436.71
482.908	4645.97
483.279	4723.25
483.65	4850.25
484.021	5006.63
484.391	5103.13
484.762	5301.99
485.133	5318.72
485.503	5477.58
485.874	5679.84
486.244	5793.28
486.615	5916.44
486.985	6079.37
487.356	6281.63
487.726	6414.05
488.097	6587.38
488.467	6674.39
488.837	6871.67
489.207	7091.55
489.578	7228.72
489.948	7375.61
490.318	7607.7
490.688	7725.88
491.058	7890.85
491.428	8080.45
491.798	8280.22
492.168	8447
492.538	8535.35
492.908	8737.84
493.278	8931.28
493.648	9005.4
494.017	9153.87
494.387	9402
494.757	9510.02
495.126	9687.19
495.496	9757.02
495.866	9959.27
496.235	10151.36
496.605	10344.8
496.974	10399.71
497.344	10624.34
497.713	10690.78
498.082	10849.64
498.452	11024.1
498.821	11139.35
499.19	11197.21
499.559	11377.54
499.928	11513.81
500.298	11627.25
500.667	11748.38
501.036	11805.78
501.405	12029.95
501.774	12055.04
502.143	12291.64
502.512	12277.63
502.88	12503.16
503.249	12523.27
503.618	12733.21
503.987	12786.32
504.356	12897.5
504.724	13015.69
505.093	13080.77
505.462	13153.54
505.83	13300.88
506.199	13415.68
506.567	13582
506.936	13596.01
507.304	13736.8
507.672	13871.94
508.041	13836.46
508.409	14035.32
508.777	14135.66
509.145	14200.52
509.514	14177.47
509.882	14421.75
510.25	14379.04
510.618	14464.92
510.986	14476.89
511.354	14574.07
511.722	14736.55
512.09	14876.43
512.458	14745.59
512.826	14982.87
513.193	15003.43
513.561	15101.06
513.929	15167.27
514.297	15193.94
514.664	15293.37
515.032	15344.44
515.4	15461.73
515.767	15522.74
516.135	15634.6
516.502	15478.45
516.869	15700.82
517.237	15644.77
517.604	15645.22
517.972	15781.49
518.339	15856.97
518.706	15878.21
519.073	15881.83
519.44	16018.1
519.808	16100.13
520.175	16031.88
520.542	16291.53
520.909	16261.93
521.276	16256.96
521.643	16319.56
522.009	16380.35
522.376	16465.54
522.743	16447.91
523.11	16638.42
523.477	16658.53
523.843	16729.49
524.21	16866.21
524.577	16866.66
524.943	16928.13
525.31	16968.58
525.676	16977.84
526.043	17100.55
526.409	17104.17
526.776	17284.05
527.142	17188.91
527.508	17120.44
527.874	17317.72
528.241	17290.6
528.607	17234.11
528.973	17310.94
529.339	17382.81
529.705	17402.24
530.071	17409.92
530.437	17548.45
530.803	17472.75
531.169	17476.81
531.535	17492.18
531.901	17429.81
532.267	17485.85
532.632	17498.73
532.998	17422.8
533.364	17486.08
533.73	17439.75
534.095	17624.38
534.461	17505.29
534.826	17547.55
535.192	17452.18
535.557	17619.18
535.923	17559.3
536.288	17523.37
536.653	17517.27
537.019	17431.62
537.384	17456.48
537.749	17332.19
538.114	17458.28
538.479	17305.29
538.845	17373.31
539.21	17232.75
539.575	17281.34
539.94	17175.81
540.305	17220.1
540.67	17119.99
541.034	17246.99
541.399	17222.13
541.764	17115.02
542.129	17135.58
542.494	17058.52
542.858	16955.47
543.223	17040.67
543.587	17058.75
543.952	16977.39
544.316	16969.48
544.681	16885.87
545.045	16823.05
545.41	16953.44
545.774	16858.75
546.138	16789.37
546.503	16782.37
546.867	16783.05
547.231	16764.97
547.595	16828.24
547.959	16670.06
548.324	16496.5
548.688	16563.84
549.052	16550.96
549.416	16517.07
549.779	16402.04
550.143	16437.52
550.507	16543.05
550.871	16399.33
551.235	16389.84
551.599	16408.14
551.962	16364.3
552.326	16306.9
552.689	16373.34
553.053	16267.13
553.417	16250.86
553.78	16374.47
554.143	16204.31
554.507	16197.53
554.87	16198.88
555.234	16347.8
555.597	16137.87
555.96	16174.7
556.323	16179.22
556.686	16110.52
557.05	16210.63
557.413	16141.48
557.776	16100.58
558.139	16101.48
558.502	15997.76
558.865	16115.95
559.228	16077.76
559.59	16054.25
559.953	16202.05
560.316	16168.6
560.679	16106.46
561.041	16078.89
561.404	16228.49
561.767	16180.8
562.129	16079.79
562.492	16170.63
562.854	16139.22
563.217	16129.73
563.579	16159.33
563.941	16273
564.304	16129.96
564.666	16229.62
565.028	16281.14
565.39	16200.24
565.753	16362.27
566.115	16264.87
566.477	16299.44
566.839	16329.27
567.201	16367.92
567.563	16288.6
567.925	16472.77
568.287	16397.52
568.648	16383.28
569.01	16479.55
569.372	16544.64
569.734	16444.75
570.095	16491.08
570.457	16590.06
570.819	16460.34
571.18	16525.2
571.542	16562.49
571.903	16592.77
572.265	16691.07
572.626	16613.79
572.987	16486.56
573.349	16617.4
573.71	16832.54
574.071	16693.11
574.432	16682.49
574.794	16740.56
575.155	16833.67
575.516	16634.35
575.877	16735.82
576.238	16740.79
576.599	16817.62
576.96	16697.63
577.32	16683.39
577.681	16771.75
578.042	16878.64
578.403	16744.86
578.763	16824.85
579.124	16828.92
579.485	16845.42
579.845	16843.16
580.206	16829.6
580.566	16857.4
580.927	16825.53
581.287	16907.34
581.648	16742.82
582.008	16832.31
582.368	16783.5
582.728	16834.35
583.089	16774.46
583.449	16771.97
583.809	16753.9
584.169	16706.89
584.529	16746.66
584.889	16739.88
585.249	16670.96
585.609	16668.93
585.969	16737.17
586.329	16692.2
586.688	16746.66
587.048	16652.43
587.408	16592.09
587.768	16556.39
588.127	16710.51
588.487	16531.53
588.846	16656.95
589.206	16571.53
589.565	16547.35
589.925	16560.68
590.284	16510.51
590.643	16597.06
591.003	16546.22
591.362	16613.79
591.721	16542.15
592.08	16514.81
592.44	16504.64
592.799	16502.83
593.158	16449.27
593.517	16534.47
593.876	16501.02
594.235	16498.31
594.593	16486.11
594.952	16408.14
595.311	16428.93
595.67	16425.09
596.029	16487.24
596.387	16556.16
596.746	16473.68
597.104	16411.31
597.463	16417.86
597.822	16474.35
598.18	16421.47
598.538	16357.3
598.897	16489.27
599.255	16240.91
599.613	16486.78
599.972	16433.45
600.33	16410.85
600.688	16375.37
601.046	16431.87
601.404	16489.27
601.762	16417.86
602.12	16603.39
602.478	16501.92
602.836	16494.92
603.194	16452.43
603.552	16408.82
603.91	16331.99
604.268	16407.24
604.625	16373.34
604.983	16436.39
605.341	16358.65
605.698	16384.64
606.056	16454.69
606.413	16344.19
606.771	16425.99
607.128	16484.07
607.485	16379.22
607.843	16409.5
608.2	16481.59
608.557	16560.91
608.914	16414.47
609.272	16531.08
609.629	16512.77
609.986	16540.57
610.343	16473.9
610.7	16645.42
611.057	16568.36
611.414	16578.31
611.771	16691.52
612.127	16704.41
612.484	16693.78
612.841	16679.55
613.198	16564.52
613.554	16623.5
613.911	16734.46
614.267	16625.76
614.624	16622.83
614.98	16680
615.337	16705.99
615.693	16686.1
616.05	16657.18
616.406	16845.87
616.762	16758.19
617.118	16748.92
617.475	16719.09
617.831	16708.47
618.187	16740.79
618.543	16807.68
618.899	16844.74
619.255	16872.54
619.611	16861.69
619.967	16859.88
620.323	16900.33
620.678	16767.91
621.034	16794.57
621.39	16828.92
621.746	16799.54
622.101	16969.03
622.457	16889.03
622.812	16898.98
623.168	16928.35
623.523	16872.08
623.879	17006.54
624.234	16934.68
624.589	16914.8
624.945	16976.94
625.3	16953.66
625.655	16923.61
626.01	16930.84
626.365	16828.7
626.72	16829.83
627.075	16863.27
627.43	16781.01
627.785	16871.41
628.14	16894
628.495	16871.41
628.85	16818.98
629.205	16865.31
629.559	16881.58
629.914	16850.39
630.269	16817.4
630.623	16712.99
630.978	16764.52
631.332	16784.63
631.687	16720.22
632.041	16708.02
632.396	16767
632.75	16678.87
633.104	16644.75
633.459	16665.76
633.813	16604.52
634.167	16575.82
634.521	16688.36
634.875	16566.78
635.229	16588.48
635.583	16537.18
635.937	16486.56
636.291	16517.29
636.645	16505.09
636.999	16419.89
637.352	16490.4
637.706	16300.12
638.06	16382.61
638.413	16375.37
638.767	16284.53
639.121	16351.19
639.474	16279.56
639.828	16329.27
640.181	16333.34
640.534	16292.44
640.888	16244.76
641.241	16189.16
641.594	16249.95
641.947	16269.84
642.301	16259.22
642.654	16287.02
643.007	16222.61
643.36	16165.44
643.713	16218.32
644.066	16320.91
644.419	16064.87
644.771	16080.92
645.124	15893.35
645.477	15856.74
645.83	15742.4
646.182	15732.45
646.535	15727.48
646.888	15814.26
647.24	15648.16
647.593	15675.73
647.945	15539.46
648.298	15603.19
648.65	15469.18
649.002	15544.21
649.355	15638.67
649.707	15630.76
650.059	15720.48
650.411	15877.31
650.763	15885.22
651.115	16113.91
651.467	15982.16
651.819	16021.71
652.171	16095.83
652.523	15927.48
652.875	15955.5
653.227	15825.11
653.578	16031.88
653.93	16032.78
654.282	15947.82
654.633	15871.88
654.985	15979.68
655.337	15908.72
655.688	15941.04
656.039	16035.27
656.391	15951.43
656.742	16021.71
657.094	16017.19
657.445	16001.37
657.796	16077.53
658.147	15913.92
658.498	15926.12
658.849	15997.31
659.2	15988.94
659.551	15881.38
659.902	15979.9
660.253	16019.23
660.604	15999.57
660.955	15936.06
661.306	16076.63
661.656	15980.36
662.007	15962.96
662.358	15967.25
662.708	15988.27
663.059	16002.73
663.409	15862.85
663.76	16026.46
664.11	16049.28
664.461	16060.58
664.811	16049.06
665.161	15962.96
665.511	16009.96
665.862	15977.42
666.212	16084.53
666.562	16076.4
666.912	16140.35
667.262	16126.34
667.612	16036.63
667.962	16162.5
668.312	16016.29
668.662	16135.38
669.011	16045.89
669.361	16025.33
669.711	15959.79
670.06	15969.06
670.41	15984.2
670.76	15932.9
671.109	16049.06
671.459	15959.79
671.808	15913.92
672.157	15963.86
672.507	15871.43
672.856	15852.45
673.205	15930.64
673.554	15998.66
673.904	15821.72
674.253	15894.94
674.602	15843.19
674.951	15717.09
675.3	15628.28
675.649	15813.13
675.998	15808.84
676.346	15741.94
676.695	15816.75
677.044	15718.22
677.393	15714.83
677.741	15754.37
678.09	15724.54
678.438	15666.01
678.787	15732.68
679.135	15649.07
679.484	15495.4
679.832	15608.62
680.181	15482.52
680.529	15633.25
680.877	15451.33
681.225	15481.61
681.573	15585.79
681.922	15418.56
682.27	15384.67
682.618	15394.38
682.966	15352.12
683.314	15317.1
683.661	15312.35
684.009	15292.24
684.357	15255.4
684.705	15231.22
685.053	15288.85
685.4	15089.98
685.748	15141.96
686.095	15026.26
686.443	14982.87
686.79	15091.34
687.138	15070.32
687.485	15031.46
687.832	15002.53
688.18	14864.45
688.527	14867.17
688.874	14848.18
689.221	14817
689.568	14752.14
689.915	14756.21
690.262	14684.8
690.609	14611.81
690.956	14539.72
691.303	14598.92
691.65	14502.2
691.997	14472.37
692.344	14363.9
692.69	14324.58
693.037	14285.94
693.383	14188.09
693.73	14206.84
694.077	14183.79
694.423	14180.18
694.769	14053.4
695.116	14095.43
695.462	14014.08
695.808	13928.66
696.155	13983.35
696.501	13819.28
696.847	13831.71
697.193	13730.25
697.539	13798.95
697.885	13716.24
698.231	13607.31
698.577	13630.14
698.923	13547.88
699.269	13487.09
699.614	13335
699.96	13372.52
700.306	13266.3
700.651	13265.17
700.997	13251.84
701.342	13145.4
701.688	13157.38
702.033	13154.89
702.379	13112.41
702.724	12986.76
703.069	13008.91
703.415	12851.85
703.76	12875.35
704.105	12858.18
704.45	12876.94
704.795	12778.63
705.14	12667
705.485	12667.22
705.83	12607.34
706.175	12630.16
706.52	12632.42
706.865	12515.14
707.209	12518.3
707.554	12488.92
707.899	12535.25
708.243	12437.62
708.588	12373.67
708.932	12240.12
709.277	12323.73
709.621	12354.92
709.966	12176.16
710.31	12190.85
710.654	12122.38
710.998	12072.89
711.342	12178.65
711.687	12021.82
712.031	11977.07
712.375	11980.46
712.719	11995.38
713.063	12048.26
713.407	12002.61
713.75	11897.53
714.094	11860.69
714.438	11820.47
714.782	11804.87
715.125	11829.28
715.469	11770.98
715.812	11644.43
716.156	11666.35
716.499	11722.39
716.843	11676.74
717.186	11616.86
717.53	11753.35
717.873	11689.4
718.216	11581.6
718.559	11547.7
718.902	11533.02
719.246	11522.39
719.589	11463.41
719.932	11492.57
720.275	11468.61
720.617	11417.09
720.96	11367.6
721.303	11446.92
721.646	11386.58
721.989	11383.87
722.331	11449.85
722.674	11387.71
723.016	11379.12
723.359	11373.92
723.701	11411.66
724.044	11290.08
724.386	11280.59
724.729	11256.19
725.071	11298.67
725.413	11293.02
725.755	11269.97
726.097	11262.29
726.439	11188.62
726.782	11136.64
727.124	11226.81
727.465	11169.86
727.807	11210.76
728.149	11086.7
728.491	11119.69
728.833	11211.22
729.175	11130.09
729.516	11159.24
729.858	11082.63
730.199	11173.48
730.541	11099.36
730.882	11147.49
731.224	11186.36
731.565	11055.29
731.906	11093.93
732.248	11102.74
732.589	11025.46
732.93	11023.42
733.271	11087.15
733.612	11095.29
733.953	11096.42
734.294	11119.02
734.635	11101.16
734.976	11119.69
735.317	11039.92
735.658	11111.33
735.999	11016.42
736.339	11098.68
736.68	11101.84
737.021	11156.75
737.361	11054.16
737.702	11112.69
738.042	11144.1
738.383	11129.64
738.723	11126.02
739.063	11196.53
739.404	11196.53
739.744	11212.57
740.084	11211.67
740.424	11247.37
740.764	11181.61
741.104	11255.28
741.444	11245.79
741.784	11165.34
742.124	11227.94
742.464	11257.99
742.804	11304.77
743.143	11351.55
743.483	11361.5
743.823	11288.5
744.162	11334.6
744.502	11415.28
744.841	11426.58
745.181	11535.73
745.52	11432.68
745.86	11598.55
746.199	11549.51
746.538	11645.56
746.877	11776.63
747.216	11802.16
747.556	11844.19
747.895	11899.79
748.234	11888.94
748.573	11971.2
748.911	12027.69
749.25	12154.02
749.589	12210.29
749.928	12326.67
750.267	12369.38
750.605	12482.37
750.944	12564.85
751.283	12645.76
751.621	12786.99
751.96	12831.51
752.298	12902.25
752.636	13041.68
752.975	13191.96
753.313	13254.33
753.651	13360.09
753.989	13447.99
754.327	13627.88
754.666	13713.75
755.004	13910.13
755.342	14101.76
755.679	14181.99
756.017	14281.87
756.355	14545.82
756.693	14680.73
757.031	14829.65
757.368	14926.15
757.706	15195.52
758.044	15266.25
758.381	15538.33
758.719	15672.34
759.056	15893.13
759.394	15934.26
759.731	16091.77
760.068	16305.55
760.405	16452.43
760.743	16653.33
761.08	16911.63
761.417	16984.85
761.754	17124.06
762.091	17337.84
762.428	17471.62
762.765	17673.65
763.102	17902.57
763.438	18038.38
763.775	18171.71
764.112	18421.2
764.449	18526.28
764.785	18726.27
765.122	18810.56
765.458	18856.67
765.795	19166.49
766.131	19362.87
766.467	19515.63
766.804	19556.76
767.14	19723.54
767.476	19875.17
767.812	19981.83
768.148	20207.82
768.485	20162.85
768.821	20290.75
769.157	20427.47
769.492	20550.63
769.828	20678.99
770.164	20710.63
770.5	20807.12
770.836	20881.02
771.171	20924.41
771.507	21134.8
771.842	21164.18
772.178	21267.45
772.513	21483.26
772.849	21443.72
773.184	21409.82
773.519	21673.31
773.855	21628.57
774.19	21639.64
774.525	21762.8
774.86	21749.02
775.195	21896.81
775.53	21849.81
775.865	21866.98
776.2	21887.77
776.535	21828.79
776.87	21925.51
777.205	21855
777.539	21842.58
777.874	22097.94
778.209	21931.39
778.543	22014.55
778.878	22106.3
779.212	22010.71
779.547	22000.09
779.881	22142.91
780.215	22037.37
780.55	22126.64
780.884	21991.72
781.218	22094.55
781.552	22061.33
781.886	22029.92
782.22	22023.81
782.554	22023.59
782.888	21923.93
783.222	21856.36
783.556	21830.15
783.889	21820.88
784.223	21714.67
784.557	21715.12
784.89	21871.95
785.224	21764.84
785.557	21694.56
785.891	21695.23
786.224	21663.6
786.558	21730.49
786.891	21582.02
787.224	21431.51
787.557	21518.29
787.891	21546.31
788.224	21412.76
788.557	21550.15
788.89	21394.23
789.223	21495.01
789.556	21345.41
789.888	21343.61
790.221	21257.28
790.554	21098.19
790.887	21071.3
791.219	21024.74
791.552	21034.01
791.884	21021.35
792.217	21047.34
792.549	20891.87
792.882	20866.33
793.214	20858.42
793.546	20825.88
793.879	20675.6
794.211	20566.22
794.543	20729.84
794.875	20566.68
795.207	20654.58
795.539	20597.41
795.871	20582.04
796.203	20399.45
796.535	20199.45
796.867	20176.4
797.198	20210.75
797.53	20290.3
797.862	20060.25
798.193	20177.99
798.525	20083.07
798.856	20113.13
799.188	19873.36
799.519	19811.22
799.85	19775.29
800.182	19881.72
800.513	19843.31
800.844	19698.68
801.175	19886.24
801.506	19717.43
801.837	19572.35
802.168	19498
802.499	19537.55
802.83	19396.76
803.161	19351.57
803.491	19368.52
803.822	19351.79
804.153	19303.89
804.483	19255.98
804.814	19135.53
805.145	19077.22
805.475	19047.17
805.805	18978.02
806.136	18960.62
806.466	18975.98
806.796	18883.11
807.126	18802.2
807.457	18699.61
807.787	18808.76
808.117	18669.78
808.447	18580.97
808.777	18663
809.107	18606.95
809.436	18595.88
809.766	18542.55
810.096	18457.81
810.426	18424.13
810.755	18464.36
811.085	18427.98
811.414	18371.48
811.744	18274.99
812.073	18192.95
812.403	18191.15
812.732	18045.39
813.061	18079.96
813.39	17928.78
813.719	17960.64
814.049	18037.7
814.378	17978.72
814.707	17930.36
815.036	17932.62
815.365	17854.66
815.693	17672.29
816.022	17791.16
816.351	17682.01
816.68	17655.79
817.008	17625.74
817.337	17458.28
817.665	17473.65
817.994	17438.4
818.322	17382.81
818.651	17361.34
818.979	17311.85
819.307	17343.03
819.636	17306.42
819.964	17197.05
820.292	17323.15
820.62	17248.8
820.948	17210.83
821.276	17262.36
821.604	17148.46
821.932	17292.86
822.259	17221.23
822.587	17239.76
822.915	17225.52
823.243	17160.89
823.57	17174.9
823.898	17201.34
824.225	17151.85
824.553	17108.91
824.88	17114.34
825.207	17271.4
825.535	17099.42
825.862	17243.83
826.189	17151.4
826.516	17248.57
826.843	17290.38
827.17	17126.54
827.497	17198.86
827.824	17172.87
828.151	17167.9
828.478	17277.72
828.805	17288.8
829.131	17184.17
829.458	17207.89
829.785	17097.16
830.111	17112.53
830.438	17203.15
830.764	17161.12
831.09	17216.26
831.417	17194.34
831.743	17292.86
832.069	17222.58
832.395	17131.29
832.722	17106.65
833.048	17101.01
833.374	17173.32
833.7	17031.18
834.026	17034.34
834.351	17081.34
834.677	17047.45
835.003	17101.23
835.329	16961.8
835.654	17008.35
835.98	16946.43
836.306	16957.96
836.631	16870.05
836.956	16901.91
837.282	16951.4
837.607	16895.81
837.932	16804.97
838.258	16782.82
838.583	16730.39
838.908	16747.57
839.233	16744.18
839.558	16649.04
839.883	16621.24
840.208	16525.43
840.533	16591.87
840.858	16594.58
841.182	16555.93
841.507	16485.88
841.832	16518.2
842.156	16352.32
842.481	16407.69
842.805	16324.98
843.13	16416.73
843.454	16238.2
843.778	16257.41
844.103	16302.38
844.427	16082.73
844.751	16157.53
845.075	16173.57
845.399	16039.11
845.723	15921.15
846.047	16037.3
846.371	15860.36
846.695	15923.86
847.019	15683.64
847.343	15731.32
847.666	15643.87
847.99	15570.42
848.313	15534.94
848.637	15405.23
848.96	15421.28
849.284	15415.17
849.607	15292.01
849.931	15254.27
850.254	15129.53
850.577	15080.04
850.9	14999.37
851.223	14967.5
851.546	14844.57
851.869	14821.97
852.192	14825.13
852.515	14649.54
852.838	14715.31
853.161	14583.56
853.483	14544.24
853.806	14450.45
854.129	14430.79
854.451	14497.23
854.774	14372.04
855.096	14306.05
855.419	14275.32
855.741	14225.83
856.063	14215.43
856.385	14162.55
856.708	14037.58
857.03	14043.46
857.352	13984.93
857.674	13960.52
857.996	13943.8
858.318	13880.3
858.64	13879.62
858.961	13818.38
859.283	13779.28
859.605	13668.78
859.926	13705.16
860.248	13649.8
860.57	13624.71
860.891	13650.93
861.212	13600.31
861.534	13488.67
861.855	13476.24
862.176	13483.7
862.498	13519.4
862.819	13472.17
863.14	13412.06
863.461	13430.59
863.782	13298.62
864.103	13364.15
864.424	13274.89
864.745	13393.53
865.065	13304.49
865.386	13196.93
865.707	13218.4
866.027	13227.21
866.348	13158.96
866.668	13118.29
866.989	13143.14
867.309	13030.15
867.63	13084.39
867.95	13099.53
868.27	12998.06
868.59	13003.71
868.91	12978.63
869.23	12916.93
869.55	12876.71
869.87	12903.38
870.19	12868.8
870.51	12951.51
870.83	12949.93
871.15	12747.9
871.469	12797.39
871.789	12870.83
872.109	12760.1
872.428	12674.45
872.748	12748.58
873.067	12617.73
873.386	12714.45
873.706	12633.78
874.025	12584.29
874.344	12573.89
874.663	12615.47
874.982	12537.96
875.301	12526.44
875.62	12517.17
875.939	12453.44
876.258	12506.78
876.577	12460
876.896	12376.61
877.214	12418.64
877.533	12402.37
877.852	12418.42
878.17	12345.88
878.489	12372.32
878.807	12359.66
879.125	12276.5
879.444	12315.82
879.762	12283.05
880.08	12249.38
880.398	12215.71
880.716	12199.67
881.034	12115.15
881.352	12221.36
881.67	12114.92
881.988	12151.08
882.306	11964.19
882.624	12054.81
882.941	11955.15
883.259	11991.53
883.577	11941.82
883.894	11969.61
884.212	11863.4
884.529	11943.17
884.846	11802.16
885.164	11847.58
885.481	11762.39
885.798	11817.75
886.115	11575.73
886.432	11673.13
886.75	11658.44
887.067	11627.48
887.383	11576.18
887.7	11619.57
888.017	11557.42
888.334	11521.94
888.651	11510.19
888.967	11489.4
889.284	11447.59
889.6	11370.76
889.917	11366.92
890.233	11304.55
890.55	11251.44
890.866	11287.6
891.182	11294.15
891.498	11190.43
891.815	11223.65
892.131	11128.96
892.447	11100.03
892.763	11100.26
893.079	11041.05
893.395	11034.27
893.71	10929.42
894.026	10900.04
894.342	10997.21
894.657	10857.33
894.973	10822.53
895.289	10825.24
895.604	10764.67
895.92	10702.98
896.235	10660.5
896.55	10595.87
896.865	10630.89
897.181	10609.88
897.496	10595.19
897.811	10448.07
898.126	10521.97
898.441	10403.55
898.756	10420.05
899.071	10327.4
899.386	10272.48
899.7	10228.64
900.015	10215.76
900.33	10106.39
900.644	10152.26
900.959	10122.43
901.273	10092.6
901.588	10068.87
901.902	9915.21
902.216	9938.26
902.531	9946.17
902.845	9957.69
903.159	9835.66
903.473	9837.92
903.787	9775.55
904.101	9754.08
904.415	9802.67
904.729	9700.97
905.042	9620.98
905.356	9568.77
905.67	9599.06
905.984	9583.91
906.297	9581.88
906.611	9485.39
906.924	9382.11
907.237	9455.56
907.551	9415.11
907.864	9358.38
908.177	9312.28
908.491	9300.53
908.804	9236.81
909.117	9201.55
909.43	9098.05
909.743	9025.06
910.056	9101.89
910.368	9056.47
910.681	8953.2
910.994	8951.16
911.307	8900.77
911.619	8859.64
911.932	8894.22
912.244	8798.85
912.557	8760.89
912.869	8695.12
913.181	8669.81
913.494	8685.86
913.806	8578.74
914.118	8502.36
914.43	8503.27
914.742	8586.43
915.054	8454.68
915.366	8472.08
915.678	8452.87
915.99	8379.65
916.302	8318.19
916.613	8326.09
916.925	8303.95
917.236	8242.26
917.548	8221.46
917.859	8190.96
918.171	8201.35
918.482	8071.86
918.794	8070.51
919.105	8062.6
919.416	8019.66
919.727	7964.97
920.038	7896.28
920.349	7848.59
920.66	7873.23
920.971	7801.81
921.282	7846.33
921.593	7784.87
921.903	7736.73
922.214	7718.88
922.525	7692.44
922.835	7652.44
923.146	7581.26
923.456	7569.05
923.767	7549.62
924.077	7557.53
924.387	7441.15
924.697	7392.56
925.008	7379.68
925.318	7367.7
925.628	7348.49
925.938	7359.57
926.248	7307.36
926.558	7273.01
926.867	7238.44
927.177	7161.83
927.487	7197.76
927.796	7106.92
928.106	7115.05
928.416	7099.91
928.725	7093.36
929.034	6996.19
929.344	7010.87
929.653	7001.38
929.962	6959.8
930.271	6913.48
930.581	6821.95
930.89	6836.87
931.199	6745.35
931.508	6787.15
931.817	6765.01
932.125	6713.03
932.434	6697.21
932.743	6700.37
933.051	6648.85
933.36	6641.85
933.669	6572.69
933.977	6546.03
934.286	6578.34
934.594	6498.57
934.902	6448.63
935.21	6448.63
935.519	6415.41
935.827	6416.31
936.135	6354.85
936.443	6294.51
936.751	6307.62
937.059	6242.53
937.367	6253.61
937.674	6273.49
937.982	6237.79
938.29	6234.62
938.597	6134.29
938.905	6146.72
939.213	6114.85
939.52	6062.88
939.827	6111.69
940.135	6024.23
940.442	5966.38
940.749	5980.85
941.056	6014.29
941.363	5898.36
941.67	5895.42
941.977	5855.88
942.284	5815.2
942.591	5800.06
942.898	5773.85
943.205	5779.27
943.511	5720.06
943.818	5699.72
944.125	5681.64
944.431	5633.28
944.738	5634.64
945.044	5649.33
945.35	5581.08
945.657	5571.36
945.963	5553.06
946.269	5500.63
946.575	5457.92
946.881	5502.67
947.187	5445.72
947.493	5442.1
947.799	5388.09
948.105	5406.85
948.41	5348.32
948.716	5353.07
949.022	5309.45
949.327	5303.12
949.633	5264.48
949.938	5209.34
950.244	5273.29
950.549	5177.02
950.854	5171.6
951.16	5179.28
951.465	5096.58
951.77	5140.64
952.075	5091.83
952.38	5093.41
952.685	5094.77
952.99	4972.74
953.294	4976.35
953.599	4992.85
953.904	4950.82
954.209	4904.94
954.513	4894.32
954.818	4836.69
955.122	4864.04
955.426	4834.21
955.731	4840.54
956.035	4785.62
956.339	4794.66
956.643	4812.06
956.948	4713.31
957.252	4690.03
957.556	4719.41
957.86	4649.58
958.163	4664.5
958.467	4618.62
958.771	4592.41
959.075	4606.64
959.378	4621.79
959.682	4563.03
959.985	4559.19
960.289	4523.71
960.592	4450.94
960.896	4457.95
961.199	4458.85
961.502	4409.81
961.805	4417.5
962.108	4370.27
962.411	4407.55
962.714	4375.46
963.017	4328.91
963.32	4306.99
963.623	4251.85
963.926	4317.16
964.228	4235.13
964.531	4244.62
964.833	4226.77
965.136	4160.55
965.438	4191.06
965.741	4203.49
966.043	4179.09
966.345	4090.05
966.648	4109.48
966.95	4110.39
967.252	4084.17
967.554	4074.68
967.856	4040.56
968.158	4015.02
968.46	4012.99
968.761	4004.63
969.063	4018.19
969.365	3930.5
969.666	3918.07
969.968	3926.66
970.269	3890.96
970.571	3905.65
970.872	3860
971.174	3831.52
971.475	3838.75
971.776	3795.82
972.077	3776.61
972.378	3786.55
972.679	3733.45
972.98	3761.24
973.281	3769.15
973.582	3755.14
973.883	3666.1
974.183	3691.87
974.484	3661.81
974.785	3640.34
975.085	3619.78
975.386	3625.2
975.686	3607.35
975.986	3569.61
976.287	3610.29
976.587	3535.26
976.887	3525.77
977.187	3536.62
977.487	3493.68
977.787	3497.75
978.087	3446.45
978.387	3474.02
978.687	3480.12
978.987	3418.2
979.286	3427.01
979.586	3397.64
979.885	3365.77
980.185	3356.51
980.484	3341.37
980.784	3352.89
981.083	3302.95
981.382	3347.92
981.682	3330.07
981.981	3291.42
982.28	3262.05
982.579	3232.67
982.878	3262.95
983.177	3246.45
983.475	3220.47
983.774	3161.26
984.073	3148.6
984.372	3183.4
984.67	3163.74
984.969	3104.09
985.267	3112.9
985.566	3100.47
985.864	3126.91
986.162	3043.52
986.461	3018.44
986.759	3090.75
987.057	2949.96
987.355	3021.38
987.653	3010.98
987.951	2970.3
988.249	2994.26
988.547	2973.47
988.844	2957.87
989.142	2973.02
989.44	2919.46
989.737	2907.48
990.035	2879.68
990.332	2926.24
990.63	2835.17
990.927	2877.42
991.224	2799.91
991.521	2820.7
991.819	2824.54
992.116	2820.02
992.413	2789.97
992.71	2761.95
993.006	2749.74
993.303	2760.37
993.6	2771.21
993.897	2750.2
994.193	2705.9
994.49	2684.44
994.787	2668.16
995.083	2630.2
995.379	2653.02
995.676	2658.67
995.972	2625
996.268	2600.6
996.565	2591.1
996.861	2569.64
997.157	2575.06
997.453	2565.57
997.749	2541.39
998.044	2536.64
998.34	2506.81
998.636	2492.58
998.932	2490.54
999.227	2501.62
999.523	2432.92
999.818	2449.19
1000.114	2452.35
1000.409	2412.8
1000.704	2414.84
1001	2406.48
1001.295	2352.47
1001.59	2380.04
1001.885	2381.39
1002.18	2366.25
1002.475	2352.47
1002.77	2331.45
1003.065	2363.77
1003.359	2281.06
1003.654	2305.46
1003.949	2299.59
1004.243	2254.39
1004.538	2245.58
1004.832	2288.06
1005.127	2247.84
1005.421	2206.71
1005.715	2205.58
1006.009	2201.28
1006.304	2185.69
1006.598	2152.02
1006.892	2121.96
1007.186	2125.35
1007.48	2161.28
1007.773	2096.2
1008.067	2085.58
1008.361	2073.15
1008.655	2074.96
1008.948	2045.81
1009.242	2027.5
1009.535	2018.46
1009.829	2032.7
1010.122	1999.48
1010.415	2005.58
1010.708	1982.98
1011.001	1958.35
1011.295	1973.27
1011.588	1943.44
1011.881	1940.05
1012.173	1934.85
1012.466	1918.81
1012.759	1917.22
1013.052	1921.74
1013.344	1864.8
1013.637	1876.55
1013.93	1870.67
1014.222	1863.21
1014.514	1845.14
1014.807	1862.76
1015.099	1784.12
1015.391	1799.49
1015.683	1794.06
1015.976	1787.28
1016.268	1779.6
1016.56	1764.23
1016.851	1771.24
1017.143	1741.63
1017.435	1731.24
1017.727	1724.69
1018.018	1723.33
1018.31	1726.95
1018.602	1697.34
1018.893	1683.56
1019.185	1635.2
1019.476	1661.19
1019.767	1651.47
1020.058	1631.81
1020.35	1625.48
1020.641	1619.83
1020.932	1618.47
1021.223	1578.7
1021.514	1578.48
1021.804	1586.61
1022.095	1539.15
1022.386	1557.23
1022.677	1529.66
1022.967	1536.44
1023.258	1521.3
1023.548	1509.78
1023.839	1513.39
1024.129	1491.7
1024.419	1477.01
1024.709	1481.53
1025	1464.35
1025.29	1455.09
1025.58	1427.52
1025.87	1423
1026.16	1446.95
1026.449	1431.81
1026.739	1390.91
1027.029	1391.81
1027.319	1417.35
1027.608	1387.97
1027.898	1376.22
1028.187	1357.24
1028.477	1347.75
1028.766	1336.22
1029.055	1317.69
1029.344	1343
1029.634	1317.47
1029.923	1294.64
1030.212	1281.08
1030.501	1284.02
1030.79	1288.09
1031.078	1273.62
1031.367	1256.9
1031.656	1263.68
1031.945	1254.19
1032.233	1218.94
1032.522	1238.15
1032.81	1234.3
1033.099	1210.12
1033.387	1209.22
1033.675	1196.56
1033.963	1201.76
1034.251	1191.82
1034.54	1158.15
1034.828	1154.53
1035.116	1126.74
1035.403	1154.76
1035.691	1142.55
1035.979	1126.74
1036.267	1146.4
1036.554	1112.05
1036.842	1108.88
1037.129	1109.56
1037.417	1083.35
1037.704	1104.82
1037.992	1112.95
1038.279	1079.05
1038.566	1061.88
1038.853	1061.88
1039.14	1061.88
