Data from hue_28_FLMS001491_00067.txt Node
Date: Tue Feb 07 17:17:36 GMT 2017
User: dcchb
Spectrometer: FLMS00149
Trigger mode: 0
Integration Time (sec): 2.000000E-2
Scans to average: 10
Electric dark correction enabled: true
Nonlinearity correction enabled: false
Boxcar width: 0
XAxis mode: Wavelengths
Number of Pixels in Spectrum: 2048
>>>>>Begin Spectral Data<<<<<
341.393	-11.85
341.776	-11.85
342.16	-11.85
342.543	-62.47
342.927	-64.5
343.31	-61.11
343.693	-70.15
344.077	-72.41
344.46	-50.04
344.843	-47.33
345.226	-36.03
345.61	-42.81
345.993	-19.31
346.376	-2.13
346.759	17.3
347.142	33.8
347.525	17.08
347.908	48.49
348.291	89.39
348.674	101.82
349.057	93.46
349.44	130.97
349.823	156.06
350.206	162.38
350.588	189.05
350.971	200.35
351.354	228.37
351.737	234.7
352.119	250.97
352.502	254.36
352.884	287.35
353.267	268.82
353.65	287.8
354.032	304.75
354.414	303.85
354.797	317.86
355.179	320.12
355.562	328.03
355.944	326.67
356.326	342.72
356.709	348.14
357.091	341.59
357.473	331.64
357.855	344.52
358.238	354.92
358.62	362.83
359.002	345.65
359.384	330.97
359.766	340.46
360.148	323.73
360.53	350.85
360.912	330.29
361.294	325.77
361.676	335.71
362.057	316.5
362.439	352.43
362.821	321.7
363.203	307.24
363.584	316.95
363.966	327.12
364.348	329.38
364.729	318.76
365.111	331.19
365.493	324.19
365.874	314.02
366.256	311.08
366.637	323.51
367.019	310.18
367.4	316.28
367.781	330.97
368.163	332.1
368.544	304.53
368.925	312.44
369.306	314.47
369.688	315.37
370.069	318.08
370.45	299.1
370.831	325.54
371.212	318.76
371.593	319.44
371.974	300.01
372.355	327.35
372.736	316.95
373.117	321.93
373.498	303.4
373.879	306.79
374.26	308.14
374.641	332.1
375.021	316.73
375.402	298.2
375.783	321.25
376.163	356.5
376.544	322.15
376.925	318.76
377.305	309.72
377.686	311.53
378.066	335.94
378.447	341.59
378.827	354.92
379.208	314.02
379.588	297.29
379.968	335.94
380.349	338.42
380.729	340.01
381.109	347.91
381.489	340.68
381.87	355.37
382.25	354.24
382.63	346.11
383.01	338.88
383.39	339.1
383.77	335.94
384.15	345.88
384.53	364.86
384.91	340.91
385.29	353.79
385.67	357.41
386.049	355.15
386.429	363.51
386.809	347.01
387.189	341.81
387.568	329.84
387.948	357.18
388.328	360.34
388.707	360.34
389.087	334.81
389.466	356.5
389.846	346.33
390.225	354.92
390.605	360.8
390.984	364.86
391.363	356.5
391.743	356.5
392.122	339.78
392.501	358.31
392.881	371.64
393.26	360.34
393.639	402.15
394.018	369.16
394.397	391.76
394.776	376.39
395.155	391.98
395.534	361.02
395.913	369.16
396.292	372.77
396.671	377.97
397.05	367.8
397.429	399.44
397.808	392.66
398.186	386.56
398.565	380.46
398.944	388.59
399.323	389.72
399.701	388.14
400.08	397.63
400.458	384.07
400.837	405.54
401.215	398.08
401.594	377.74
401.972	392.89
402.351	391.76
402.729	407.12
403.107	409.61
403.486	399.44
403.864	401.47
404.242	405.54
404.62	422.04
404.999	414.35
405.377	425.88
405.755	417.74
406.133	426.1
406.511	402.6
406.889	413.22
407.267	432.66
407.645	446.22
408.023	431.75
408.401	429.04
408.779	435.14
409.156	423.84
409.534	434.01
409.912	432.66
410.29	448.93
410.667	443.05
411.045	430.4
411.422	447.12
411.8	443.96
412.178	456.39
412.555	457.52
412.933	438.99
413.31	464.52
413.687	467.01
414.065	467.69
414.442	478.76
414.819	451.41
415.197	467.91
415.574	464.52
415.951	465.43
416.328	463.84
416.705	488.7
417.082	475.82
417.46	496.61
417.837	488.25
418.214	491.19
418.591	482.6
418.967	508.14
419.344	514.46
419.721	499.1
420.098	514.46
420.475	489.38
420.852	516.72
421.228	522.15
421.605	527.12
421.982	504.52
422.358	520.57
422.735	529.15
423.111	527.34
423.488	526.44
423.864	530.06
424.241	537.97
424.617	537.97
424.994	543.16
425.37	552.43
425.746	550.85
426.123	565.08
426.499	533.45
426.875	555.14
427.251	553.78
427.627	565.76
428.003	593.78
428.379	565.99
428.756	567.12
429.132	590.85
429.507	582.71
429.883	569.83
430.259	580.45
430.635	608.25
431.011	626.33
431.387	610.96
431.763	595.82
432.138	607.57
432.514	632.2
432.89	641.24
433.265	628.36
433.641	632.43
434.016	635.36
434.392	638.98
434.767	664.97
435.143	661.58
435.518	669.94
435.894	658.87
436.269	684.18
436.644	658.19
437.02	674.91
437.395	678.75
437.77	666.32
438.145	704.74
438.52	716.94
438.895	704.97
439.271	715.59
439.646	729.37
440.021	709.49
440.395	720.79
440.77	714.68
441.145	747.9
441.52	743.16
441.895	735.7
442.27	742.71
442.645	745.64
443.019	745.42
443.394	756.72
443.769	756.94
444.143	777.28
444.518	758.07
444.892	765.76
445.267	742.48
445.641	777.51
446.016	783.84
446.39	769.82
446.764	779.54
447.139	776.83
447.513	783.38
447.887	818.41
448.262	794.23
448.636	799.43
449.01	798.52
449.384	816.83
449.758	834.23
450.132	817.05
450.506	817.51
450.88	816.15
451.254	837.85
451.628	854.79
452.002	869.26
452.376	859.99
452.75	852.53
453.123	853.21
453.497	857.96
453.871	868.35
454.244	890.5
454.618	884.85
454.992	895.7
455.365	902.93
455.739	920.33
456.112	937.05
456.486	969.82
456.859	963.04
457.232	920.33
457.606	944.74
457.979	962.36
458.352	991.29
458.725	991.97
459.099	983.6
459.472	1045.52
459.845	1035.81
460.218	1032.19
460.591	1028.8
460.964	1020.21
461.337	1053.88
461.71	1068.8
462.083	1057.73
462.456	1099.08
462.829	1118.97
463.201	1108.57
463.574	1096.37
463.947	1120.78
464.32	1152.87
464.692	1127.78
465.065	1158.74
465.438	1185.18
465.81	1168.68
466.183	1170.49
466.555	1233.09
466.928	1258.17
467.3	1276.93
467.672	1254.33
468.045	1262.01
468.417	1293.43
468.789	1291.84
469.161	1340.43
469.534	1306.31
469.906	1364.84
470.278	1372.75
470.65	1361
471.022	1419.75
471.394	1429.47
471.766	1440.54
472.138	1470.37
472.51	1475.79
472.882	1503.14
473.253	1542.69
473.625	1538.39
473.997	1598.5
474.369	1600.54
474.74	1613.19
475.112	1670.14
475.484	1707.88
475.855	1708.56
476.227	1727.77
476.598	1781.55
476.97	1821.55
477.341	1862
477.713	1892.73
478.084	1896.8
478.455	1976.35
478.827	1997.81
479.198	2026.51
479.569	2063.12
479.94	2094.54
480.311	2123.01
480.682	2171.14
481.053	2235.77
481.424	2285.72
481.795	2298.15
482.166	2330.46
482.537	2372.04
482.908	2467.63
483.279	2476.67
483.65	2529.55
484.021	2589.44
484.391	2626.72
484.762	2693.84
485.133	2735.42
485.503	2781.97
485.874	2884.12
486.244	2865.81
486.615	2898.13
486.985	2970.67
487.356	3036.88
487.726	3062.19
488.097	3186.03
488.467	3240.95
488.837	3242.08
489.207	3285.69
489.578	3398
489.948	3436.42
490.318	3505.8
490.688	3522.75
491.058	3605.46
491.428	3627.38
491.798	3684.78
492.168	3740.82
492.538	3796.19
492.908	3799.58
493.278	3936.29
493.648	3937.88
494.017	3994.6
494.387	4049.96
494.757	4123.41
495.126	4095.61
495.496	4191.43
495.866	4228.72
496.235	4254.25
496.605	4296.74
496.974	4374.25
497.344	4392.55
497.713	4417.86
498.082	4433.91
498.452	4480.01
498.821	4557.75
499.19	4603.4
499.559	4607.01
499.928	4645.2
500.298	4748.7
500.667	4771.3
501.036	4781.92
501.405	4818.31
501.774	4832.77
502.143	4894.24
502.512	4926.78
502.88	4951.64
503.249	4984.63
503.618	5029.15
503.987	4988.47
504.356	5049.03
504.724	5087.45
505.093	5134
505.462	5168.8
505.83	5221.68
506.199	5241.12
506.567	5350.27
506.936	5250.38
507.304	5363.15
507.672	5351.4
508.041	5404.5
508.409	5438.85
508.777	5404.96
509.145	5439.31
509.514	5518.63
509.882	5586.87
510.25	5574.9
510.618	5615.8
510.986	5569.7
511.354	5639.75
511.722	5668.9
512.09	5743.48
512.458	5738.51
512.826	5768.56
513.193	5820.99
513.561	5817.38
513.929	5852.18
514.297	5846.3
514.664	5922.01
515.032	5963.59
515.4	5995
515.767	5975.79
516.135	5996.35
516.502	5964.94
516.869	6125.84
517.237	6159.51
517.604	6081.55
517.972	6153.86
518.339	6220.08
518.706	6177.59
519.073	6202.45
519.44	6206.74
519.808	6297.59
520.175	6283.58
520.542	6340.98
520.909	6348.66
521.276	6336.91
521.643	6435.44
522.009	6446.06
522.376	6528.77
522.743	6534.42
523.11	6523.57
523.477	6616.9
523.843	6638.6
524.21	6692.15
524.577	6743.23
524.943	6789.55
525.31	6777.35
525.676	6832.94
526.043	6858.7
526.409	6900.28
526.776	6968.76
527.142	6941.19
527.508	7012.6
527.874	7131.92
528.241	7102.54
528.607	7098.7
528.973	7129.43
529.339	7190.9
529.705	7234.29
530.071	7261.63
530.437	7316.77
530.803	7367.17
531.169	7387.28
531.535	7397.9
531.901	7428.86
532.267	7441.29
532.632	7484
532.998	7540.72
533.364	7595.63
533.73	7622.75
534.095	7667.27
534.461	7669.08
534.826	7676.54
535.192	7772.35
535.557	7844.21
535.923	7780.71
536.288	7866.13
536.653	7862.29
537.019	7902.07
537.384	7913.82
537.749	7970.99
538.114	7998.33
538.479	8053.02
538.845	7968.28
539.21	7966.02
539.575	8042.63
539.94	8072.01
540.305	8114.49
540.67	8115.85
541.034	8202.62
541.399	8267.25
541.764	8293.69
542.129	8383.18
542.494	8384.31
542.858	8353.81
543.223	8415.95
543.587	8439
543.952	8467.02
544.316	8546.12
544.681	8510.19
545.045	8599.9
545.41	8643.29
545.774	8664.08
546.138	8677.87
546.503	8676.06
546.867	8654.36
547.231	8749.05
547.595	8768.26
547.959	8853.45
548.324	8847.58
548.688	8899.33
549.052	8899.78
549.416	8908.82
549.779	8957.41
550.143	9007.57
550.507	9039.89
550.871	9025.88
551.235	9056.39
551.599	9143.84
551.962	9152.2
552.326	9210.73
552.689	9230.39
553.053	9176.83
553.417	9200.79
553.78	9375.02
554.143	9340.22
554.507	9366.43
554.87	9342.48
555.234	9443.27
555.597	9469.26
555.96	9473.1
556.323	9488.69
556.686	9519.88
557.05	9560.78
557.413	9571.17
557.776	9600.55
558.139	9639.42
558.502	9690.27
558.865	9750.15
559.228	9788.34
559.59	9779.76
559.953	9868.57
560.316	9883.48
560.679	9892.52
561.041	9926.42
561.404	10023.82
561.767	10006.64
562.129	10029.02
562.492	10066.98
562.854	10009.81
563.217	10101.56
563.579	10157.37
563.941	10233.53
564.304	10218.39
564.666	10266.98
565.028	10295.9
565.39	10372.06
565.753	10410.47
566.115	10434.2
566.477	10396.01
566.839	10498.83
567.201	10567.31
567.563	10521.43
567.925	10580.64
568.287	10699.28
568.648	10647.3
569.01	10725.27
569.372	10733.18
569.734	10739.51
570.095	10867.19
570.457	10919.39
570.819	10938.6
571.18	10948.77
571.542	11043
571.903	11010.91
572.265	11115.99
572.626	11210
572.987	11274.41
573.349	11263.11
573.71	11368.64
574.071	11457.45
574.432	11415.87
574.794	11629.43
575.155	11611.35
575.516	11609.54
575.877	11729.99
576.238	11785.13
576.599	11899.25
576.96	11869.19
577.32	11998
577.681	12129.98
578.042	12256.98
578.403	12341.05
578.763	12380.59
579.124	12581.72
579.485	12668.49
579.845	12838.66
580.206	12836.85
580.566	13088.82
580.927	13164.07
581.287	13281.81
581.648	13413.11
582.008	13537.4
582.368	13644.97
582.728	13903.04
583.089	14042.02
583.449	14129.25
583.809	14327.66
584.169	14588.44
584.529	14649.69
584.889	15019.39
585.249	15164.02
585.609	15310.68
585.969	15526.05
586.329	15686.95
586.688	15926.71
587.048	16087.16
587.408	16436.98
587.768	16629.52
588.127	16822.51
588.487	17092.56
588.846	17399.9
589.206	17542.04
589.565	17889.6
589.925	18174.56
590.284	18369.14
590.643	18768.9
591.003	18958.05
591.362	19201.66
591.721	19532.95
592.08	19798.02
592.44	20068.07
592.799	20398.91
593.158	20665.57
593.517	20826.47
593.876	21271.43
594.235	21485.66
594.593	21749.61
594.952	22080.22
595.311	22273.67
595.67	22710.49
596.029	23075.68
596.387	23298.27
596.746	23654.42
597.104	23770.35
597.463	24171.02
597.822	24589.76
598.18	24742.98
598.538	25045.12
598.897	25471.32
599.255	25537.53
599.613	26156.5
599.972	26322.82
600.33	26514.23
600.688	26713.55
601.046	27121
601.404	27398.28
601.762	27688.21
602.12	28087.3
602.478	28284.81
602.836	28625.14
603.194	28772.03
603.552	29005.01
603.91	29239.81
604.268	29593.47
604.625	29771.32
604.983	30101.03
605.341	30150.29
605.698	30602.94
606.056	30909.14
606.413	31113.43
606.771	31378.96
607.128	31627.32
607.485	31489.02
607.843	31941.43
608.2	32283.57
608.557	32574.86
608.914	32637.46
609.272	32928.53
609.629	33268.18
609.986	33476.76
610.343	33571.45
610.7	34036.29
611.057	34264.08
611.414	34278.32
611.771	34520.35
612.127	34726.22
612.484	34840.11
612.841	35234.68
613.198	35328.46
613.554	35397.16
613.911	35679.19
614.267	35840.99
614.624	35826.98
614.98	36226.07
615.337	36474.2
615.693	36568.43
616.05	36620.63
616.406	37075.54
616.762	37005.26
617.118	37079.83
617.475	37199.15
617.831	37504.68
618.187	37648.18
618.543	37796.42
618.899	37898.79
619.255	38168.62
619.611	38112.12
619.967	38444.54
620.323	38429.4
620.678	38460.81
621.034	38488.83
621.39	38694.48
621.746	38649.28
622.101	39214.46
622.457	38871.42
622.812	39171.53
623.168	39159.32
623.523	39300.56
623.879	39562.48
624.234	39307.79
624.589	39444.74
624.945	39615.36
625.3	39806.31
625.655	39722.02
626.01	39988
626.365	39851.96
626.72	39953.43
627.075	39990.71
627.43	40129.47
627.785	40273.19
628.14	40193.87
628.495	40331.95
628.85	40198.84
629.205	40073.42
629.559	40561.32
629.914	40342.34
630.269	40533.98
630.623	40568.33
630.978	40526.52
631.332	40646.52
631.687	40772.84
632.041	40616.69
632.396	40761.99
632.75	40607.87
633.104	40720.41
633.459	40473.87
633.813	40628.89
634.167	40602.9
634.521	40616.91
634.875	40658.04
635.229	40703.69
635.583	40531.26
635.937	40673.18
636.291	40872.27
636.645	40716.57
636.999	40686.74
637.352	40776.23
637.706	40560.64
638.06	40830.24
638.413	40694.42
638.767	40654.65
639.121	40675.22
639.474	40354.55
639.828	40672.28
640.181	40670.47
640.534	40621.43
640.888	40519.51
641.241	40486.07
641.594	40494.2
641.947	40559.51
642.301	40500.98
642.654	40646.52
643.007	40537.82
643.36	40517.25
643.713	40523.58
644.066	40700.53
644.419	40455.11
644.771	40171.73
645.124	40050.83
645.477	39760.44
645.83	39528.81
646.182	39488.35
646.535	39289.04
646.888	39437.73
647.24	39216.72
647.593	39471.63
647.945	39421.69
648.298	39279.32
648.65	39137.63
649.002	39189.15
649.355	39409.03
649.707	39159.55
650.059	39308.47
650.411	39746.88
650.763	39863.49
651.115	40158.17
651.467	40059.19
651.819	40065.97
652.171	40089.69
652.523	39893.09
652.875	40018.74
653.227	39861.68
653.578	40165.62
653.93	40156.59
654.282	39879.76
654.633	39811.74
654.985	39877.5
655.337	39948.46
655.688	39846.99
656.039	40136.7
656.391	39694.9
656.742	39888.12
657.094	39883.82
657.445	40093.31
657.796	39915.01
658.147	39967.21
658.498	39889.02
658.849	39833.66
659.2	39731.96
659.551	39651.97
659.902	39913.88
660.253	39715.02
660.604	39875.91
660.955	39733.09
661.306	39884.73
661.656	39693.55
662.007	39812.87
662.358	39858.51
662.708	39802.24
663.059	39636.15
663.409	39521.8
663.76	39712.76
664.11	39774.9
664.461	39793.88
664.811	39804.5
665.161	39703.72
665.511	39641.8
665.862	39695.13
666.212	39796.14
666.562	39759.08
666.912	39626.43
667.262	39639.99
667.612	39747.56
667.962	39697.84
668.312	39581.69
668.662	39819.19
669.011	39694.22
669.361	39583.49
669.711	39527.45
670.06	39552.08
670.41	39395.48
670.76	39472.99
671.109	39739.65
671.459	39683.6
671.808	39451.75
672.157	39635.24
672.507	39397.51
672.856	39383.27
673.205	39436.6
673.554	39517.73
673.904	39413.55
674.253	39632.31
674.602	39451.75
674.951	39078.65
675.3	38735.15
675.649	39374.46
675.998	39415.14
676.346	39273.44
676.695	39390.73
677.044	39131.3
677.393	39292.88
677.741	39270.28
678.09	39336.95
678.438	39164.07
678.787	39191.41
679.135	39236.38
679.484	38964.07
679.832	39086.56
680.181	38869.16
680.529	38970.63
680.877	38921.36
681.225	38860.57
681.573	38964.07
681.922	38826.22
682.27	38521.6
682.618	38681.6
682.966	38448.83
683.314	38758.88
683.661	38528.61
684.009	38345.79
684.357	38228.73
684.705	38263.08
685.053	38240.93
685.4	38235.28
685.748	38108.5
686.095	38039.8
686.443	37964.1
686.79	37897.66
687.138	38072.12
687.485	37950.77
687.832	37977.21
688.18	37949.64
688.527	37751.22
688.874	37570.66
689.221	37644.11
689.568	37564.11
689.915	37321.18
690.262	37382.2
690.609	37300.39
690.956	37197.79
691.303	37174.06
691.65	36933.85
691.997	36929.78
692.344	36821.53
692.69	36712.38
693.037	36760.52
693.383	36402.33
693.73	36601.2
694.077	36278.5
694.423	36323.92
694.769	36435.1
695.116	36177.48
695.462	36200.76
695.808	36037.6
696.155	36056.35
696.501	35674.44
696.847	35836.92
697.193	35687.32
697.539	35697.72
697.885	35585.86
698.231	35438.07
698.577	35339.31
698.923	35518.06
699.269	35164.85
699.614	35027
699.96	35061.35
700.306	35060.45
700.651	34951.3
700.997	34681.93
701.342	34672.21
701.688	34643.06
702.033	34448.26
702.379	34479.45
702.724	34412.1
703.069	34447.36
703.415	34069.51
703.76	34133.01
704.105	34012.11
704.45	34042.17
704.795	33933.47
705.14	33865.23
705.485	33735.51
705.83	33566.48
706.175	33696.42
706.52	33411.23
706.865	33371.68
707.209	33294.62
707.554	33354.96
707.899	33318.12
708.243	33255.52
708.588	33018.24
708.932	32938.02
709.277	32906.83
709.621	32994.97
709.966	32702.77
710.31	32676.78
710.654	32467.97
710.998	32597.69
711.342	32603.79
711.687	32432.72
712.031	32372.38
712.375	32104.37
712.719	32299.39
713.063	32128.32
713.407	32385.26
713.75	32021.21
714.094	32064.14
714.438	31891.72
714.782	31893.53
715.125	31749.12
715.469	31679.97
715.812	31560.65
716.156	31633.19
716.499	31536.02
716.843	31561.11
717.186	31521.33
717.53	31477.04
717.873	31378.74
718.216	31276.59
718.559	31167.9
718.902	31085.64
719.246	31048.8
719.589	30882.7
719.932	30894.23
720.275	30891.97
720.617	30882.48
720.96	30767
721.303	30801.8
721.646	30800.67
721.989	30567.01
722.331	30682.03
722.674	30580.11
723.016	30587.12
723.359	30499.44
723.701	30517.52
724.044	30217.86
724.386	30271.87
724.729	30326.79
725.071	30182.61
725.413	30136.96
725.755	30271.65
726.097	30136.74
726.439	30077.3
726.782	29958.66
727.124	30174.7
727.465	29901.49
727.807	29860.13
728.149	29804.32
728.491	29760.93
728.833	29790.76
729.175	29640.03
729.516	29572
729.858	29563.19
730.199	29684.77
730.541	29653.36
730.882	29528.84
731.224	29574.26
731.565	29430.31
731.906	29387.15
732.248	29373.37
732.589	29211.11
732.93	29193.26
733.271	29179.47
733.612	29225.35
733.953	29339.02
734.294	29163.43
734.635	29066.93
734.976	29040.72
735.317	28993.72
735.658	28981.74
735.999	28895.64
736.339	28782.87
736.68	28832.14
737.021	28819.71
737.361	28644.12
737.702	28755.98
738.042	28711.24
738.383	28687.73
738.723	28682.99
739.063	28452.03
739.404	28645.02
739.744	28523.44
740.084	28280.06
740.424	28462.66
740.764	28314.41
741.104	28419.49
741.444	28373.84
741.784	28379.72
742.124	28327.29
742.464	28276.45
742.804	28245.94
743.143	28012.27
743.483	28083.91
743.823	28042.55
744.162	27972.72
744.502	27970.47
744.841	27775.22
745.181	27972.5
745.52	27884.14
745.86	27911.94
746.199	27702.22
746.538	27709.46
746.877	27860.41
747.216	27778.83
747.556	27753.3
747.895	27626.75
748.234	27648.44
748.573	27475.34
748.911	27576.13
749.25	27557.59
749.589	27381.1
749.928	27422.46
750.267	27527.09
750.605	27392.85
750.944	27251.39
751.283	27215.23
751.621	27242.12
751.96	27043.48
752.298	27110.15
752.636	27153.54
752.975	26926.42
753.313	26834.45
753.651	27096.82
753.989	26818.63
754.327	26746.09
754.666	26617.51
755.004	26671.52
755.342	26663.38
755.679	26660.9
756.017	26388.13
756.355	26553.1
756.693	26348.36
757.031	26518.53
757.368	26303.16
757.706	26205.77
758.044	26210.06
758.381	26154.24
758.719	26046
759.056	26012.32
759.394	25881.48
759.731	25821.14
760.068	25906.79
760.405	25673.58
760.743	25651.88
761.08	25601.49
761.417	25514.26
761.754	25535.95
762.091	25475.39
762.428	25514.26
762.765	25364.88
763.102	25326.01
763.438	25137.09
763.775	25029.98
764.112	25111.56
764.449	25143.65
764.785	24948.17
765.122	24794.28
765.458	24738.69
765.795	24725.13
766.131	24686.26
766.467	24571.91
766.804	24465.25
767.14	24328.3
767.476	24428.19
767.812	24187.51
768.148	24288.53
768.485	24056.22
768.821	23973.96
769.157	23941.87
769.492	23865.71
769.828	23842.66
770.164	23609.68
770.5	23663.01
770.836	23586.63
771.171	23452.62
771.507	23291.94
771.842	23185.28
772.178	23216.69
772.513	23279.52
772.849	23085.62
773.184	23069.13
773.519	23006.08
773.855	22838.4
774.19	22804.5
774.525	22649.93
774.86	22630.49
775.195	22581
775.53	22521.12
775.865	22357.05
776.2	22208.58
776.535	22101.69
776.87	22113.67
777.205	21930.17
777.539	21904.18
777.874	21996.16
778.209	21722.27
778.543	21596.17
778.878	21520.01
779.212	21582.38
779.547	21400.24
779.881	21449.28
780.215	21323.18
780.55	21393.69
780.884	21168.38
781.218	21169.74
781.552	21214.71
781.886	21073.02
782.22	20870.09
782.554	20818.79
782.888	20597.55
783.222	20690.66
783.556	20557.33
783.889	20508.51
784.223	20398.01
784.557	20354.39
784.89	20340.38
785.224	20283.89
785.557	20098.58
785.891	20075.31
786.224	20087.51
786.558	19933.84
786.891	19775.65
787.224	19695.65
787.557	19636.9
787.891	19597.58
788.224	19538.37
788.557	19593.06
788.89	19563
789.223	19560.29
789.556	19382.22
789.888	19316.23
790.221	19162.56
790.554	19106.07
790.887	19066.52
791.219	18936.13
791.552	18922.34
791.884	18798.28
792.217	18696.58
792.549	18788.11
792.882	18554.22
793.214	18536.36
793.546	18519.19
793.879	18423.82
794.211	18339.08
794.543	18382.02
794.875	18269.48
795.207	18313.77
795.539	18241.46
795.871	18177.28
796.203	18059.99
796.535	17958.75
796.867	17960.56
797.198	17922.82
797.53	17847.79
797.862	17924.63
798.193	17847.12
798.525	17762.82
798.856	17688.02
799.188	17511.76
799.519	17455.94
799.85	17387.69
800.182	17302.72
800.513	17339.11
800.844	17187.47
801.175	17320.58
801.506	17257.75
801.837	17205.32
802.168	17175.04
802.499	17106.57
802.83	17008.04
803.161	16932.11
803.491	16987.03
803.822	16925.11
804.153	16814.83
804.483	16695.51
804.814	16603.76
805.145	16572.57
805.475	16512.46
805.805	16446.7
806.136	16469.98
806.466	16462.52
806.796	16413.25
807.126	16236.31
807.457	16234.5
807.787	16309.98
808.117	16139.36
808.447	16038.8
808.777	16154.73
809.107	16010.78
809.436	15926.49
809.766	16022.98
810.096	15955.64
810.426	15887.39
810.755	15832.71
811.085	15825.93
811.414	15776.21
811.744	15648.53
812.073	15699.6
812.403	15610.56
812.732	15541.87
813.061	15547.51
813.39	15453.28
813.719	15384.36
814.049	15511.13
814.378	15357.01
814.707	15340.51
815.036	15352.27
815.365	15148.43
815.693	15063.23
816.022	15248.77
816.351	15118.6
816.68	15003.35
817.008	15095.1
817.337	14947.08
817.665	14917.47
817.994	14983.24
818.322	14966.51
818.651	14815.1
818.979	14815.78
819.307	14785.05
819.636	14804.03
819.964	14672.74
820.292	14750.25
820.62	14652.4
820.948	14643.13
821.276	14806.29
821.604	14601.78
821.932	14619.86
822.259	14661.21
822.587	14677.93
822.915	14620.53
823.243	14600.42
823.57	14559.74
823.898	14532.4
824.225	14584.15
824.553	14527.43
824.88	14585.51
825.207	14612.4
825.535	14523.59
825.862	14564.04
826.189	14543.25
826.516	14586.64
826.843	14638.16
827.17	14570.37
827.497	14677.26
827.824	14700.98
828.151	14651.72
828.478	14572.4
828.805	14697.14
829.131	14621.89
829.458	14511.38
829.785	14535.11
830.111	14434.78
830.438	14563.59
830.764	14482.23
831.09	14494.21
831.417	14456.24
831.743	14519.75
832.069	14468.67
832.395	14436.13
832.722	14519.29
833.048	14416.25
833.374	14497.83
833.7	14355.23
834.026	14406.08
834.351	14431.39
834.677	14404.49
835.003	14353.2
835.329	14336.47
835.654	14406.53
835.98	14279.75
836.306	14252.86
836.631	14350.48
836.956	14211.05
837.282	14242.92
837.607	14160.88
837.932	14097.38
838.258	14155.01
838.583	14100.77
838.908	14019.19
839.233	14097.16
839.558	14071.4
839.883	13943.72
840.208	13983.94
840.533	13919.99
840.858	13995.24
841.182	13985.97
841.507	13965.86
841.832	13844.28
842.156	13789.14
842.481	13868.24
842.805	13743.27
843.13	13716.6
843.454	13760.22
843.778	13641.8
844.103	13593.44
844.427	13603.84
844.751	13632.54
845.075	13569.26
845.399	13580.11
845.723	13436.16
846.047	13420.79
846.371	13318.2
846.695	13359.78
847.019	13257.63
847.343	13220.34
847.666	13211.08
847.99	13126.56
848.313	12974.93
848.637	13003.4
848.96	13042.04
849.284	12880.01
849.607	12888.38
849.931	12884.99
850.254	12735.84
850.577	12680.92
850.9	12538.78
851.223	12588.95
851.546	12468.95
851.869	12399.12
852.192	12482.28
852.515	12361.16
852.838	12319.58
853.161	12411.33
853.483	12257.21
853.806	12268.28
854.129	12172.46
854.451	12202.52
854.774	12029.64
855.096	11925.24
855.419	11976.76
855.741	12034.39
856.063	11884.11
856.385	11808.63
856.708	11843.66
857.03	11797.56
857.352	11874.17
857.674	11740.84
857.996	11746.26
858.318	11625.13
858.64	11628.75
858.961	11574.96
859.283	11539.26
859.605	11562.53
859.926	11500.39
860.248	11494.97
860.57	11417.68
860.891	11515.08
861.212	11290.9
861.534	11374.74
861.855	11347.17
862.176	11425.36
862.498	11379.04
862.819	11363.22
863.14	11325.48
863.461	11314.63
863.782	11231.02
864.103	11298.59
864.424	11179.95
864.745	11158.03
865.065	11101.98
865.386	11061.53
865.707	11019.05
866.027	11132.49
866.348	11023.11
866.668	11051.81
866.989	10988.76
867.309	10954.42
867.63	11055.88
867.95	11008.43
868.27	10881.42
868.59	10870.35
868.91	10873.29
869.23	10877.81
869.55	10866.06
869.87	10825.83
870.19	10777.24
870.51	10805.04
870.83	10892.72
871.15	10771.14
871.469	10694.54
871.789	10695.67
872.109	10657.47
872.428	10624.93
872.748	10607.53
873.067	10635.55
873.386	10645.27
873.706	10614.76
874.025	10596.46
874.344	10513.3
874.663	10573.86
874.982	10544.71
875.301	10520.75
875.62	10511.72
875.939	10489.79
876.258	10463.13
876.577	10446.18
876.896	10427.88
877.214	10350.82
877.533	10407.09
877.852	10429.68
878.17	10360.31
878.489	10364.83
878.807	10301.78
879.125	10342.68
879.444	10316.24
879.762	10245.28
880.08	10296.58
880.398	10269.24
880.716	10230.37
881.034	10250.93
881.352	10201.44
881.67	10129.35
881.988	10172.29
882.306	10104.04
882.624	10193.98
882.941	10037.15
883.259	10076.02
883.577	10038.73
883.894	10024.27
884.212	9981.11
884.529	9911.5
884.846	10003.03
885.164	9891.84
885.481	9837.83
885.798	9866.99
886.115	9779.31
886.432	9762.81
886.75	9756.71
887.067	9788.34
887.383	9680.32
887.7	9752.19
888.017	9726.43
888.334	9679.87
888.651	9675.58
888.967	9589.93
889.284	9573.89
889.6	9541.12
889.917	9545.64
890.233	9476.49
890.55	9457.73
890.866	9469.03
891.182	9474.23
891.498	9345.64
891.815	9329.15
892.131	9370.5
892.447	9306.55
892.763	9300.22
893.079	9240.11
893.395	9223.84
893.71	9252.31
894.026	9165.54
894.342	9217.29
894.657	9085.09
894.973	9092.77
895.289	9085.99
895.604	9030.17
895.92	9039.89
896.235	8932.55
896.55	8933
896.865	8910.63
897.181	8912.21
897.496	8899.55
897.811	8848.48
898.126	8880.8
898.441	8824.75
898.756	8837.18
899.071	8771.2
899.386	8753.57
899.7	8591.09
900.015	8598.09
900.33	8544.99
900.644	8587.47
900.959	8516.51
901.273	8532.11
901.588	8545.44
901.902	8444.65
902.216	8403.75
902.531	8380.7
902.845	8372.34
903.159	8301.6
903.473	8215.05
903.787	8248.95
904.101	8235.84
904.415	8212.79
904.729	8156.52
905.042	8169.63
905.356	8114.49
905.67	8065.9
905.984	7997.88
906.297	8069.29
906.611	8005.57
906.924	8005.34
907.237	7921.05
907.551	7896.87
907.864	7863.2
908.177	7822.52
908.491	7829.53
908.804	7800.6
909.117	7797.89
909.43	7658
909.743	7640.6
910.056	7635.18
910.368	7586.14
910.681	7580.94
910.994	7618.68
911.307	7464.34
911.619	7540.04
911.932	7490.78
912.244	7446.94
912.557	7412.59
912.869	7376.2
913.181	7348.63
913.494	7306.38
913.806	7229.09
914.118	7248.3
914.43	7222.31
914.742	7209.2
915.054	7194.97
915.366	7136.21
915.678	7143.67
915.99	7140.96
916.302	6969.66
916.613	7006.95
916.925	7085.14
917.236	6970.34
917.548	6910.23
917.859	6853.96
918.171	6850.34
918.482	6877.01
918.794	6873.17
919.105	6776.22
919.416	6700.97
919.727	6698.03
920.038	6674.08
920.349	6643.57
920.66	6615.32
920.971	6620.52
921.282	6629.56
921.593	6535.55
921.903	6539.16
922.214	6494.19
922.525	6497.58
922.835	6479.73
923.146	6433.63
923.456	6386.63
923.767	6340.07
924.077	6331.03
924.387	6304.14
924.697	6237.48
925.008	6257.82
925.318	6232.96
925.628	6201.32
925.938	6185.73
926.248	6099.18
926.558	6087.88
926.867	6117.48
927.177	6072.28
927.487	6068.67
927.796	5986.18
928.106	5986.41
928.416	5982.12
928.725	5973.3
929.034	5959.07
929.344	5880.2
929.653	5912.51
929.962	5863.48
930.271	5768.34
930.581	5782.12
930.89	5751.39
931.199	5748.45
931.508	5726.08
931.817	5753.2
932.125	5674.78
932.434	5712.97
932.743	5663.03
933.051	5590.49
933.36	5595.01
933.669	5465.29
933.977	5501.23
934.286	5516.59
934.594	5488.57
934.902	5395.24
935.21	5477.27
935.519	5417.61
935.827	5415.35
936.135	5352.08
936.443	5360.66
936.751	5291.51
937.059	5333.55
937.367	5282.93
937.674	5246.99
937.982	5217.17
938.29	5200.44
938.597	5231.18
938.905	5152.08
939.213	5156.6
939.52	5112.54
939.827	5117.05
940.135	5041.8
940.442	5084.97
940.749	5069.15
941.056	5057.4
941.363	5000.9
941.67	4980.11
941.977	4990.73
942.284	4938.75
942.591	4883.39
942.898	4907.12
943.205	4917.96
943.511	4832.99
943.818	4866.89
944.125	4804.52
944.431	4764.52
944.738	4758.65
945.044	4730.62
945.35	4719.1
945.657	4743.96
945.963	4655.37
946.269	4628.93
946.575	4640.23
946.881	4616.5
947.187	4598.88
947.493	4590.29
947.799	4560.69
948.105	4527.01
948.41	4479.56
948.716	4506.9
949.022	4509.16
949.327	4465.55
949.633	4439.78
949.938	4412.67
950.244	4402.5
950.549	4360.24
950.854	4355.72
951.16	4342.39
951.465	4299.45
951.77	4303.52
952.075	4286.79
952.38	4274.14
952.685	4255.61
952.99	4215.84
953.294	4227.59
953.599	4189.85
953.904	4152.11
954.209	4163.41
954.513	4124.09
954.818	4100.81
955.122	4123.41
955.426	4072.79
955.731	4028.72
956.035	4034.82
956.339	4026.91
956.643	4045.9
956.948	4020.59
957.252	4017.2
957.556	3946.24
957.86	3961.15
958.163	3922.51
958.467	3920.25
958.771	3893.36
959.075	3873.47
959.378	3850.42
959.682	3868.05
959.985	3837.31
960.289	3792.8
960.592	3790.31
960.896	3750.54
961.199	3777.88
961.502	3771.1
961.805	3763.87
962.108	3738.11
962.411	3693.36
962.714	3687.71
963.017	3717.32
963.32	3680.03
963.623	3634.61
963.926	3656.3
964.228	3592.58
964.531	3573.14
964.833	3554.61
965.136	3551.45
965.438	3533.14
965.741	3491.79
966.043	3505.8
966.345	3490.66
966.648	3487.95
966.95	3471.45
967.252	3430.55
967.554	3431.45
967.856	3429.19
968.158	3399.13
968.46	3400.94
968.761	3349.19
969.063	3332.47
969.365	3350.32
969.666	3308.97
969.968	3320.94
970.269	3281.17
970.571	3314.84
970.872	3273.49
971.174	3247.05
971.475	3271.91
971.776	3208.18
972.077	3222.87
972.378	3197.78
972.679	3224.9
972.98	3146.26
973.281	3189.87
973.582	3162.98
973.883	3147.61
974.183	3097.45
974.484	3110.78
974.785	3087.73
975.085	3066.94
975.386	3114.62
975.686	3062.87
975.986	3029.65
976.287	3053.61
976.587	3014.51
976.887	2977.68
977.187	3027.84
977.487	2958.69
977.787	2948.52
978.087	2947.85
978.387	2951.69
978.687	2958.92
978.987	2903.1
979.286	2902.2
979.586	2908.75
979.885	2864.91
980.185	2855.19
980.484	2813.61
980.784	2844.12
981.083	2817.45
981.382	2808.87
981.682	2829.66
981.981	2754.18
982.28	2785.59
982.579	2758.7
982.878	2789.66
983.177	2747.63
983.475	2739.49
983.774	2711.47
984.073	2705.82
984.372	2672.37
984.67	2680.73
984.969	2693.62
985.267	2642.32
985.566	2656.78
985.864	2633.96
986.162	2621.98
986.461	2590.12
986.759	2608.42
987.057	2555.31
987.355	2572.71
987.653	2554.86
987.951	2548.53
988.249	2565.48
988.547	2527.07
988.844	2524.58
989.142	2531.59
989.44	2495.2
989.737	2495.43
990.035	2478.48
990.332	2472.38
990.63	2450.46
990.927	2434.64
991.224	2434.41
991.521	2418.14
991.819	2426.05
992.116	2443.9
992.413	2367.97
992.71	2368.43
993.006	2389.89
993.303	2344.25
993.6	2346.96
993.897	2325.72
994.193	2283.23
994.49	2325.04
994.787	2331.82
995.083	2267.41
995.379	2296.11
995.676	2247.3
995.972	2262.44
996.268	2256.56
996.565	2229
996.861	2235.77
997.157	2205.49
997.453	2214.76
997.749	2179.5
998.044	2176.57
998.34	2143.8
998.636	2170.47
998.932	2145.16
999.227	2130.92
999.523	2128.21
999.818	2077.59
1000.114	2105.61
1000.409	2089.56
1000.704	2081.43
1001	2067.19
1001.295	2028.77
1001.59	2024.03
1001.885	2046.63
1002.18	2028.1
1002.475	2021.77
1002.77	1979.96
1003.065	1978.15
1003.359	1953.97
1003.654	1937.7
1003.949	1948.78
1004.243	1936.12
1004.538	1925.05
1004.832	1936.35
1005.127	1939.96
1005.421	1917.59
1005.715	1890.47
1006.009	1904.03
1006.304	1870.13
1006.598	1855.9
1006.892	1851.6
1007.186	1836.69
1007.48	1845.5
1007.773	1808.67
1008.067	1803.92
1008.361	1796.46
1008.655	1794.66
1008.948	1776.35
1009.242	1748.1
1009.535	1749.91
1009.829	1740.65
1010.122	1735
1010.415	1756.92
1010.708	1742.68
1011.001	1701.78
1011.295	1706.52
1011.588	1689.35
1011.881	1686.18
1012.173	1669.91
1012.466	1659.52
1012.759	1662
1013.052	1619.75
1013.344	1636.69
1013.637	1633.08
1013.93	1589.24
1014.222	1603.25
1014.514	1624.72
1014.807	1575.9
1015.099	1587.88
1015.391	1550.82
1015.683	1564.38
1015.976	1544.95
1016.268	1532.29
1016.56	1519.18
1016.851	1500.88
1017.143	1519.41
1017.435	1519.41
1017.727	1529.8
1018.018	1499.75
1018.31	1475.57
1018.602	1475.79
1018.893	1460.88
1019.185	1455.68
1019.476	1426.08
1019.767	1410.03
1020.058	1455
1020.35	1401.9
1020.641	1417.94
1020.932	1391.5
1021.223	1404.61
1021.514	1373.65
1021.804	1381.56
1022.095	1339.98
1022.386	1334.78
1022.677	1335.69
1022.967	1356.48
1023.258	1320.54
1023.548	1335.91
1023.839	1311.05
1024.129	1295.01
1024.419	1287.55
1024.709	1294.56
1025	1283.94
1025.29	1279.19
1025.58	1260.66
1025.87	1252.98
1026.16	1238.29
1026.449	1232.86
1026.739	1251.39
1027.029	1207.1
1027.319	1179.08
1027.608	1205.97
1027.898	1210.04
1028.187	1194.67
1028.477	1177.95
1028.766	1146.31
1029.055	1177.27
1029.344	1145.63
1029.634	1159.64
1029.923	1146.09
1030.212	1161.9
1030.501	1135.69
1030.79	1116.93
1031.078	1102.25
1031.367	1098.63
1031.656	1108.57
1031.945	1078.97
1032.233	1106.76
1032.522	1073.77
1032.81	1084.62
1033.099	1085.07
1033.387	1047.78
1033.675	1041.91
1033.963	1052.98
1034.251	1075.13
1034.54	1040.33
1034.828	1013.89
1035.116	1006.2
1035.403	1029.03
1035.691	1019.08
1035.979	967.11
1036.267	962.81
1036.554	988.58
1036.842	976.37
1037.129	950.38
1037.417	941.57
1037.704	952.87
1037.992	967.56
1038.279	948.12
1038.566	933.89
1038.853	933.89
1039.14	933.89
