Data from hue_310_FLMS001491_80.txt Node
Date: Mon Feb 06 15:50:10 GMT 2017
User: dcchb
Spectrometer: FLMS00149
Trigger mode: 0
Integration Time (sec): 2.000000E-2
Scans to average: 10
Electric dark correction enabled: true
Nonlinearity correction enabled: false
Boxcar width: 0
XAxis mode: Wavelengths
Number of Pixels in Spectrum: 2048
>>>>>Begin Spectral Data<<<<<
341.393	-5.58
341.776	-5.58
342.16	-5.58
342.543	-56.88
342.927	-73.83
343.31	-65.01
343.693	-55.97
344.077	-48.74
344.46	-73.15
344.843	-55.97
345.226	-41.96
345.61	-15.97
345.993	-17.78
346.376	-27.05
346.759	21.76
347.142	29.45
347.525	28.32
347.908	57.7
348.291	63.35
348.674	94.53
349.057	106.51
349.44	140.18
349.823	132.04
350.206	160.74
350.588	190.35
350.971	222.44
351.354	232.15
351.737	238.03
352.119	269.67
352.502	270.8
352.884	258.37
353.267	280.06
353.65	308.54
354.032	289.33
354.414	275.32
354.797	314.41
355.179	324.13
355.562	333.62
355.944	352.15
356.326	344.02
356.709	355.09
357.091	332.27
357.473	328.88
357.855	357.8
358.238	350.12
358.62	369.55
359.002	350.57
359.384	363.68
359.766	352.83
360.148	358.93
360.53	360.74
360.912	322.32
361.294	319.38
361.676	332.49
362.057	340.85
362.439	348.54
362.821	353.51
363.203	330.68
363.584	337.46
363.966	320.29
364.348	327.29
364.729	345.15
365.111	322.77
365.493	329.78
365.874	317.8
366.256	320.29
366.637	327.29
367.019	331.59
367.4	333.85
367.781	318.93
368.163	300.4
368.544	328.2
368.925	325.94
369.306	330.91
369.688	311.93
370.069	332.27
370.45	318.48
370.831	333.17
371.212	321.87
371.593	319.61
371.974	314.64
372.355	319.61
372.736	319.16
373.117	319.38
373.498	333.17
373.879	307.41
374.26	315.99
374.641	312.38
375.021	319.61
375.402	334.07
375.783	330.23
376.163	333.62
376.544	315.32
376.925	315.54
377.305	322.32
377.686	307.41
378.066	335.2
378.447	339.72
378.827	341.3
379.208	340.63
379.588	339.27
379.968	345.82
380.349	335.66
380.729	334.3
381.109	336.11
381.489	320.51
381.87	357.35
382.25	361.87
382.63	353.06
383.01	318.03
383.39	347.41
383.77	335.66
384.15	351.7
384.53	348.76
384.91	349.89
385.29	351.7
385.67	354.19
386.049	357.12
386.429	341.76
386.809	344.02
387.189	369.55
387.568	369.55
387.948	367.29
388.328	351.93
388.707	389.44
389.087	376.33
389.466	381.98
389.846	360.74
390.225	375.43
390.605	381.3
390.984	365.48
391.363	370
391.743	363.22
392.122	357.58
392.501	370.23
392.881	355.99
393.26	387.86
393.639	397.57
394.018	374.52
394.397	379.5
394.776	380.85
395.155	398.7
395.534	388.31
395.913	412.26
396.292	405.03
396.671	398.03
397.05	410.23
397.429	403.9
397.808	391.02
398.186	389.21
398.565	415.2
398.944	413.17
399.323	416.78
399.701	426.95
400.08	403
400.458	421.3
400.837	422.21
401.215	398.03
401.594	447.74
401.972	426.27
402.351	434.18
402.729	428.99
403.107	415.2
403.486	412.26
403.864	438.03
404.242	455.2
404.62	445.93
404.999	433.51
405.377	448.42
405.755	455.2
406.133	471.92
406.511	467.85
406.889	479.83
407.267	459.95
407.645	471.24
408.023	477.57
408.401	476.89
408.779	478.02
409.156	499.49
409.534	494.75
409.912	514.41
410.29	498.81
410.667	522.77
411.045	528.42
411.422	524.35
411.8	537.91
412.178	534.97
412.555	539.72
412.933	555.54
413.31	577
413.687	583.78
414.065	592.6
414.442	577.46
414.819	596.44
415.197	596.67
415.574	623.33
415.951	624.69
416.328	605.03
416.705	599.83
417.082	643.44
417.46	631.47
417.837	647.29
418.214	642.31
418.591	682.09
418.967	644.35
419.344	654.29
419.721	686.15
420.098	685.25
420.475	719.15
420.852	721.18
421.228	727.51
421.605	727.96
421.982	752.59
422.358	762.31
422.735	749.66
423.111	765.02
423.488	788.52
423.864	758.02
424.241	789.65
424.617	790.11
424.994	784.91
425.37	819.94
425.746	803.67
426.123	823.33
426.499	829.88
426.875	819.71
427.251	854.29
427.627	857
428.003	881.63
428.379	897.22
428.756	899.93
429.132	899.48
429.507	922.08
429.883	927.5
430.259	917.11
430.635	951.23
431.011	928.18
431.387	959.59
431.763	969.76
432.138	980.84
432.514	992.13
432.89	1003.43
433.265	1030.1
433.641	1064.68
434.016	1044.79
434.392	1041.63
434.767	1050.66
435.143	1070.78
435.518	1082.53
435.894	1083.66
436.269	1109.87
436.644	1097.67
437.02	1135.18
437.395	1142.19
437.77	1136.54
438.145	1166.37
438.52	1175.41
438.895	1194.62
439.271	1177.89
439.646	1205.24
440.021	1217.89
440.395	1214.95
440.77	1202.52
441.145	1232.13
441.52	1227.38
441.895	1268.29
442.27	1249.3
442.645	1250.66
443.019	1267.16
443.394	1259.7
443.769	1259.7
444.143	1270.77
444.518	1294.5
444.892	1271
445.267	1264.9
445.641	1294.05
446.016	1313.26
446.39	1319.13
446.764	1326.14
447.139	1316.65
447.513	1352.35
447.887	1321.84
448.262	1357.32
448.636	1353.93
449.01	1344.44
449.384	1360.49
449.758	1374.95
450.132	1369.07
450.506	1367.94
450.88	1369.98
451.254	1389.86
451.628	1376.08
452.002	1382.86
452.376	1399.58
452.75	1404.55
453.123	1394.16
453.497	1418.56
453.871	1431.22
454.244	1467.15
454.618	1477.32
454.992	1485.46
455.365	1483.87
455.739	1520.93
456.112	1517.77
456.486	1518.9
456.859	1553.02
457.232	1542.4
457.606	1541.5
457.979	1559.35
458.352	1600.03
458.725	1586.92
459.099	1602.97
459.472	1619.69
459.845	1608.39
460.218	1672.34
460.591	1642.51
460.964	1675.28
461.337	1694.72
461.71	1696.98
462.083	1721.83
462.456	1704.43
462.829	1714.15
463.201	1744.88
463.574	1745.79
463.947	1758.67
464.32	1791.21
464.692	1818.33
465.065	1778.33
465.438	1829.63
465.81	1839.8
466.183	1858.33
466.555	1912.34
466.928	1879.34
467.3	1899.68
467.672	1941.26
468.045	1940.36
468.417	1956.63
468.789	1960.25
469.161	1970.87
469.534	2007.7
469.906	2023.52
470.278	2025.55
470.65	2060.58
471.022	2110.98
471.394	2127.7
471.766	2132.44
472.138	2115.27
472.51	2175.38
472.882	2175.83
473.253	2193.46
473.625	2215.38
473.997	2269.39
474.369	2259.67
474.74	2310.74
475.112	2307.35
475.484	2309.16
475.855	2387.58
476.227	2363.62
476.598	2426.45
476.97	2442.27
477.341	2476.39
477.713	2534.02
478.084	2485.2
478.455	2545.31
478.827	2575.14
479.198	2626.44
479.569	2617.18
479.94	2677.29
480.311	2686.1
480.682	2740.34
481.053	2770.39
481.424	2833.67
481.795	2843.39
482.166	2871.18
482.537	2910.73
482.908	2924.06
483.279	2935.36
483.65	2979.43
484.021	3022.59
484.391	3059.43
484.762	3040.89
485.133	3061.46
485.503	3120.89
485.874	3180.33
486.244	3190.27
486.615	3235.69
486.985	3286.09
487.356	3319.76
487.726	3353.43
488.097	3390.49
488.467	3333.54
488.837	3417.83
489.207	3458.28
489.578	3513.2
489.948	3501.67
490.318	3539.64
490.688	3565.17
491.058	3635.23
491.428	3647.21
491.798	3664.38
492.168	3741.22
492.538	3724.27
492.908	3766.53
493.278	3778.73
493.648	3830.25
494.017	3849.46
494.387	3841.55
494.757	3827.54
495.126	3892.17
495.496	3937.14
495.866	3923.13
496.235	3965.39
496.605	4004.94
496.974	4014.88
497.344	4028.67
497.713	4021.21
498.082	4066.4
498.452	4107.76
498.821	4095.1
499.19	4117.93
499.559	4134.88
499.928	4165.84
500.298	4193.41
500.667	4234.99
501.036	4237.02
501.405	4238.83
501.774	4283.8
502.143	4299.17
502.512	4286.29
502.88	4304.36
503.249	4291.48
503.618	4374.64
503.987	4357.47
504.356	4377.13
504.724	4417.36
505.093	4447.19
505.462	4397.47
505.83	4450.8
506.199	4489.22
506.567	4537.13
506.936	4471.82
507.304	4509.56
507.672	4538.48
508.041	4543.23
508.409	4600.85
508.777	4580.74
509.145	4650.34
509.514	4606.05
509.882	4684.02
510.25	4645.37
510.618	4718.82
510.986	4710
511.354	4714.75
511.722	4730.34
512.09	4783.22
512.458	4720.85
512.826	4762.43
513.193	4828.87
513.561	4778.02
513.929	4784.8
514.297	4837.23
514.664	4888.3
515.032	4854.63
515.4	4909.55
515.767	4910.9
516.135	4965.59
516.502	4912.71
516.869	4970.34
517.237	5008.07
517.604	4964.01
517.972	4976.21
518.339	5006.27
518.706	4971.69
519.073	5012.82
519.44	5095.98
519.808	5090.56
520.175	5114.74
520.542	5129.88
520.909	5147.73
521.276	5164.91
521.643	5151.12
522.009	5188.18
522.376	5241.06
522.743	5268.41
523.11	5288.07
523.477	5294.17
523.843	5326.26
524.21	5383.43
524.577	5415.3
524.943	5368.97
525.31	5403.54
525.676	5462.53
526.043	5489.87
526.409	5511.56
526.776	5551.34
527.142	5541.39
527.508	5573.71
527.874	5621.39
528.241	5682.63
528.607	5659.36
528.973	5750.43
529.339	5692.35
529.705	5769.18
530.071	5763.53
530.437	5800.14
530.803	5846.7
531.169	5819.8
531.535	5906.81
531.901	5873.14
532.267	5897.09
532.632	5986.58
532.998	5969.63
533.364	6026.13
533.73	6049.18
534.095	6025.67
534.461	6013.7
534.826	6061.83
535.192	6132.56
535.557	6188.38
535.923	6173.69
536.288	6175.73
536.653	6192.45
537.019	6262.05
537.384	6257.53
537.749	6303.41
538.114	6297.53
538.479	6344.76
538.845	6353.35
539.21	6375.5
539.575	6397.87
539.94	6425.66
540.305	6467.02
540.67	6477.64
541.034	6468.6
541.399	6509.28
541.764	6596.96
542.129	6554.25
542.494	6556.28
542.858	6671.31
543.223	6686.9
543.587	6728.03
543.952	6752.89
544.316	6729.39
544.681	6738.2
545.045	6787.24
545.41	6784.3
545.774	6892.54
546.138	6849.16
546.503	6847.12
546.867	6868.59
547.231	6963.5
547.595	6966.22
547.959	7014.35
548.324	7022.71
548.688	7037.63
549.052	7069.94
549.416	7089.6
549.779	7088.47
550.143	7111.75
550.507	7177.06
550.871	7174.57
551.235	7171.41
551.599	7201.01
551.962	7265.42
552.326	7236.26
552.689	7336.37
553.053	7299.99
553.417	7327.34
553.78	7396.94
554.143	7381.8
554.507	7417.5
554.87	7437.84
555.234	7451.85
555.597	7481.91
555.96	7515.81
556.323	7549.02
556.686	7496.14
557.05	7580.21
557.413	7612.3
557.776	7591.74
558.139	7657.27
558.502	7678.51
558.865	7697.5
559.228	7702.24
559.59	7788.11
559.953	7783.14
560.316	7797.83
560.679	7808.23
561.041	7882.8
561.404	7839.41
561.767	7933.65
562.129	7933.2
562.492	7992.63
562.854	8012.97
563.217	7986.98
563.579	8021.1
563.941	8085.73
564.304	8078.28
564.666	8110.59
565.028	8166.64
565.39	8157.82
565.753	8196.92
566.115	8187.43
566.477	8274.2
566.839	8267.65
567.201	8326.63
567.563	8279.63
567.925	8379.51
568.287	8438.72
568.648	8364.14
569.01	8467.64
569.372	8475.55
569.734	8514.2
570.095	8513.75
570.457	8601.65
570.819	8592.84
571.18	8669
571.542	8684.81
571.903	8771.14
572.265	8778.37
572.626	8804.58
572.987	8901.76
573.349	8951.02
573.71	9015.65
574.071	8998.03
574.432	9087.29
574.794	9162.32
575.155	9199.15
575.516	9214.07
575.877	9339.94
576.238	9348.75
576.599	9465.36
576.96	9544.9
577.32	9611.12
577.681	9737.44
578.042	9751
578.403	9840.49
578.763	9925.01
579.124	10030.54
579.485	10052.01
579.845	10277.77
580.206	10298.78
580.566	10409.06
580.927	10579.91
581.287	10711.43
581.648	10823.51
582.008	10973.12
582.368	11097.18
582.728	11256.27
583.089	11355.93
583.449	11508.92
583.809	11600.44
584.169	11880.21
584.529	12046.53
584.889	12272.29
585.249	12410.59
585.609	12621.43
585.969	12906.62
586.329	13103
586.688	13240.63
587.048	13512.03
587.408	13667.28
587.768	13960.38
588.127	14117.21
588.487	14433.82
588.846	14812.34
589.206	14882.17
589.565	15119
589.925	15373.9
590.284	15733.89
590.643	15975.7
591.003	16318.96
591.362	16596.47
591.721	16725.96
592.08	17140.64
592.44	17471.25
592.799	17786.27
593.158	17974.29
593.517	18323.88
593.876	18612.01
594.235	18900.59
594.593	19119.79
594.952	19473.46
595.311	19799.32
595.67	20031.63
596.029	20382.13
596.387	20727.89
596.746	21089.01
597.104	21281.77
597.463	21589.79
597.822	21965.14
598.18	22233.61
598.538	22512.92
598.897	22886.02
599.255	22936.42
599.613	23660.69
599.972	23723.97
600.33	24041.02
600.688	24308.36
601.046	24713.55
601.404	25013.65
601.762	25282.8
602.12	25623.8
602.478	25887.98
602.836	26115.77
603.194	26341.52
603.552	26635.75
603.91	26805.24
604.268	27172.69
604.625	27247.72
604.983	27603.41
605.341	27810.19
605.698	28211.31
606.056	28574.01
606.413	28672.31
606.771	29036.6
607.128	29321.11
607.485	29320.43
607.843	29618.5
608.2	30032.95
608.557	30338.03
608.914	30441.3
609.272	30694.18
609.629	31096.43
609.986	31310.21
610.343	31295.07
610.7	31684.44
611.057	31846.69
611.414	32014.6
611.771	32180.92
612.127	32475.83
612.484	32451.42
612.841	32898.41
613.198	33008.02
613.554	33198.07
613.911	33586.98
614.267	33629.92
614.624	33665.85
614.98	33972.74
615.337	34192.39
615.693	34374.31
616.05	34446.85
616.406	34763.45
616.762	34722.77
617.118	34898.81
617.475	34956.21
617.831	35326.15
618.187	35536.31
618.543	35569.53
618.899	35958.22
619.255	36038.22
619.611	35967.49
619.967	36214.49
620.323	36442.05
620.678	36363.86
621.034	36437.08
621.39	36597.75
621.746	36703.29
622.101	37127.46
622.457	36941.7
622.812	37103.28
623.168	37276.38
623.523	37391.18
623.879	37461.46
624.234	37336.49
624.589	37492.64
624.945	37718.63
625.3	37683.6
625.655	37896.7
626.01	38042.91
626.365	38036.36
626.72	38128.79
627.075	38126.98
627.43	38126.07
627.785	38126.75
628.14	38358.38
628.495	38443.13
628.85	38510.24
629.205	38399.96
629.559	38700.75
629.914	38488.1
630.269	38601.32
630.623	38557.47
630.978	38401.77
631.332	38762.89
631.687	38896.67
632.041	38536.68
632.396	38818.94
632.75	38714.76
633.104	38794.76
633.459	38639.73
633.813	38802.67
634.167	38595.21
634.521	38812.61
634.875	38853.51
635.229	38878.14
635.583	38840.63
635.937	38821.42
636.291	38858.71
636.645	38741.2
636.999	38864.36
637.352	38864.81
637.706	38695.32
638.06	39001.53
638.413	38799.73
638.767	38668.66
639.121	38789.56
639.474	38641.31
639.828	38761.99
640.181	38736.91
640.534	38791.82
640.888	38746.85
641.241	38527.87
641.594	38601.54
641.947	38766.96
642.301	38771.03
642.654	38818.48
643.007	38813.74
643.36	38646.51
643.713	38625.27
644.066	38887.41
644.419	38621.2
644.771	38477.93
645.124	37918.17
645.477	37943.93
645.83	37853.09
646.182	37695.12
646.535	37555.47
646.888	37649.93
647.24	37375.81
647.593	37766.31
647.945	37440.89
648.298	37471.4
648.65	37287.23
649.002	37408.35
649.355	37447
649.707	37370.84
650.059	37573.09
650.411	37972.18
650.763	38123.81
651.115	38473.18
651.467	38260.31
651.819	38243.36
652.171	38027.77
652.523	38180.54
652.875	38166.3
653.227	37964.27
653.578	38248.1
653.93	38175.34
654.282	37966.53
654.633	37937.15
654.985	38118.84
655.337	38145.96
655.688	38060.09
656.039	38209.24
656.391	37923.37
656.742	37946.42
657.094	37986.64
657.445	38026.87
657.796	37888.79
658.147	38035.45
658.498	37872.75
658.849	37999.52
659.2	37961.11
659.551	37793.43
659.902	37992.29
660.253	37808.79
660.604	38079.97
660.955	37689.48
661.306	37864.84
661.656	37805.86
662.007	37876.36
662.358	37816.7
662.708	37826.19
663.059	37684.73
663.409	37577.61
663.76	37857.38
664.11	37782.13
664.461	37970.6
664.811	37820.09
665.161	37906.19
665.511	37756.37
665.862	37918.85
666.212	37886.76
666.562	37892.18
666.912	37770.83
667.262	37680.89
667.612	37660.32
667.962	37720.89
668.312	37710.49
668.662	37795.91
669.011	37724.05
669.361	37710.27
669.711	37624.84
670.06	37527.67
670.41	37619.19
670.76	37580.33
671.109	37673.43
671.459	37664.84
671.808	37612.19
672.157	37665.52
672.507	37394.79
672.856	37463.04
673.205	37492.19
673.554	37521.8
673.904	37568.12
674.253	37612.19
674.602	37434.11
674.951	37025.54
675.3	36796.17
675.649	37534
675.998	37359.09
676.346	37380.56
676.695	37535.58
677.044	37228.47
677.393	37336.04
677.741	37413.32
678.09	37225.76
678.438	37185.53
678.787	37254.23
679.135	37188.92
679.484	37079.32
679.832	37215.82
680.181	36915.26
680.529	37165.87
680.877	36980.34
681.225	36864.41
681.573	37002.94
681.922	36878.2
682.27	36839.1
682.618	36785.09
682.966	36705.09
683.314	36744.19
683.661	36602.72
684.009	36503.74
684.357	36421.71
684.705	36474.37
685.053	36395.05
685.4	36294.71
685.748	36129.97
686.095	36289.51
686.443	36096.97
686.79	36113.92
687.138	36163.87
687.485	36036.86
687.832	35976.07
688.18	35956.19
688.527	35873.7
688.874	35840.94
689.221	35670.55
689.568	35616.54
689.915	35489.08
690.262	35501.28
690.609	35337.67
690.956	35318.69
691.303	35330.67
691.65	35182.42
691.997	35178.81
692.344	35002.31
692.69	34920.73
693.037	34973.39
693.383	34799.83
693.73	34810.91
694.077	34679.38
694.423	34663.11
694.769	34519.61
695.116	34429.67
695.462	34387.19
695.808	34353.52
696.155	34300.41
696.501	34127.76
696.847	34104.26
697.193	33891.83
697.539	33929.12
697.885	33619.98
698.231	33650.94
698.577	33758.05
698.923	33576.59
699.269	33335.69
699.614	33237.61
699.96	33279.2
700.306	33226.54
700.651	33105.64
700.997	32947.68
701.342	32929.6
701.688	32940.67
702.033	32830.85
702.379	32810.06
702.724	32664.52
703.069	32665.43
703.415	32304.31
703.76	32328.94
704.105	32343.4
704.45	32248.71
704.795	32157.64
705.14	32020.92
705.485	32023.64
705.83	32014.82
706.175	31860.48
706.52	31802.4
706.865	31680.59
707.209	31675.17
707.554	31578.22
707.899	31593.36
708.243	31486.02
708.588	31379.58
708.932	31199.93
709.277	31230.21
709.621	31382.3
709.966	31019.82
710.31	31093.72
710.654	30851.46
710.998	30850.56
711.342	30905.47
711.687	30838.13
712.031	30719.49
712.375	30628.64
712.719	30591.36
713.063	30498.48
713.407	30759.26
713.75	30484.92
714.094	30458.93
714.438	30328.76
714.782	30333.06
715.125	30154.53
715.469	30278.82
715.812	30181.42
716.156	29927.42
716.499	29853.75
716.843	29932.62
717.186	29831.83
717.53	29883.13
717.873	29827.76
718.216	29742.11
718.559	29615.11
718.902	29484.95
719.246	29586.19
719.589	29551.61
719.932	29289.7
720.275	29350.03
720.617	29276.81
720.96	29020.1
721.303	29221.45
721.646	29180.32
721.989	29010.83
722.331	29244.73
722.674	29065.07
723.016	29038.4
723.359	29042.02
723.701	28995.47
724.044	28705.3
724.386	28676.83
724.729	28731.97
725.071	28715.02
725.413	28713.21
725.755	28748.24
726.097	28409.95
726.439	28428.25
726.782	28309.16
727.124	28538.08
727.465	28384.18
727.807	28278.2
728.149	28255.82
728.491	28310.74
728.833	28296.28
729.175	28223.06
729.516	28167.92
729.858	28049.05
730.199	28063.29
730.541	28027.13
730.882	27964.99
731.224	28106.68
731.565	27809.73
731.906	27914.59
732.248	27926.34
732.589	27719.57
732.93	27726.8
733.271	27576.07
733.612	27716.18
733.953	27692.45
734.294	27628.27
734.635	27616.52
734.976	27522.96
735.317	27314.61
735.658	27474.6
735.999	27337.2
736.339	27292.69
736.68	27321.84
737.021	27196.87
737.361	27139.02
737.702	27398.67
738.042	27104.89
738.383	27188.28
738.723	27115.06
739.063	27020.15
739.404	27094.5
739.744	27018.8
740.084	26923.2
740.424	26920.04
740.764	26941.51
741.104	26923.66
741.444	26734.51
741.784	26745.13
742.124	26730.22
742.464	26716.88
742.804	26599.82
743.143	26511.24
743.483	26670.78
743.823	26470.79
744.162	26426.72
744.502	26557.11
744.841	26363.9
745.181	26469.66
745.52	26276.89
745.86	26297.01
746.199	26245.71
746.538	26310.34
746.877	26238.02
747.216	26180.4
747.556	26170.68
747.895	26198.93
748.234	26011.36
748.573	25976.11
748.911	25967.75
749.25	26011.14
749.589	25795.32
749.928	25879.84
750.267	25815.44
750.605	25737.7
750.944	25621.32
751.283	25546.52
751.621	25622.22
751.96	25487.31
752.298	25396.01
752.636	25417.03
752.975	25375.45
753.313	25249.8
753.651	25362.57
753.989	25205.06
754.327	25129.35
754.666	25086.87
755.004	25082.12
755.342	24987.89
755.679	24993.99
756.017	24879.87
756.355	24818.4
756.693	24698.18
757.031	24789.7
757.368	24658.41
757.706	24601.23
758.044	24436.94
758.381	24559.2
758.719	24453.89
759.056	24405.3
759.394	24405.3
759.731	24052.55
760.068	24241.92
760.405	24028.82
760.743	23990.4
761.08	24160.34
761.417	23851.87
761.754	23936.16
762.091	23811.2
762.428	23709.05
762.765	23624.53
763.102	23674.02
763.438	23476.52
763.775	23407.14
764.112	23444.43
764.449	23417.76
764.785	23302.28
765.122	23120.82
765.458	23079.24
765.795	22983.87
766.131	22998.11
766.467	22891.9
766.804	22825.23
767.14	22802.86
767.476	22738.91
767.812	22692.13
768.148	22608.29
768.485	22468.18
768.821	22451.46
769.157	22383.89
769.492	22233.61
769.828	22303.89
770.164	22016.21
770.5	22056.44
770.836	22114.29
771.171	21860.06
771.507	21978.93
771.842	21644.02
772.178	21837.01
772.513	21615.1
772.849	21600.18
773.184	21418.26
773.519	21460.3
773.855	21328.78
774.19	21246.74
774.525	21112.96
774.86	21160.19
775.195	21096.47
775.53	20971.72
775.865	20889.24
776.2	20708.23
776.535	20551.85
776.87	20609.02
777.205	20558.63
777.539	20431.17
777.874	20471.17
778.209	20355.69
778.543	20301.91
778.878	20122.03
779.212	20200.67
779.547	20013.78
779.881	20049.03
780.215	19936.5
780.55	19964.74
780.884	19856.27
781.218	19745.54
781.552	19809.27
781.886	19645.66
782.22	19477.3
782.554	19463.51
782.888	19224.88
783.222	19195.95
783.556	19144.2
783.889	19258.1
784.223	18945.34
784.557	18908.73
784.89	18919.57
785.224	18859.91
785.557	18798.9
785.891	18786.7
786.224	18630.54
786.558	18677.77
786.891	18440.26
787.224	18406.37
787.557	18342.64
787.891	18306.03
788.224	18233.72
788.557	18308.29
788.89	18176.54
789.223	18151.23
789.556	17994.63
789.888	18037.79
790.221	17929.32
790.554	17816.1
790.887	17817.91
791.219	17762.77
791.552	17589.66
791.884	17554.19
792.217	17510.34
792.549	17413.62
792.882	17345.83
793.214	17315.1
793.546	17276.9
793.879	17267.64
794.211	17123.69
794.543	17138.38
794.875	17118.72
795.207	17128.43
795.539	16996.91
795.871	16994.2
796.203	16881.89
796.535	16783.81
796.867	16689.12
797.198	16738.84
797.53	16654.77
797.862	16499.75
798.193	16492.29
798.525	16459.3
798.856	16539.97
799.188	16254.11
799.519	16326.87
799.85	16139.76
800.182	16258.4
800.513	16171.17
800.844	15963.49
801.175	16115.13
801.506	16015.02
801.837	15938.18
802.168	15827.9
802.499	15898.41
802.83	15811.41
803.161	15728.92
803.491	15678.3
803.822	15649.83
804.153	15586.33
804.483	15534.58
804.814	15481.25
805.145	15426.33
805.475	15382.27
805.805	15365.99
806.136	15288.03
806.466	15368.48
806.796	15263.17
807.126	15165.77
807.457	15107.02
807.787	15157.19
808.117	15055.72
808.447	15006.91
808.777	15050.97
809.107	14876.29
809.436	14900.02
809.766	14865.44
810.096	14814.14
810.426	14802.17
810.755	14740.7
811.085	14740.02
811.414	14724.2
811.744	14629.06
812.073	14486.24
812.403	14559.46
812.732	14503.42
813.061	14439.24
813.39	14446.92
813.719	14321.05
814.049	14344.1
814.378	14336.42
814.707	14312.01
815.036	14226.59
815.365	14187.72
815.693	14024.56
816.022	14152.69
816.351	14118.34
816.68	13923.32
817.008	14023.66
817.337	13865.02
817.665	13934.17
817.994	13886.94
818.322	13900.04
818.651	13745.25
818.979	13765.36
819.307	13771.01
819.636	13770.56
819.964	13658.69
820.292	13637.9
820.62	13669.54
820.948	13653.95
821.276	13681.97
821.604	13603.78
821.932	13543.9
822.259	13586.83
822.587	13684
822.915	13598.13
823.243	13598.36
823.57	13501.64
823.898	13576.89
824.225	13556.78
824.553	13484.01
824.88	13550.22
825.207	13470
825.535	13547.29
825.862	13585.48
826.189	13469.77
826.516	13568.98
826.843	13621.18
827.17	13547.96
827.497	13470.9
827.824	13530.11
828.151	13566.27
828.478	13520.62
828.805	13566.27
829.131	13543.67
829.458	13529.66
829.785	13379.61
830.111	13460.28
830.438	13522.88
830.764	13533.27
831.09	13525.82
831.417	13437.68
831.743	13495.99
832.069	13497.79
832.395	13369.89
832.722	13418.25
833.048	13474.29
833.374	13439.72
833.7	13364.92
834.026	13405.59
834.351	13394.29
834.677	13430.45
835.003	13356.56
835.329	13402.2
835.654	13375.76
835.98	13246.5
836.306	13324.24
836.631	13241.53
836.956	13274.52
837.282	13315.43
837.607	13189.1
837.932	13171.48
838.258	13153.4
838.583	13193.4
838.908	13079.95
839.233	13073.85
839.558	12990.69
839.883	13005.6
840.208	12907.08
840.533	13046.51
840.858	13003.8
841.182	12950.46
841.507	12871.14
841.832	12855.55
842.156	12811.49
842.481	12869.34
842.805	12834.31
843.13	12765.84
843.454	12735.1
843.778	12654.88
844.103	12641.77
844.427	12715.67
844.751	12552.73
845.075	12584.82
845.399	12627.99
845.723	12505.05
846.047	12470.25
846.371	12400.42
846.695	12440.87
847.019	12345.51
847.343	12249.47
847.666	12155.23
847.99	12132.41
848.313	12183.03
848.637	12126.98
848.96	12105.29
849.284	12011.51
849.607	11950.72
849.931	11914.11
850.254	11782.59
850.577	11758.63
850.9	11683.61
851.223	11688.35
851.546	11620.33
851.869	11440
852.192	11590.05
852.515	11392.09
852.838	11422.14
853.161	11454.68
853.483	11360.22
853.806	11379.88
854.129	11354.57
854.451	11278.19
854.774	11291.3
855.096	11133.79
855.419	11119.55
855.741	11188.93
856.063	10982.61
856.385	11041.14
856.708	11002.04
857.03	10978.99
857.352	10996.84
857.674	10912.1
857.996	10920.69
858.318	10760.92
858.64	10950.97
858.961	10758.43
859.283	10754.14
859.605	10704.2
859.926	10756.85
860.248	10716.62
860.57	10636.63
860.891	10714.37
861.212	10595.95
861.534	10575.16
861.855	10567.25
862.176	10530.87
862.498	10508.49
862.819	10536.29
863.14	10509.17
863.461	10440.93
863.782	10403.86
864.103	10386.92
864.424	10325.45
864.745	10412.23
865.065	10342.62
865.386	10337.2
865.707	10348.5
866.027	10333.13
866.348	10339.91
866.668	10242.74
866.989	10229.86
867.309	10175.85
867.63	10212.68
867.95	10165
868.27	10160.03
868.59	10087.26
868.91	10086.59
869.23	10108.51
869.55	10062.18
869.87	10132.69
870.19	10087.71
870.51	10034.61
870.83	10056.98
871.15	9963.65
871.469	9966.36
871.789	10026.93
872.109	9964.78
872.428	9934.05
872.748	9968.85
873.067	9962.97
873.386	9930.43
873.706	9942.63
874.025	9842.98
874.344	9794.39
874.663	9842.98
874.982	9826.7
875.301	9862.64
875.62	9850.66
875.939	9818.12
876.258	9816.54
876.577	9729.08
876.896	9708.06
877.214	9675.52
877.533	9740.15
877.852	9648.63
878.17	9739.48
878.489	9728.85
878.807	9670.32
879.125	9591.68
879.444	9633.72
879.762	9568.63
880.08	9544
880.398	9522.31
880.716	9486.15
881.034	9457
881.352	9490.22
881.67	9466.94
881.988	9478.92
882.306	9414.74
882.624	9427.39
882.941	9412.93
883.259	9321.18
883.577	9401.18
883.894	9337.68
884.212	9276.89
884.529	9283.44
884.846	9273.95
885.164	9225.59
885.481	9175.65
885.798	9205.48
886.115	9172.03
886.432	9190.34
886.75	9125.93
887.067	9137.01
887.383	9016.33
887.7	9098.14
888.017	9005.03
888.334	9044.58
888.651	8989.66
888.967	8950.8
889.284	8916.22
889.6	8846.39
889.917	8838.93
890.233	8847.97
890.55	8819.05
890.866	8803
891.182	8766.17
891.498	8806.62
891.815	8731.82
892.131	8719.39
892.447	8617.7
892.763	8606.85
893.079	8641.2
893.395	8534.54
893.71	8588.55
894.026	8545.38
894.342	8531.15
894.657	8442.33
894.973	8474.65
895.289	8442.79
895.604	8405.5
895.92	8302.9
896.235	8316.46
896.55	8392.84
896.865	8382.68
897.181	8271.72
897.496	8313.07
897.811	8252.51
898.126	8177.71
898.441	8116.02
898.756	8118.73
899.071	8111.5
899.386	8132.96
899.7	8038.73
900.015	8016.36
900.33	7955.79
900.644	7978.62
900.959	7974.78
901.273	7912.63
901.588	7902.69
901.902	7862.01
902.216	7814.55
902.531	7813.2
902.845	7834.21
903.159	7743.6
903.473	7706.31
903.787	7661.79
904.101	7651.62
904.415	7624.73
904.729	7572.53
905.042	7531.85
905.356	7593.32
905.67	7517.39
905.984	7489.14
906.297	7418.18
906.611	7413.44
906.924	7401.91
907.237	7382.25
907.551	7412.98
907.864	7297.73
908.177	7311.52
908.491	7239.43
908.804	7258.18
909.117	7229.03
909.43	7136.38
909.743	7127.11
910.056	7130.5
910.368	7161.46
910.681	7074.69
910.994	7040.34
911.307	7006.89
911.619	7007.8
911.932	6922.15
912.244	6951.75
912.557	6864.75
912.869	6882.15
913.181	6841.92
913.494	6805.54
913.806	6801.93
914.118	6757.41
914.43	6775.71
914.742	6726.67
915.054	6741.14
915.366	6666.34
915.678	6629.95
915.99	6648.48
916.302	6561.93
916.613	6537.53
916.925	6512.22
917.236	6470.41
917.548	6417.75
917.859	6439.22
918.171	6411.88
918.482	6423.18
918.794	6366
919.105	6343.63
919.416	6308.15
919.727	6278.78
920.038	6264.54
920.349	6203.98
920.66	6220.02
920.971	6187.25
921.282	6168.72
921.593	6091.66
921.903	6058.44
922.214	6097.31
922.525	6029.52
922.835	5963.53
923.146	5988.84
923.456	6020.25
923.767	5986.35
924.077	5952.91
924.387	5928.28
924.697	5864.78
925.008	5895.51
925.318	5836.08
925.628	5846.92
925.938	5772.35
926.248	5740.48
926.558	5733.03
926.867	5694.61
927.177	5708.4
927.487	5666.59
927.796	5635.4
928.106	5600.15
928.416	5660.26
928.725	5579.36
929.034	5514.73
929.344	5528.51
929.653	5527.38
929.962	5499.36
930.271	5487.38
930.581	5469.31
930.89	5406.93
931.199	5416.43
931.508	5377.33
931.817	5326.71
932.125	5291
932.434	5272.7
932.743	5258.24
933.051	5180.5
933.36	5225.47
933.669	5184.79
933.977	5135.53
934.286	5165.36
934.594	5140.05
934.902	5093.72
935.21	5112.93
935.519	5116.09
935.827	5045.59
936.135	4989.32
936.443	4956.1
936.751	4988.19
937.059	4998.13
937.367	4953.16
937.674	4954.97
937.982	4921.3
938.29	4898.02
938.597	4866.84
938.905	4817.12
939.213	4759.72
939.52	4749.32
939.827	4768.31
940.135	4692.83
940.442	4737.12
940.749	4710
941.056	4699.38
941.363	4641.98
941.67	4690.12
941.977	4661.42
942.284	4592.72
942.591	4587.07
942.898	4540.97
943.205	4589.1
943.511	4555.21
943.818	4525.6
944.125	4485.83
944.431	4460.07
944.738	4472.5
945.044	4425.49
945.35	4412.84
945.657	4399.05
945.963	4406.51
946.269	4328.77
946.575	4373.51
946.881	4327.87
947.187	4287.64
947.493	4290.81
947.799	4314.53
948.105	4267.53
948.41	4237.47
948.716	4272.73
949.022	4122.67
949.327	4205.38
949.633	4120.64
949.938	4131.71
950.244	4129.23
950.549	4092.84
950.854	4051.04
951.16	4095.33
951.465	4037.93
951.77	4055.11
952.075	4001.32
952.38	3989.12
952.685	3993.41
952.99	3954.54
953.294	3952.06
953.599	3917.48
953.904	3928.78
954.209	3900.31
954.513	3858.05
954.818	3872.06
955.122	3870.93
955.426	3831.83
955.731	3784.38
956.035	3802.23
956.339	3769.01
956.643	3773.3
956.948	3729.24
957.252	3754.55
957.556	3761.33
957.86	3676.58
958.163	3678.62
958.467	3674.78
958.771	3682.01
959.075	3657.15
959.378	3610.82
959.682	3613.53
959.985	3611.05
960.289	3602.91
960.592	3559.07
960.896	3514.55
961.199	3524.95
961.502	3524.5
961.805	3486.76
962.108	3487.21
962.411	3492.63
962.714	3460.54
963.017	3454.22
963.32	3461.67
963.623	3392.52
963.926	3399.53
964.228	3397.04
964.531	3369.93
964.833	3349.81
965.136	3319.31
965.438	3316.37
965.741	3308.91
966.043	3331.06
966.345	3306.2
966.648	3230.04
966.95	3258.74
967.252	3232.53
967.554	3256.93
967.856	3251.06
968.158	3210.83
968.46	3177.84
968.761	3177.84
969.063	3152.08
969.365	3138.75
969.666	3125.19
969.968	3115.47
970.269	3106.88
970.571	3105.3
970.872	3089.48
971.174	3074.57
971.475	3029.82
971.776	3007.22
972.077	3024.62
972.378	3026.43
972.679	3001.8
972.98	3010.61
973.281	2969.48
973.582	2959.31
973.883	2970.61
974.183	2974
974.484	2893.78
974.785	2907.79
975.085	2934
975.386	2908.69
975.686	2863.5
975.986	2835.25
976.287	2899.88
976.587	2835.48
976.887	2835.7
977.187	2833.67
977.487	2790.05
977.787	2801.35
978.087	2781.24
978.387	2768.59
978.687	2777.4
978.987	2700.56
979.286	2763.61
979.586	2703.05
979.885	2736.5
980.185	2674.12
980.484	2672.99
980.784	2666.89
981.083	2649.27
981.382	2669.6
981.682	2647.23
981.981	2620.34
982.28	2604.52
982.579	2576.73
982.878	2601.58
983.177	2554.81
983.475	2578.76
983.774	2557.74
984.073	2522.94
984.372	2527.24
984.67	2502.38
984.969	2509.38
985.267	2533.56
985.566	2502.15
985.864	2496.5
986.162	2481.81
986.461	2447.01
986.759	2449.95
987.057	2447.01
987.355	2440.01
987.653	2444.53
987.951	2420.35
988.249	2414.47
988.547	2371.76
988.844	2362.27
989.142	2365.88
989.44	2383.28
989.737	2341.03
990.035	2329.95
990.332	2305.77
990.63	2284.76
990.927	2297.64
991.224	2301.93
991.521	2270.52
991.819	2298.09
992.116	2256.28
992.413	2214.7
992.71	2236.85
993.006	2217.64
993.303	2211.31
993.6	2199.11
993.897	2208.83
994.193	2188.26
994.49	2153.46
994.787	2148.26
995.083	2152.56
995.379	2161.37
995.676	2138.32
995.972	2144.2
996.268	2102.39
996.565	2108.49
996.861	2055.16
997.157	2081.82
997.453	2095.83
997.749	2064.65
998.044	2036.63
998.34	2058.55
998.636	2030.98
998.932	2026.68
999.227	2003.63
999.523	1995.05
999.818	2020.36
1000.114	1983.3
1000.409	1981.04
1000.704	1949.62
1001	1930.64
1001.295	1942.84
1001.59	1909.4
1001.885	1924.99
1002.18	1867.82
1002.475	1937.65
1002.77	1910.98
1003.065	1845.22
1003.359	1899
1003.654	1888.38
1003.949	1881.83
1004.243	1867.82
1004.538	1828.95
1004.832	1830.98
1005.127	1809.29
1005.421	1783.75
1005.715	1780.36
1006.009	1787.59
1006.304	1787.37
1006.598	1740.36
1006.892	1746.24
1007.186	1700.82
1007.48	1739.69
1007.773	1736.97
1008.067	1715.51
1008.361	1677.31
1008.655	1705.11
1008.948	1658.78
1009.242	1689.29
1009.535	1649.52
1009.829	1659.69
1010.122	1657.2
1010.415	1621.95
1010.708	1615.17
1011.001	1596.86
1011.295	1605.9
1011.588	1609.07
1011.881	1621.5
1012.173	1595.73
1012.466	1561.39
1012.759	1588.5
1013.052	1566.58
1013.344	1541.72
1013.637	1545.79
1013.93	1525.91
1014.222	1510.54
1014.514	1537.21
1014.807	1512.57
1015.099	1523.19
1015.391	1488.85
1015.683	1472.57
1015.976	1513.93
1016.268	1448.85
1016.56	1465.12
1016.851	1470.09
1017.143	1470.31
1017.435	1412.46
1017.727	1402.97
1018.018	1409.3
1018.31	1411.11
1018.602	1386.7
1018.893	1401.62
1019.185	1375.18
1019.476	1367.72
1019.767	1365.01
1020.058	1382.63
1020.35	1328.17
1020.641	1360.26
1020.932	1324.56
1021.223	1335.63
1021.514	1327.27
1021.804	1286.14
1022.095	1307.15
1022.386	1266.48
1022.677	1280.04
1022.967	1294.5
1023.258	1243.2
1023.548	1275.07
1023.839	1257.89
1024.129	1239.36
1024.419	1238.68
1024.709	1233.26
1025	1216.99
1025.29	1209.3
1025.58	1213.15
1025.87	1195.29
1026.16	1182.19
1026.449	1198.23
1026.739	1200.04
1027.029	1141.74
1027.319	1143.09
1027.608	1160.72
1027.898	1158.23
1028.187	1130.66
1028.477	1132.02
1028.766	1100.61
1029.055	1100.15
1029.344	1127.5
1029.634	1092.02
1029.923	1112.13
1030.212	1098.57
1030.501	1099.25
1030.79	1072.58
1031.078	1089.31
1031.367	1070.78
1031.656	1060.16
1031.945	1040.04
1032.233	1047.95
1032.522	1021.74
1032.81	1024.45
1033.099	1015.64
1033.387	1022.42
1033.675	1016.32
1033.963	1006.82
1034.251	1013.83
1034.54	991.23
1034.828	995.75
1035.116	976.32
1035.403	951.91
1035.691	965.24
1035.979	973.83
1036.267	969.08
1036.554	967.95
1036.842	927.28
1037.129	963.66
1037.417	906.26
1037.704	947.62
1037.992	938.35
1038.279	902.42
1038.566	904
1038.853	904
1039.14	904
