Data from hue_200_FLMS001491_00098.txt Node
Date: Tue Feb 07 16:44:13 GMT 2017
User: dcchb
Spectrometer: FLMS00149
Trigger mode: 0
Integration Time (sec): 2.000000E-2
Scans to average: 10
Electric dark correction enabled: true
Nonlinearity correction enabled: false
Boxcar width: 0
XAxis mode: Wavelengths
Number of Pixels in Spectrum: 2048
>>>>>Begin Spectral Data<<<<<
341.393	-14.96
341.776	-14.96
342.16	-14.96
342.543	-55.18
342.927	-54.28
343.31	-59.48
343.693	-76.42
344.077	-68.52
344.46	-57.89
344.843	-57.22
345.226	-37.78
345.61	-26.71
345.993	-35.97
346.376	-12.47
346.759	23.69
347.142	21.2
347.525	46.96
347.908	58.49
348.291	71.14
348.674	110.69
349.057	100.29
349.44	131.48
349.823	140.97
350.206	171.7
350.588	198.14
350.971	204.92
351.354	221.42
351.737	244.47
352.119	251.93
352.502	245.83
352.884	240.86
353.267	272.94
353.65	294.41
354.032	290.35
354.414	284.47
354.797	316.56
355.179	318.14
355.562	313.62
355.944	343.45
356.326	318.37
356.709	303.23
357.091	319.27
357.473	330.34
357.855	326.28
358.238	337.8
358.62	348.65
359.002	328.54
359.384	347.97
359.766	328.31
360.148	343.45
360.53	329.21
360.912	326.5
361.294	343.68
361.676	328.54
362.057	314.98
362.439	325.37
362.821	352.04
363.203	320.63
363.584	334.41
363.966	318.14
364.348	297.8
364.729	314.07
365.111	312.04
365.493	331.25
365.874	303.23
366.256	332.83
366.637	318.82
367.019	285.6
367.4	309.78
367.781	307.75
368.163	303
368.544	307.97
368.925	301.87
369.306	321.08
369.688	289.67
370.069	305.49
370.45	322.21
370.831	318.14
371.212	299.38
371.593	302.77
371.974	299.84
372.355	308.88
372.736	333.96
373.117	319.27
373.498	311.81
373.879	303
374.26	303.9
374.641	295.32
375.021	295.09
375.402	317.01
375.783	314.3
376.163	323.56
376.544	312.72
376.925	319.72
377.305	319.27
377.686	308.42
378.066	326.28
378.447	309.78
378.827	331.25
379.208	351.36
379.588	320.85
379.968	336.45
380.349	307.75
380.729	342.32
381.109	334.19
381.489	321.98
381.87	309.55
382.25	339.84
382.63	326.05
383.01	324.02
383.39	356.11
383.77	333.28
384.15	330.12
384.53	335.09
384.91	326.73
385.29	350.91
385.67	343.45
386.049	357.91
386.429	331.7
386.809	347.75
387.189	345.26
387.568	338.03
387.948	355.65
388.328	348.88
388.707	334.86
389.087	363.34
389.466	372.15
389.846	343.9
390.225	340.29
390.605	338.03
390.984	367.63
391.363	365.37
391.743	367.18
392.122	345.94
392.501	355.2
392.881	387.29
393.26	367.86
393.639	368.08
394.018	364.69
394.397	367.63
394.776	369.21
395.155	367.86
395.534	390.23
395.913	368.99
396.292	389.55
396.671	375.77
397.05	374.41
397.429	389.33
397.808	380.51
398.186	379.38
398.565	375.31
398.944	396.33
399.323	393.62
399.701	414.86
400.08	388.65
400.458	390.68
400.837	406.27
401.215	419.38
401.594	410.34
401.972	425.71
402.351	430.45
402.729	415.77
403.107	431.58
403.486	418.25
403.864	436.33
404.242	426.16
404.62	428.65
404.999	421.87
405.377	434.52
405.755	449.66
406.133	453.28
406.511	443.11
406.889	463
407.267	470.68
407.645	478.59
408.023	460.51
408.401	492.83
408.779	488.98
409.156	478.36
409.534	501.41
409.912	530.11
410.29	529.44
410.667	540.51
411.045	547.51
411.422	529.44
411.8	537.12
412.178	554.07
412.555	579.6
412.933	579.6
413.31	580.51
413.687	597.46
414.065	601.07
414.442	626.83
414.819	620.28
415.197	629.09
415.574	647.62
415.951	621.41
416.328	657.12
416.705	660.96
417.082	683.1
417.46	680.17
417.837	696.66
418.214	692.59
418.591	698.92
418.967	705.93
419.344	738.02
419.721	744.57
420.098	728.53
420.475	753.38
420.852	757.23
421.228	761.29
421.605	798.13
421.982	821.63
422.358	828.86
422.735	860.05
423.111	857.34
423.488	870.22
423.864	891.91
424.241	913.83
424.617	910.44
424.994	927.39
425.37	931.46
425.746	982.3
426.123	983.21
426.499	977.33
426.875	996.99
427.251	982.98
427.627	1020.5
428.003	1071.34
428.379	1071.79
428.756	1083.54
429.132	1069.08
429.507	1093.71
429.883	1145.01
430.259	1108.18
430.635	1133.94
431.011	1154.5
431.387	1192.92
431.763	1197.21
432.138	1197.67
432.514	1234.95
432.89	1240.38
433.265	1301.62
433.641	1280.15
434.016	1301.39
434.392	1360.83
434.767	1357.66
435.143	1362.63
435.518	1415.97
435.894	1439.02
436.269	1445.8
436.644	1469.75
437.02	1510.88
437.395	1522.86
437.77	1560.14
438.145	1585.23
438.52	1596.3
438.895	1645.34
439.271	1627.26
439.646	1683.98
440.021	1729.4
440.395	1745.9
440.77	1729.4
441.145	1764.43
441.52	1803.98
441.895	1832
442.27	1860.47
442.645	1843.75
443.019	1900.92
443.394	1935.73
443.769	1876.29
444.143	1935.05
444.518	1996.06
444.892	1969.4
445.267	1990.64
445.641	1999
446.016	2049.85
446.39	2041.49
446.764	2070.41
447.139	2084.42
447.513	2151.09
447.887	2084.65
448.262	2155.61
448.636	2143.63
449.01	2151.31
449.384	2218.2
449.758	2202.39
450.132	2232.89
450.506	2251.65
450.88	2288.94
451.254	2258.43
451.628	2322.16
452.002	2325.55
452.376	2364.64
452.75	2382.72
453.123	2388.37
453.497	2448.93
453.871	2458.65
454.244	2513.11
454.618	2513.34
454.992	2533.9
455.365	2568.93
455.739	2606.89
456.112	2655.71
456.486	2676.95
456.859	2681.92
457.232	2741.58
457.606	2708.59
457.979	2767.12
458.352	2826.1
458.725	2859.32
459.099	2865.87
459.472	2907
459.845	2892.76
460.218	2982.7
460.591	2987.68
460.964	2983.16
461.337	3071.29
461.71	3094.11
462.083	3137.73
462.456	3144.96
462.829	3162.36
463.201	3259.08
463.574	3225.18
463.947	3295.01
464.32	3342.69
464.692	3370.04
465.065	3418.85
465.438	3491.62
465.81	3516.48
466.183	3513.54
466.555	3624.04
466.928	3630.6
467.3	3637.38
467.672	3671.5
468.045	3765.96
468.417	3798.73
468.789	3824.94
469.161	3882.12
469.534	3911.04
469.906	4063.13
470.278	4021.77
470.65	4047.08
471.022	4176.8
471.394	4251.15
471.766	4259.28
472.138	4294.99
472.51	4378.37
472.882	4478.48
473.253	4496.34
473.625	4559.39
473.997	4628.76
474.369	4647.07
474.74	4704.69
475.112	4751.92
475.484	4825.37
475.855	4948.3
476.227	4930.45
476.598	5058.13
476.97	5108.52
477.341	5255.64
477.713	5284.34
478.084	5288.63
478.455	5435.52
478.827	5540.83
479.198	5635.52
479.569	5632.35
479.94	5805.91
480.311	5833.93
480.682	5948.73
481.053	6076.86
481.424	6176.52
481.795	6249.74
482.166	6294.93
482.537	6383.07
482.908	6471.65
483.279	6563.4
483.65	6601.37
484.021	6762.04
484.391	6759.78
484.762	6823.51
485.133	6862.15
485.503	7023.5
485.874	7119.77
486.244	7163.61
486.615	7322.48
486.985	7382.36
487.356	7510.72
487.726	7532.41
488.097	7677.5
488.467	7723.37
488.837	7822.35
489.207	7921.56
489.578	8020.76
489.948	8087.2
490.318	8162
490.688	8215.56
491.058	8281.1
491.428	8366.07
491.798	8509.79
492.168	8611.71
492.538	8604.48
492.908	8733.29
493.278	8768.09
493.648	8795.21
494.017	8864.81
494.387	8902.1
494.757	8974.18
495.126	9150.68
495.496	9105.93
495.866	9156.78
496.235	9219.83
496.605	9319.94
496.974	9281.52
497.344	9396.09
497.713	9410.56
498.082	9492.82
498.452	9550.67
498.821	9546.6
499.19	9599.03
499.559	9672.47
499.928	9633.38
500.298	9688.29
500.667	9780.04
501.036	9763.77
501.405	9852.13
501.774	9818.23
502.143	9912.24
502.512	9905.69
502.88	9956.08
503.249	9930.54
503.618	10008.96
503.987	9993.14
504.356	10060.94
504.724	10095.96
505.093	10156.3
505.462	10140.03
505.83	10145.68
506.199	10131.22
506.567	10327.6
506.936	10212.8
507.304	10389.97
507.672	10410.53
508.041	10387.71
508.409	10444.43
508.777	10466.8
509.145	10544.31
509.514	10429.51
509.882	10473.81
510.25	10446.69
510.618	10534.37
510.986	10536.86
511.354	10578.21
511.722	10672.22
512.09	10741.14
512.458	10658.21
512.826	10704.31
513.193	10704.99
513.561	10730.75
513.929	10743.86
514.297	10807.36
514.664	10745.66
515.032	10840.8
515.4	10904.08
515.767	10862.04
516.135	10869.5
516.502	10719.22
516.869	10902.27
517.237	10848.03
517.604	10777.75
517.972	10884.64
518.339	10884.42
518.706	10964.42
519.073	10908.6
519.44	10894.36
519.808	10986.56
520.175	10940.01
520.542	10976.17
520.909	10996.05
521.276	10918.31
521.643	11015.71
522.009	11041.93
522.376	11039.22
522.743	11080.12
523.11	11079.44
523.477	11138.42
523.843	11094.36
524.21	11124.18
524.577	11172.77
524.943	11198.53
525.31	11120.57
525.676	11168.93
526.043	11200.34
526.409	11079.89
526.776	11157.4
527.142	11191.3
527.508	11216.61
527.874	11176.39
528.241	11212.77
528.607	11180
528.973	11177.74
529.339	11137.97
529.705	11209.61
530.071	11202.37
530.437	11107.01
530.803	11174.81
531.169	11176.39
531.535	11090.29
531.901	11026.11
532.267	11095.94
532.632	11054.81
532.998	11011.65
533.364	11001.93
533.73	10958.77
534.095	11060.68
534.461	10935.94
534.826	10969.61
535.192	10878.09
535.557	10954.25
535.923	10880.35
536.288	10871.99
536.653	10863.17
537.019	10718.55
537.384	10680.81
537.749	10732.33
538.114	10607.14
538.479	10574.59
538.845	10533.24
539.21	10497.31
539.575	10470.87
539.94	10393.13
540.305	10364.2
540.67	10336.86
541.034	10370.98
541.399	10290.99
541.764	10240.14
542.129	10267.26
542.494	10105.68
542.858	10194.72
543.223	10095.29
543.587	10071.11
543.952	9959.47
544.316	10028.17
544.681	9908.85
545.045	9923.99
545.41	9925.8
545.774	9845.57
546.138	9753.37
546.503	9749.98
546.867	9695.97
547.231	9681.74
547.595	9667.95
547.959	9578.24
548.324	9532.36
548.688	9504.79
549.052	9464.79
549.416	9424.12
549.779	9422.76
550.143	9382.31
550.507	9373.95
550.871	9335.31
551.235	9293.72
551.599	9217.79
551.962	9208.76
552.326	9177.12
552.689	9214.86
553.053	9102.54
553.417	9065.48
553.78	9105.48
554.143	9008.53
554.507	8989.78
554.87	8996.56
555.234	8995.43
555.597	8911.81
555.96	8868.88
556.323	8886.96
556.686	8842.89
557.05	8819.84
557.413	8781.2
557.776	8702.1
558.139	8805.15
558.502	8732.61
558.865	8684.02
559.228	8732.61
559.59	8693.97
559.953	8669.79
560.316	8761.54
560.679	8691.25
561.041	8656.68
561.404	8707.75
561.767	8684.7
562.129	8550.47
562.492	8615.78
562.854	8594.76
563.217	8547.76
563.579	8553.86
563.941	8653.74
564.304	8576.68
564.666	8563.35
565.028	8622.1
565.39	8520.64
565.753	8614.42
566.115	8590.92
566.477	8532.16
566.839	8605.16
567.201	8507.3
567.563	8551.15
567.925	8551.15
568.287	8593.4
568.648	8633.63
569.01	8604.7
569.372	8613.74
569.734	8617.58
570.095	8635.89
570.457	8626.62
570.819	8625.95
571.18	8576.23
571.542	8571.26
571.903	8590.92
572.265	8596.57
572.626	8618.71
572.987	8605.16
573.349	8560.86
573.71	8601.99
574.071	8616.45
574.432	8606.29
574.794	8613.97
575.155	8633.63
575.516	8529.68
575.877	8598.6
576.238	8636.57
576.599	8625.27
576.96	8633.4
577.32	8622.78
577.681	8626.62
578.042	8669.79
578.403	8564.25
578.763	8560.18
579.124	8625.04
579.485	8615.78
579.845	8608.54
580.206	8600.64
580.566	8698.71
580.927	8569.68
581.287	8647.19
581.648	8609.22
582.008	8673.85
582.368	8608.09
582.728	8658.71
583.089	8611.03
583.449	8583.23
583.809	8601.54
584.169	8594.53
584.529	8586.85
584.889	8617.81
585.249	8639.73
585.609	8567.64
585.969	8576
586.329	8535.78
586.688	8549.56
587.048	8542.78
587.408	8541.88
587.768	8442.45
588.127	8456.91
588.487	8420.08
588.846	8546.85
589.206	8448.78
589.565	8479.51
589.925	8491.49
590.284	8514.99
590.643	8510.92
591.003	8545.04
591.362	8531.48
591.721	8483.35
592.08	8490.13
592.44	8404.93
592.799	8472.28
593.158	8460.98
593.517	8426.4
593.876	8439.96
594.235	8480.41
594.593	8469.11
594.952	8486.51
595.311	8420.08
595.67	8395.9
596.029	8425.27
596.387	8432.73
596.746	8443.8
597.104	8423.01
597.463	8399.74
597.822	8413.3
598.18	8385.73
598.538	8374.43
598.897	8431.83
599.255	8348.66
599.613	8373.75
599.972	8360.87
600.33	8496.23
600.688	8350.02
601.046	8372.17
601.404	8352.73
601.762	8413.75
602.12	8363.35
602.478	8375.33
602.836	8346.63
603.194	8305.73
603.552	8394.09
603.91	8340.53
604.268	8380.53
604.625	8384.6
604.983	8388.21
605.341	8273.86
605.698	8362.22
606.056	8355.9
606.413	8317.71
606.771	8351.6
607.128	8378.72
607.485	8404.26
607.843	8372.84
608.2	8331.94
608.557	8444.48
608.914	8382.34
609.272	8362.22
609.629	8415.78
609.986	8425.95
610.343	8359.29
610.7	8495.55
611.057	8401.54
611.414	8330.13
611.771	8367.2
612.127	8454.88
612.484	8489
612.841	8511.82
613.198	8430.7
613.554	8390.7
613.911	8433.18
614.267	8496.23
614.624	8426.4
614.98	8538.49
615.337	8488.77
615.693	8493.52
616.05	8408.32
616.406	8473.18
616.762	8452.84
617.118	8511.6
617.475	8455.33
617.831	8531.26
618.187	8452.16
618.543	8505.04
618.899	8565.83
619.255	8503.69
619.611	8492.62
619.967	8512.5
620.323	8528.09
620.678	8555.44
621.034	8533.52
621.39	8573.74
621.746	8416.23
622.101	8620.07
622.457	8518.38
622.812	8489.45
623.168	8596.34
623.523	8538.94
623.879	8517.47
624.234	8537.59
624.589	8531.03
624.945	8522.67
625.3	8581.88
625.655	8588.21
626.01	8526.29
626.365	8479.51
626.72	8542.56
627.075	8478.6
627.43	8474.31
627.785	8459.62
628.14	8562.22
628.495	8555.89
628.85	8563.35
629.205	8487.19
629.559	8546.85
629.914	8402.9
630.269	8475.22
630.623	8383.24
630.978	8410.58
631.332	8460.3
631.687	8434.76
632.041	8423.46
632.396	8402
632.75	8402
633.104	8392.73
633.459	8338.72
633.813	8398.15
634.167	8403.35
634.521	8377.82
634.875	8314.77
635.229	8336.91
635.583	8335.11
635.937	8272.06
636.291	8229.35
636.645	8257.82
636.999	8262.57
637.352	8272.06
637.706	8178.95
638.06	8223.02
638.413	8197.93
638.767	8185.28
639.121	8212.4
639.474	8186.64
639.828	8156.58
640.181	8173.53
640.534	8166.52
640.888	8124.72
641.241	8151.83
641.594	8102.8
641.947	8195.45
642.301	8156.58
642.654	8166.52
643.007	8115.22
643.36	8122.23
643.713	8085.17
644.066	8167.2
644.419	8090.82
644.771	8004.49
645.124	7961.33
645.477	7949.58
645.83	7915.68
646.182	7875.23
646.535	7887.43
646.888	7896.7
647.24	7801.56
647.593	7895.34
647.945	7835.91
648.298	7783.26
648.65	7908.9
649.002	7790.71
649.355	7841.79
649.707	7813.09
650.059	7878.62
650.411	7965.62
650.763	7980.76
651.115	7980.99
651.467	8059.18
651.819	8033.42
652.171	8087.88
652.523	7990.71
652.875	8027.77
653.227	7950.94
653.578	8132.63
653.93	8079.29
654.282	7937.38
654.633	7971.05
654.985	7992.74
655.337	8000.2
655.688	8033.19
656.039	8053.98
656.391	8009.92
656.742	7953.42
657.094	8025.51
657.445	8056.92
657.796	8006.53
658.147	8021.67
658.498	7975.12
658.849	8061.21
659.2	8069.58
659.551	8015.11
659.902	8081.1
660.253	8093.3
660.604	8028.67
660.955	8076.36
661.306	8075.45
661.656	8007.2
662.007	8051.95
662.358	8083.36
662.708	8146.18
663.059	8103.93
663.409	8010.14
663.76	8131.72
664.11	8063.47
664.461	8110.48
664.811	8150.03
665.161	8052.4
665.511	8084.26
665.862	8162
666.212	8090.82
666.562	8124.26
666.912	8130.14
667.262	8145.28
667.612	8187.54
667.962	8107.77
668.312	8115.68
668.662	8176.47
669.011	8147.54
669.361	8114.55
669.711	8087.2
670.06	8104.15
670.41	8133.08
670.76	8093.98
671.109	8088.11
671.459	8113.42
671.808	8112.74
672.157	8066.41
672.507	8011.5
672.856	7998.84
673.205	8082.68
673.554	8019.18
673.904	8028.45
674.253	8063.02
674.602	8057.6
674.951	7855.12
675.3	7916.81
675.649	7947.32
675.998	8005.62
676.346	7941.44
676.695	7988.22
677.044	7952.74
677.393	7995.68
677.741	7989.13
678.09	7957.04
678.438	7966.53
678.787	7935.12
679.135	7878.62
679.484	7859.19
679.832	7884.72
680.181	7811.28
680.529	7830.49
680.877	7863.48
681.225	7826.87
681.573	7843.82
681.922	7794.55
682.27	7813.31
682.618	7754.78
682.966	7786.87
683.314	7782.13
683.661	7760.43
684.009	7634.56
684.357	7705.52
684.705	7655.58
685.053	7691.73
685.4	7689.92
685.748	7600.66
686.095	7601.11
686.443	7534.67
686.79	7587.1
687.138	7570.38
687.485	7539.65
687.832	7570.61
688.18	7550.49
688.527	7439.99
688.874	7440.67
689.221	7432.98
689.568	7467.78
689.915	7398.41
690.262	7369.03
690.609	7343.27
690.956	7330.16
691.303	7318.18
691.65	7241.12
691.997	7272.99
692.344	7223.95
692.69	7244.51
693.037	7202.93
693.383	7125.65
693.73	7197.06
694.077	7114.35
694.423	7084.29
694.769	7102.37
695.116	7037.29
695.462	7026.21
695.808	7009.26
696.155	7071.86
696.501	7000.9
696.847	6953.22
697.193	6872.09
697.539	6896.5
697.885	6761.36
698.231	6836.39
698.577	6753.45
698.923	6781.7
699.269	6780.57
699.614	6694.92
699.96	6682.27
700.306	6731.08
700.651	6630.52
700.997	6657.41
701.342	6589.84
701.688	6624.19
702.033	6599.56
702.379	6576.96
702.724	6548.49
703.069	6491.99
703.415	6447.02
703.76	6444.53
704.105	6402.28
704.45	6466.45
704.795	6373.35
705.14	6373.8
705.485	6295.84
705.83	6334.03
706.175	6305.78
706.52	6261.26
706.865	6249.74
707.209	6242.51
707.554	6154.15
707.899	6198.21
708.243	6194.15
708.588	6194.37
708.932	6138.1
709.277	6135.62
709.621	6054.26
709.966	6076.18
710.31	6078.44
710.654	6038.44
710.998	6033.25
711.342	6061.49
711.687	6035.05
712.031	5981.5
712.375	5995.28
712.719	6015.84
713.063	5950.08
713.407	5995.51
713.75	5956.41
714.094	5982.63
714.438	5925.68
714.782	5921.38
715.125	5938.11
715.469	5931.33
715.812	5867.6
716.156	5833.25
716.499	5864.44
716.843	5841.16
717.186	5825.12
717.53	5841.84
717.873	5823.53
718.216	5840.03
718.559	5845.91
718.902	5803.65
719.246	5756.19
719.589	5756.64
719.932	5758.9
720.275	5745.8
720.617	5715.06
720.96	5718.68
721.303	5805
721.646	5747.38
721.989	5707.83
722.331	5726.81
722.674	5727.72
723.016	5713.25
723.359	5669.64
723.701	5724.33
724.044	5699.47
724.386	5666.25
724.729	5697.21
725.071	5694.95
725.413	5745.12
725.755	5635.29
726.097	5633.48
726.439	5628.51
726.782	5640.49
727.124	5720.94
727.465	5639.81
727.807	5643.43
728.149	5623.09
728.491	5628.06
728.833	5643.88
729.175	5640.04
729.516	5678.68
729.858	5598.68
730.199	5699.24
730.541	5648.4
730.882	5635.06
731.224	5642.75
731.565	5661.28
731.906	5631.45
732.248	5628.51
732.589	5644.78
732.93	5568.17
733.271	5653.82
733.612	5656.08
733.953	5630.77
734.294	5652.24
734.635	5655.4
734.976	5652.92
735.317	5589.42
735.658	5646.81
735.999	5665.57
736.339	5665.12
736.68	5669.87
737.021	5719.36
737.361	5668.74
737.702	5663.76
738.042	5679.58
738.383	5725.46
738.723	5748.73
739.063	5710.99
739.404	5715.74
739.744	5673.48
740.084	5767.04
740.424	5732.91
740.764	5745.57
741.104	5774.95
741.444	5767.04
741.784	5800.94
742.124	5839.8
742.464	5854.49
742.804	5881.61
743.143	5906.47
743.483	5902.85
743.823	5861.5
744.162	5925.9
744.502	5932.68
744.841	5924.55
745.181	5997.09
745.52	6031.21
745.86	6077.54
746.199	6056.52
746.538	6183.3
746.877	6171.09
747.216	6238.89
747.556	6240.47
747.895	6307.81
748.234	6345.55
748.573	6388.49
748.911	6470.75
749.25	6524.98
749.589	6486.57
749.928	6593.68
750.267	6677.75
750.605	6759.55
750.944	6794.13
751.283	6841.81
751.621	6988.47
751.96	6999.32
752.298	7110.73
752.636	7171.29
752.975	7291.29
753.313	7329.93
753.651	7504.39
753.989	7602.92
754.327	7669.13
754.666	7729.92
755.004	7945.96
755.342	8058.5
755.679	8171.27
756.017	8247.42
756.355	8402
756.693	8570.35
757.031	8697.81
757.368	8846.96
757.706	8995.65
758.044	9070.68
758.381	9330.33
758.719	9386.6
759.056	9617.33
759.394	9739.59
759.731	9809.64
760.068	10019.58
760.405	10199.24
760.743	10329.4
761.08	10560.81
761.417	10648.27
761.754	10863.85
762.091	11066.11
762.428	11162.83
762.765	11349.72
763.102	11558.98
763.438	11691.63
763.775	11795.13
764.112	12092.97
764.449	12229.24
764.785	12371.16
765.122	12541.77
765.458	12682.34
765.795	12816.34
766.131	13046.62
766.467	13101.99
766.804	13241.19
767.14	13409.1
767.476	13626.04
767.812	13681.63
768.148	13916.65
768.485	13978.35
768.821	14081.4
769.157	14297.43
769.492	14411.56
769.828	14519.8
770.164	14593.7
770.5	14728.16
770.836	14897.42
771.171	14936.51
771.507	14964.54
771.842	15176.51
772.178	15234.36
772.513	15342.15
772.849	15444.07
773.184	15514.35
773.519	15695.59
773.855	15677.74
774.19	15815.81
774.525	15793.67
774.86	15937.62
775.195	15966.09
775.53	16063.49
775.865	16122.02
776.2	16111.62
776.535	16109.36
776.87	16241.79
777.205	16284.95
777.539	16299.64
777.874	16432.07
778.209	16391.84
778.543	16429.36
778.878	16462.58
779.212	16501.22
779.547	16515
779.881	16645.85
780.215	16632.97
780.55	16702.34
780.884	16733.3
781.218	16700.76
781.552	16749.57
781.886	16687.2
782.22	16728.78
782.554	16724.04
782.888	16628.9
783.222	16605.85
783.556	16655.56
783.889	16698.73
784.223	16628.9
784.557	16551.84
784.89	16692.17
785.224	16590.93
785.557	16597.04
785.891	16587.32
786.224	16518.39
786.558	16730.59
786.891	16597.49
787.224	16589.8
787.557	16499.41
787.891	16606.98
788.224	16628.67
788.557	16582.35
788.89	16643.59
789.223	16580.09
789.556	16550.26
789.888	16505.74
790.221	16390.26
790.554	16361.34
790.887	16497.6
791.219	16369.7
791.552	16343.71
791.884	16208.8
792.217	16351.17
792.549	16215.8
792.882	16212.64
793.214	16220.32
793.546	16215.58
793.879	16184.39
794.211	16064.62
794.543	16176.03
794.875	16155.47
795.207	16166.54
795.539	16002.93
795.871	16088.12
796.203	15964.96
796.535	15889.26
796.867	15903.49
797.198	15896.71
797.53	15860.11
797.862	15712.31
798.193	15789.6
798.525	15792.08
798.856	15817.62
799.188	15578.98
799.519	15587.12
799.85	15449.72
800.182	15445.88
800.513	15530.4
800.844	15488.82
801.175	15509.15
801.506	15526.33
801.837	15444.52
802.168	15381.93
802.499	15391.64
802.83	15272.1
803.161	15251.76
803.491	15270.74
803.822	15285.43
804.153	15181.93
804.483	15186.22
804.814	15053.12
805.145	15087.24
805.475	15037.08
805.805	14918.89
806.136	14996.4
806.466	15023.97
806.796	14864.65
807.126	14906.01
807.457	14833.92
807.787	14888.61
808.117	14876.85
808.447	14699.01
808.777	14770.87
809.107	14725.67
809.436	14698.33
809.766	14771.77
810.096	14588.5
810.426	14566.58
810.755	14557.31
811.085	14580.82
811.414	14558.67
811.744	14458.56
812.073	14404.78
812.403	14430.76
812.732	14350.09
813.061	14375.4
813.39	14298.11
813.719	14300.82
814.049	14271.9
814.378	14221.28
814.707	14207.95
815.036	14287.27
815.365	14226.48
815.693	14044.33
816.022	14047.95
816.351	14055.18
816.68	13899.25
817.008	14020.61
817.337	13956.65
817.665	13821.52
817.994	13929.08
818.322	13910.78
818.651	13888.86
818.979	13843.66
819.307	13928.18
819.636	13859.71
819.964	13758.01
820.292	13820.84
820.62	13775.41
820.948	13736.77
821.276	13860.61
821.604	13683.89
821.932	13798.46
822.259	13806.83
822.587	13799.37
822.915	13720.95
823.243	13784
823.57	13748.97
823.898	13764.79
824.225	13713.95
824.553	13712.37
824.88	13765.7
825.207	13823.77
825.535	13661.07
825.862	13762.53
826.189	13736.77
826.516	13779.03
826.843	13854.51
827.17	13731.12
827.497	13798.92
827.824	13821.06
828.151	13781.06
828.478	13806.37
828.805	13885.24
829.131	13770.89
829.458	13751.69
829.785	13763.66
830.111	13757.79
830.438	13811.12
830.764	13797.56
831.09	13868.75
831.417	13755.75
831.743	13771.57
832.069	13787.84
832.395	13694.29
832.722	13737
833.048	13719.6
833.374	13736.55
833.7	13660.39
834.026	13746.49
834.351	13652.03
834.677	13655.87
835.003	13675.76
835.329	13605.02
835.654	13654.29
835.98	13555.08
836.306	13662.88
836.631	13488.64
836.956	13588.53
837.282	13581.3
837.607	13518.7
837.932	13461.07
838.258	13553.95
838.583	13503.33
838.908	13368.19
839.233	13451.13
839.558	13471.92
839.883	13255.2
840.208	13288.87
840.533	13263.34
840.858	13317.12
841.182	13308.53
841.507	13267.18
841.832	13272.6
842.156	13271.93
842.481	13288.42
842.805	13193.74
843.13	13203
843.454	13170.46
843.778	13055.89
844.103	13076.45
844.427	12962.78
844.751	13092.04
845.075	12986.06
845.399	12955.55
845.723	12868.09
846.047	12837.13
846.371	12723.24
846.695	12812.28
847.019	12736.57
847.343	12661.55
847.666	12584.94
847.99	12607.76
848.313	12564.15
848.637	12479.63
848.96	12487.76
849.284	12450.93
849.607	12289.13
849.931	12225.17
850.254	12130.26
850.577	12142.24
850.9	12014.33
851.223	12084.84
851.546	12014.56
851.869	11896.82
852.192	12004.84
852.515	11919.87
852.838	11875.8
853.161	11846.43
853.483	11739.54
853.806	11682.81
854.129	11686.88
854.451	11734.79
854.774	11634.23
855.096	11564.63
855.419	11542.25
855.741	11468.81
856.063	11460.9
856.385	11431.07
856.708	11390.84
857.03	11355.82
857.352	11278.76
857.674	11267.68
857.996	11236.27
858.318	11191.08
858.64	11221.36
858.961	11153.79
859.283	11118.99
859.605	11045.54
859.926	11115.15
860.248	11050.51
860.57	10965.32
860.891	11009.61
861.212	10921.48
861.534	10994.47
861.855	10857.53
862.176	10989.05
862.498	10911.99
862.819	10880.8
863.14	10820.46
863.461	10853.68
863.782	10738.21
864.103	10810.07
864.424	10714.93
864.745	10760.35
865.065	10762.16
865.386	10608.72
865.707	10669.96
866.027	10679.9
866.348	10677.64
866.668	10661.6
866.989	10585.89
867.309	10587.25
867.63	10573.69
867.95	10621.6
868.27	10524.43
868.59	10507.25
868.91	10433.58
869.23	10517.65
869.55	10392.9
869.87	10458.89
870.19	10442.85
870.51	10398.1
870.83	10385.67
871.15	10323.08
871.469	10346.13
871.789	10409.4
872.109	10317.2
872.428	10296.86
872.748	10310.87
873.067	10300.48
873.386	10255.06
873.706	10263.64
874.025	10243.08
874.344	10216.86
874.663	10164.66
874.982	10197.88
875.301	10202.4
875.62	10157.66
875.939	10118.34
876.258	10110.2
876.577	10087.6
876.896	10006.7
877.214	10006.02
877.533	10047.15
877.852	9929.87
878.17	10024.33
878.489	10010.77
878.807	10012.35
879.125	10004.44
879.444	9964.22
879.762	9932.13
880.08	9883.31
880.398	9888.51
880.716	9854.16
881.034	9792.47
881.352	9850.55
881.67	9784.33
881.988	9790.21
882.306	9749.53
882.624	9713.15
882.941	9708.4
883.259	9653.72
883.577	9709.76
883.894	9628.86
884.212	9689.19
884.529	9602.87
884.846	9615.75
885.164	9551.8
885.481	9565.36
885.798	9508.41
886.115	9474.74
886.432	9521.29
886.75	9488.97
887.067	9489.65
887.383	9467.28
887.7	9407.17
888.017	9407.39
888.334	9453.49
888.651	9292.37
888.967	9370.33
889.284	9320.39
889.6	9321.29
889.917	9255.99
890.233	9173.73
890.55	9192.48
890.866	9236.1
891.182	9136.89
891.498	9087.18
891.815	9077.46
892.131	9065.26
892.447	9070.68
892.763	9003.56
893.079	8971.47
893.395	8907.75
893.71	8952.72
894.026	8953.17
894.342	8801.08
894.657	8859.16
894.973	8792.27
895.289	8764.02
895.604	8774.64
895.92	8642.67
896.235	8705.72
896.55	8630.01
896.865	8672.95
897.181	8545.27
897.496	8611.03
897.811	8556.34
898.126	8585.95
898.441	8484.48
898.756	8438.83
899.071	8457.59
899.386	8380.3
899.7	8367.65
900.015	8323.35
900.33	8217.59
900.644	8222.11
900.959	8243.36
901.273	8275.22
901.588	8211.95
901.902	8173.08
902.216	8126.98
902.531	8032.97
902.845	8097.6
903.159	7975.12
903.473	8004.04
903.787	7924.95
904.101	7917.26
904.415	7966.98
904.729	7920.43
905.042	7737.38
905.356	7782.58
905.67	7790.26
905.984	7756.82
906.297	7744.84
906.611	7688.8
906.924	7663.26
907.237	7652.86
907.551	7629.81
907.864	7577.39
908.177	7603.37
908.491	7523.38
908.804	7484.05
909.117	7489.7
909.43	7385.75
909.743	7390.27
910.056	7365.87
910.368	7372.19
910.681	7269.15
910.994	7255.13
911.307	7241.12
911.619	7209.03
911.932	7181.92
912.244	7105.53
912.557	7191.86
912.869	7086.1
913.181	6993.22
913.494	7038.87
913.806	7009.72
914.118	6956.16
914.43	6863.51
914.742	6928.36
915.054	6891.98
915.366	6889.72
915.678	6804.3
915.99	6762.72
916.302	6757.75
916.613	6698.99
916.925	6707.8
917.236	6695.6
917.548	6670.74
917.859	6693.79
918.171	6588.48
918.482	6540.58
918.794	6559.56
919.105	6516.17
919.416	6489.05
919.727	6449.73
920.038	6459.9
920.349	6450.86
920.66	6391.43
920.971	6350.75
921.282	6353.91
921.593	6335.84
921.903	6282.5
922.214	6280.7
922.525	6294.03
922.835	6249.51
923.146	6193.47
923.456	6208.83
923.767	6160.7
924.077	6124.99
924.387	6124.99
924.697	6084.09
925.008	6070.98
925.318	6026.24
925.628	6029.86
925.938	5930.42
926.248	5906.47
926.558	5937.2
926.867	5926.58
927.177	5841.61
927.487	5887.49
927.796	5782.4
928.106	5803.65
928.416	5776.3
928.725	5732.91
929.034	5730.65
929.344	5718.68
929.653	5718
929.962	5700.37
930.271	5663.09
930.581	5581.73
930.89	5563.2
931.199	5583.09
931.508	5579.02
931.817	5525.69
932.125	5472.81
932.434	5506.48
932.743	5419.25
933.051	5428.29
933.36	5379.03
933.669	5415.86
933.977	5423.54
934.286	5380.38
934.594	5341.96
934.902	5273.72
935.21	5255.64
935.519	5329.99
935.827	5264.45
936.135	5272.59
936.443	5175.19
936.751	5141.29
937.059	5158.47
937.367	5142.87
937.674	5162.31
937.982	5073.95
938.29	5071.24
938.597	5090.22
938.905	5001.18
939.213	5005.93
939.52	4998.24
939.827	4983.33
940.135	4926.61
940.442	4901.98
940.749	4915.08
941.056	4938.81
941.363	4916.89
941.67	4823.33
941.977	4776.56
942.284	4810.23
942.591	4815.2
942.898	4806.61
943.205	4765.48
943.511	4753.28
943.818	4678.7
944.125	4719.38
944.431	4624.92
944.738	4650.91
945.044	4656.11
945.35	4608.2
945.657	4585.37
945.963	4537.24
946.269	4529.1
946.575	4484.81
946.881	4523.68
947.187	4506.73
947.493	4458.37
947.799	4488.2
948.105	4429.9
948.41	4393.29
948.716	4396
949.022	4355.32
949.327	4336.79
949.633	4377.7
949.938	4352.61
950.244	4294.76
950.549	4282.56
950.854	4271.26
951.16	4224.25
951.465	4224.48
951.77	4219.73
952.075	4162.79
952.38	4169.11
952.685	4163.24
952.99	4123.47
953.294	4094.77
953.599	4111.71
953.904	4069.91
954.209	4053.64
954.513	4064.03
954.818	4004.15
955.122	4023.58
955.426	4000.98
955.731	4006.86
956.035	3950.81
956.339	3949.23
956.643	3909.23
956.948	3899.74
957.252	3867.43
957.556	3906.52
957.86	3859.07
958.163	3857.94
958.467	3805.28
958.771	3798.5
959.075	3792.85
959.378	3791.72
959.682	3784.49
959.985	3756.24
960.289	3718.05
960.592	3667.21
960.896	3719.41
961.199	3677.6
961.502	3718.73
961.805	3646.42
962.108	3641.44
962.411	3670.14
962.714	3600.54
963.017	3614.78
963.32	3597.83
963.623	3584.72
963.926	3570.71
964.228	3552.18
964.531	3515.12
964.833	3521.45
965.136	3459.08
965.438	3453.2
965.741	3450.94
966.043	3434.67
966.345	3426.08
966.648	3367.78
966.95	3409.81
967.252	3377.5
967.554	3386.54
967.856	3320.1
968.158	3338.4
968.46	3329.14
968.761	3308.12
969.063	3313.77
969.365	3292.07
969.666	3260.66
969.968	3256.6
970.269	3218.63
970.571	3245.52
970.872	3193.77
971.174	3200.55
971.475	3155.81
971.776	3179.31
972.077	3154
972.378	3094.34
972.679	3139.08
972.98	3130.04
973.281	3130.5
973.582	3075.81
973.883	3032.19
974.183	3073.78
974.484	3062.93
974.785	3032.19
975.085	3057.73
975.386	3035.36
975.686	3012.31
975.986	3009.37
976.287	2988.13
976.587	2944.06
976.887	2935.47
977.187	2913.78
977.487	2938.41
977.787	2884.18
978.087	2832.43
978.387	2881.01
978.687	2845.31
978.987	2855.7
979.286	2872.42
979.586	2835.82
979.885	2802.82
980.185	2789.71
980.484	2801.24
980.784	2776.83
981.083	2773.22
981.382	2770.73
981.682	2720.34
981.981	2765.76
982.28	2719.66
982.579	2697.06
982.878	2709.04
983.177	2678.08
983.475	2689.15
983.774	2666.1
984.073	2631.75
984.372	2625.88
984.67	2617.97
984.969	2628.82
985.267	2613.9
985.566	2602.83
985.864	2554.24
986.162	2541.13
986.461	2555.14
986.759	2561.47
987.057	2509.27
987.355	2516.95
987.653	2553.56
987.951	2515.6
988.249	2483.73
988.547	2470.85
988.844	2448.03
989.142	2478.54
989.44	2445.54
989.737	2423.17
990.035	2432.89
990.332	2415.94
990.63	2424.3
990.927	2401.48
991.224	2370.06
991.521	2393.12
991.819	2352.44
992.116	2374.58
992.413	2315.15
992.71	2311.99
993.006	2273.8
993.303	2300.24
993.6	2289.16
993.897	2268.82
994.193	2261.59
994.49	2266.79
994.787	2261.59
995.083	2206.23
995.379	2216.4
995.676	2219.11
995.972	2195.38
996.268	2169.17
996.565	2193.57
996.861	2159
997.157	2154.93
997.453	2142.73
997.749	2128.72
998.044	2099.11
998.34	2132.78
998.636	2106.79
998.932	2093.91
999.227	2106.12
999.523	2080.13
999.818	2086
1000.114	2047.36
1000.409	2031.77
1000.704	2051.88
1001	2027.93
1001.295	1984.31
1001.59	2009.85
1001.885	2008.94
1002.18	1967.59
1002.475	2008.27
1002.77	1951.54
1003.065	1944.77
1003.359	1954.71
1003.654	1937.08
1003.949	1920.81
1004.243	1901.15
1004.538	1858.89
1004.832	1889.85
1005.127	1901.83
1005.421	1874.26
1005.715	1849.17
1006.009	1820.25
1006.304	1810.98
1006.598	1795.84
1006.892	1799.91
1007.186	1810.98
1007.48	1786.8
1007.773	1784.09
1008.067	1754.71
1008.361	1740.7
1008.655	1756.07
1008.948	1743.64
1009.242	1719.46
1009.535	1707.94
1009.829	1709.29
1010.122	1693.25
1010.415	1696.41
1010.708	1658.22
1011.001	1662.51
1011.295	1639.24
1011.588	1624.77
1011.881	1625.9
1012.173	1642.17
1012.466	1616.64
1012.759	1616.41
1013.052	1618.22
1013.344	1627.26
1013.637	1616.41
1013.93	1588.84
1014.222	1592.46
1014.514	1527.6
1014.807	1537.77
1015.099	1522.4
1015.391	1556.53
1015.683	1513.82
1015.976	1504.1
1016.268	1493.48
1016.56	1514.72
1016.851	1498.68
1017.143	1468.62
1017.435	1450.54
1017.727	1475.63
1018.018	1433.82
1018.31	1443.31
1018.602	1449.86
1018.893	1437.43
1019.185	1469.07
1019.476	1417.55
1019.767	1380.71
1020.058	1393.59
1020.35	1373.71
1020.641	1373.25
1020.932	1396.08
1021.223	1335.74
1021.514	1320.83
1021.804	1302.3
1022.095	1328.51
1022.386	1294.84
1022.677	1312.47
1022.967	1294.16
1023.258	1266.59
1023.548	1294.61
1023.839	1276.08
1024.129	1253.03
1024.419	1261.62
1024.709	1252.58
1025	1233.15
1025.29	1246.25
1025.58	1210.1
1025.87	1215.29
1026.16	1199.93
1026.449	1213.71
1026.739	1192.47
1027.029	1203.54
1027.319	1175.52
1027.608	1170.32
1027.898	1170.77
1028.187	1163.77
1028.477	1129.19
1028.766	1138.46
1029.055	1144.79
1029.344	1122.87
1029.634	1137.55
1029.923	1114.05
1030.212	1109.76
1030.501	1112.92
1030.79	1100.27
1031.078	1069.53
1031.367	1076.31
1031.656	1054.62
1031.945	1079.93
1032.233	1067.5
1032.522	1065.24
1032.81	1048.29
1033.099	1052.13
1033.387	1029.76
1033.675	1019.59
1033.963	1026.15
1034.251	1012.36
1034.54	1016.2
1034.828	990.44
1035.116	989.31
1035.403	959.71
1035.691	989.99
1035.979	1002.64
1036.267	962.87
1036.554	962.87
1036.842	973.49
1037.129	954.06
1037.417	939.82
1037.704	942.53
1037.992	941.18
1038.279	927.62
1038.566	909.31
1038.853	909.31
1039.14	909.31
