Data from hue_40_FLMS001491_83.txt Node
Date: Mon Feb 06 15:08:40 GMT 2017
User: dcchb
Spectrometer: FLMS00149
Trigger mode: 0
Integration Time (sec): 2.000000E-2
Scans to average: 10
Electric dark correction enabled: true
Nonlinearity correction enabled: false
Boxcar width: 0
XAxis mode: Wavelengths
Number of Pixels in Spectrum: 2048
>>>>>Begin Spectral Data<<<<<
341.393	-18.29
341.776	-18.29
342.16	-18.29
342.543	-40.21
342.927	-63.26
343.31	-43.6
343.693	-53.32
344.077	-69.59
344.46	-75.01
344.843	-46.54
345.226	-42.92
345.61	-35.92
345.993	-30.04
346.376	-3.6
346.759	14.7
347.142	24.87
347.525	49.96
347.908	58.77
348.291	64.65
348.674	88.37
349.057	99.22
349.44	131.54
349.823	151.87
350.206	180.35
350.588	178.99
350.971	209.5
351.354	221.7
351.737	249.05
352.119	263.51
352.502	246.34
352.884	287.69
353.267	285.66
353.65	286.11
354.032	328.37
354.414	332.43
354.797	315.49
355.179	319.55
355.562	331.98
355.944	338.76
356.326	321.59
356.709	360.68
357.091	326.79
357.473	343.28
357.855	352.1
358.238	358.65
358.62	326.56
359.002	347.58
359.384	349.16
359.766	358.65
360.148	348.48
360.53	350.51
360.912	315.71
361.294	322.49
361.676	320.46
362.057	334.47
362.439	318.65
362.821	344.19
363.203	338.08
363.584	327.92
363.966	354.36
364.348	332.89
364.729	353.23
365.111	336.05
365.493	336.05
365.874	312.77
366.256	331.3
366.637	318.88
367.019	333.56
367.4	313.23
367.781	328.59
368.163	324.07
368.544	315.94
368.925	314.58
369.306	347.12
369.688	314.36
370.069	311.64
370.45	339.67
370.831	321.14
371.212	315.26
371.593	305.99
371.974	325.66
372.355	304.86
372.736	322.49
373.117	315.03
373.498	316.62
373.879	333.56
374.26	334.24
374.641	321.59
375.021	312.32
375.402	343.06
375.783	325.88
376.163	337.41
376.544	348.03
376.925	322.72
377.305	343.96
377.686	342.6
378.066	322.04
378.447	364.52
378.827	327.46
379.208	324.07
379.588	354.36
379.968	358.65
380.349	345.32
380.729	329.05
381.109	332.43
381.489	344.19
381.87	342.6
382.25	339.67
382.63	355.94
383.01	359.78
383.39	352.55
383.77	326.56
384.15	347.35
384.53	349.61
384.91	356.61
385.29	336.73
385.67	352.77
386.049	371.98
386.429	368.14
386.809	371.3
387.189	353.68
387.568	369.04
387.948	364.52
388.328	373.34
388.707	352.55
389.087	361.59
389.466	377.41
389.846	376.28
390.225	354.81
390.605	380.57
390.984	370.17
391.363	374.24
391.743	370.4
392.122	366.11
392.501	373.11
392.881	387.12
393.26	388.03
393.639	378.54
394.018	385.99
394.397	366.56
394.776	392.09
395.155	381.47
395.534	394.35
395.913	385.09
396.292	387.8
396.671	378.99
397.05	387.12
397.429	410.62
397.808	377.86
398.186	382.6
398.565	416.27
398.944	426.67
399.323	397.07
399.701	414.47
400.08	428.25
400.458	400.46
400.837	406.11
401.215	402.26
401.594	400.68
401.972	378.31
402.351	418.76
402.729	408.36
403.107	414.01
403.486	414.01
403.864	423.73
404.242	426.44
404.62	417.18
404.999	417.63
405.377	431.87
405.755	415.6
406.133	418.76
406.511	426.22
406.889	460.34
407.267	446.1
407.645	446.56
408.023	432.09
408.401	440.91
408.779	470.74
409.156	445.43
409.534	459.89
409.912	437.29
410.29	467.57
410.667	468.02
411.045	457.4
411.422	480.91
411.8	468.02
412.178	488.59
412.555	468.02
412.933	468.7
413.31	483.39
413.687	482.26
414.065	484.75
414.442	490.62
414.819	490.62
415.197	490.4
415.574	500.57
415.951	508.48
416.328	496.95
416.705	502.83
417.082	516.84
417.46	508.25
417.837	512.99
418.214	508.93
418.591	507.12
418.967	529.72
419.344	529.04
419.721	528.14
420.098	547.34
420.475	561.36
420.852	520.9
421.228	571.98
421.605	529.04
421.982	573.33
422.358	570.17
422.735	572.65
423.111	562.03
423.488	563.39
423.864	546.44
424.241	592.31
424.617	568.81
424.994	561.81
425.37	572.43
425.746	563.62
426.123	570.62
426.499	593.67
426.875	580.56
427.251	591.19
427.627	605.87
428.003	577.4
428.379	625.08
428.756	627.12
429.132	628.7
429.507	637.06
429.883	640.22
430.259	623.27
430.635	634.12
431.011	638.42
431.387	641.35
431.763	639.55
432.138	662.14
432.514	666.21
432.89	679.32
433.265	677.96
433.641	672.09
434.016	676.83
434.392	685.42
434.767	702.37
435.143	696.27
435.518	714.8
435.894	709.15
436.269	716.38
436.644	697.4
437.02	749.37
437.395	737.85
437.77	753.21
438.145	739.43
438.52	734.01
438.895	766.77
439.271	776.94
439.646	751.63
440.021	757.96
440.395	783.95
440.77	774.68
441.145	776.04
441.52	795.47
441.895	806.77
442.27	792.99
442.645	805.64
443.019	815.81
443.394	813.1
443.769	792.76
444.143	823.5
444.518	851.74
444.892	835.47
445.267	833.44
445.641	848.58
446.016	834.12
446.39	822.59
446.764	861.23
447.139	841.57
447.513	848.81
447.887	852.87
448.262	876.6
448.636	891.06
449.01	874.12
449.384	917.96
449.758	892.87
450.132	913.44
450.506	913.66
450.88	913.21
451.254	922.02
451.628	930.39
452.002	934.45
452.376	931.06
452.75	947.11
453.123	965.19
453.497	970.84
453.871	979.88
454.244	988.01
454.618	978.07
454.992	995.69
455.365	1007.22
455.739	1042.25
456.112	1010.38
456.486	1038.4
456.859	1051.51
457.232	1069.36
457.606	1073.21
457.979	1071.17
458.352	1089.25
458.725	1120.21
459.099	1137.61
459.472	1106.88
459.845	1138.97
460.218	1144.39
460.591	1171.51
460.964	1172.41
461.337	1211.73
461.71	1233.43
462.083	1216.03
462.456	1231.85
462.829	1240.21
463.201	1262.81
463.574	1260.32
463.947	1280.43
464.32	1322.69
464.692	1312.07
465.065	1324.5
465.438	1368.34
465.81	1343.71
466.183	1371.5
466.555	1395.23
466.928	1429.13
467.3	1411.5
467.672	1442.69
468.045	1473.65
468.417	1503.25
468.789	1498.28
469.161	1536.24
469.534	1543.02
469.906	1590.03
470.278	1614.66
470.65	1606.98
471.022	1650.14
471.394	1713.19
471.766	1663.7
472.138	1735.56
472.51	1800.42
472.882	1831.6
473.253	1813.98
473.625	1843.58
473.997	1894.65
474.369	1905.95
474.74	2010.13
475.112	1993.63
475.484	2044.93
475.855	2100.75
476.227	2139.84
476.598	2176.23
476.97	2250.35
477.341	2264.59
477.713	2305.94
478.084	2338.03
478.455	2430.91
478.827	2488.76
479.198	2544.13
479.569	2599.72
479.94	2626.61
480.311	2758.36
480.682	2811.69
481.053	2898.24
481.424	2941.63
481.795	2976.89
482.166	3069.54
482.537	3140.95
482.908	3238.57
483.279	3257.78
483.65	3362.86
484.021	3470.88
484.391	3547.27
484.762	3604.67
485.133	3650.54
485.503	3769.41
485.874	3871.55
486.244	3929.85
486.615	4050.98
486.985	4153.8
487.356	4218.21
487.726	4316.06
488.097	4440.12
488.467	4501.59
488.837	4638.54
489.207	4733
489.578	4854.35
489.948	4935.7
490.318	5063.38
490.688	5139.77
491.058	5220.67
491.428	5360.1
491.798	5471.96
492.168	5556.48
492.538	5666.98
492.908	5789.24
493.278	5869.46
493.648	5930.93
494.017	6038.95
494.387	6191.04
494.757	6287.76
495.126	6367.08
495.496	6459.05
495.866	6558.71
496.235	6686.62
496.605	6764.58
496.974	6897.23
497.344	6925.03
497.713	6999.38
498.082	7160.28
498.452	7292.93
498.821	7319.37
499.19	7406.6
499.559	7549.42
499.928	7536.09
500.298	7675.29
500.667	7746.7
501.036	7795.06
501.405	8000.93
501.774	8028.28
502.143	8135.17
502.512	8171.32
502.88	8293.36
503.249	8313.47
503.618	8434.14
503.987	8529.28
504.356	8610.86
504.724	8657.87
505.093	8765.43
505.462	8719.56
505.83	8937.86
506.199	9004.52
506.567	9156.84
506.936	9138.3
507.304	9267.57
507.672	9308.92
508.041	9374.46
508.409	9431.4
508.777	9533.1
509.145	9662.13
509.514	9665.97
509.882	9811.73
510.25	9835.91
510.618	9909.36
510.986	9960.2
511.354	10033.42
511.722	10153.19
512.09	10297.6
512.458	10193.19
512.826	10442.68
513.193	10474.99
513.561	10513.86
513.929	10620.98
514.297	10722.9
514.664	10701.88
515.032	10801.76
515.4	10920.4
515.767	10968.99
516.135	11000.18
516.502	11066.62
516.869	11166.27
517.237	11205.82
517.604	11204.69
517.972	11427.74
518.339	11452.59
518.706	11477.9
519.073	11542.08
519.44	11571.69
519.808	11684.45
520.175	11761.29
520.542	11895.07
520.909	11883.32
521.276	12004.9
521.643	12171.22
522.009	12154.95
522.376	12305
522.743	12393.81
523.11	12438.11
523.477	12487.37
523.843	12686.69
524.21	12744.54
524.577	12786.8
524.943	12907.02
525.31	12978.2
525.676	12991.99
526.043	13023.63
526.409	13146.34
526.776	13316.5
527.142	13271.98
527.508	13374.35
527.874	13496.61
528.241	13610.96
528.607	13625.64
528.973	13768.24
529.339	13788.13
529.705	13839.65
530.071	13990.15
530.437	14020.89
530.803	14122.81
531.169	14236.25
531.535	14238.06
531.901	14345.85
532.267	14417.71
532.632	14513.3
532.998	14544.94
533.364	14656.35
533.73	14626.07
534.095	14814.54
534.461	14777.03
534.826	14906.29
535.192	14958.49
535.557	15055.21
535.923	15014.99
536.288	15118.71
536.653	15151.71
537.019	15180.63
537.384	15241.2
537.749	15424.47
538.114	15484.8
538.479	15432.83
538.845	15559.15
539.21	15469.21
539.575	15569.55
539.94	15748.07
540.305	15784.23
540.67	15775.42
541.034	15805.02
541.399	15920.95
541.764	15862.87
542.129	16032.36
542.494	16071.46
542.858	16207.5
543.223	16200.04
543.587	16336.99
543.952	16376.31
544.316	16471.67
544.681	16327.95
545.045	16492.46
545.41	16670.76
545.774	16569.75
546.138	16648.62
546.503	16665.34
546.867	16698.33
547.231	16979.68
547.595	16916.86
547.959	16996.63
548.324	16961.83
548.688	17008.15
549.052	17137.64
549.416	17089.06
549.779	17183.97
550.143	17209.51
550.507	17317.98
550.871	17428.93
551.235	17412.44
551.599	17569.95
551.962	17595.71
552.326	17534.47
552.689	17795.25
553.053	17784.86
553.417	17754.35
553.78	18018.07
554.143	17796.38
554.507	17990.5
554.87	18021.01
555.234	18335.13
555.597	18083.38
555.96	18167.22
556.323	18278.18
556.686	18301
557.05	18479.53
557.413	18574.22
557.776	18530.15
558.139	18586.19
558.502	18718.39
558.865	18727.66
559.228	18941.89
559.59	18969.68
559.953	18950.93
560.316	19201.32
560.679	19174.43
561.041	19263.91
561.404	19260.75
561.767	19432.72
562.129	19407.64
562.492	19615.09
562.854	19634.98
563.217	19550.69
563.579	19718.59
563.941	19801.75
564.304	19875.2
564.666	20072.03
565.028	19993.61
565.39	20105.25
565.753	20200.16
566.115	20336.65
566.477	20359.7
566.839	20391.79
567.201	20501.62
567.563	20484.9
567.925	20743.42
568.287	20751.56
568.648	20865
569.01	20914.04
569.372	20902.74
569.734	20938.9
570.095	21083.3
570.457	21255.05
570.819	21232.22
571.18	21337.98
571.542	21424.99
571.903	21503.63
572.265	21623.85
572.626	21635.15
572.987	21726.67
573.349	21871.08
573.71	21930.51
574.071	22014.35
574.432	22067.23
574.794	22216.38
575.155	22275.59
575.516	22272.87
575.877	22477.16
576.238	22568.01
576.599	22756.48
576.96	22740.43
577.32	22897.72
577.681	22986.75
578.042	23169.35
578.403	23225.39
578.763	23341.32
579.124	23365.5
579.485	23527.53
579.845	23748.77
580.206	23872.61
580.566	23963.68
580.927	24184.01
581.287	24300.84
581.648	24304.69
582.008	24570.44
582.368	24652.93
582.728	24856.99
583.089	25008.62
583.449	25141.5
583.809	25315.05
584.169	25408.61
584.529	25499.46
584.889	25935.83
585.249	25875.27
585.609	26057.86
585.969	26326.55
586.329	26457.62
586.688	26564.51
587.048	26745.07
587.408	26885.86
587.768	27000.21
588.127	27255.34
588.487	27385.51
588.846	27804.93
589.206	27733.75
589.565	28013.97
589.925	28224.36
590.284	28378.48
590.643	28496.89
591.003	28722.65
591.362	28928.52
591.721	29106.37
592.08	29161.28
592.44	29522.4
592.799	29769.85
593.158	29771.66
593.517	30069.05
593.876	30139.56
594.235	30127.36
594.593	30500.46
594.952	30659.09
595.311	30775.93
595.67	30930.27
596.029	31327.1
596.387	31540.2
596.746	31627.43
597.104	31687.54
597.463	31884.6
597.822	32123.92
598.18	32184.7
598.538	32320.29
598.897	32565.71
599.255	32611.59
599.613	33093.61
599.972	33033.5
600.33	33120.5
600.688	33218.58
601.046	33427.16
601.404	33713.25
601.762	33768.17
602.12	34093.13
602.478	33988.5
602.836	34317.53
603.194	34083.19
603.552	34352.56
603.91	34451.99
604.268	34708.25
604.625	34645.2
604.983	35051.52
605.341	34929.27
605.698	35174.46
606.056	35465.75
606.413	35452.64
606.771	35615.57
607.128	35787.77
607.485	35642.47
607.843	35910.93
608.2	36121.55
608.557	36267.31
608.914	36280.19
609.272	36552.95
609.629	36681.08
609.986	36826.39
610.343	36763.34
610.7	36895.09
611.057	36992.94
611.414	37117
611.771	37126.95
612.127	37359.48
612.484	37399.93
612.841	37559.48
613.198	37634.28
613.554	37711.11
613.911	37898.9
614.267	37935.74
614.624	37881.96
614.98	38024.55
615.337	38262.96
615.693	38208.95
616.05	38446.23
616.406	38514.03
616.762	38488.95
617.118	38637.87
617.475	38567.81
617.831	38750.86
618.187	38822.72
618.543	38909.95
618.899	39170.28
619.255	39135.93
619.611	39203.05
619.967	39285.76
620.323	39464.29
620.678	39291.64
621.034	39285.31
621.39	39376.83
621.746	39436.27
622.101	39852.98
622.457	39589.93
622.812	39649.59
623.168	39766.2
623.523	39694.56
623.879	39752.64
624.234	39536.83
624.589	39892.52
624.945	39959.19
625.3	40027.44
625.655	39983.37
626.01	40018.4
626.365	40155.34
626.72	40039.64
627.075	40003.93
627.43	40116.25
627.785	40025.85
628.14	40179.52
628.495	40116.93
628.85	40087.1
629.205	40018.17
629.559	40293.64
629.914	40152.18
630.269	40098.17
630.623	40032.41
630.978	40115.12
631.332	40279.41
631.687	40389.01
632.041	40170.94
632.396	40292.74
632.75	40032.86
633.104	40060.66
633.459	40130.94
633.813	40135.91
634.167	40055.91
634.521	40032.18
634.875	40054.1
635.229	39998.28
635.583	39794.45
635.937	39936.37
636.291	39828.8
636.645	39923.26
636.999	39872.41
637.352	39898.63
637.706	39684.85
638.06	39818.18
638.413	39766.65
638.767	39702.02
639.121	39768.91
639.474	39626.09
639.828	39636.26
640.181	39742.47
640.534	39689.82
640.888	39646.43
641.241	39490.5
641.594	39579.99
641.947	39733.43
642.301	39644.4
642.654	39647.33
643.007	39612.31
643.36	39472.42
643.713	39358.75
644.066	39647.33
644.419	39299.32
644.771	39202.83
645.124	38740.01
645.477	38791.99
645.83	38442.85
646.182	38304.54
646.535	38177.99
646.888	38305
647.24	38158.56
647.593	38278.1
647.945	38134.83
648.298	38052.35
648.65	38024.55
649.002	37875.4
649.355	38016.19
649.707	37879.02
650.059	38116.75
650.411	38526.01
650.763	38556.29
651.115	39045.09
651.467	38782.95
651.819	38916.73
652.171	38841.03
652.523	38702.27
652.875	38727.81
653.227	38561.94
653.578	38806.9
653.93	38647.36
654.282	38472.45
654.633	38437.87
654.985	38495.73
655.337	38593.12
655.688	38604.87
656.039	38588.83
656.391	38254.83
656.742	38352.45
657.094	38393.58
657.445	38659.79
657.796	38344.32
658.147	38309.52
658.498	38398.33
658.849	38455.5
659.2	38447.59
659.551	38354.94
659.902	38373.02
660.253	38397.87
660.604	38541.37
660.955	38256.41
661.306	38284.88
661.656	38284.66
662.007	38272.91
662.358	38266.35
662.708	38325.56
663.059	38243.08
663.409	38043.53
663.76	38357.42
664.11	38180.48
664.461	38226.58
664.811	38326.69
665.161	38136.86
665.511	38094.83
665.862	38152.68
666.212	38229.29
666.562	38250.31
666.912	38171.44
667.262	38173.47
667.612	38227.48
667.962	38094.38
668.312	38128.05
668.662	38255.28
669.011	37989.07
669.361	38060.03
669.711	38034.04
670.06	37970.09
670.41	37962.63
670.76	37868.4
671.109	38024.78
671.459	38011.9
671.808	37982.52
672.157	37924.44
672.507	37789.3
672.856	37850.54
673.205	37891.67
673.554	37918.11
673.904	37821.62
674.253	37943.88
674.602	37853.26
674.951	37293.72
675.3	37114.74
675.649	37723.09
675.998	37619.14
676.346	37671.11
676.695	37719.7
677.044	37545.02
677.393	37841.05
677.741	37669.08
678.09	37573.49
678.438	37531
678.787	37507.73
679.135	37512.7
679.484	37382.76
679.832	37386.6
680.181	37305.02
680.529	37285.36
680.877	37190.22
681.225	37188.19
681.573	37370.78
681.922	37065.93
682.27	37126.04
682.618	36917.46
682.966	36862.1
683.314	36949.1
683.661	36777.35
684.009	36714.53
684.357	36549.34
684.705	36583.01
685.053	36645.38
685.4	36523.35
685.748	36441.54
686.095	36492.61
686.443	36309.57
686.79	36247.42
687.138	36409.45
687.485	36311.83
687.832	36143.47
688.18	36167.42
688.527	35919.3
688.874	35929.24
689.221	36049.69
689.568	35844.95
689.915	35781.45
690.262	35703.93
690.609	35562.02
690.956	35613.32
691.303	35371.29
691.65	35544.62
691.997	35334.45
692.344	35202.25
692.69	35148.47
693.037	35128.81
693.383	34851.08
693.73	35009.26
694.077	34786.9
694.423	34847.69
694.769	34790.06
695.116	34495.38
695.462	34610.18
695.808	34416.96
696.155	34460.35
696.501	34254.03
696.847	34162.51
697.193	34012.45
697.539	34051.55
697.885	33766.81
698.231	33748.73
698.577	33775.4
698.923	33677.32
699.269	33548.74
699.614	33430.1
699.96	33254.73
700.306	33381.06
700.651	33114.62
700.997	33143.1
701.342	33121.4
701.688	32983.78
702.033	32907.85
702.379	32906.27
702.724	32793.28
703.069	32907.85
703.415	32522.77
703.76	32459.05
704.105	32552.83
704.45	32401.42
704.795	32159.62
705.14	32241.43
705.485	32132.73
705.83	32022.45
706.175	31953.52
706.52	31997.36
706.865	31722.8
707.209	31782.23
707.554	31683.7
707.899	31766.86
708.243	31450.49
708.588	31513.76
708.932	31335.01
709.277	31275.8
709.621	31264.05
709.966	31192.87
710.31	31113.55
710.654	30902.25
710.998	30939.99
711.342	30869.94
711.687	30944.51
712.031	30689.6
712.375	30531.87
712.719	30621.13
713.063	30509.27
713.407	30701.35
713.75	30382.04
714.094	30460.91
714.438	30381.59
714.782	30358.09
715.125	30177.3
715.469	30273.79
715.812	30057.53
716.156	29916.52
716.499	29985.44
716.843	29942.5
717.186	29699.8
717.53	29943.86
717.873	29942.73
718.216	29815.05
718.559	29622.51
718.902	29354.72
719.246	29501.84
719.589	29455.06
719.932	29395.85
720.275	29293.03
720.617	29281.5
720.96	29230.43
721.303	29263.43
721.646	29254.84
721.989	29078.35
722.331	29069.08
722.674	29045.35
723.016	29048.06
723.359	28950.67
723.701	28971.91
724.044	28807.84
724.386	28705.93
724.729	28783.66
725.071	28649.2
725.413	28689.2
725.755	28607.62
726.097	28397.91
726.439	28426.39
726.782	28467.97
727.124	28521.52
727.465	28313.85
727.807	28399.27
728.149	28335.09
728.491	28270.01
728.833	28210.57
729.175	28222.1
729.516	28080.86
729.858	28112.72
730.199	28099.39
730.541	27959.05
730.882	27981.2
731.224	28109.78
731.565	27985.04
731.906	27901.88
732.248	27868.89
732.589	27804.03
732.93	27719.06
733.271	27660.98
733.612	27714.09
733.953	27715.22
734.294	27553.64
734.635	27525.84
734.976	27490.82
735.317	27423.93
735.658	27445.85
735.999	27357.03
736.339	27344.15
736.68	27296.92
737.021	27272.29
737.361	27140.77
737.702	27193.2
738.042	27036.37
738.383	27219.19
738.723	27036.14
739.063	27011.06
739.404	27049.92
739.744	26935.8
740.084	26820.78
740.424	26828.91
740.764	26797.5
741.104	26817.39
741.444	26724.06
741.784	26538.75
742.124	26694.23
742.464	26565.87
742.804	26554.34
743.143	26481.13
743.483	26476.15
743.823	26415.82
744.162	26393.22
744.502	26428.02
744.841	26235.26
745.181	26420.34
745.52	26246.56
745.86	26240.45
746.199	26217.86
746.538	26212.66
746.877	26292.43
747.216	26279.1
747.556	25999.78
747.895	26096.96
748.234	26040.01
748.573	25942.16
748.911	25864.19
749.25	25863.51
749.589	25790.75
749.928	25840.69
750.267	25775.83
750.605	25685.89
750.944	25557.08
751.283	25675.95
751.621	25476.18
751.96	25487.93
752.298	25512.79
752.636	25584.88
752.975	25443.19
753.313	25188.28
753.651	25325
753.989	25106.7
754.327	25249.52
754.666	25062.18
755.004	25019.92
755.342	24940.15
755.679	24998.68
756.017	24792.81
756.355	24887.5
756.693	24754.39
757.031	24808.85
757.368	24617.22
757.706	24678.69
758.044	24520.5
758.381	24556.43
758.719	24355.98
759.056	24545.81
759.394	24305.82
759.731	24313.5
760.068	24122.54
760.405	24160.73
760.743	24049.1
761.08	24085.71
761.417	23999.61
761.754	24012.26
762.091	23842.78
762.428	23698.83
762.765	23672.39
763.102	23670.58
763.438	23433.3
763.775	23345.61
764.112	23441.43
764.449	23390.36
764.785	23295.67
765.122	23195.56
765.458	23158.73
765.795	23060.42
766.131	23052.52
766.467	22904.27
766.804	22827.21
767.14	22757.83
767.476	22777.49
767.812	22572.53
768.148	22720.77
768.485	22482.36
768.821	22336.83
769.157	22283.5
769.492	22257.73
769.828	22264.06
770.164	21942.94
770.5	21939.32
770.836	22057.51
771.171	21892.77
771.507	21801.93
771.842	21695.26
772.178	21683.74
772.513	21570.52
772.849	21486.68
773.184	21441.03
773.519	21452.33
773.855	21353.58
774.19	21250.98
774.525	21083.75
774.86	21106.58
775.195	21113.81
775.53	21057.99
775.865	20833.36
776.2	20757.66
776.535	20584.56
776.87	20639.02
777.205	20521.96
777.539	20411
777.874	20605.35
778.209	20327.62
778.543	20329.88
778.878	20236.32
779.212	20074.74
779.547	20105.02
779.881	20062.76
780.215	19938.7
780.55	19936.67
780.884	19747.97
781.218	19810.34
781.552	19808.53
781.886	19694.19
782.22	19552.27
782.554	19382.78
782.888	19324.25
783.222	19231.37
783.556	19206.29
783.889	19181.66
784.223	19028.67
784.557	18963.36
784.89	18966.75
785.224	18788.45
785.557	18694.21
785.891	18728.79
786.224	18675.46
786.558	18616.25
786.891	18381.23
787.224	18438.85
787.557	18329.02
787.891	18312.53
788.224	18219.42
788.557	18223.72
788.89	18176.03
789.223	18076.37
789.556	17951.18
789.888	18010.39
790.221	17989.82
790.554	17738.76
790.887	17772.43
791.219	17685.2
791.552	17625.54
791.884	17516.62
792.217	17494.02
792.549	17468.26
792.882	17329.5
793.214	17335.83
793.546	17254.25
793.879	17159.56
794.211	17099.23
794.543	17117.53
794.875	17016.29
795.207	17079.79
795.539	16878.44
795.871	16977.19
796.203	16790.08
796.535	16683.19
796.867	16717.31
797.198	16593.7
797.53	16597.77
797.862	16537.88
798.193	16526.36
798.525	16413.14
798.856	16445.46
799.188	16274.84
799.519	16249.08
799.85	16071
800.182	16209.76
800.513	16092.25
800.844	16011.57
801.175	16096.31
801.506	16032.81
801.837	15910.78
802.168	15917.34
802.499	15837.34
802.83	15741.07
803.161	15736.32
803.491	15775.42
803.822	15722.54
804.153	15542.2
804.483	15484.13
804.814	15338.82
805.145	15421.08
805.475	15349.22
805.805	15316
806.136	15350.34
806.466	15363.45
806.796	15318.48
807.126	15123.91
807.457	15140.86
807.787	15110.13
808.117	15093.63
808.447	15024.7
808.777	15025.83
809.107	14974.54
809.436	14950.13
809.766	14994.2
810.096	14755.56
810.426	14781.32
810.755	14695.67
811.085	14815.44
811.414	14700.42
811.744	14590.59
812.073	14512.63
812.403	14581.78
812.732	14485.28
813.061	14453.19
813.39	14465.85
813.719	14356.47
814.049	14309.02
814.378	14325.06
814.707	14242.58
815.036	14187.21
815.365	14246.42
815.693	14143.82
816.022	14004.84
816.351	13992.64
816.68	13955.81
817.008	13938.63
817.337	13848.92
817.665	13882.81
817.994	13860.67
818.322	13848.92
818.651	13803.49
818.979	13783.38
819.307	13740.67
819.636	13741.35
819.964	13645.76
820.292	13695.25
820.62	13655.93
820.948	13583.39
821.276	13719.43
821.604	13570.05
821.932	13574.8
822.259	13611.18
822.587	13649.82
822.915	13536.61
823.243	13636.04
823.57	13516.27
823.898	13584.74
824.225	13567.34
824.553	13555.82
824.88	13593.1
825.207	13527.12
825.535	13516.04
825.862	13549.26
826.189	13461.36
826.516	13599.88
826.843	13564.18
827.17	13677.17
827.497	13436.27
827.824	13498.87
828.151	13535.48
828.478	13613.44
828.805	13571.63
829.131	13479.43
829.458	13445.76
829.785	13515.36
830.111	13478.76
830.438	13491.64
830.764	13429.04
831.09	13511.75
831.417	13414.35
831.743	13489.6
832.069	13476.04
832.395	13348.36
832.722	13510.62
833.048	13460
833.374	13474.69
833.7	13392.43
834.026	13346.1
834.351	13396.5
834.677	13345.2
835.003	13416.84
835.329	13359.89
835.654	13267.46
835.98	13291.42
836.306	13250.74
836.631	13308.14
836.956	13217.97
837.282	13253.68
837.607	13216.62
837.932	13127.35
838.258	13221.36
838.583	13202.83
838.908	13099.78
839.233	13081.7
839.558	13028.82
839.883	12998.32
840.208	12953.57
840.533	13010.97
840.858	13026.34
841.182	12950.63
841.507	12913.12
841.832	12912.44
842.156	12849.17
842.481	12849.85
842.805	12848.49
843.13	12806.23
843.454	12746.12
843.778	12707.48
844.103	12620.02
844.427	12663.86
844.751	12655.27
845.075	12649.4
845.399	12520.14
845.723	12550.87
846.047	12471.1
846.371	12437.65
846.695	12403.76
847.019	12338.45
847.343	12253.03
847.666	12227.72
847.99	12196.3
848.313	12069.08
848.637	12058.23
848.96	12083.76
849.284	11980.94
849.607	11940.49
849.931	11846.26
850.254	11766.03
850.577	11754.06
850.9	11705.92
851.223	11666.15
851.546	11582.99
851.869	11512.71
852.192	11547.28
852.515	11476.32
852.838	11459.6
853.161	11460.28
853.483	11382.99
853.806	11364.01
854.129	11307.97
854.451	11251.47
854.774	11264.12
855.096	11181.42
855.419	11183.9
855.741	11148.65
856.063	11025.26
856.385	11046.96
856.708	11026.39
857.03	10999.72
857.352	10927.41
857.674	10961.76
857.996	10896.68
858.318	10823.23
858.64	10870.46
858.961	10747.53
859.283	10728.32
859.605	10687.19
859.926	10699.17
860.248	10648.55
860.57	10606.51
860.891	10699.62
861.212	10567.42
861.534	10572.84
861.855	10599.51
862.176	10555.67
862.498	10554.99
862.819	10492.17
863.14	10479.06
863.461	10502.79
863.782	10423.92
864.103	10446.52
864.424	10352.51
864.745	10397.48
865.065	10260.08
865.386	10333.08
865.707	10299.86
866.027	10281.33
866.348	10231.16
866.668	10277.48
866.989	10242.91
867.309	10170.82
867.63	10118.84
867.95	10199.52
868.27	10093.08
868.59	10155.91
868.91	10103.03
869.23	10082.01
869.55	10036.59
869.87	10084.49
870.19	10076.36
870.51	10082.23
870.83	10086.53
871.15	9889.92
871.469	9968.79
871.789	10025.74
872.109	9932.18
872.428	9913.88
872.748	9932.41
873.067	9882.69
873.386	9853.54
873.706	9876.59
874.025	9840.66
874.344	9751.4
874.663	9845.18
874.982	9729.02
875.301	9758.4
875.62	9701.45
875.939	9706.65
876.258	9765.41
876.577	9673.88
876.896	9630.95
877.214	9628.01
877.533	9611.51
877.852	9614.9
878.17	9636.14
878.489	9583.94
878.807	9612.64
879.125	9609.93
879.444	9615.35
879.762	9576.03
880.08	9554.79
880.398	9507.79
880.716	9516.37
881.034	9451.07
881.352	9528.35
881.67	9454
881.988	9451.52
882.306	9427.34
882.624	9399.09
882.941	9377.62
883.259	9386.21
883.577	9310.5
883.894	9206.33
884.212	9298.3
884.529	9241.81
884.846	9256.04
885.164	9237.74
885.481	9213.33
885.798	9207
886.115	9119.32
886.432	9201.35
886.75	9111.64
887.067	9079.1
887.383	9033.45
887.7	9048.82
888.017	9066.22
888.334	9042.71
888.651	9010.85
888.967	8926.79
889.284	8845.66
889.6	8932.89
889.917	8816.28
890.233	8799.33
890.55	8823.28
890.866	8821.93
891.182	8812.21
891.498	8758.2
891.815	8689.96
892.131	8715.27
892.447	8671.42
892.763	8658.54
893.079	8634.82
893.395	8562.73
893.71	8581.03
894.026	8601.82
894.342	8510.3
894.657	8511.88
894.973	8461.03
895.289	8464.65
895.604	8416.52
895.92	8365.67
896.235	8348.72
896.55	8376.07
896.865	8339
897.181	8235.5
897.496	8295.62
897.811	8202.51
898.126	8199.35
898.441	8208.16
898.756	8168.39
899.071	8124.32
899.386	8103.3
899.7	8082.29
900.015	8025.11
900.33	8003.65
900.644	7924.1
900.959	7939.69
901.273	7925.23
901.588	7856.53
901.902	7842.75
902.216	7870.99
902.531	7855.63
902.845	7800.49
903.159	7714.39
903.473	7749.19
903.787	7715.07
904.101	7642.07
904.415	7613.37
904.729	7600.72
905.042	7577.22
905.356	7521.85
905.67	7558.91
905.984	7508.52
906.297	7447.5
906.611	7434.17
906.924	7409.31
907.237	7449.08
907.551	7335.87
907.864	7326.83
908.177	7298.13
908.491	7277.79
908.804	7286.83
909.117	7204.34
909.43	7149.66
909.743	7198.69
910.056	7086.16
910.368	7093.39
910.681	7054.74
910.994	7033.5
911.307	7021.52
911.619	6936.33
911.932	6929.78
912.244	6860.17
912.557	6907.63
912.869	6769.55
913.181	6807.74
913.494	6843.22
913.806	6741.31
914.118	6719.61
914.43	6706.5
914.742	6682.55
915.054	6606.85
915.366	6631.03
915.678	6561.42
915.99	6619.28
916.302	6564.14
916.613	6516.9
916.925	6496.34
917.236	6455.21
917.548	6418.6
917.859	6434.87
918.171	6403.91
918.482	6394.42
918.794	6337.7
919.105	6305.84
919.416	6284.37
919.727	6272.62
920.038	6251.6
920.349	6236.91
920.66	6202.56
920.971	6174.32
921.282	6142.45
921.593	6100.64
921.903	6069.23
922.214	6038.73
922.525	6008.44
922.835	5980.65
923.146	5981.78
923.456	5916.47
923.767	5942.91
924.077	5916.69
924.387	5911.95
924.697	5827.66
925.008	5848.67
925.318	5800.77
925.628	5810.48
925.938	5782.46
926.248	5679.19
926.558	5705.63
926.867	5681.67
927.177	5656.36
927.487	5668.11
927.796	5606.65
928.106	5605.29
928.416	5520.55
928.725	5505.18
929.034	5507.89
929.344	5535.24
929.653	5457.95
929.962	5453.43
930.271	5438.29
930.581	5395.8
930.89	5424.5
931.199	5287.11
931.508	5352.19
931.817	5337.95
932.125	5247.79
932.434	5248.24
932.743	5267.45
933.051	5220.22
933.36	5134.79
933.669	5139.31
933.977	5163.04
934.286	5126.66
934.594	5123.95
934.902	5090.95
935.21	5065.42
935.519	5081.69
935.827	5050.05
936.135	4963.27
936.443	4963.27
936.751	4963.73
937.059	4955.14
937.367	4892.31
937.674	4896.16
937.982	4907.23
938.29	4804.18
938.597	4837.18
938.905	4775.03
939.213	4775.93
939.52	4781.36
939.827	4779.55
940.135	4708.59
940.442	4708.82
940.749	4703.85
941.056	4710.4
941.363	4675.15
941.67	4645.54
941.977	4608.03
942.284	4571.87
942.591	4581.36
942.898	4556.28
943.205	4545.88
943.511	4507.47
943.818	4530.52
944.125	4458.2
944.431	4461.59
944.738	4436.51
945.044	4385.44
945.35	4404.19
945.657	4370.29
945.963	4339.56
946.269	4325.1
946.575	4320.35
946.881	4300.47
947.187	4289.84
947.493	4259.56
947.799	4256.63
948.105	4226.12
948.41	4244.42
948.716	4200.36
949.022	4176.85
949.327	4197.42
949.633	4126.69
949.938	4128.04
950.244	4128.04
950.549	4121.49
950.854	4084.88
951.16	4055.73
951.465	4067.25
951.77	3993.13
952.075	3972.34
952.38	4039
952.685	3987.03
952.99	3936.18
953.294	3935.05
953.599	3936.86
953.904	3912.23
954.209	3886.69
954.513	3832.68
954.818	3864.32
955.122	3868.61
955.426	3802.63
955.731	3837.2
956.035	3782.51
956.339	3782.06
956.643	3727.83
956.948	3753.81
957.252	3680.6
957.556	3739.8
957.86	3694.83
958.163	3694.38
958.467	3618.9
958.771	3658
959.075	3629.98
959.378	3599.69
959.682	3594.95
959.985	3597.21
960.289	3538.45
960.592	3561.5
960.896	3533.48
961.199	3551.79
961.502	3547.94
961.805	3503.2
962.108	3498
962.411	3412.81
962.714	3429.75
963.017	3431.56
963.32	3418.68
963.623	3434.73
963.926	3417.55
964.228	3355.18
964.531	3348.85
964.833	3352.02
965.136	3330.32
965.438	3313.15
965.741	3329.42
966.043	3267.95
966.345	3253.04
966.648	3239.93
966.95	3256.2
967.252	3242.87
967.554	3201.29
967.856	3204.68
968.158	3167.39
968.46	3152.47
968.761	3118.58
969.063	3127.62
969.365	3122.42
969.666	3135.3
969.968	3095.07
970.269	3085.13
970.571	3078.8
970.872	3055.53
971.174	3059.37
971.475	3013.72
971.776	3053.49
972.077	3018.24
972.378	3010.56
972.679	2968.07
972.98	2937.79
973.281	2961.29
973.582	2931.01
973.883	2923.55
974.183	2927.62
974.484	2937.79
974.785	2903.89
975.085	2901.63
975.386	2891.92
975.686	2848.3
975.986	2848.07
976.287	2846.04
976.587	2824.35
976.887	2810.11
977.187	2812.6
977.487	2777.12
977.787	2751.13
978.087	2795.87
978.387	2742.31
978.687	2703.22
978.987	2710.9
979.286	2701.86
979.586	2695.99
979.885	2716.78
980.185	2694.63
980.484	2644.69
980.784	2663.22
981.083	2660.28
981.382	2655.54
981.682	2636.55
981.981	2616.67
982.28	2615.54
982.579	2602.66
982.878	2566.95
983.177	2564.47
983.475	2550.91
983.774	2559.49
984.073	2525.37
984.372	2506.39
984.67	2528.76
984.969	2500.29
985.267	2516.56
985.566	2473.17
985.864	2459.38
986.162	2474.98
986.461	2434.3
986.759	2427.52
987.057	2430.91
987.355	2412.83
987.653	2423
987.951	2360.18
988.249	2394.98
988.547	2374.41
988.844	2326.51
989.142	2365.6
989.44	2329.44
989.737	2316.79
990.035	2334.64
990.332	2304.36
990.63	2262.33
990.927	2290.35
991.224	2272.04
991.521	2255.55
991.819	2268.66
992.116	2221.88
992.413	2219.39
992.71	2211.93
993.006	2214.19
993.303	2194.98
993.6	2201.76
993.897	2176.91
994.193	2182.56
994.49	2182.33
994.787	2157.92
995.083	2148.43
995.379	2152.5
995.676	2130.13
995.972	2103.24
996.268	2098.26
996.565	2080.64
996.861	2057.59
997.157	2098.26
997.453	2074.08
997.749	2065.72
998.044	2050.58
998.34	2037.47
998.636	2007.64
998.932	2035.67
999.227	1996.57
999.523	1975.1
999.818	1975.1
1000.114	1986.63
1000.409	1948.66
1000.704	1937.82
1001	1931.26
1001.295	1942.56
1001.59	1898.04
1001.885	1909.57
1002.18	1907.08
1002.475	1893.75
1002.77	1869.34
1003.065	1875.45
1003.359	1864.37
1003.654	1851.72
1003.949	1838.38
1004.243	1853.07
1004.538	1837.93
1004.832	1827.76
1005.127	1773.3
1005.421	1773.53
1005.715	1800.87
1006.009	1797.03
1006.304	1764.49
1006.598	1725.62
1006.892	1727.2
1007.186	1753.87
1007.48	1742.57
1007.773	1715.9
1008.067	1674.09
1008.361	1707.99
1008.655	1667.54
1008.948	1668.44
1009.242	1665.06
1009.535	1678.16
1009.829	1646.52
1010.122	1632.51
1010.415	1635.23
1010.708	1610.82
1011.001	1598.84
1011.295	1627.77
1011.588	1586.19
1011.881	1578.05
1012.173	1577.6
1012.466	1586.19
1012.759	1573.31
1013.052	1569.92
1013.344	1549.58
1013.637	1512.97
1013.93	1515.68
1014.222	1517.71
1014.514	1528.79
1014.807	1509.8
1015.099	1494.21
1015.391	1501.67
1015.683	1486.98
1015.976	1451.05
1016.268	1437.04
1016.56	1455.8
1016.851	1430.03
1017.143	1411.5
1017.435	1430.71
1017.727	1396.36
1018.018	1435.68
1018.31	1407.89
1018.602	1403.37
1018.893	1400.66
1019.185	1358.4
1019.476	1387.1
1019.767	1359.98
1020.058	1322.69
1020.35	1349.13
1020.641	1363.82
1020.932	1325.18
1021.223	1308
1021.514	1322.47
1021.804	1314.78
1022.095	1268.91
1022.386	1293.77
1022.677	1252.86
1022.967	1277.27
1023.258	1242.24
1023.548	1260.77
1023.839	1247.21
1024.129	1221.9
1024.419	1223.26
1024.709	1231.39
1025	1212.41
1025.29	1175.8
1025.58	1198.4
1025.87	1183.71
1026.16	1185.07
1026.449	1157.95
1026.739	1173.32
1027.029	1166.31
1027.319	1166.31
1027.608	1165.18
1027.898	1139.65
1028.187	1116.82
1028.477	1114.79
1028.766	1114.79
1029.055	1123.15
1029.344	1113.88
1029.634	1118.18
1029.923	1100.32
1030.212	1108.46
1030.501	1091.51
1030.79	1063.49
1031.078	1052.19
1031.367	1048.12
1031.656	1055.81
1031.945	1038.18
1032.233	1052.42
1032.522	1014.45
1032.81	999.54
1033.099	1004.73
1033.387	996.37
1033.675	997.73
1033.963	997.05
1034.251	1007.9
1034.54	1007.22
1034.828	990.95
1035.116	964.96
1035.403	966.32
1035.691	931.52
1035.979	952.53
1036.267	946.2
1036.554	930.61
1036.842	931.52
1037.129	926.32
1037.417	913.66
1037.704	919.76
1037.992	924.74
1038.279	887.67
1038.566	883.83
1038.853	883.83
1039.14	883.83
