Data from hue_50_FLMS001491_71.txt Node
Date: Mon Feb 06 15:10:57 GMT 2017
User: dcchb
Spectrometer: FLMS00149
Trigger mode: 0
Integration Time (sec): 2.000000E-2
Scans to average: 10
Electric dark correction enabled: true
Nonlinearity correction enabled: false
Boxcar width: 0
XAxis mode: Wavelengths
Number of Pixels in Spectrum: 2048
>>>>>Begin Spectral Data<<<<<
341.393	1.67
341.776	1.67
342.16	1.67
342.543	-59.35
342.927	-67.94
343.31	-60.7
343.693	-64.09
344.077	-73.59
344.46	-36.52
344.843	-71.1
345.226	-53.7
345.61	-28.16
345.993	-34.26
346.376	-17.77
346.759	22.23
347.142	32.17
347.525	27.43
347.908	76.92
348.291	59.29
348.674	107.88
349.057	113.98
349.44	130.25
349.823	122.57
350.206	161.44
350.588	185.39
350.971	219.29
351.354	223.81
351.737	236.91
352.119	254.32
352.502	254.77
352.884	269.68
353.267	289.12
353.65	302.45
354.032	301.77
354.414	321.21
354.797	317.59
355.179	325.73
355.562	318.27
355.944	327.31
356.326	334.99
356.709	346.29
357.091	332.73
357.473	348.55
357.855	345.84
358.238	359.17
358.62	344.48
359.002	363.01
359.384	340.87
359.766	355.78
360.148	320.98
360.53	330.7
360.912	348.32
361.294	325.73
361.676	355.78
362.057	339.28
362.439	351.71
362.821	313.75
363.203	348.32
363.584	320.53
363.966	324.82
364.348	333.86
364.729	319.85
365.111	309.23
365.493	342.22
365.874	318.27
366.256	318.72
366.637	320.3
367.019	325.05
367.4	308.33
367.781	312.17
368.163	330.47
368.544	314.2
368.925	330.25
369.306	337.48
369.688	327.99
370.069	335.67
370.45	305.16
370.831	303.13
371.212	307.42
371.593	317.36
371.974	324.14
372.355	318.49
372.736	310.13
373.117	321.21
373.498	308.1
373.879	323.47
374.26	316.69
374.641	311.49
375.021	327.99
375.402	326.4
375.783	309.68
376.163	326.86
376.544	331.38
376.925	321.88
377.305	337.7
377.686	337.03
378.066	317.14
378.447	342.22
378.827	328.44
379.208	330.47
379.588	329.79
379.968	334.99
380.349	342.9
380.729	346.06
381.109	326.4
381.489	338.83
381.87	353.97
382.25	338.38
382.63	339.06
383.01	333.86
383.39	342.67
383.77	332.51
384.15	339.96
384.53	323.47
384.91	354.88
385.29	343.13
385.67	344.03
386.049	342.9
386.429	333.41
386.809	343.13
387.189	347.65
387.568	366.85
387.948	347.87
388.328	352.84
388.707	347.87
389.087	360.3
389.466	343.58
389.846	338.61
390.225	356.01
390.605	359.62
390.984	376.8
391.363	369.11
391.743	348.32
392.122	354.2
392.501	360.08
392.881	355.56
393.26	342
393.639	363.92
394.018	381.32
394.397	375.44
394.776	349.68
395.155	358.04
395.534	349.68
395.913	367.53
396.292	371.37
396.671	363.69
397.05	380.19
397.429	380.87
397.808	364.59
398.186	372.28
398.565	375.89
398.944	410.7
399.323	396.23
399.701	392.39
400.08	356.23
400.458	389.23
400.837	413.63
401.215	394.65
401.594	384.71
401.972	372.28
402.351	392.84
402.729	388.78
403.107	400.3
403.486	405.27
403.864	401.43
404.242	395.78
404.62	393.07
404.999	408.21
405.377	398.27
405.755	407.31
406.133	383.8
406.511	416.12
406.889	433.52
407.267	425.38
407.645	420.41
408.023	398.04
408.401	423.35
408.779	426.97
409.156	417.7
409.534	414.99
409.912	438.04
410.29	436.01
410.667	435.78
411.045	429.9
411.422	438.04
411.8	449.11
412.178	439.85
412.555	452.05
412.933	459.73
413.31	442.56
413.687	447.76
414.065	483.91
414.442	466.97
414.819	456.8
415.197	480.07
415.574	472.39
415.951	472.16
416.328	487.08
416.705	493.41
417.082	464.93
417.46	478.49
417.837	478.49
418.214	475.78
418.591	481.65
418.967	482.78
419.344	494.54
419.721	496.12
420.098	503.35
420.475	497.7
420.852	529.79
421.228	512.39
421.605	507.19
421.982	523.69
422.358	513.74
422.735	513.97
423.111	526.62
423.488	525.49
423.864	514.42
424.241	540.64
424.617	526.4
424.994	539.96
425.37	515.78
425.746	519.39
426.123	546.51
426.499	542.44
426.875	534.31
427.251	558.04
427.627	557.13
428.003	564.14
428.379	553.52
428.756	551.93
429.132	571.6
429.507	570.92
429.883	578.15
430.259	574.31
430.635	581.31
431.011	603.46
431.387	579.28
431.763	609.33
432.138	598.94
432.514	598.94
432.89	617.92
433.265	612.72
433.641	620.63
434.016	634.42
434.392	605.04
434.767	636
435.143	623.8
435.518	638.49
435.894	635.32
436.269	651.37
436.644	656.79
437.02	657.02
437.395	668.77
437.77	669.67
438.145	687.52
438.52	697.02
438.895	685.72
439.271	693.85
439.646	690.69
440.021	704.7
440.395	706.96
440.77	690.46
441.145	711.03
441.52	685.04
441.895	718.71
442.27	716.22
442.645	731.82
443.019	734.98
443.394	735.66
443.769	723.68
444.143	722.1
444.518	730.01
444.892	741.08
445.267	739.05
445.641	743.79
446.016	770.91
446.39	760.52
446.764	775.88
447.139	772.27
447.513	760.74
447.887	766.17
448.262	772.04
448.636	791.02
449.01	789.89
449.384	816.79
449.758	815.2
450.132	809.78
450.506	823.79
450.88	784.02
451.254	802.32
451.628	830.35
452.002	841.19
452.376	840.97
452.75	831.02
453.123	834.19
453.497	826.5
453.871	844.13
454.244	890
454.618	874.41
454.992	919.38
455.365	900.4
455.739	891.59
456.112	933.17
456.486	922.77
456.859	944.69
457.232	939.95
457.606	930.23
457.979	935.43
458.352	955.09
458.725	986.5
459.099	979.04
459.472	1003.22
459.845	991.92
460.218	1005.93
460.591	1012.26
460.964	1022.2
461.337	1054.29
461.71	1064.92
462.083	1061.3
462.456	1071.02
462.829	1075.31
463.201	1117.57
463.574	1117.8
463.947	1119.6
464.32	1138.81
464.692	1150.11
465.065	1161.86
465.438	1178.81
465.81	1203.44
466.183	1198.02
466.555	1258.58
466.928	1234.63
467.3	1241.86
467.672	1281.63
468.045	1300.84
468.417	1304.68
468.789	1310.33
469.161	1358.69
469.534	1367.28
469.906	1376.09
470.278	1419.48
470.65	1452.7
471.022	1480.27
471.394	1479.14
471.766	1541.06
472.138	1558.01
472.51	1572.02
472.882	1584
473.253	1635.97
473.625	1695.63
473.997	1711.68
474.369	1765.01
474.74	1785.12
475.112	1821.05
475.484	1864.89
475.855	1925.91
476.227	1946.02
476.598	2011.78
476.97	2049.52
477.341	2098.11
477.713	2145.34
478.084	2188.73
478.455	2290.87
478.827	2342.62
479.198	2397.08
479.569	2451.09
479.94	2488.38
480.311	2576.74
480.682	2677.3
481.053	2746.68
481.424	2851.76
481.795	2851.76
482.166	2946.22
482.537	3032.1
482.908	3146.67
483.279	3241.58
483.65	3328.36
484.021	3428.92
484.391	3485.87
484.762	3556.15
485.133	3743.04
485.503	3779.65
485.874	3922.02
486.244	4054.22
486.615	4104.61
486.985	4251.05
487.356	4356.13
487.726	4433.19
488.097	4611.26
488.467	4703.01
488.837	4820.07
489.207	4947.98
489.578	5099.84
489.948	5199.5
490.318	5339.83
490.688	5457.12
491.058	5570.79
491.428	5709.09
491.798	5827.5
492.168	6049.87
492.538	6111.79
492.908	6286.93
493.278	6384.55
493.648	6504.32
494.017	6655.05
494.387	6795.16
494.757	6925.1
495.126	7072.44
495.496	7184.98
495.866	7311.98
496.235	7440.79
496.605	7554.46
496.974	7699.77
497.344	7822.25
497.713	7893.66
498.082	8113.09
498.452	8274.67
498.821	8343.14
499.19	8452.52
499.559	8637.6
499.928	8777.48
500.298	8873.07
500.667	9038.49
501.036	9025.61
501.405	9219.05
501.774	9271.03
502.143	9471.25
502.512	9521.42
502.88	9686.16
503.249	9821.52
503.618	9913.72
503.987	9937
504.356	10153.04
504.724	10226.93
505.093	10347.38
505.462	10371.34
505.83	10509.86
506.199	10675.28
506.567	10876.18
506.936	10943.75
507.304	11075.5
507.672	11188.04
508.041	11247.7
508.409	11411.99
508.777	11495.83
509.145	11610.17
509.514	11671.87
509.882	11808.36
510.25	11842.94
510.618	11967.23
510.986	12073.67
511.354	12224.85
511.722	12330.61
512.09	12541.68
512.458	12553.65
512.826	12642.92
513.193	12770.37
513.561	12847.2
513.929	13012.17
514.297	13121.77
514.664	13206.07
515.032	13309.57
515.4	13350.02
515.767	13477.24
516.135	13583.68
516.502	13518.6
516.869	13823.9
517.237	13891.24
517.604	13964.01
517.972	14107.96
518.339	14199.03
518.706	14244.46
519.073	14379.82
519.44	14429.99
519.808	14575.07
520.175	14636.76
520.542	14789.53
520.909	14949.3
521.276	15012.57
521.643	15100.03
522.009	15208.72
522.376	15282.62
522.743	15427.02
523.11	15614.59
523.477	15774.59
523.843	15950.4
524.21	16020.68
524.577	16146.1
524.943	16128.47
525.31	16253.44
525.676	16493.89
526.043	16538.63
526.409	16636.03
526.776	16818.85
527.142	16893.88
527.508	16998.96
527.874	17109.47
528.241	17143.81
528.607	17330.93
528.973	17408.44
529.339	17467.42
529.705	17597.36
530.071	17784.93
530.437	17885.49
530.803	17998.48
531.169	18033.06
531.535	18115.99
531.901	18119.38
532.267	18308.53
532.632	18411.35
532.998	18431.24
533.364	18660.84
533.73	18628.07
534.095	18749.2
534.461	18819.7
534.826	19037.32
535.192	19004.78
535.557	19113.71
535.923	19172.01
536.288	19261.5
536.653	19394.6
537.019	19329.52
537.384	19401.16
537.749	19544.66
538.114	19589.63
538.479	19674.6
538.845	19726.35
539.21	19613.13
539.575	19894.25
539.94	19939.22
540.305	20100.57
540.67	19875.95
541.034	20170.85
541.399	20203.17
541.764	20262.38
542.129	20399.77
542.494	20394.8
542.858	20494.69
543.223	20543.95
543.587	20651.07
543.952	20734
544.316	20752.53
544.681	20722.93
545.045	20919.53
545.41	21066.2
545.774	21080.66
546.138	21161.34
546.503	21209.47
546.867	21157.95
547.231	21389.8
547.595	21322.46
547.959	21454.44
548.324	21493.98
548.688	21549.12
549.052	21631.38
549.416	21679.97
549.779	21707.08
550.143	21764.26
550.507	22029.79
550.871	21950.69
551.235	22069.11
551.599	22233.17
551.962	22221.2
552.326	22287.18
552.689	22506.61
553.053	22467.06
553.417	22507.97
553.78	22831.8
554.143	22775.98
554.507	22841.97
554.87	22841.97
555.234	23049.65
555.597	22978.92
555.96	23082.42
556.323	23178.46
556.686	23280.15
557.05	23456.87
557.413	23563.53
557.776	23588.84
558.139	23739.12
558.502	23768.05
558.865	23772.12
559.228	24063.41
559.59	24042.84
559.953	24020.47
560.316	24389.27
560.679	24380.01
561.041	24480.35
561.404	24526.67
561.767	24791.98
562.129	24617.52
562.492	24965.3
562.854	24787
563.217	24860.22
563.579	24961.24
563.941	25231.06
564.304	25283.04
564.666	25508.34
565.028	25469.92
565.39	25673.08
565.753	25676.25
566.115	25842.8
566.477	25955.33
566.839	25848.22
567.201	26094.54
567.563	26215.44
567.925	26464.25
568.287	26475.77
568.648	26497.92
569.01	26791.02
569.372	26845.03
569.734	26697.46
570.095	26952.82
570.457	27046.38
570.819	27085.47
571.18	27128.86
571.542	27268.07
571.903	27308.07
572.265	27500.15
572.626	27548.96
572.987	27535.86
573.349	27761.61
573.71	27870.76
574.071	27912.57
574.432	28009.97
574.794	28237.31
575.155	28257.42
575.516	28286.12
575.877	28430.52
576.238	28455.16
576.599	28593.68
576.96	28496.06
577.32	28628.48
577.681	28773.79
578.042	28971.53
578.403	28962.26
578.763	29129.94
579.124	29175.59
579.485	29265.98
579.845	29467.11
580.206	29359.99
580.566	29468.46
580.927	29604.28
581.287	29743.26
581.648	29745.74
582.008	30023.93
582.368	29982.35
582.728	30247.43
583.089	30119.07
583.449	30267.31
583.809	30333.07
584.169	30531.49
584.529	30494.88
584.889	30835.88
585.249	30711.37
585.609	30663.46
585.969	31058.25
586.329	31020.51
586.688	31230
587.048	31286.27
587.408	31255.31
587.768	31477.22
588.127	31435.64
588.487	31488.52
588.846	31838.12
589.206	31817.1
589.565	31733.26
589.925	31950.66
590.284	31976.19
590.643	32177.32
591.003	32253.93
591.362	32335.73
591.721	32426.12
592.08	32519.68
592.44	32686.91
592.799	32776.4
593.158	32886.9
593.517	32818.66
593.876	33068.14
594.235	32990.86
594.593	33211.64
594.952	33329.15
595.311	33345.42
595.67	33450.05
596.029	33710.16
596.387	33747.9
596.746	33701.57
597.104	33731.18
597.463	33791.06
597.822	34043.94
598.18	33926.88
598.538	34104.27
598.897	34358.96
599.255	34102.92
599.613	34716.69
599.972	34406.86
600.33	34679.4
600.688	34433.98
601.046	34679.62
601.404	35110.35
601.762	34958.94
602.12	35182.89
602.478	35237.8
602.836	35270.8
603.194	35188.09
603.552	35247.75
603.91	35265.6
604.268	35432.15
604.625	35479.6
604.983	35636.89
605.341	35386.05
605.698	35791.46
606.056	35884.79
606.413	35851.35
606.771	35959.82
607.128	36033.26
607.485	35926.37
607.843	36074.16
608.2	36264.67
608.557	36439.58
608.914	36222.64
609.272	36616.3
609.629	36626.24
609.986	36902.39
610.343	36726.35
610.7	37016.51
611.057	36911.43
611.414	36873.24
611.771	37061.03
612.127	37233
612.484	37173.34
612.841	37443.85
613.198	37399.78
613.554	37383.51
613.911	37558.65
614.267	37691.52
614.624	37629.15
614.98	37642.26
615.337	37954.79
615.693	37869.82
616.05	37872.54
616.406	38054.45
616.762	37953.21
617.118	38070.5
617.475	38055.13
617.831	38214.22
618.187	38232.98
618.543	38360.43
618.899	38491.73
619.255	38558.62
619.611	38501.45
619.967	38604.95
620.323	38705.96
620.678	38504.38
621.034	38558.17
621.39	38570.82
621.746	38664.38
622.101	39046.52
622.457	38632.97
622.812	38719.52
623.168	38887.88
623.523	38885.62
623.879	39205.61
624.234	38896.01
624.589	39081.32
624.945	39057.59
625.3	39146.4
625.655	39180.3
626.01	39152.73
626.365	39253.06
626.72	39123.58
627.075	39285.15
627.43	39257.81
627.785	39232.27
628.14	39190.92
628.495	39265.27
628.85	39297.81
629.205	39027.76
629.559	39310.24
629.914	39188.43
630.269	39281.54
630.623	39156.57
630.978	39046.29
631.332	39338.71
631.687	39385.94
632.041	39165.16
632.396	39312.05
632.75	39074.54
633.104	39127.19
633.459	39250.13
633.813	39050.58
634.167	39146.63
634.521	38984.6
634.875	39184.59
635.229	39003.13
635.583	38842.68
635.937	39026.63
636.291	39041.54
636.645	38994.31
636.999	38909.8
637.352	39019.85
637.706	38824.83
638.06	39024.82
638.413	38824.83
638.767	38812.4
639.121	38861.21
639.474	38607.66
639.828	38570.37
640.181	38734.43
640.534	38640.88
640.888	38571.27
641.241	38413.09
641.594	38536.02
641.947	38662.12
642.301	38530.82
642.654	38532.18
643.007	38448.57
643.36	38477.27
643.713	38426.87
644.066	38489.92
644.419	38288.57
644.771	38144.39
645.124	37675.48
645.477	37716.16
645.83	37588.47
646.182	37414.47
646.535	37230.97
646.888	37405.2
647.24	37131.09
647.593	37302.38
647.945	37377.86
648.298	37171.31
648.65	37096.06
649.002	37028.26
649.355	37161.59
649.707	37198.65
650.059	37289.73
650.411	37649.04
650.763	37771.97
651.115	38094.68
651.467	37939.43
651.819	37800.9
652.171	37828.92
652.523	37685.42
652.875	37749.15
653.227	37715.93
653.578	37940.33
653.93	37742.14
654.282	37651.3
654.633	37554.58
654.985	37635.25
655.337	37602.71
655.688	37692.43
656.039	37839.09
656.391	37397.75
656.742	37407.24
657.094	37540.11
657.445	37560.23
657.796	37670.73
658.147	37400.01
658.498	37507.12
658.849	37564.75
659.2	37455.6
659.551	37467.12
659.902	37634.35
660.253	37460.34
660.604	37527.01
660.955	37353.68
661.306	37496.5
661.656	37380.12
662.007	37258.31
662.358	37306.9
662.708	37293.34
663.059	37304.64
663.409	37126.79
663.76	37439.55
664.11	37352.55
664.461	37353.23
664.811	37322.72
665.161	37473.22
665.511	37207.24
665.862	37285.43
666.212	37369.72
666.562	37324.98
666.912	37157.53
667.262	37194.36
667.612	37234.81
667.962	37329.05
668.312	37164.08
668.662	37390.29
669.011	37410.63
669.361	37224.42
669.711	37200.01
670.06	37203.85
670.41	36931.09
670.76	37139.22
671.109	37126.57
671.459	37093.12
671.808	37120.46
672.157	37122.72
672.507	36731.1
672.856	36929.74
673.205	36960.02
673.554	37132.89
673.904	36927.93
674.253	37122.95
674.602	36965.44
674.951	36465.11
675.3	36234.39
675.649	36808.38
675.998	36865.56
676.346	36867.36
676.695	36897.87
677.044	36636.18
677.393	36791.43
677.741	36777.2
678.09	36726.35
678.438	36605.45
678.787	36704.66
679.135	36717.09
679.484	36398.45
679.832	36631.66
680.181	36451.56
680.529	36549.63
680.877	36416.3
681.225	36400.94
681.573	36537.43
681.922	36316.19
682.27	36361.84
682.618	36296.98
682.966	36173.6
683.314	36186.48
683.661	36028.52
684.009	35904
684.357	35858.58
684.705	35794.17
685.053	35835.53
685.4	35815.19
685.748	35693.84
686.095	35738.13
686.443	35607.06
686.79	35443.9
687.138	35538.13
687.485	35517.12
687.832	35285.71
688.18	35440.73
688.527	35251.36
688.874	35180.63
689.221	35199.61
689.568	34951.71
689.915	34909.22
690.262	34904.03
690.609	34819.73
690.956	34821.77
691.303	34715.56
691.65	34554.43
691.997	34533.64
692.344	34304.04
692.69	34283.7
693.037	34361.22
693.383	34111.73
693.73	34221.78
694.077	33924.39
694.423	34107.66
694.769	33953.32
695.116	33880.78
695.462	33706.32
695.808	33638.3
696.155	33696.83
696.501	33517.17
696.847	33489.15
697.193	33199.21
697.539	33443.95
697.885	33015.71
698.231	33124.64
698.577	32955.38
698.923	33065.88
699.269	32873.8
699.614	32691.88
699.96	32697.76
700.306	32597.65
700.651	32540.02
700.997	32482.62
701.342	32476.52
701.688	32294.6
702.033	32078.34
702.379	32258.22
702.724	32198.79
703.069	32046.7
703.415	31782.75
703.76	31815.29
704.105	31914.5
704.45	31828.85
704.795	31534.62
705.14	31591.57
705.485	31538.92
705.83	31242.65
706.175	31462.76
706.52	31371.92
706.865	31148.19
707.209	31092.6
707.554	30958.14
707.899	31080.85
708.243	30872.95
708.588	30950.68
708.932	30511.82
709.277	30686.28
709.621	30679.28
709.966	30458.04
710.31	30441.32
710.654	30375.33
710.998	30268.22
711.342	30319.51
711.687	30204.26
712.031	30121.78
712.375	29876.36
712.719	29974.21
713.063	29953.87
713.407	30058.05
713.75	29904.38
714.094	29830.94
714.438	29667.55
714.782	29739.87
715.125	29666.42
715.469	29745.74
715.812	29481.34
716.156	29393.44
716.499	29455.58
716.843	29455.13
717.186	29171.52
717.53	29282.03
717.873	29353.89
718.216	29223.05
718.559	29106.21
718.902	28922.04
719.246	29111.86
719.589	28830.06
719.932	28727.24
720.275	28762.72
720.617	28837.52
720.96	28684.53
721.303	28754.36
721.646	28746.9
721.989	28498.32
722.331	28630.29
722.674	28473.91
723.016	28495.15
723.359	28410.64
723.701	28406.57
724.044	28274.6
724.386	28100.14
724.729	28267.82
725.071	28029.18
725.413	28289.51
725.755	28103.75
726.097	28102.85
726.439	27882.97
726.782	27876.87
727.124	28118.67
727.465	27783.76
727.807	27816.08
728.149	27687.72
728.491	27702.63
728.833	27791.67
729.175	27572.47
729.516	27611.56
729.858	27571.11
730.199	27617.89
730.541	27442.98
730.882	27456.09
731.224	27605.69
731.565	27191.23
731.906	27368.86
732.248	27361.17
732.589	27226.49
732.93	27113.95
733.271	27168.64
733.612	27116.21
733.953	27150.33
734.294	26993.27
734.635	26994.63
734.976	26966.38
735.317	26824.46
735.658	26885.93
735.999	26896.33
736.339	26822.43
736.68	26920.96
737.021	26729.55
737.361	26621.76
737.702	26731.81
738.042	26739.72
738.383	26504.92
738.723	26743.34
739.063	26497.47
739.404	26437.36
739.744	26510.57
740.084	26302.22
740.424	26377.24
740.764	26234.88
741.104	26356
741.444	26210.7
741.784	26108.32
742.124	26261.99
742.464	26174.31
742.804	26024.49
743.143	26074.65
743.483	26040.98
743.823	25939.97
744.162	25958.95
744.502	25871.49
744.841	25768.9
745.181	25954.88
745.52	25737.94
745.86	25874.88
746.199	25737.49
746.538	25651.39
746.877	25756.47
747.216	25684.38
747.556	25536.14
747.895	25553.76
748.234	25455.69
748.573	25565.51
748.911	25444.61
749.25	25382.92
749.589	25336.82
749.928	25322.13
750.267	25177.5
750.605	25252.53
750.944	25145.19
751.283	25110.84
751.621	25169.59
751.96	24961.24
752.298	24921.69
752.636	24957.17
752.975	24896.83
753.313	24750.85
753.651	24806.66
753.989	24786.1
754.327	24622.26
754.666	24598.53
755.004	24652.09
755.342	24478.76
755.679	24467.69
756.017	24415.26
756.355	24485.09
756.693	24391.31
757.031	24346.56
757.368	24242.16
757.706	24153.8
758.044	24104.99
758.381	24062.95
758.719	23997.42
759.056	24045.33
759.394	23850.31
759.731	23667.03
760.068	23673.59
760.405	23732.12
760.743	23608.05
761.08	23570.09
761.417	23467.04
761.754	23479.92
762.091	23388.62
762.428	23399.47
762.765	23087.61
763.102	23291.45
763.438	23097.33
763.775	23031.8
764.112	23062.08
764.449	22916.09
764.785	22937.11
765.122	22656.89
765.458	22737.79
765.795	22538.48
766.131	22534.18
766.467	22425.26
766.804	22386.16
767.14	22319.05
767.476	22222.1
767.812	22172.84
768.148	22219.84
768.485	22029.79
768.821	21943.24
769.157	21860.98
769.492	21763.35
769.828	21888.1
770.164	21643.36
770.5	21698.5
770.836	21547.31
771.171	21557.26
771.507	21312.74
771.842	21180.54
772.178	21226.87
772.513	21084.05
772.849	21018.52
773.184	20974
773.519	21022.13
773.855	20988.23
774.19	20771.52
774.525	20742.59
774.86	20722.03
775.195	20690.16
775.53	20620.33
775.865	20480.22
776.2	20195.71
776.535	20218.31
776.87	20184.64
777.205	20059.67
777.539	19981.71
777.874	20071.2
778.209	19807.02
778.543	19809.06
778.878	19678.44
779.212	19718.66
779.547	19607.7
779.881	19667.36
780.215	19518.89
780.55	19576.75
780.884	19336.53
781.218	19257.43
781.552	19320.25
781.886	19195.29
782.22	19083.88
782.554	19043.2
782.888	18855.86
783.222	18814.05
783.556	18760.27
783.889	18706.26
784.223	18594.4
784.557	18584
784.89	18502.42
785.224	18419.49
785.557	18371.13
785.891	18336.33
786.224	18224.24
786.558	18301.75
786.891	18112.83
787.224	18010.68
787.557	18062.89
787.891	18069.89
788.224	17898.82
788.557	17922.1
788.89	17775.66
789.223	17819.05
789.556	17679.17
789.888	17552.17
790.221	17549.91
790.554	17462.68
790.887	17434.2
791.219	17305.84
791.552	17237.15
791.884	17249.8
792.217	17229.01
792.549	17122.35
792.882	16966.42
793.214	16947.21
793.546	16956.02
793.879	16849.13
794.211	16842.81
794.543	16806.65
794.875	16654.34
795.207	16669.93
795.539	16603.26
795.871	16626.77
796.203	16471.06
796.535	16372.31
796.867	16248.02
797.198	16239.88
797.53	16267.45
797.862	16201.69
798.193	16215.25
798.525	16094.12
798.856	16115.82
799.188	15907.46
799.519	15821.59
799.85	15870.85
800.182	15781.82
800.513	15843.96
800.844	15685.55
801.175	15820.01
801.506	15747.47
801.837	15615.72
802.168	15576.17
802.499	15580.47
802.83	15363.3
803.161	15336.18
803.491	15385.44
803.822	15372.34
804.153	15195.62
804.483	15243.3
804.814	15135.96
805.145	15107.71
805.475	15139.35
805.805	15041.27
806.136	15011.22
806.466	15065.45
806.796	15027.49
807.126	14857.55
807.457	14797.44
807.787	14809.86
808.117	14762.18
808.447	14711.34
808.777	14671.56
809.107	14654.84
809.436	14561.28
809.766	14563.09
810.096	14507.95
810.426	14401.51
810.755	14467.73
811.085	14488.29
811.414	14416.88
811.744	14228.19
812.073	14208.52
812.403	14319.93
812.732	14135.76
813.061	14211.01
813.39	14118.36
813.719	14020.28
814.049	14095.31
814.378	14015.54
814.707	13955.42
815.036	13972.82
815.365	13897.57
815.693	13762.21
816.022	13880.4
816.351	13722.44
816.68	13660.74
817.008	13704.58
817.337	13597.02
817.665	13512.27
817.994	13589.33
818.322	13591.82
818.651	13498.49
818.979	13517.47
819.307	13475.44
819.636	13445.38
819.964	13365.38
820.292	13439.05
820.62	13372.84
820.948	13387.98
821.276	13404.93
821.604	13367.19
821.932	13350.47
822.259	13382.78
822.587	13370.13
822.915	13370.35
823.243	13325.61
823.57	13318.83
823.898	13284.48
824.225	13219.17
824.553	13276.8
824.88	13233.86
825.207	13265.27
825.535	13246.06
825.862	13300.3
826.189	13215.56
826.516	13305.27
826.843	13310.24
827.17	13303.01
827.497	13276.8
827.824	13300.3
828.151	13261.2
828.478	13276.35
828.805	13351.37
829.131	13260.75
829.458	13189.79
829.785	13214.88
830.111	13253.07
830.438	13293.07
830.764	13189.12
831.09	13216.46
831.417	13168.33
831.743	13224.14
832.069	13172.17
832.395	13102.57
832.722	13140.98
833.048	13111.6
833.374	13103.02
833.7	13051.94
834.026	13060.08
834.351	13097.37
834.677	13194.77
835.003	13096.24
835.329	13067.54
835.654	13021.21
835.98	13103.92
836.306	13029.35
836.631	12913.87
836.956	12924.94
837.282	13109.34
837.607	12928.33
837.932	12904.15
838.258	12882.01
838.583	12894.21
838.908	12809.01
839.233	12870.25
839.558	12776.02
839.883	12781.22
840.208	12694.44
840.533	12709.81
840.858	12782.12
841.182	12722.01
841.507	12621.9
841.832	12660.09
842.156	12578.29
842.481	12541.22
842.805	12588.23
843.13	12595.46
843.454	12462.36
843.778	12446.54
844.103	12465.29
844.427	12414.22
844.751	12422.81
845.075	12423.71
845.399	12321.57
845.723	12253.1
846.047	12282.93
846.371	12140.33
846.695	12171.29
847.019	12089.03
847.343	12018.75
847.666	11866.67
847.99	11862.37
848.313	11949.15
848.637	11812.88
848.96	11754.8
849.284	11779.21
849.607	11646.11
849.931	11640.46
850.254	11546.9
850.577	11559.78
850.9	11456.73
851.223	11437.52
851.546	11333.8
851.869	11277.3
852.192	11304.19
852.515	11315.49
852.838	11138.1
853.161	11166.57
853.483	11172.67
853.806	11121.15
854.129	11155.95
854.451	10987.37
854.774	10922.28
855.096	10901.27
855.419	10885.67
855.741	10824.66
856.063	10820.14
856.385	10779.91
856.708	10812
857.03	10745.11
857.352	10813.36
857.674	10737.88
857.996	10620.6
858.318	10601.84
858.64	10652.91
858.961	10571.56
859.283	10514.16
859.605	10506.7
859.926	10492.01
860.248	10448.85
860.57	10402.52
860.891	10427.61
861.212	10364.33
861.534	10430.54
861.855	10344.67
862.176	10350.32
862.498	10276.42
862.819	10243.88
863.14	10204.79
863.461	10219.03
863.782	10191.46
864.103	10143.55
864.424	10216.31
864.745	10139.03
865.065	10112.59
865.386	10044.11
865.707	10035.08
866.027	10009.09
866.348	10014.28
866.668	9974.29
866.989	9971.8
867.309	9964.79
867.63	9908.3
867.95	9896.1
868.27	9925.25
868.59	9934.29
868.91	9910.11
869.23	9841.63
869.55	9822.65
869.87	9854.74
870.19	9776.1
870.51	9900.84
870.83	9785.14
871.15	9732.03
871.469	9753.05
871.789	9825.36
872.109	9767.29
872.428	9615.2
872.748	9730
873.067	9711.47
873.386	9745.82
873.706	9723.9
874.025	9604.13
874.344	9625.82
874.663	9656.33
874.982	9553.51
875.301	9633.5
875.62	9579.27
875.939	9578.59
876.258	9568.65
876.577	9446.16
876.896	9506.5
877.214	9381.08
877.533	9454.3
877.852	9482.32
878.17	9465.37
878.489	9419.5
878.807	9401.87
879.125	9403.23
879.444	9359.39
879.762	9355.77
880.08	9356.9
880.398	9345.38
880.716	9304.47
881.034	9263.8
881.352	9329.78
881.67	9228.54
881.988	9237.36
882.306	9192.61
882.624	9204.59
882.941	9188.32
883.259	9138.15
883.577	9087.98
883.894	9092.05
884.212	9110.35
884.529	9040.3
884.846	9048.21
885.164	9057.25
885.481	9007.76
885.798	9018.6
886.115	8959.62
886.432	8940.87
886.75	8866.29
887.067	8934.77
887.383	8986.06
887.7	8880.08
888.017	8916.46
888.334	8822.23
888.651	8828.78
888.967	8796.46
889.284	8798.27
889.6	8765.05
889.917	8661.78
890.233	8683.02
890.55	8602.34
890.866	8674.66
891.182	8573.19
891.498	8561.44
891.815	8600.99
892.131	8513.53
892.447	8529.58
892.763	8443.48
893.079	8389.02
893.395	8409.81
893.71	8393.54
894.026	8426.53
894.342	8346.98
894.657	8316.02
894.973	8323.26
895.289	8310.15
895.604	8260.43
895.92	8182.69
896.235	8202.81
896.55	8168.01
896.865	8128.23
897.181	8095.24
897.496	8126.88
897.811	8073.77
898.126	8039.2
898.441	7979.76
898.756	8017.05
899.071	7885.53
899.386	7938.63
899.7	7824.74
900.015	7834.23
900.33	7801.91
900.644	7795.81
900.959	7753.55
901.273	7697.96
901.588	7679.66
901.902	7715.36
902.216	7629.04
902.531	7664.52
902.845	7631.07
903.159	7507.46
903.473	7596.95
903.787	7483.96
904.101	7464.75
904.415	7459.32
904.729	7428.82
905.042	7344.52
905.356	7378.65
905.67	7333.9
905.984	7300.23
906.297	7268.14
906.611	7310.85
906.924	7271.98
907.237	7194.25
907.551	7230.18
907.864	7223.17
908.177	7138.88
908.491	7148.37
908.804	7114.25
909.117	7038.77
909.43	7026.57
909.743	6975.49
910.056	6991.54
910.368	6914.48
910.681	6881.03
910.994	6878.77
911.307	6873.35
911.619	6784.54
911.932	6820.7
912.244	6779.79
912.557	6737.99
912.869	6693.24
913.181	6680.81
913.494	6629.06
913.806	6653.7
914.118	6628.84
914.43	6570.99
914.742	6544.55
915.054	6535.73
915.366	6505.68
915.678	6534.6
915.99	6498.67
916.302	6378.45
916.613	6434.27
916.925	6367.15
917.236	6350.65
917.548	6355.62
917.859	6303.87
918.171	6275.17
918.482	6238.34
918.794	6218
919.105	6218.68
919.416	6154.05
919.727	6121.05
920.038	6132.35
920.349	6051.45
920.66	6069.76
920.971	6039.25
921.282	6005.58
921.593	5998.8
921.903	5908.63
922.214	5919.25
922.525	5858.46
922.835	5938.01
923.146	5843.77
923.456	5801.51
923.767	5800.61
924.077	5790.89
924.387	5796.54
924.697	5688.52
925.008	5742.76
925.318	5756.09
925.628	5642.42
925.938	5640.61
926.248	5588.86
926.558	5569.88
926.867	5593.61
927.177	5591.8
927.487	5520.17
927.796	5436.33
928.106	5450.56
928.416	5455.31
928.725	5470.22
929.034	5415.08
929.344	5406.72
929.653	5350
929.962	5388.87
930.271	5327.4
930.581	5284.47
930.89	5270
931.199	5263.22
931.508	5214.41
931.817	5223.22
932.125	5201.98
932.434	5187.74
932.743	5131.25
933.051	5134.86
933.36	5098.48
933.669	5052.61
933.977	5047.41
934.286	5055.32
934.594	4983.46
934.902	4991.82
935.21	4943.46
935.519	4955.89
935.827	4924.02
936.135	4898.71
936.443	4897.13
936.751	4862.78
937.059	4880.18
937.367	4837.02
937.674	4785.5
937.982	4772.39
938.29	4744.82
938.597	4744.14
938.905	4671.37
939.213	4686.06
939.52	4698.04
939.827	4696.23
940.135	4656.46
940.442	4612.39
940.749	4643.8
941.056	4571.94
941.363	4555.45
941.67	4581.66
941.977	4481.55
942.284	4513.86
942.591	4528.33
942.898	4462.79
943.205	4475.9
943.511	4457.14
943.818	4429.35
944.125	4384.15
944.431	4338.95
944.738	4380.31
945.044	4328.56
945.35	4299.86
945.657	4332.85
945.963	4263.93
946.269	4255.34
946.575	4259.41
946.881	4231.61
947.187	4176.92
947.493	4207.88
947.799	4173.99
948.105	4186.19
948.41	4113.65
948.716	4087.21
949.022	4056.93
949.327	4050.15
949.633	4044.95
949.938	4040.2
950.244	4058.06
950.549	4008.57
950.854	4001.79
951.16	4005.63
951.465	3964.5
951.77	3948
952.075	3919.76
952.38	3926.76
952.685	3905.52
952.99	3873.2
953.294	3878.63
953.599	3835.69
953.904	3807.67
954.209	3843.6
954.513	3785.07
954.818	3766.54
955.122	3741.23
955.426	3736.48
955.731	3719.31
956.035	3715.92
956.339	3636.83
956.643	3686.77
956.948	3643.15
957.252	3652.64
957.556	3656.03
957.86	3583.72
958.163	3615.13
958.467	3607.67
958.771	3538.52
959.075	3569.03
959.378	3557.05
959.682	3544.4
959.985	3529.26
960.289	3440.67
960.592	3454.01
960.896	3449.71
961.199	3425.53
961.502	3434.12
961.805	3417.17
962.108	3359.32
962.411	3360.67
962.714	3379.43
963.017	3307.34
963.32	3370.84
963.623	3359.54
963.926	3341.92
964.228	3304.4
964.531	3275.7
964.833	3306.66
965.136	3296.27
965.438	3276.83
965.741	3226.67
966.043	3245.2
966.345	3219.89
966.648	3195.48
966.95	3224.63
967.252	3138.99
967.554	3163.39
967.856	3150.51
968.158	3076.61
968.46	3134.01
968.761	3117.06
969.063	3081.36
969.365	3080.46
969.666	3110.96
969.968	3037.97
970.269	3010.63
970.571	2990.97
970.872	3038.2
971.174	2994.58
971.475	3009.27
971.776	2951.87
972.077	2924.53
972.378	2941.02
972.679	2942.38
972.98	2954.13
973.281	2884.53
973.582	2905.55
973.883	2913
974.183	2921.14
974.484	2856.96
974.785	2876.39
975.085	2837.52
975.386	2851.54
975.686	2838.2
975.986	2771.31
976.287	2821.03
976.587	2750.75
976.887	2762.27
977.187	2715.72
977.487	2736.96
977.787	2727.47
978.087	2719.79
978.387	2701.93
978.687	2698.32
978.987	2691.09
979.286	2669.85
979.586	2665.55
979.885	2635.04
980.185	2616.29
980.484	2615.16
980.784	2614.71
981.083	2595.95
981.382	2551.43
981.682	2553.69
981.981	2602.95
982.28	2520.92
982.579	2569.73
982.878	2532.22
983.177	2512.79
983.475	2485.9
983.774	2492.67
984.073	2490.19
984.372	2464.2
984.67	2463.75
984.969	2448.61
985.267	2474.82
985.566	2422.39
985.864	2411.32
986.162	2434.6
986.461	2419.91
986.759	2383.07
987.057	2356.41
987.355	2349.4
987.653	2336.29
987.951	2356.18
988.249	2332.68
988.547	2327.48
988.844	2303.53
989.142	2282.74
989.44	2289.06
989.737	2274.38
990.035	2272.34
990.332	2246.13
990.63	2209.29
990.927	2221.04
991.224	2220.59
991.521	2228.73
991.819	2209.07
992.116	2204.09
992.413	2193.25
992.71	2169.07
993.006	2185.56
993.303	2174.72
993.6	2170.88
993.897	2128.84
994.193	2133.14
994.49	2106.92
994.787	2095.85
995.083	2099.69
995.379	2084.32
995.676	2078.9
995.972	2050.65
996.268	2065.79
996.565	2048.39
996.861	2047.04
997.157	2030.77
997.453	2031.9
997.749	2035.51
998.044	2020.37
998.34	2007.94
998.636	1986.7
998.932	1975.85
999.227	1965.91
999.523	1950.77
999.818	1965.68
1000.114	1928.62
1000.409	1937.43
1000.704	1887.49
1001	1899.47
1001.295	1906.93
1001.59	1872.58
1001.885	1862.18
1002.18	1871.45
1002.475	1854.27
1002.77	1845.91
1003.065	1834.39
1003.359	1828.74
1003.654	1813.14
1003.949	1795.97
1004.243	1785.57
1004.538	1806.59
1004.832	1769.08
1005.127	1796.2
1005.421	1767.04
1005.715	1780.83
1006.009	1746.25
1006.304	1729.98
1006.598	1739.47
1006.892	1707.38
1007.186	1698.12
1007.48	1711.9
1007.773	1723.2
1008.067	1661.51
1008.361	1654.5
1008.655	1658.12
1008.948	1665.8
1009.242	1641.62
1009.535	1621.29
1009.829	1629.19
1010.122	1591.23
1010.415	1623.54
1010.708	1566.82
1011.001	1592.59
1011.295	1579.93
1011.588	1568.63
1011.881	1568.63
1012.173	1553.94
1012.466	1550.55
1012.759	1529.99
1013.052	1523.89
1013.344	1520.04
1013.637	1535.19
1013.93	1514.17
1014.222	1487.96
1014.514	1478.92
1014.807	1453.61
1015.099	1466.26
1015.391	1463.32
1015.683	1443.89
1015.976	1445.7
1016.268	1424.23
1016.56	1424.45
1016.851	1416.54
1017.143	1430.56
1017.435	1395.75
1017.727	1387.39
1018.018	1360.05
1018.31	1355.98
1018.602	1368.86
1018.893	1357.79
1019.185	1360.73
1019.476	1350.78
1019.767	1334.96
1020.058	1328.19
1020.35	1325.02
1020.641	1305.81
1020.932	1323.21
1021.223	1268.3
1021.514	1252.93
1021.804	1279.37
1022.095	1257.68
1022.386	1262.2
1022.677	1253.61
1022.967	1262.42
1023.258	1255.87
1023.548	1230.33
1023.839	1205.7
1024.129	1231.01
1024.419	1210.9
1024.709	1216.78
1025	1206.38
1025.29	1153.95
1025.58	1171.35
1025.87	1148.08
1026.16	1145.14
1026.449	1139.49
1026.739	1127.74
1027.029	1146.5
1027.319	1112.37
1027.608	1133.84
1027.898	1121.86
1028.187	1119.15
1028.477	1118.02
1028.766	1095.42
1029.055	1086.16
1029.344	1077.8
1029.634	1085.25
1029.923	1082.77
1030.212	1067.4
1030.501	1055.88
1030.79	1035.99
1031.078	1035.31
1031.367	1024.46
1031.656	1034.63
1031.945	1018.14
1032.233	1023.79
1032.522	1028.53
1032.81	1003.22
1033.099	997.12
1033.387	977.23
1033.675	976.33
1033.963	976.56
1034.251	979.72
1034.54	958.25
1034.828	957.8
1035.116	938.59
1035.403	965.48
1035.691	942.88
1035.979	942.66
1036.267	932.72
1036.554	923.45
1036.842	931.59
1037.129	915.54
1037.417	921.19
1037.704	915.54
1037.992	904.02
1038.279	914.41
1038.566	894.3
1038.853	894.3
1039.14	894.3
