Data from hue_210_FLMS001491_00077.txt Node
Date: Tue Feb 07 16:41:41 GMT 2017
User: dcchb
Spectrometer: FLMS00149
Trigger mode: 0
Integration Time (sec): 2.000000E-2
Scans to average: 10
Electric dark correction enabled: true
Nonlinearity correction enabled: false
Boxcar width: 0
XAxis mode: Wavelengths
Number of Pixels in Spectrum: 2048
>>>>>Begin Spectral Data<<<<<
341.393	-10.38
341.776	-10.38
342.16	-10.38
342.543	-53.77
342.927	-73.66
343.31	-66.65
343.693	-63.94
344.077	-78.85
344.46	-56.71
344.843	-62.81
345.226	-37.05
345.61	-27.78
345.993	-21
346.376	-1.34
346.759	-16.48
347.142	38.21
347.525	40.01
347.908	61.48
348.291	89.05
348.674	73.91
349.057	129.95
349.44	143.74
349.823	143.74
350.206	160.91
350.588	193.46
350.971	237.52
351.354	246.11
351.737	235.94
352.119	253.11
352.502	254.47
352.884	257.86
353.267	278.88
353.65	281.14
354.032	317.97
354.414	289.27
354.797	334.24
355.179	325.66
355.562	325.66
355.944	342.6
356.326	312.32
356.709	334.92
357.091	338.31
357.473	336.73
357.855	336.5
358.238	312.32
358.62	339.89
359.002	336.95
359.384	345.77
359.766	354.81
360.148	330.63
360.53	343.06
360.912	329.95
361.294	314.58
361.676	332.43
362.057	317.07
362.439	327.01
362.821	338.76
363.203	348.93
363.584	330.17
363.966	305.54
364.348	313.23
364.729	324.53
365.111	315.94
365.493	293.34
365.874	315.26
366.256	333.11
366.637	323.62
367.019	322.94
367.4	325.66
367.781	287.24
368.163	329.27
368.544	335.15
368.925	307.58
369.306	305.77
369.688	306.45
370.069	301.02
370.45	299.22
370.831	301.02
371.212	317.97
371.593	315.03
371.974	309.84
372.355	317.75
372.736	323.85
373.117	315.94
373.498	304.41
373.879	307.58
374.26	302.38
374.641	300.35
375.021	330.17
375.402	325.2
375.783	298.31
376.163	328.59
376.544	302.15
376.925	331.08
377.305	313.45
377.686	319.33
378.066	324.98
378.447	327.69
378.827	308.71
379.208	341.02
379.588	329.05
379.968	322.94
380.349	339.89
380.729	345.77
381.109	346.22
381.489	339.44
381.87	341.7
382.25	343.28
382.63	326.56
383.01	340.12
383.39	346.45
383.77	364.3
384.15	347.58
384.53	356.61
384.91	347.35
385.29	345.77
385.67	354.81
386.049	367.69
386.429	345.32
386.809	348.48
387.189	347.58
387.568	353.45
387.948	349.16
388.328	384.18
388.707	357.97
389.087	368.59
389.466	365.65
389.846	363.62
390.225	372.66
390.605	358.42
390.984	370.17
391.363	372.43
391.743	374.47
392.122	393.68
392.501	394.58
392.881	372.43
393.26	374.69
393.639	390.29
394.018	376.28
394.397	388.93
394.776	389.38
395.155	375.82
395.534	395.03
395.913	394.35
396.292	409.95
396.671	402.04
397.05	400.23
397.429	393.9
397.808	394.81
398.186	392.32
398.565	384.41
398.944	402.04
399.323	418.99
399.701	418.53
400.08	430.29
400.458	414.24
400.837	419.21
401.215	404.98
401.594	404.75
401.972	438.87
402.351	438.87
402.729	441.58
403.107	434.58
403.486	449.04
403.864	446.56
404.242	462.15
404.62	431.19
404.999	458.31
405.377	463.05
405.755	465.99
406.133	467.12
406.511	462.83
406.889	523.16
407.267	482.49
407.645	510.51
408.023	490.85
408.401	517.51
408.779	513.9
409.156	501.24
409.534	523.62
409.912	548.47
410.29	532.88
410.667	505.09
411.045	553.67
411.422	566.33
411.8	576.72
412.178	551.19
412.555	582.82
412.933	599.77
413.31	603.61
413.687	600
414.065	639.77
414.442	599.32
414.819	618.75
415.197	620.11
415.574	638.42
415.951	637.74
416.328	663.95
416.705	673.89
417.082	678.87
417.46	700.79
417.837	704.18
418.214	725.87
418.591	694.91
418.967	697.17
419.344	739.88
419.721	745.08
420.098	744.85
420.475	736.72
420.852	742.59
421.228	786.66
421.605	804.29
421.982	821.01
422.358	804.06
422.735	856.49
423.111	847.45
423.488	879.54
423.864	874.57
424.241	896.49
424.617	936.26
424.994	928.35
425.37	947.56
425.746	956.37
426.123	950.27
426.499	977.39
426.875	984.17
427.251	1003.38
427.627	1027.11
428.003	1044.73
428.379	1053.55
428.756	1060.55
429.132	1083.38
429.507	1092.87
429.883	1105.07
430.259	1117.27
430.635	1119.53
431.011	1139.87
431.387	1165.18
431.763	1181.68
432.138	1189.81
432.514	1200.43
432.89	1197.27
433.265	1266.65
433.641	1270.26
434.016	1289.02
434.392	1322.01
434.767	1349.81
435.143	1360.88
435.518	1383.03
435.894	1417.6
436.269	1439.3
436.644	1441.11
437.02	1452.41
437.395	1480.65
437.77	1519.3
438.145	1543.02
438.52	1603.81
438.895	1584.83
439.271	1582.57
439.646	1666.64
440.021	1671.38
440.395	1682.68
440.77	1639.07
441.145	1710.7
441.52	1776.46
441.895	1757.26
442.27	1777.82
442.645	1797.48
443.019	1824.82
443.394	1800.87
443.769	1846.07
444.143	1877.25
444.518	1862.11
444.892	1904.6
445.267	1900.76
445.641	1936.23
446.016	1929.68
446.39	1915.44
446.764	1994.09
447.139	1978.04
447.513	2012.16
447.887	2020.53
448.262	2036.12
448.636	2055.1
449.01	2050.81
449.384	2072.5
449.758	2065.5
450.132	2121.99
450.506	2119.28
450.88	2172.16
451.254	2140.97
451.628	2181.88
452.002	2204.7
452.376	2222.55
452.75	2252.61
453.123	2234.53
453.497	2329.67
453.871	2327.41
454.244	2349.33
454.618	2375.09
454.992	2421.42
455.365	2430.91
455.739	2461.19
456.112	2469.1
456.486	2496.22
456.859	2500.51
457.232	2584.13
457.606	2558.59
457.979	2592.26
458.352	2660.74
458.725	2683.79
459.099	2688.08
459.472	2747.74
459.845	2781.86
460.218	2765.37
460.591	2803.1
460.964	2810.79
461.337	2906.83
461.71	2889.2
462.083	2987.05
462.456	2934.85
462.829	2963.55
463.201	3058.69
463.574	3022.76
463.947	3093.72
464.32	3161.06
464.692	3187.27
465.065	3196.09
465.438	3259.14
465.81	3281.51
466.183	3324.9
466.555	3403.31
466.928	3389.98
467.3	3340.27
467.672	3444.9
468.045	3545.01
468.417	3530.54
468.789	3541.62
469.161	3604.21
469.534	3675.62
469.906	3721.05
470.278	3726.7
470.65	3758.79
471.022	3803.76
471.394	3899.57
471.766	3905.45
472.138	4004.65
472.51	4085.78
472.882	4090.08
473.253	4135.95
473.625	4209.39
473.997	4306.79
474.369	4316.06
474.74	4329.17
475.112	4398.77
475.484	4478.77
475.855	4551.53
476.227	4575.49
476.598	4687.12
476.97	4713.79
477.341	4834.92
477.713	4871.98
478.084	4900
478.455	5001.69
478.827	5026.1
479.198	5188.35
479.569	5209.82
479.94	5325.52
480.311	5330.95
480.682	5425.63
481.053	5545.18
481.424	5672.18
481.795	5608.45
482.166	5721.45
482.537	5782.46
482.908	5897.94
483.279	5961.89
483.65	6061.55
484.021	6155.56
484.391	6193.07
484.762	6225.16
485.133	6264.48
485.503	6334.08
485.874	6526.17
486.244	6512.16
486.615	6592.16
486.985	6697.92
487.356	6832.15
487.726	6855.43
488.097	7027.17
488.467	6964.35
488.837	7159.15
489.207	7165.7
489.578	7191.46
489.948	7329.54
490.318	7363.21
490.688	7420.61
491.058	7557.78
491.428	7613.6
491.798	7662.64
492.168	7818.79
492.538	7866.93
492.908	7928.62
493.278	7992.8
493.648	7995.51
494.017	8098.56
494.387	8075.06
494.757	8168.61
495.126	8199.35
495.496	8235.5
495.866	8349.63
496.235	8359.57
496.605	8411.09
496.974	8355.27
497.344	8487.47
497.713	8574.25
498.082	8615.15
498.452	8709.16
498.821	8626.45
499.19	8692.89
499.559	8763.85
499.928	8799.78
500.298	8851.31
500.667	8851.31
501.036	8891.08
501.405	8918.88
501.774	8912.32
502.143	9008.82
502.512	9023.28
502.88	9118.19
503.249	9040.45
503.618	9101.47
503.987	9177.17
504.356	9133.79
504.724	9173.11
505.093	9215.59
505.462	9232.99
505.83	9265.08
506.199	9281.8
506.567	9487.22
506.936	9409.48
507.304	9430.95
507.672	9422.82
508.041	9508.46
508.409	9473.66
508.777	9539.65
509.145	9603.15
509.514	9580.33
509.882	9613.09
510.25	9650.83
510.618	9648.8
510.986	9663.04
511.354	9749.14
511.722	9726.09
512.09	9770.6
512.458	9788.68
512.826	9803.6
513.193	9736.48
513.561	9705.07
513.929	9875.01
514.297	9948.68
514.664	9863.71
515.032	9864.16
515.4	9895.57
515.767	9930.15
516.135	9898.74
516.502	9851.51
516.869	9989.81
517.237	9947.78
517.604	9974.67
517.972	9952.29
518.339	9990.26
518.706	9986.64
519.073	10023.25
519.44	10016.47
519.808	10113.42
520.175	10052.86
520.542	10145.74
520.909	10102.35
521.276	10053.99
521.643	10162.68
522.009	10162.23
522.376	10167.43
522.743	10103.93
523.11	10183.93
523.477	10257.82
523.843	10225.06
524.21	10308.44
524.577	10410.59
524.943	10336.24
525.31	10276.81
525.676	10341.44
526.043	10369.68
526.409	10379.18
526.776	10401.1
527.142	10428.44
527.508	10366.97
527.874	10408.33
528.241	10396.12
528.607	10394.09
528.973	10406.97
529.339	10439.51
529.705	10428.21
530.071	10397.93
530.437	10344.37
530.803	10395.45
531.169	10399.97
531.535	10391.38
531.901	10334.88
532.267	10389.35
532.632	10325.39
532.998	10316.81
533.364	10369.68
533.73	10319.97
534.095	10363.36
534.461	10307.09
534.826	10322.23
535.192	10306.86
535.557	10356.13
535.923	10302.79
536.288	10204.49
536.653	10231.38
537.019	10166.3
537.384	10163.59
537.749	10106.42
538.114	10188.45
538.479	10069.35
538.845	10053.08
539.21	9965.4
539.575	10005.4
539.94	9998.62
540.305	10025.97
540.67	9945.74
541.034	9910.49
541.399	9821.68
541.764	9859.87
542.129	9840.89
542.494	9764.28
542.858	9856.7
543.223	9720.21
543.587	9774.67
543.952	9731.51
544.316	9674.79
544.681	9694
545.045	9693.09
545.41	9629.59
545.774	9633.21
546.138	9608.58
546.503	9576.26
546.867	9469.37
547.231	9471.86
547.595	9508.92
547.959	9454.68
548.324	9364.06
548.688	9405.64
549.052	9333.33
549.416	9374.91
549.779	9406.09
550.143	9341.46
550.507	9255.14
550.871	9254.69
551.235	9167
551.599	9311.63
551.962	9195.93
552.326	9129.27
552.689	9094.46
553.053	9111.41
553.417	9080.68
553.78	9153.22
554.143	9038.65
554.507	9050.4
554.87	9082.26
555.234	9075.93
555.597	8968.14
555.96	8998.65
556.323	8996.84
556.686	8923.62
557.05	8955.71
557.413	8924.3
557.776	8945.99
558.139	8944.19
558.502	8899.44
558.865	8804.53
559.228	8926.56
559.59	8877.75
559.953	8875.94
560.316	8953.9
560.679	8895.15
561.041	8961.36
561.404	8901.93
561.767	8894.47
562.129	8880.46
562.492	8866.45
562.854	8904.86
563.217	8884.3
563.579	8868.26
563.941	8962.26
564.304	8880.91
564.666	8929.5
565.028	8928.37
565.39	8886.56
565.753	8990.06
566.115	8979.67
566.477	8937.41
566.839	8957.29
567.201	8995.71
567.563	8976.28
567.925	8995.26
568.287	9010.4
568.648	8993.22
569.01	9007.91
569.372	9034.58
569.734	9033.45
570.095	9064.41
570.457	9051.53
570.819	9113.22
571.18	9039.78
571.542	9045.43
571.903	9023.28
572.265	9168.59
572.626	9181.24
572.987	9132.66
573.349	9149.15
573.71	9206.33
574.071	9138.3
574.432	9148.7
574.794	9223.73
575.155	9222.37
575.516	9172.88
575.877	9211.3
576.238	9265.76
576.599	9250.39
576.96	9291.75
577.32	9218.75
577.681	9335.14
578.042	9233.44
578.403	9243.61
578.763	9332.2
579.124	9344.85
579.485	9365.19
579.845	9373.1
580.206	9309.83
580.566	9353.44
580.927	9392.54
581.287	9414.68
581.648	9410.84
582.008	9465.53
582.368	9353.21
582.728	9441.12
583.089	9414.23
583.449	9395.02
583.809	9453.32
584.169	9461.69
584.529	9412.2
584.889	9439.99
585.249	9421.46
585.609	9477.73
585.969	9450.39
586.329	9487
586.688	9542.36
587.048	9529.26
587.408	9452.65
587.768	9538.75
588.127	9432.99
588.487	9548.92
588.846	9595.47
589.206	9553.89
589.565	9484.28
589.925	9581.23
590.284	9517.73
590.643	9596.82
591.003	9536.94
591.362	9595.24
591.721	9508.69
592.08	9568.8
592.44	9577.39
592.799	9617.84
593.158	9586.88
593.517	9621.68
593.876	9598.18
594.235	9590.95
594.593	9554.79
594.952	9565.86
595.311	9542.14
595.67	9628.91
596.029	9652.42
596.387	9626.65
596.746	9647.67
597.104	9584.85
597.463	9558.41
597.822	9598.86
598.18	9620.78
598.538	9545.3
598.897	9632.53
599.255	9565.41
599.613	9665.07
599.972	9592.53
600.33	9665.3
600.688	9571.74
601.046	9618.07
601.404	9689.93
601.762	9660.78
602.12	9673.21
602.478	9713.88
602.836	9638.63
603.194	9660.55
603.552	9660.55
603.91	9623.72
604.268	9642.47
604.625	9592.53
604.983	9552.76
605.341	9623.49
605.698	9635.69
606.056	9644.51
606.413	9673.66
606.771	9661.23
607.128	9675.69
607.485	9621.23
607.843	9659.42
608.2	9764.5
608.557	9741.23
608.914	9670.27
609.272	9668.01
609.629	9783.03
609.986	9697.16
610.343	9802.47
610.7	9757.72
611.057	9681.34
611.414	9755.92
611.771	9745.97
612.127	9788.91
612.484	9770.6
612.841	9809.25
613.198	9803.82
613.554	9819.87
613.911	9787.1
614.267	9844.05
614.624	9841.56
614.98	9825.97
615.337	9907.32
615.693	9899.19
616.05	9811.73
616.406	9857.83
616.762	9887.89
617.118	9882.24
617.475	9840.66
617.831	9941.45
618.187	9953.65
618.543	9943.03
618.899	10033.42
619.255	9932.18
619.611	9956.59
619.967	9963.37
620.323	10033.65
620.678	9925.4
621.034	9990.03
621.39	9971.5
621.746	9827.33
622.101	10019.41
622.457	9924.95
622.812	9975.57
623.168	9994.55
623.523	9982.58
623.879	9997.04
624.234	9937.83
624.589	10000.43
624.945	9905.97
625.3	10000.43
625.655	9896.25
626.01	9952.07
626.365	9917.04
626.72	9937.38
627.075	9948.23
627.43	9923.14
627.785	9965.18
628.14	9933.31
628.495	9973.31
628.85	9953.42
629.205	9888.12
629.559	9974.67
629.914	9856.7
630.269	9931.28
630.623	9881.56
630.978	9875.23
631.332	9913.88
631.687	9899.87
632.041	9847.89
632.396	9870.94
632.75	9772.86
633.104	9837.95
633.459	9839.76
633.813	9784.84
634.167	9762.92
634.521	9724.73
634.875	9740.32
635.229	9748.01
635.583	9641.34
635.937	9706.65
636.291	9694.45
636.645	9692.19
636.999	9689.02
637.352	9643.83
637.706	9595.02
638.06	9662.58
638.413	9646.54
638.767	9640.66
639.121	9648.57
639.474	9568.12
639.828	9538.75
640.181	9634.79
640.534	9635.69
640.888	9510.05
641.241	9505.98
641.594	9517.05
641.947	9595.47
642.301	9512.53
642.654	9509.37
643.007	9463.49
643.36	9501.23
643.713	9518.86
644.066	9550.95
644.419	9442.48
644.771	9470.73
645.124	9405.19
645.477	9292.2
645.83	9344.4
646.182	9185.54
646.535	9215.37
646.888	9237.06
647.24	9175.37
647.593	9228.7
647.945	9218.75
648.298	9121.13
648.65	9098.98
649.002	9143.5
649.355	9196.61
649.707	9160.23
650.059	9219.66
650.411	9317.96
650.763	9357.28
651.115	9392.08
651.467	9400.22
651.819	9321.8
652.171	9411.97
652.523	9305.98
652.875	9334.46
653.227	9327.68
653.578	9375.59
653.93	9404.29
654.282	9305.31
654.633	9331.29
654.985	9355.7
655.337	9323.61
655.688	9386.43
656.039	9385.76
656.391	9348.24
656.742	9384.17
657.094	9289.94
657.445	9381.91
657.796	9356.15
658.147	9345.31
658.498	9399.32
658.849	9396.83
659.2	9344.63
659.551	9321.35
659.902	9395.7
660.253	9373.33
660.604	9359.99
660.955	9383.27
661.306	9414.68
661.656	9357.06
662.007	9366.55
662.358	9365.87
662.708	9372.42
663.059	9377.39
663.409	9383.5
663.76	9447.45
664.11	9413.1
664.461	9432.76
664.811	9492.42
665.161	9454.68
665.511	9376.72
665.862	9479.54
666.212	9464.62
666.562	9493.32
666.912	9449.26
667.262	9413.1
667.612	9438.86
667.962	9445.64
668.312	9433.44
668.662	9508.46
669.011	9419.88
669.361	9482.7
669.711	9450.84
670.06	9407
670.41	9284.97
670.76	9410.16
671.109	9397.51
671.459	9397.96
671.808	9389.82
672.157	9399.32
672.507	9375.13
672.856	9344.18
673.205	9354.12
673.554	9408.58
673.904	9399.77
674.253	9353.21
674.602	9312.09
674.951	9178.3
675.3	9149.6
675.649	9284.97
675.998	9287.23
676.346	9275.48
676.695	9338.75
677.044	9241.13
677.393	9226.44
677.741	9209.26
678.09	9244.52
678.438	9182.82
678.787	9232.54
679.135	9202.26
679.484	9122.71
679.832	9171.98
680.181	9126.55
680.529	9131.75
680.877	9124.07
681.225	9157.51
681.573	9136.27
681.922	9059.89
682.27	9009.49
682.618	9052.66
682.966	9029.83
683.314	9038.65
683.661	8945.54
684.009	8940.34
684.357	8964.07
684.705	8875.94
685.053	8908.71
685.4	8929.04
685.748	8859.44
686.095	8835.49
686.443	8821.48
686.79	8810.18
687.138	8804.98
687.485	8819.9
687.832	8767.69
688.18	8796.84
688.527	8735.38
688.874	8671.42
689.221	8712.78
689.568	8599.79
689.915	8594.14
690.262	8588.04
690.609	8617.19
690.956	8541.71
691.303	8508.94
691.65	8495.84
691.997	8489.51
692.344	8443.41
692.69	8389.62
693.037	8444.99
693.383	8297.2
693.73	8338.55
694.077	8290.64
694.423	8248.61
694.769	8224.88
695.116	8204.09
695.462	8228.72
695.808	8199.8
696.155	8157.31
696.501	8154.15
696.847	8101.72
697.193	8054.27
697.539	8086.81
697.885	8005.91
698.231	8002.06
698.577	7969.75
698.923	7958.9
699.269	7927.94
699.614	7833.03
699.96	7836.87
700.306	7808.4
700.651	7809.07
700.997	7785.12
701.342	7789.41
701.688	7714.16
702.033	7719.13
702.379	7613.83
702.724	7662.64
703.069	7640.27
703.415	7518.01
703.76	7565.46
704.105	7580.15
704.45	7553.94
704.795	7482.53
705.14	7431.46
705.485	7409.76
705.83	7353.95
706.175	7401.18
706.52	7351.01
706.865	7330.22
707.209	7337.67
707.554	7283.66
707.899	7234.17
708.243	7247.96
708.588	7203.89
708.932	7144.01
709.277	7177.45
709.621	7178.81
709.966	7106.27
710.31	7151.69
710.654	7138.36
710.998	7055.87
711.342	7064.46
711.687	7050.45
712.031	7025.82
712.375	7006.84
712.719	7007.51
713.063	7027.85
713.407	7039.83
713.75	6976.78
714.094	6933.84
714.438	6919.15
714.782	6957.12
715.125	6911.7
715.469	6850.91
715.812	6868.08
716.156	6875.31
716.499	6889.32
716.843	6912.15
717.186	6803
717.53	6817.46
717.873	6815.88
718.216	6837.35
718.559	6795.32
718.902	6765.26
719.246	6813.39
719.589	6755.09
719.932	6721.65
720.275	6760.74
720.617	6696.34
720.96	6769.78
721.303	6736.79
721.646	6748.09
721.989	6662.21
722.331	6676
722.674	6714.19
723.016	6659.95
723.359	6686.17
723.701	6665.15
724.044	6655.43
724.386	6595.55
724.729	6641.42
725.071	6619.28
725.413	6631.48
725.755	6675.77
726.097	6593.97
726.439	6598.48
726.782	6591.25
727.124	6606.17
727.465	6585.6
727.807	6638.48
728.149	6621.99
728.491	6566.62
728.833	6570.91
729.175	6548.99
729.516	6540.63
729.858	6608.65
730.199	6570.91
730.541	6569.56
730.882	6598.71
731.224	6559.39
731.565	6557.36
731.906	6599.61
732.248	6586.96
732.589	6552.84
732.93	6515.1
733.271	6534.31
733.612	6559.16
733.953	6617.02
734.294	6539.28
734.635	6536.57
734.976	6629.44
735.317	6586.96
735.658	6499.96
735.999	6597.13
736.339	6572.95
736.68	6592.38
737.021	6585.15
737.361	6595.55
737.702	6621.31
738.042	6613.85
738.383	6578.6
738.723	6676
739.063	6624.25
739.404	6633.29
739.744	6630.12
740.084	6627.41
740.424	6606.62
740.764	6617.24
741.104	6722.78
741.444	6683.68
741.784	6673.06
742.124	6648.65
742.464	6740.63
742.804	6690.01
743.143	6723.23
743.483	6680.97
743.823	6725.49
744.162	6733.4
744.502	6848.2
744.841	6796.9
745.181	6888.65
745.52	6837.35
745.86	6888.87
746.199	6948.31
746.538	6990.34
746.877	7051.81
747.216	7128.41
747.556	7134.97
747.895	7125.93
748.234	7154.63
748.573	7280.95
748.911	7228.3
749.25	7309.2
749.589	7408.41
749.928	7482.08
750.267	7502.64
750.605	7574.28
750.944	7702.64
751.283	7635.52
751.621	7791
751.96	7873.48
752.298	7971.56
752.636	8076.64
752.975	8140.59
753.313	8255.62
753.651	8348.04
753.989	8399.79
754.327	8573.8
754.666	8615.83
755.004	8715.94
755.342	8880.91
755.679	9038.19
756.017	9120.45
756.355	9274.35
756.693	9410.16
757.031	9508.69
757.368	9672.53
757.706	9793.43
758.044	9944.39
758.381	10134.66
758.719	10233.19
759.056	10383.47
759.394	10551.38
759.731	10666.4
760.068	10885.83
760.405	11044.92
760.743	11149.1
761.08	11299.6
761.417	11522.87
761.754	11684.45
762.091	11879.93
762.428	12046.7
762.765	12229.75
763.102	12387.94
763.438	12468.16
763.775	12746.35
764.112	12880.81
764.449	13171.42
764.785	13281.7
765.122	13347.23
765.458	13611.63
765.795	13732.99
766.131	13887.33
766.467	14038.97
766.804	14174.78
767.14	14254.1
767.476	14452.52
767.812	14593.3
768.148	14816.57
768.485	14885.95
768.821	14966.85
769.157	15210.01
769.492	15302.44
769.828	15460.17
770.164	15530.91
770.5	15626.04
770.836	15853.16
771.171	15800.95
771.507	16013.15
771.842	16008.86
772.178	16236.42
772.513	16255.63
772.849	16353.71
773.184	16448.85
773.519	16519.13
773.855	16565.45
774.19	16671.67
774.525	16752.57
774.86	16981.04
775.195	16992.34
775.53	16961.38
775.865	17045.22
776.2	17148.49
776.535	17008.83
776.87	17100.13
777.205	17167.92
777.539	17139.68
777.874	17431.19
778.209	17405.21
778.543	17374.47
778.878	17394.81
779.212	17495.6
779.547	17496.5
779.881	17567.91
780.215	17473.68
780.55	17700.57
780.884	17633.67
781.218	17712.99
781.552	17797.29
781.886	17599.1
782.22	17657.85
782.554	17659.66
782.888	17588.48
783.222	17459.22
783.556	17539.44
783.889	17635.48
784.223	17581.02
784.557	17583.05
784.89	17624.41
785.224	17609.04
785.557	17618.76
785.891	17571.08
786.224	17553.9
786.558	17594.81
786.891	17548.71
787.224	17566.33
787.557	17512.32
787.891	17536.28
788.224	17514.58
788.557	17568.37
788.89	17528.37
789.223	17579.21
789.556	17377.41
789.888	17455.83
790.221	17419.67
790.554	17232.1
790.887	17376.96
791.219	17337.19
791.552	17247.02
791.884	17247.02
792.217	17161.6
792.549	17203.4
792.882	17141.03
793.214	17089.51
793.546	17112.11
793.879	17026.23
794.211	17030.98
794.543	17016.97
794.875	16983.52
795.207	17022.39
795.539	17047.25
795.871	16952.11
796.203	16847.03
796.535	16807.03
796.867	16765.67
797.198	16755.73
797.53	16775.39
797.862	16650.42
798.193	16692.46
798.525	16644.1
798.856	16607.71
799.188	16615.17
799.519	16411.33
799.85	16337.66
800.182	16454.72
800.513	16352.58
800.844	16298.57
801.175	16407.94
801.506	16340.38
801.837	16294.27
802.168	16219.25
802.499	16306.7
802.83	16142.64
803.161	16024
803.491	16118.23
803.822	16153.71
804.153	16007.28
804.483	15982.19
804.814	15901.74
805.145	15962.76
805.475	15857.45
805.805	15801.18
806.136	15938.13
806.466	15811.35
806.796	15792.82
807.126	15625.82
807.457	15640.96
807.787	15723.67
808.117	15590.56
808.447	15565.71
808.777	15575.88
809.107	15534.07
809.436	15512.37
809.766	15403.45
810.096	15481.64
810.426	15413.17
810.755	15354.86
811.085	15358.25
811.414	15312.38
811.744	15269.44
812.073	15171.14
812.403	15304.02
812.732	15145.6
813.061	15252.49
813.39	15107.41
813.719	15066.96
814.049	15108.77
814.378	15033.97
814.707	15012.73
815.036	15033.97
815.365	14934.08
815.693	14859.28
816.022	14800.75
816.351	14845.5
816.68	14783.13
817.008	14796.91
817.337	14681.89
817.665	14680.31
817.994	14611.16
818.322	14700.87
818.651	14617.71
818.979	14576.13
819.307	14578.84
819.636	14645.05
819.964	14577.94
820.292	14505.17
820.62	14531.38
820.948	14514.21
821.276	14596.01
821.604	14515.34
821.932	14601.44
822.259	14549.69
822.587	14584.26
822.915	14509.92
823.243	14611.83
823.57	14513.3
823.898	14490.03
824.225	14407.77
824.553	14397.6
824.88	14456.13
825.207	14543.59
825.535	14526.86
825.862	14497.26
826.189	14460.2
826.516	14611.38
826.843	14572.74
827.17	14543.59
827.497	14570.25
827.824	14586.3
828.151	14626.3
828.478	14589.69
828.805	14597.6
829.131	14447.32
829.458	14557.37
829.785	14436.24
830.111	14534.77
830.438	14498.16
830.764	14600.08
831.09	14530.93
831.417	14467.88
831.743	14530.93
832.069	14493.87
832.395	14416.36
832.722	14512.4
833.048	14528.22
833.374	14398.73
833.7	14491.61
834.026	14387.66
834.351	14408.67
834.677	14341.56
835.003	14497.94
835.329	14435.11
835.654	14389.47
835.98	14392.18
836.306	14365.06
836.631	14364.83
836.956	14409.35
837.282	14391.05
837.607	14308.56
837.932	14309.69
838.258	14268.11
838.583	14256.59
838.908	14190.15
839.233	14196.03
839.558	14204.16
839.883	14134.56
840.208	14119.19
840.533	14073.54
840.858	14053.66
841.182	14068.57
841.507	13984.96
841.832	13903.15
842.156	13904.51
842.481	13939.99
842.805	13870.16
843.13	13845.75
843.454	13836.71
843.778	13728.01
844.103	13720.11
844.427	13717.62
844.751	13690.95
845.075	13614.57
845.399	13600.79
845.723	13514.91
846.047	13480.79
846.371	13527.79
846.695	13449.83
847.019	13395.59
847.343	13324.18
847.666	13229.72
847.99	13216.62
848.313	13188.59
848.637	13104.53
848.96	13105.88
849.284	12992.89
849.607	13026.56
849.931	12926.91
850.254	12857.3
850.577	12771.66
850.9	12663.18
851.223	12724.43
851.546	12659.57
851.869	12533.24
852.192	12632
852.515	12509.52
852.838	12414.6
853.161	12492.57
853.483	12350.42
853.806	12398.56
854.129	12370.76
854.451	12258.67
854.774	12248.05
855.096	12264.78
855.419	12174.84
855.741	12115.63
856.063	12097.1
856.385	12011.22
856.708	12005.57
857.03	11967.84
857.352	11887.84
857.674	11885.13
857.996	11867.27
858.318	11762.64
858.64	11794.28
858.961	11810.78
859.283	11728.52
859.605	11669.09
859.926	11671.57
860.248	11628.18
860.57	11590.9
860.891	11583.89
861.212	11536.43
861.534	11495.98
861.855	11430.45
862.176	11466.38
862.498	11435.19
862.819	11496.89
863.14	11372.6
863.461	11365.37
863.782	11328.98
864.103	11453.95
864.424	11303.45
864.745	11336.21
865.065	11293.73
865.386	11195.43
865.707	11201.75
866.027	11247.4
866.348	11198.36
866.668	11185.93
866.989	11127.18
867.309	11005.15
867.63	11159.27
867.95	11072.04
868.27	10952.27
868.59	11059.38
868.91	10983.68
869.23	10936.9
869.55	10919.05
869.87	11031.36
870.19	10935.32
870.51	10938.94
870.83	10940.29
871.15	10949.56
871.469	10888.09
871.789	10905.26
872.109	10949.33
872.428	10831.14
872.748	10818.26
873.067	10810.58
873.386	10830.01
873.706	10766.96
874.025	10755.21
874.344	10702.56
874.663	10843.8
874.982	10732.16
875.301	10711.37
875.62	10693.29
875.939	10634.76
876.258	10645.38
876.577	10586.85
876.896	10580.53
877.214	10522.22
877.533	10573.07
877.852	10542.11
878.17	10559.28
878.489	10579.62
878.807	10537.59
879.125	10536.23
879.444	10444.71
879.762	10499.63
880.08	10471.38
880.398	10438.16
880.716	10447.2
881.034	10367.2
881.352	10352.96
881.67	10346.63
881.988	10337.14
882.306	10272.74
882.624	10268.9
882.941	10198.62
883.259	10183.48
883.577	10163.81
883.894	10182.12
884.212	10162.01
884.529	10147.54
884.846	10109.8
885.164	10036.13
885.481	9982.58
885.798	9993.65
886.115	9990.49
886.432	9914.33
886.75	9952.52
887.067	9988
887.383	9878.62
887.7	9875.69
888.017	9876.36
888.334	9858.29
888.651	9827.1
888.967	9793.2
889.284	9734.9
889.6	9706.65
889.917	9715.46
890.233	9675.24
890.55	9565.41
890.866	9691.51
891.182	9645.86
891.498	9582.36
891.815	9518.63
892.131	9464.17
892.447	9493.78
892.763	9448.13
893.079	9484.28
893.395	9412.42
893.71	9389.82
894.026	9357.06
894.342	9286.78
894.657	9263.73
894.973	9291.3
895.289	9189.6
895.604	9205.2
895.92	9154.8
896.235	9158.87
896.55	9116.61
896.865	9082.94
897.181	9051.75
897.496	9037.52
897.811	8973.11
898.126	9011.98
898.441	8996.39
898.756	8898.76
899.071	8846.11
899.386	8850.63
899.7	8808.14
900.015	8712.55
900.33	8650.41
900.644	8659
900.959	8636.17
901.273	8637.3
901.588	8630.97
901.902	8584.65
902.216	8515.72
902.531	8486.57
902.845	8539.22
903.159	8440.24
903.473	8400.92
903.787	8376.97
904.101	8340.36
904.415	8310.98
904.729	8314.15
905.042	8259.46
905.356	8218.33
905.67	8216.3
905.984	8196.18
906.297	8171.1
906.611	8101.95
906.924	8053.59
907.237	8044.32
907.551	7996.87
907.864	7943.08
908.177	7943.08
908.491	7909.64
908.804	7887.94
909.117	7831.9
909.43	7742.64
909.743	7742.18
910.056	7774.5
910.368	7709.64
910.681	7640.72
910.994	7683.65
911.307	7596.88
911.619	7557.56
911.932	7551.23
912.244	7511.46
912.557	7515.3
912.869	7430.1
913.181	7392.81
913.494	7403.44
913.806	7335.87
914.118	7310.1
914.43	7304.23
914.742	7312.36
915.054	7225.81
915.366	7233.95
915.678	7194.18
915.99	7158.47
916.302	7123.44
916.613	7075.99
916.925	7064.46
917.236	7016.1
917.548	6981.07
917.859	6981.75
918.171	6971.58
918.482	6916.67
918.794	6864.69
919.105	6860.62
919.416	6837.35
919.727	6759.38
920.038	6801.19
920.349	6703.11
920.66	6722.55
920.971	6735.88
921.282	6712.15
921.593	6676.22
921.903	6639.84
922.214	6572.5
922.525	6553.51
922.835	6521.2
923.146	6541.76
923.456	6517.81
923.767	6428.55
924.077	6398.49
924.387	6403.69
924.697	6356.23
925.008	6323.46
925.318	6357.36
925.628	6337.25
925.938	6332.5
926.248	6236.23
926.558	6232.84
926.867	6187.87
927.177	6156.91
927.487	6150.81
927.796	6034.66
928.106	6103.13
928.416	6077.59
928.725	6093.87
929.034	5967.09
929.344	6017.48
929.653	6033.3
929.962	5958.05
930.271	5911.95
930.581	5849.58
930.89	5843.25
931.199	5856.13
931.508	5864.04
931.817	5879.86
932.125	5805.96
932.434	5808.9
932.743	5771.39
933.051	5704.04
933.36	5659.75
933.669	5630.37
933.977	5645.06
934.286	5600.32
934.594	5650.26
934.902	5539.08
935.21	5519.64
935.519	5531.85
935.827	5522.81
936.135	5473.09
936.443	5444.62
936.751	5392.64
937.059	5446.65
937.367	5366.2
937.674	5356.48
937.982	5336.82
938.29	5292.3
938.597	5304.96
938.905	5270.16
939.213	5228.13
939.52	5255.7
939.827	5231.51
940.135	5224.96
940.442	5197.39
940.749	5179.54
941.056	5115.36
941.363	5130.95
941.67	5110.84
941.977	5094.12
942.284	5035.59
942.591	5022.03
942.898	4988.58
943.205	4984.52
943.511	4987.68
943.818	4980.22
944.125	4876.27
944.431	4858.42
944.738	4843.05
945.044	4871.75
945.35	4805.09
945.657	4760.11
945.963	4759.89
946.269	4709.72
946.575	4744.3
946.881	4720.57
947.187	4719.21
947.493	4683.96
947.799	4665.2
948.105	4613.45
948.41	4570.52
948.716	4624.3
949.022	4587.24
949.327	4587.92
949.633	4536.39
949.938	4549.73
950.244	4490.52
950.549	4478.09
950.854	4460.91
951.16	4450.29
951.465	4412.55
951.77	4409.16
952.075	4396.96
952.38	4391.31
952.685	4340.24
952.99	4329.17
953.294	4325.55
953.599	4313.8
953.904	4264.99
954.209	4258.89
954.513	4257.98
954.818	4244.2
955.122	4219.34
955.426	4151.77
955.731	4184.99
956.035	4149.51
956.339	4136.85
956.643	4127.14
956.948	4083.52
957.252	4073.35
957.556	4079.45
957.86	3990.64
958.163	4015.05
958.467	3993.58
958.771	4006.46
959.075	3983.86
959.378	3948.38
959.682	3947.25
959.985	3926.24
960.289	3899.57
960.592	3912
960.896	3880.59
961.199	3824.55
961.502	3841.95
961.805	3846.24
962.108	3812.57
962.411	3807.6
962.714	3764.43
963.017	3778.22
963.32	3766.02
963.623	3712.23
963.926	3690.31
964.228	3691.22
964.531	3651.44
964.833	3683.76
965.136	3658.9
965.438	3589.75
965.741	3605.12
966.043	3608.73
966.345	3601.95
966.648	3610.31
966.95	3580.71
967.252	3504.78
967.554	3537.77
967.856	3535.51
968.158	3509.75
968.46	3488.06
968.761	3434.05
969.063	3474.95
969.365	3423.43
969.666	3408.51
969.968	3391.79
970.269	3387.5
970.571	3360.38
970.872	3386.59
971.174	3341.85
971.475	3333.71
971.776	3292.58
972.077	3287.16
972.378	3267.05
972.679	3304.11
972.98	3221.85
973.281	3268.63
973.582	3212.36
973.883	3222.3
974.183	3214.84
974.484	3213.26
974.785	3220.49
975.085	3206.94
975.386	3174.17
975.686	3140.04
975.986	3142.76
976.287	3108.63
976.587	3087.16
976.887	3103.66
977.187	3075.19
977.487	3079.26
977.787	3034.28
978.087	3037.45
978.387	3005.36
978.687	3008.07
978.987	2992.93
979.286	2962.65
979.586	2946.83
979.885	2941.41
980.185	2944.34
980.484	2935.76
980.784	2898.69
981.083	2901.41
981.382	2898.24
981.682	2901.18
981.981	2846.04
982.28	2868.87
982.579	2824.12
982.878	2835.42
983.177	2809.66
983.475	2786.38
983.774	2768.98
984.073	2762.43
984.372	2733.5
984.67	2744.8
984.969	2750.22
985.267	2731.92
985.566	2715.87
985.864	2717.23
986.162	2694.63
986.461	2644.24
986.759	2688.76
987.057	2662.54
987.355	2623.22
987.653	2629.32
987.951	2632.04
988.249	2625.03
988.547	2587.52
988.844	2539.83
989.142	2611.47
989.44	2564.01
989.737	2541.19
990.035	2505.71
990.332	2510.46
990.63	2514.3
990.927	2466.16
991.224	2473.17
991.521	2477.92
991.819	2464.58
992.116	2452.15
992.413	2438.59
992.71	2451.93
993.006	2418.03
993.303	2379.84
993.6	2363.12
993.897	2372.38
994.193	2413.96
994.49	2371.03
994.787	2312.5
995.083	2341.2
995.379	2332.83
995.676	2326.96
995.972	2290.8
996.268	2288.99
996.565	2239.28
996.861	2266.17
997.157	2258.03
997.453	2281.54
997.749	2230.92
998.044	2217.36
998.34	2214.19
998.636	2237.24
998.932	2179.17
999.227	2161.09
999.523	2159.05
999.818	2145.27
1000.114	2136.91
1000.409	2128.55
1000.704	2127.87
1001	2099.85
1001.295	2107.08
1001.59	2086.96
1001.885	2058.72
1002.18	2048.1
1002.475	2062.78
1002.77	2037.7
1003.065	2036.34
1003.359	1994.99
1003.654	1997.25
1003.949	1967.42
1004.243	2002
1004.538	1971.71
1004.832	1958.61
1005.127	1957.7
1005.421	1939.4
1005.715	1938.49
1006.009	1932.39
1006.304	1901.66
1006.598	1881.09
1006.892	1900.53
1007.186	1855.33
1007.48	1920.64
1007.773	1872.51
1008.067	1858.04
1008.361	1859.63
1008.655	1794.32
1008.948	1796.58
1009.242	1845.84
1009.535	1774.66
1009.829	1789.12
1010.122	1773.07
1010.415	1749.12
1010.708	1770.36
1011.001	1742.79
1011.295	1720.65
1011.588	1728.1
1011.881	1706.18
1012.173	1688.56
1012.466	1690.14
1012.759	1700.31
1013.052	1696.01
1013.344	1692.17
1013.637	1654.66
1013.93	1644.72
1014.222	1629.58
1014.514	1621.44
1014.807	1592.51
1015.099	1594.32
1015.391	1602.01
1015.683	1602.23
1015.976	1571.5
1016.268	1559.3
1016.56	1563.14
1016.851	1541.67
1017.143	1524.04
1017.435	1544.61
1017.727	1526.08
1018.018	1525.85
1018.31	1499.41
1018.602	1488.56
1018.893	1492.18
1019.185	1455.12
1019.476	1467.55
1019.767	1453.08
1020.058	1442.01
1020.35	1440.43
1020.641	1452.63
1020.932	1415.57
1021.223	1413.76
1021.514	1390.94
1021.804	1381.9
1022.095	1362.69
1022.386	1378.06
1022.677	1349.13
1022.967	1349.58
1023.258	1342.58
1023.548	1350.71
1023.839	1341.67
1024.129	1336.93
1024.419	1300.54
1024.709	1303.26
1025	1296.93
1025.29	1277.27
1025.58	1263.03
1025.87	1279.53
1026.16	1287.21
1026.449	1267.1
1026.739	1223.26
1027.029	1248.12
1027.319	1209.02
1027.608	1230.49
1027.898	1220.32
1028.187	1208.57
1028.477	1207.44
1028.766	1199.53
1029.055	1187.33
1029.344	1183.49
1029.634	1192.3
1029.923	1167.89
1030.212	1153.43
1030.501	1162.02
1030.79	1154.11
1031.078	1137.39
1031.367	1120.89
1031.656	1118.18
1031.945	1074.11
1032.233	1088.8
1032.522	1096.26
1032.81	1095.35
1033.099	1088.8
1033.387	1072.98
1033.675	1078.4
1033.963	1075.47
1034.251	1058.07
1034.54	1046.99
1034.828	1032.53
1035.116	1023.49
1035.403	1014.45
1035.691	1026.2
1035.979	1009.03
1036.267	1030.27
1036.554	1010.61
1036.842	995.02
1037.129	1003.83
1037.417	1002.93
1037.704	979.65
1037.992	984.85
1038.279	945.75
1038.566	952.08
1038.853	952.08
1039.14	952.08
