Data from hue_290_FLMS001491_00052.txt Node
Date: Tue Feb 07 15:52:55 GMT 2017
User: dcchb
Spectrometer: FLMS00149
Trigger mode: 0
Integration Time (sec): 2.000000E-2
Scans to average: 10
Electric dark correction enabled: true
Nonlinearity correction enabled: false
Boxcar width: 0
XAxis mode: Wavelengths
Number of Pixels in Spectrum: 2048
>>>>>Begin Spectral Data<<<<<
341.393	4.31
341.776	4.31
342.16	4.31
342.543	-73.66
342.927	-71.4
343.31	-70.72
343.693	-74.11
344.077	-55.8
344.46	-65.29
344.843	-73.43
345.226	-42.02
345.61	-44.05
345.993	-16.48
346.376	14.93
346.759	4.76
347.142	25.1
347.525	50.63
347.908	50.86
348.291	85.89
348.674	96.96
349.057	112.78
349.44	114.14
349.823	150.97
350.206	162.95
350.588	182.38
350.971	200.46
351.354	228.03
351.737	244.08
352.119	235.94
352.502	253.34
352.884	251.31
353.267	277.75
353.65	270.97
354.032	277.52
354.414	289.27
354.797	287.92
355.179	306.9
355.562	313.68
355.944	322.27
356.326	334.47
356.709	334.24
357.091	335.6
357.473	338.54
357.855	331.08
358.238	335.6
358.62	342.15
359.002	315.03
359.384	320.68
359.766	313.23
360.148	332.89
360.53	333.79
360.912	307.35
361.294	347.12
361.676	336.5
362.057	330.4
362.439	313.68
362.821	333.34
363.203	327.01
363.584	312.32
363.966	324.53
364.348	340.8
364.729	337.63
365.111	331.53
365.493	308.93
365.874	304.19
366.256	312.77
366.637	338.08
367.019	317.29
367.4	300.8
367.781	318.65
368.163	296.05
368.544	313
368.925	316.84
369.306	325.88
369.688	316.16
370.069	329.5
370.45	301.93
370.831	310.51
371.212	316.39
371.593	317.97
371.974	292.89
372.355	299.89
372.736	303.96
373.117	313.68
373.498	316.62
373.879	329.72
374.26	322.72
374.641	315.71
375.021	324.75
375.402	315.49
375.783	317.52
376.163	308.25
376.544	324.53
376.925	317.75
377.305	330.4
377.686	333.56
378.066	327.69
378.447	329.95
378.827	329.95
379.208	341.47
379.588	323.17
379.968	341.47
380.349	310.97
380.729	338.76
381.109	342.15
381.489	347.12
381.87	354.36
382.25	339.44
382.63	348.93
383.01	345.32
383.39	341.25
383.77	351.64
384.15	357.52
384.53	350.97
384.91	350.74
385.29	336.95
385.67	344.41
386.049	343.96
386.429	363.85
386.809	379.21
387.189	351.64
387.568	360.91
387.948	347.12
388.328	347.35
388.707	365.43
389.087	359.1
389.466	378.54
389.846	359.78
390.225	373.56
390.605	367.01
390.984	374.69
391.363	376.05
391.743	376.95
392.122	381.92
392.501	377.41
392.881	377.18
393.26	392.77
393.639	368.14
394.018	399.78
394.397	374.24
394.776	402.94
395.155	395.48
395.534	389.16
395.913	407.91
396.292	395.48
396.671	409.27
397.05	407.24
397.429	410.17
397.808	386.44
398.186	416.5
398.565	396.84
398.944	423.28
399.323	389.61
399.701	415.14
400.08	409.04
400.458	414.01
400.837	430.74
401.215	421.47
401.594	423.96
401.972	429.16
402.351	418.99
402.729	460.12
403.107	417.18
403.486	430.96
403.864	422.15
404.242	427.57
404.62	438.42
404.999	429.16
405.377	473.9
405.755	453.11
406.133	449.49
406.511	467.12
406.889	452.66
407.267	482.04
407.645	479.32
408.023	473.9
408.401	469.38
408.779	482.26
409.156	502.83
409.534	490.17
409.912	502.6
410.29	532.66
410.667	533.11
411.045	533.33
411.422	535.37
411.8	521.81
412.178	544.63
412.555	555.93
412.933	558.42
413.31	570.62
413.687	551.64
414.065	585.54
414.442	616.95
414.819	609.26
415.197	602.03
415.574	640.45
415.951	630.96
416.328	607.91
416.705	629.6
417.082	630.28
417.46	630.05
417.837	654.01
418.214	642.26
418.591	677.51
418.967	674.8
419.344	679.32
419.721	708.7
420.098	701.92
420.475	720.45
420.852	716.15
421.228	727.23
421.605	741.92
421.982	730.16
422.358	756.15
422.735	751.86
423.111	768.13
423.488	797.51
423.864	779.65
424.241	810.39
424.617	807.68
424.994	807.22
425.37	811.52
425.746	815.81
426.123	849.26
426.499	847.68
426.875	863.27
427.251	888.58
427.627	889.93
428.003	869.6
428.379	871.4
428.756	912.08
429.132	891.97
429.507	935.13
429.883	935.36
430.259	973.55
430.635	940.55
431.011	959.08
431.387	983.94
431.763	989.14
432.138	1007.22
432.514	1003.6
432.89	1032.53
433.265	1039.08
433.641	1051.06
434.016	1066.2
434.392	1093.32
434.767	1110.49
435.143	1133.54
435.518	1124.5
435.894	1127.44
436.269	1155.69
436.644	1188.68
437.02	1130.38
437.395	1175.8
437.77	1186.42
438.145	1221.45
438.52	1211.51
438.895	1235.69
439.271	1245.41
439.646	1251.51
440.021	1283.37
440.395	1254.44
440.77	1288.79
441.145	1284.05
441.52	1301.45
441.895	1301.22
442.27	1311.84
442.645	1324.73
443.019	1352.52
443.394	1350.94
443.769	1330.6
444.143	1326.31
444.518	1362.24
444.892	1361.79
445.267	1366.08
445.641	1412.63
446.016	1387.55
446.39	1380.54
446.764	1404.72
447.139	1399.75
447.513	1408.34
447.887	1396.36
448.262	1441.56
448.636	1428.23
449.01	1436.59
449.384	1452.86
449.758	1473.87
450.132	1470.94
450.506	1470.03
450.88	1470.94
451.254	1463.7
451.628	1465.51
452.002	1489.69
452.376	1494.66
452.75	1535.79
453.123	1530.82
453.497	1559.3
453.871	1551.39
454.244	1580.54
454.618	1581.44
454.992	1611.95
455.365	1596.81
455.739	1626.41
456.112	1635
456.486	1634.55
456.859	1652.85
457.232	1672.29
457.606	1647.43
457.979	1691.72
458.352	1734.66
458.725	1740.99
459.099	1725.84
459.472	1767.65
459.845	1780.31
460.218	1801.32
460.591	1799.06
460.964	1816.24
461.337	1836.8
461.71	1863.92
462.083	1899.85
462.456	1861.21
462.829	1821.89
463.201	1897.82
463.574	1884.71
463.947	1917.03
464.32	1936.23
464.692	1981.2
465.065	1970.81
465.438	1991.6
465.81	2018.27
466.183	1981.88
466.555	2030.7
466.928	2057.81
467.3	2044.48
467.672	2086.74
468.045	2113.4
468.417	2129.22
468.789	2139.39
469.161	2159.28
469.534	2206.28
469.906	2191.37
470.278	2225.49
470.65	2239.96
471.022	2277.92
471.394	2293.97
471.766	2284.25
472.138	2319.73
472.51	2350.23
472.882	2399.73
473.253	2394.98
473.625	2432.27
473.997	2451.48
474.369	2499.61
474.74	2478.37
475.112	2543.9
475.484	2572.38
475.855	2589.78
476.227	2615.99
476.598	2678.59
476.97	2687.18
477.341	2726.95
477.713	2736.44
478.084	2754.29
478.455	2791.13
478.827	2793.39
479.198	2906.38
479.569	2895.08
479.94	2949.09
480.311	2957
480.682	3027.51
481.053	3078.13
481.424	3114.28
481.795	3151.34
482.166	3159.03
482.537	3180.72
482.908	3217.56
483.279	3248.06
483.65	3296.2
484.021	3320.83
484.391	3344.78
484.762	3360.38
485.133	3427.04
485.503	3418.91
485.874	3506.36
486.244	3475.4
486.615	3556.08
486.985	3557.43
487.356	3662.52
487.726	3673.59
488.097	3688.28
488.467	3695.28
488.837	3784.32
489.207	3807.6
489.578	3841.72
489.948	3876.97
490.318	3951.55
490.688	3910.42
491.058	3961.27
491.428	4015.73
491.798	4049.4
492.168	4131.66
492.538	4082.17
492.908	4149.06
493.278	4183.41
493.648	4208.27
494.017	4226.8
494.387	4259.79
494.757	4268.15
495.126	4294.14
495.496	4321.71
495.866	4313.12
496.235	4340.01
496.605	4404.64
496.974	4414.81
497.344	4414.81
497.713	4440.12
498.082	4486.22
498.452	4522.16
498.821	4502.95
499.19	4520.8
499.559	4568.93
499.928	4598.09
500.298	4644.86
500.667	4645.77
501.036	4642.38
501.405	4672.21
501.774	4638.54
502.143	4699.55
502.512	4704.52
502.88	4743.62
503.249	4733.45
503.618	4753.34
503.987	4810.06
504.356	4817.74
504.724	4810.96
505.093	4821.13
505.462	4812.77
505.83	4886.89
506.199	4877.17
506.567	4932.54
506.936	4927.34
507.304	4974.57
507.672	4933.9
508.041	5012.99
508.409	5007.11
508.777	5024.97
509.145	5080.11
509.514	5088.02
509.882	5104.06
510.25	5100.22
510.618	5128.24
510.986	5104.74
511.354	5193.1
511.722	5172.76
512.09	5176.83
512.458	5197.39
512.826	5183.38
513.193	5253.44
513.561	5269.93
513.929	5273.55
514.297	5263.6
514.664	5253.21
515.032	5295.02
515.4	5366.43
515.767	5344.05
516.135	5377.27
516.502	5306.54
516.869	5381.79
517.237	5377.27
517.604	5373.88
517.972	5415.46
518.339	5469.47
518.706	5494.11
519.073	5450.04
519.44	5511.51
519.808	5573.43
520.175	5535.01
520.542	5549.02
520.909	5598.29
521.276	5560.32
521.643	5602.35
522.009	5625.4
522.376	5650.71
522.743	5680.77
523.11	5720.77
523.477	5738.85
523.843	5754.44
524.21	5808.22
524.577	5786.75
524.943	5847.32
525.31	5805.51
525.676	5895
526.043	5913.76
526.409	5975.9
526.776	6006.64
527.142	5992.4
527.508	5970.03
527.874	6026.3
528.241	6071.72
528.607	6046.41
528.973	6143.58
529.339	6131.38
529.705	6154.88
530.071	6217.7
530.437	6190.59
530.803	6289.79
531.169	6309
531.535	6316.68
531.901	6292.73
532.267	6303.35
532.632	6328.44
532.998	6326.4
533.364	6384.03
533.73	6433.52
534.095	6414.31
534.461	6412.95
534.826	6419.28
535.192	6477.58
535.557	6561.65
535.923	6509
536.288	6545.15
536.653	6601.87
537.019	6556
537.384	6589.67
537.749	6624.02
538.114	6618.6
538.479	6631.25
538.845	6667.64
539.21	6662.89
539.575	6660.18
539.94	6693.85
540.305	6757.12
540.67	6772.72
541.034	6735.43
541.399	6763.45
541.764	6857.01
542.129	6848.42
542.494	6834.18
542.858	6865.6
543.223	6833.28
543.587	6891.58
543.952	6865.6
544.316	6952.83
544.681	6921.87
545.045	6973.84
545.41	7011.58
545.774	7070.56
546.138	6964.58
546.503	7049.77
546.867	7046.83
547.231	7120.28
547.595	7129.32
547.959	7116.21
548.324	7166.61
548.688	7103.1
549.052	7183.1
549.416	7219.71
549.779	7152.14
550.143	7242.76
550.507	7266.04
550.871	7316.88
551.235	7228.98
551.599	7327.73
551.962	7347.17
552.326	7325.7
552.689	7388.29
553.053	7351.46
553.417	7315.53
553.78	7489.08
554.143	7417.45
554.507	7453.15
554.87	7424.23
555.234	7496.99
555.597	7461.51
555.96	7468.52
556.323	7576.99
556.686	7454.73
557.05	7648.17
557.413	7588.74
557.776	7558.91
558.139	7656.76
558.502	7652.92
558.865	7584.67
559.228	7670.55
559.59	7745.12
559.953	7697.89
560.316	7782.41
560.679	7756.19
561.041	7820.15
561.404	7799.36
561.767	7853.82
562.129	7822.18
562.492	7901.5
562.854	7911.9
563.217	7962.74
563.579	7900.6
563.941	7953.7
564.304	8008.39
564.666	8040.93
565.028	8010.42
565.39	8052.23
565.753	8075.06
566.115	8070.31
566.477	8190.08
566.839	8183.75
567.201	8150.08
567.563	8228.5
567.925	8223.3
568.287	8293.36
568.648	8304.65
569.01	8321.38
569.372	8368.83
569.734	8345.56
570.095	8390.08
570.457	8460.36
570.819	8470.07
571.18	8449.96
571.542	8554.82
571.903	8543.29
572.265	8607.7
572.626	8640.92
572.987	8666.23
573.349	8675.94
573.71	8733.12
574.071	8773.34
574.432	8831.87
574.794	8861.93
575.155	8903.96
575.516	8946.67
575.877	8961.36
576.238	9002.26
576.599	9060.34
576.96	9103.05
577.32	9155.48
577.681	9190.05
578.042	9218.75
578.403	9322.93
578.763	9381.24
579.124	9464.4
579.485	9537.84
579.845	9605.64
580.206	9691.06
580.566	9734.67
580.927	9820.32
581.287	9934.22
581.648	9931.5
582.008	10058.51
582.368	10081.1
582.728	10249.69
583.089	10283.59
583.449	10337.37
583.809	10503.24
584.169	10604.71
584.529	10643.12
584.889	10806.74
585.249	10871.14
585.609	10954.75
585.969	11135.54
586.329	11226.16
586.688	11392.71
587.048	11440.39
587.408	11560.16
587.768	11639.71
588.127	11811.91
588.487	11885.58
588.846	12117.21
589.206	12101.39
589.565	12368.73
589.925	12503.19
590.284	12507.71
590.643	12697.08
591.003	12906.79
591.362	13027.47
591.721	13147.24
592.08	13354.47
592.44	13394.69
592.799	13625.19
593.158	13669.49
593.517	13876.49
593.876	14028.8
594.235	14083.94
594.593	14191.28
594.952	14421.1
595.311	14448.9
595.67	14593.3
596.029	14858.38
596.387	14894.99
596.746	15057.92
597.104	15181.31
597.463	15265.6
597.822	15584.69
598.18	15542.66
598.538	15697
598.897	15901.06
599.255	15861.29
599.613	16225.58
599.972	16191.45
600.33	16398
600.688	16462.18
601.046	16702.4
601.404	16884.54
601.762	16921.6
602.12	17008.38
602.478	17154.14
602.836	17316.17
603.194	17228.26
603.552	17389.16
603.91	17431.65
604.268	17766.33
604.625	17692.66
604.983	17837.96
605.341	17844.06
605.698	18057.62
606.056	18112.76
606.413	18089.71
606.771	18285.64
607.128	18365.63
607.485	18427.33
607.843	18524.95
608.2	18710.71
608.557	18754.1
608.914	18806.98
609.272	18938.95
609.629	19008.1
609.986	19106.4
610.343	19129.23
610.7	19301.65
611.057	19317.25
611.414	19239.73
611.771	19451.48
612.127	19524.25
612.484	19568.09
612.841	19762.21
613.198	19658.25
613.554	19679.72
613.911	19938.02
614.267	19881.3
614.624	19989.32
614.98	20098.24
615.337	20240.39
615.693	20270.89
616.05	20288.52
616.406	20371.46
616.762	20425.24
617.118	20444.22
617.475	20536.42
617.831	20502.3
618.187	20625.46
618.543	20721.05
618.899	20859.35
619.255	20716.53
619.611	20785.68
619.967	20899.35
620.323	20992.23
620.678	21024.77
621.034	20917.2
621.39	20935.06
621.746	21006.47
622.101	21182.06
622.457	21158.78
622.812	21135.5
623.168	21201.49
623.523	21249.17
623.879	21396.06
624.234	21312.45
624.589	21329.4
624.945	21342.96
625.3	21418.66
625.655	21512.44
626.01	21378.44
626.365	21505.66
626.72	21466.12
627.075	21485.78
627.43	21508.6
627.785	21472.67
628.14	21531.2
628.495	21579.56
628.85	21468.15
629.205	21456.4
629.559	21603.74
629.914	21576.4
630.269	21568.26
630.623	21449.17
630.978	21391.09
631.332	21541.59
631.687	21501.14
632.041	21516.51
632.396	21543.18
632.75	21421.15
633.104	21477.42
633.459	21463.4
633.813	21461.37
634.167	21413.91
634.521	21416.63
634.875	21416.17
635.229	21294.14
635.583	21300.47
635.937	21378.66
636.291	21293.01
636.645	21327.81
636.999	21369.62
637.352	21475.83
637.706	21222.28
638.06	21368.27
638.413	21257.31
638.767	21225.67
639.121	21446.68
639.474	21128.05
639.828	21149.97
640.181	21212.34
640.534	21233.35
640.888	21108.39
641.241	21056.41
641.594	21157.88
641.947	21226.35
642.301	21231.32
642.654	21272.68
643.007	21209.4
643.36	21161.49
643.713	21088.27
644.066	21254.82
644.419	20996.75
644.771	20944.55
645.124	20900.93
645.477	20833.59
645.83	20707.27
646.182	20688.51
646.535	20549.76
646.888	20579.59
647.24	20430.66
647.593	20576.87
647.945	20489.64
648.298	20471.34
648.65	20455.07
649.002	20373.26
649.355	20530.1
649.707	20545.91
650.059	20566.7
650.411	20826.59
650.763	20845.34
651.115	21092.57
651.467	20975.73
651.819	20960.59
652.171	21091.21
652.523	20888.05
652.875	20867.26
653.227	20851.44
653.578	21023.64
653.93	21010.54
654.282	20963.08
654.633	20941.16
654.985	20850.31
655.337	20882.18
655.688	21016.86
656.039	21042.62
656.391	20905.91
656.742	20914.49
657.094	20850.99
657.445	21037.65
657.796	20860.03
658.147	20897.09
658.498	20956.07
658.849	21033.36
659.2	20960.82
659.551	21048.95
659.902	21109.97
660.253	21059.35
660.604	21015.73
660.955	20903.19
661.306	21050.31
661.656	21002.4
662.007	21061.61
662.358	21013.47
662.708	20991.33
663.059	21032.68
663.409	20947.94
663.76	21083.98
664.11	21045.56
664.461	21216.86
664.811	21053.47
665.161	21157.65
665.511	21056.86
665.862	21052.57
666.212	21147.71
666.562	21093.92
666.912	21090.08
667.262	21024.77
667.612	20995.39
667.962	21084.21
668.312	21008.5
668.662	21122.4
669.011	21133.47
669.361	21063.64
669.711	20979.12
670.06	21022.06
670.41	20951.55
670.76	20973.02
671.109	21094.6
671.459	21006.02
671.808	20926.7
672.157	20979.8
672.507	20827.72
672.856	20952.23
673.205	20888.05
673.554	20925.57
673.904	20919.69
674.253	20963.08
674.602	20884.44
674.951	20587.04
675.3	20540.94
675.649	20832.46
675.998	20839.24
676.346	20803.53
676.695	20855.96
677.044	20761.95
677.393	20836.53
677.741	20811.44
678.09	20688.74
678.438	20603.99
678.787	20674.95
679.135	20716.98
679.484	20515.86
679.832	20621.84
680.181	20536.65
680.529	20590.89
680.877	20503.43
681.225	20460.27
681.573	20580.72
681.922	20424.34
682.27	20403.55
682.618	20314.51
682.966	20335.75
683.314	20367.84
683.661	20223.66
684.009	20050.11
684.357	20085.36
684.705	20155.42
685.053	20084.91
685.4	20079.26
685.748	19962.88
686.095	19939.15
686.443	19817.8
686.79	19847.85
687.138	19902.77
687.485	19843.33
687.832	19652.83
688.18	19762.21
688.527	19621.19
688.874	19747.74
689.221	19625.03
689.568	19504.59
689.915	19493.06
690.262	19467.07
690.609	19377.13
690.956	19342.78
691.303	19292.61
691.65	19265.95
691.997	19163.35
692.344	19105.5
692.69	19140.75
693.037	19056.46
693.383	18867.31
693.73	18997.71
694.077	18885.17
694.423	18845.39
694.769	18810.14
695.116	18673.65
695.462	18689.47
695.808	18644.95
696.155	18639.3
696.501	18510.26
696.847	18556.59
697.193	18445.18
697.539	18384.39
697.885	18201.34
698.231	18131.06
698.577	18228.46
698.923	18147.33
699.269	18072.31
699.614	17967.9
699.96	17890.17
700.306	17934.01
700.651	17754.8
700.997	17760.9
701.342	17720.9
701.688	17678.19
702.033	17596.61
702.379	17635.26
702.724	17549.38
703.069	17503.28
703.415	17233.23
703.76	17327.92
704.105	17302.84
704.45	17251.76
704.795	17137.42
705.14	17019
705.485	17055.38
705.83	16926.12
706.175	16983.52
706.52	16874.37
706.865	16851.55
707.209	16870.31
707.554	16863.75
707.899	16811.32
708.243	16761.83
708.588	16676.19
708.932	16615.85
709.277	16560.71
709.621	16658.33
709.966	16453.59
710.31	16478.68
710.654	16318.46
710.998	16401.62
711.342	16328.62
711.687	16273.71
712.031	16311
712.375	16292.69
712.719	16192.58
713.063	16120.04
713.407	16151.23
713.75	16105.13
714.094	16132.25
714.438	15956.2
714.782	16002.08
715.125	15962.31
715.469	15906.49
715.812	15837.34
716.156	15705.36
716.499	15756.21
716.843	15828.3
717.186	15659.49
717.53	15817.45
717.873	15747.62
718.216	15812.93
718.559	15807.96
718.902	15501.08
719.246	15563.45
719.589	15569.1
719.932	15534.29
720.275	15554.63
720.617	15464.24
720.96	15508.31
721.303	15471.02
721.646	15518.7
721.989	15305.15
722.331	15497.01
722.674	15420.63
723.016	15387.63
723.359	15344.47
723.701	15334.98
724.044	15258.14
724.386	15143.12
724.729	15345.37
725.071	15241.42
725.413	15230.57
725.755	15203
726.097	15162.55
726.439	15185.38
726.782	15220.4
727.124	15229.67
727.465	15112.16
727.807	15105.38
728.149	15061.76
728.491	15105.83
728.833	15080.75
729.175	15082.33
729.516	14992.39
729.858	15011.37
730.199	15083.01
730.541	14992.84
730.882	14945.38
731.224	15050.24
731.565	14915.55
731.906	14935.89
732.248	14933.41
732.589	14883.24
732.93	14903.8
733.271	14946.51
733.612	14903.35
733.953	14871.49
734.294	14929.57
734.635	14833.75
734.976	14901.32
735.317	14823.35
735.658	14907.42
735.999	14932.5
736.339	14850.92
736.68	14933.63
737.021	14847.53
737.361	14772.28
737.702	14890.24
738.042	14839.4
738.383	14876.01
738.723	14887.08
739.063	14791.94
739.404	14873.75
739.744	14883.92
740.084	14869.91
740.424	14914.42
740.764	14900.87
741.104	14947.19
741.444	14907.87
741.784	14893.41
742.124	14973.63
742.464	14955.1
742.804	14929.79
743.143	14965.5
743.483	14978.15
743.823	14952.39
744.162	14936.12
744.502	14992.61
744.841	15059.96
745.181	15127.3
745.52	15056.34
745.86	15106.28
746.199	15137.24
746.538	15180.63
746.877	15294.08
747.216	15309.89
747.556	15327.75
747.895	15388.99
748.234	15348.99
748.573	15421.53
748.911	15485.93
749.25	15625.59
749.589	15481.41
749.928	15613.84
750.267	15788.75
750.605	15740.62
750.944	15860.39
751.283	15897.9
751.621	16000.05
751.96	16067.39
752.298	16176.31
752.636	16202.53
752.975	16199.81
753.313	16365.46
753.651	16442.52
753.989	16438.9
754.327	16613.59
754.666	16627.37
755.004	16799.8
755.342	16944.2
755.679	17027.14
756.017	17095.84
756.355	17102.16
756.693	17236.17
757.031	17462.83
757.368	17376.28
757.706	17571.08
758.044	17571.76
758.381	17759.77
758.719	17825.76
759.056	17974.23
759.394	17986.89
759.731	18056.94
760.068	18147.79
760.405	18169.03
760.743	18392.07
761.08	18520.21
761.417	18578.51
761.754	18649.02
762.091	18705.06
762.428	18810.59
762.765	18810.59
763.102	19020.76
763.438	19074.77
763.775	19115.67
764.112	19177.14
764.449	19286.29
764.785	19364.7
765.122	19314.31
765.458	19396.11
765.795	19512.5
766.131	19530.12
766.467	19623.68
766.804	19647.63
767.14	19667.07
767.476	19800.17
767.812	19833.16
768.148	19877.68
768.485	19806.05
768.821	19792.94
769.157	19935.54
769.492	19867.51
769.828	19989.77
770.164	19826.16
770.5	19954.07
770.836	19982.54
771.171	19896.44
771.507	19953.39
771.842	19896.89
772.178	19956.55
772.513	19971.69
772.849	19985.48
773.184	19898.25
773.519	19917.46
773.855	19993.39
774.19	19977.79
774.525	19992.71
774.86	19857.35
775.195	19918.36
775.53	19971.01
775.865	19814.63
776.2	19777.12
776.535	19703.45
776.87	19781.19
777.205	19706.39
777.539	19681.3
777.874	19685.6
778.209	19604.02
778.543	19650.8
778.878	19546.84
779.212	19511.59
779.547	19358.15
779.881	19576.67
780.215	19529.9
780.55	19503.68
780.884	19355.44
781.218	19355.21
781.552	19338.26
781.886	19292.84
782.22	19227.98
782.554	19148.66
782.888	19034.99
783.222	18906.41
783.556	18981.89
783.889	18882.68
784.223	18874.55
784.557	18869.8
784.89	18871.83
785.224	18806.98
785.557	18747.32
785.891	18647.89
786.224	18582.58
786.558	18626.64
786.891	18443.15
787.224	18400.89
787.557	18376.25
787.891	18382.81
788.224	18416.03
788.557	18324.28
788.89	18206.54
789.223	18282.7
789.556	18176.49
789.888	18175.58
790.221	17967.23
790.554	17822.6
790.887	17946.66
791.219	17896.94
791.552	17768.36
791.884	17769.49
792.217	17798.42
792.549	17705.09
792.882	17537.63
793.214	17497.63
793.546	17484.98
793.879	17403.85
794.211	17265.1
794.543	17302.61
794.875	17303.97
795.207	17370.18
795.539	17242.72
795.871	17222.61
796.203	17072.56
796.535	16970.42
796.867	16953.24
797.198	16865.33
797.53	16974.48
797.862	16732.23
798.193	16892.9
798.525	16755.96
798.856	16837.09
799.188	16661.72
799.519	16571.78
799.85	16488.62
800.182	16418.57
800.513	16543.08
800.844	16379.7
801.175	16429.86
801.506	16331.11
801.837	16280.04
802.168	16237.78
802.499	16153.94
802.83	16164.33
803.161	16007.73
803.491	16166.59
803.822	16106.94
804.153	15839.15
804.483	15899.94
804.814	15830.56
805.145	15832.82
805.475	15844.57
805.805	15751.24
806.136	15746.94
806.466	15670.34
806.796	15715.08
807.126	15520.51
807.457	15515.54
807.787	15605.25
808.117	15517.8
808.447	15374.98
808.777	15383.56
809.107	15394.64
809.436	15342.44
809.766	15239.39
810.096	15244.81
810.426	15199.61
810.755	15314.87
811.085	15210.91
811.414	15141.76
811.744	15046.85
812.073	14989.22
812.403	14907.19
812.732	14953.07
813.061	14911.94
813.39	14880.53
813.719	14767.31
814.049	14916.23
814.378	14834.43
814.707	14686.41
815.036	14667.2
815.365	14678.5
815.693	14520.31
816.022	14545.85
816.351	14529.58
816.68	14354.89
817.008	14490.48
817.337	14448.67
817.665	14295.68
817.994	14431.73
818.322	14357.15
818.651	14239.64
818.979	14218.4
819.307	14258.4
819.636	14279.41
819.964	14143.6
820.292	14238.28
820.62	14204.39
820.948	14152.86
821.276	14195.12
821.604	14143.82
821.932	14203.93
822.259	14160.55
822.587	14113.99
822.915	14085.29
823.243	14130.94
823.57	14106.99
823.898	14159.64
824.225	14061.34
824.553	14058.4
824.88	14009.14
825.207	14095.01
825.535	14097.04
825.862	14125.74
826.189	14052.53
826.516	14163.48
826.843	14161
827.17	14153.54
827.497	14108.34
827.824	14149.25
828.151	14084.84
828.478	14121.9
828.805	14181.34
829.131	14044.39
829.458	14090.27
829.785	14036.71
830.111	14027.44
830.438	14013.43
830.764	14028.35
831.09	14051.85
831.417	13968.91
831.743	14008.91
832.069	14024.96
832.395	13968.69
832.722	13997.61
833.048	13935.92
833.374	14012.3
833.7	13810.72
834.026	13882.59
834.351	13919.42
834.677	13925.52
835.003	13957.61
835.329	13921
835.654	13908.35
835.98	13805.75
836.306	13912.19
836.631	13797.17
836.956	13860.44
837.282	13860.21
837.607	13732.99
837.932	13785.19
838.258	13696.38
838.583	13749.03
838.908	13548.58
839.233	13662.25
839.558	13537.51
839.883	13603.27
840.208	13607.79
840.533	13537.51
840.858	13529.38
841.182	13427.46
841.507	13500.45
841.832	13421.13
842.156	13450.06
842.481	13362.15
842.805	13374.58
843.13	13354.69
843.454	13272.21
843.778	13194.24
844.103	13230.85
844.427	13135.04
844.751	13241.7
845.075	13143.4
845.399	13090.97
845.723	12983.4
846.047	13010.52
846.371	12902.5
846.695	12966
847.019	12855.72
847.343	12796.29
847.666	12678.55
847.99	12661.6
848.313	12704.31
848.637	12539.35
848.96	12552.68
849.284	12533.02
849.607	12384.77
849.931	12342.74
850.254	12298.45
850.577	12287.15
850.9	12149.3
851.223	12200.82
851.546	12158.56
851.869	12033.14
852.192	12172.12
852.515	11932.58
852.838	12012.13
853.161	11894.84
853.483	11842.87
853.806	11847.16
854.129	11820.49
854.451	11833.83
854.774	11742.53
855.096	11694.4
855.419	11620.73
855.741	11686.03
856.063	11541.41
856.385	11521.07
856.708	11431.58
857.03	11416.44
857.352	11479.49
857.674	11386.83
857.996	11337.57
858.318	11237.68
858.64	11234.3
858.961	11246.27
859.283	11180.96
859.605	11123.79
859.926	11207.18
860.248	11191.81
860.57	11131.7
860.891	11217.8
861.212	11052.6
861.534	10978.71
861.855	11080.17
862.176	11010.8
862.498	10964.92
862.819	11070.46
863.14	10923.34
863.461	10900.29
863.782	10881.54
864.103	10891.25
864.424	10801.09
864.745	10854.87
865.065	10761.99
865.386	10729.22
865.707	10763.35
866.027	10778.04
866.348	10651.71
866.668	10713.18
866.989	10727.19
867.309	10678.6
867.63	10620.53
867.95	10672.5
868.27	10563.8
868.59	10619.62
868.91	10552.28
869.23	10542.34
869.55	10460.98
869.87	10600.19
870.19	10497.59
870.51	10541.66
870.83	10539.4
871.15	10373.53
871.469	10391.83
871.789	10418.27
872.109	10410.14
872.428	10274.55
872.748	10390.93
873.067	10404.49
873.386	10329.46
873.706	10292.62
874.025	10295.56
874.344	10276.58
874.663	10282.23
874.982	10241.55
875.301	10280.87
875.62	10149.8
875.939	10183.7
876.258	10218.28
876.577	10149.8
876.896	10106.87
877.214	10130.82
877.533	10141.89
877.852	10097.6
878.17	10099.41
878.489	10101.67
878.807	10053.99
879.125	10024.16
879.444	10044.72
879.762	9990.03
880.08	9976.47
880.398	9962.01
880.716	9923.6
881.034	9963.14
881.352	9903.93
881.67	9915.23
881.988	9850.83
882.306	9834.56
882.624	9823.48
882.941	9705.07
883.259	9689.02
883.577	9713.66
883.894	9711.4
884.212	9714.33
884.529	9627.56
884.846	9659.2
885.164	9629.82
885.481	9596.6
885.798	9530.84
886.115	9535.81
886.432	9606.09
886.75	9554.79
887.067	9506.43
887.383	9441.57
887.7	9540.55
888.017	9461.23
888.334	9443.61
888.651	9370.84
888.967	9352.31
889.284	9293.56
889.6	9326.77
889.917	9240.68
890.233	9220.11
890.55	9221.01
890.866	9222.82
891.182	9164.52
891.498	9133.56
891.815	9138.98
892.131	9094.01
892.447	9094.69
892.763	9025.31
893.079	9007.69
893.395	8998.2
893.71	8977.41
894.026	8971.98
894.342	8915.94
894.657	8837.97
894.973	8865.32
895.289	8888.59
895.604	8799.56
895.92	8724.76
896.235	8683.18
896.55	8729.5
896.865	8614.93
897.181	8664.87
897.496	8659.67
897.811	8631.43
898.126	8570.18
898.441	8555.04
898.756	8508.04
899.071	8492.9
899.386	8426.01
899.7	8343.98
900.015	8320.25
900.33	8305.56
900.644	8258.33
900.959	8327.93
901.273	8194.15
901.588	8245.9
901.902	8160.7
902.216	8138.33
902.531	8108.73
902.845	8122.74
903.159	8052.01
903.473	8030.09
903.787	7996.19
904.101	7971.56
904.415	7925.91
904.729	7917.32
905.042	7910.09
905.356	7896.53
905.67	7808.62
905.984	7812.69
906.297	7779.02
906.611	7756.19
906.924	7745.35
907.237	7647.5
907.551	7673.71
907.864	7637.78
908.177	7633.49
908.491	7584.22
908.804	7577.67
909.117	7500.16
909.43	7407.95
909.743	7516.2
910.056	7449.76
910.368	7390.1
910.681	7310.56
910.994	7362.98
911.307	7342.42
911.619	7267.39
911.932	7293.38
912.244	7209.77
912.557	7216.32
912.869	7198.24
913.181	7124.8
913.494	7105.36
913.806	7049.32
914.118	7067.85
914.43	7036.89
914.742	6991.02
915.054	6955.76
915.366	6946.27
915.678	6884.35
915.99	6881.64
916.302	6860.85
916.613	6779.5
916.925	6780.63
917.236	6763
917.548	6738.37
917.859	6745.6
918.171	6687.52
918.482	6635.09
918.794	6608.65
919.105	6624.7
919.416	6547.19
919.727	6574.53
920.038	6525.49
920.349	6447.98
920.66	6419.96
920.971	6436
921.282	6401.43
921.593	6305.84
921.903	6257.02
922.214	6326.85
922.525	6256.12
922.835	6246.63
923.146	6212.28
923.456	6224.94
923.767	6219.74
924.077	6207.08
924.387	6124.15
924.697	6154.65
925.008	6096.58
925.318	6084.15
925.628	6031.49
925.938	6007.99
926.248	5934.55
926.558	5929.12
926.867	6006.86
927.177	5902.91
927.487	5895
927.796	5815.91
928.106	5863.81
928.416	5784.04
928.725	5804.61
929.034	5749.47
929.344	5708.34
929.653	5688
929.962	5688.23
930.271	5635.12
930.581	5617.27
930.89	5568
931.199	5622.01
931.508	5598.96
931.817	5598.29
932.125	5508.34
932.434	5517.38
932.743	5461.57
933.051	5428.57
933.36	5400.78
933.669	5406.2
933.977	5343.6
934.286	5365.07
934.594	5321.23
934.902	5315.81
935.21	5264.28
935.519	5254.11
935.827	5213.89
936.135	5165.3
936.443	5189.93
936.751	5124.17
937.059	5158.3
937.367	5141.8
937.674	5162.36
937.982	5113.1
938.29	5063.61
938.597	5092.76
938.905	5012.99
939.213	4994.91
939.52	4968.7
939.827	4981.35
940.135	4939.09
940.442	4950.62
940.749	4928.7
941.056	4901.13
941.363	4887.12
941.67	4839.43
941.977	4818.87
942.284	4841.69
942.591	4785.65
942.898	4737.06
943.205	4756.5
943.511	4721.92
943.818	4687.12
944.125	4671.76
944.431	4637.41
944.738	4666.11
945.044	4625.43
945.35	4619.55
945.657	4559.22
945.963	4494.36
946.269	4504.98
946.575	4541.82
946.881	4519.44
947.187	4505.21
947.493	4467.47
947.799	4425.21
948.105	4393.34
948.41	4356.74
948.716	4399.9
949.022	4373.91
949.327	4331.65
949.633	4285.55
949.938	4297.08
950.244	4305.89
950.549	4304.31
950.854	4227.02
951.16	4215.95
951.465	4217.53
951.77	4184.54
952.075	4145.22
952.38	4123.97
952.685	4107.02
952.99	4097.31
953.294	4023.19
953.599	4036.74
953.904	4044.88
954.209	4023.19
954.513	4040.36
954.818	3994.26
955.122	4021.15
955.426	4003.98
955.731	3988.61
956.035	3888.95
956.339	3896.41
956.643	3906.8
956.948	3875.17
957.252	3833.81
957.556	3857.09
957.86	3866.13
958.163	3851.21
958.467	3808.28
958.771	3841.04
959.075	3785.68
959.378	3728.5
959.682	3758.56
959.985	3693.02
960.289	3734.83
960.592	3672.69
960.896	3734.15
961.199	3679.47
961.502	3661.39
961.805	3624.55
962.108	3596.98
962.411	3552.24
962.714	3590.65
963.017	3566.47
963.32	3624.33
963.623	3552.24
963.926	3520.15
964.228	3509.98
964.531	3498.68
964.833	3441.51
965.136	3442.18
965.438	3464.56
965.741	3377.55
966.043	3435.18
966.345	3378.68
966.648	3390.66
966.95	3378
967.252	3358.12
967.554	3365.35
967.856	3321.28
968.158	3277.22
968.46	3282.87
968.761	3309.08
969.063	3307.27
969.365	3288.06
969.666	3247.61
969.968	3201.06
970.269	3223.88
970.571	3196.99
970.872	3175.98
971.174	3164
971.475	3175.07
971.776	3130.33
972.077	3108.41
972.378	3121.51
972.679	3123.32
972.98	3100.05
973.281	3102.31
973.582	3083.55
973.883	3070.89
974.183	3008.75
974.484	3047.39
974.785	3007.39
975.085	2978.24
975.386	2993.83
975.686	2973.72
975.986	2942.08
976.287	2969.88
976.587	2928.3
976.887	2922.42
977.187	2893.95
977.487	2862.09
977.787	2872.93
978.087	2848.98
978.387	2851.92
978.687	2856.89
978.987	2803.33
979.286	2797
979.586	2820.96
979.885	2794.74
980.185	2776.44
980.484	2794.74
980.784	2717.68
981.083	2741.18
981.382	2708.42
981.682	2735.54
981.981	2713.39
982.28	2679.94
982.579	2689.66
982.878	2684.24
983.177	2666.84
983.475	2630.68
983.774	2603.79
984.073	2601.75
984.372	2604.01
984.67	2590.45
984.969	2560.17
985.267	2536.67
985.566	2573.96
985.864	2559.72
986.162	2569.21
986.461	2528.31
986.759	2513.62
987.057	2504.81
987.355	2465.26
987.653	2485.82
987.951	2468.65
988.249	2494.64
988.547	2438.14
988.844	2432.04
989.142	2407.41
989.44	2415.54
989.737	2415.32
990.035	2397.47
990.332	2366.51
990.63	2383.68
990.927	2380.06
991.224	2366.28
991.521	2347.52
991.819	2307.75
992.116	2301.2
992.413	2307.75
992.71	2298.71
993.006	2297.81
993.303	2286.51
993.6	2237.92
993.897	2268.2
994.193	2260.97
994.49	2269.78
994.787	2218.26
995.083	2202.67
995.379	2205.15
995.676	2201.09
995.972	2173.52
996.268	2133.29
996.565	2169.9
996.861	2128.09
997.157	2156.34
997.453	2123.12
997.749	2072.95
998.044	2103.46
998.34	2102.56
998.636	2093.97
998.932	2051.03
999.227	2064.14
999.523	2066.17
999.818	2029.34
1000.114	2022.79
1000.409	2024.14
1000.704	1977.14
1001	2009.23
1001.295	1993.86
1001.59	2007.19
1001.885	2000.87
1002.18	1985.95
1002.475	1951.38
1002.77	1916.8
1003.065	1920.42
1003.359	1898.5
1003.654	1936.69
1003.949	1885.84
1004.243	1889.23
1004.538	1858.95
1004.832	1858.72
1005.127	1845.62
1005.421	1813.75
1005.715	1833.64
1006.009	1844.71
1006.304	1799.74
1006.598	1793.19
1006.892	1783.47
1007.186	1787.76
1007.48	1753.19
1007.773	1782.11
1008.067	1789.12
1008.361	1740.31
1008.655	1722.23
1008.948	1715.45
1009.242	1717.03
1009.535	1695.79
1009.829	1669.12
1010.122	1680.87
1010.415	1685.17
1010.708	1685.62
1011.001	1658.73
1011.295	1643.81
1011.588	1639.97
1011.881	1626.64
1012.173	1610.14
1012.466	1599.97
1012.759	1598.16
1013.052	1602.91
1013.344	1577.6
1013.637	1555.91
1013.93	1555
1014.222	1572.85
1014.514	1550.71
1014.807	1527.43
1015.099	1519.75
1015.391	1518.62
1015.683	1523.36
1015.976	1513.87
1016.268	1512.52
1016.56	1453.54
1016.851	1491.27
1017.143	1489.47
1017.435	1470.26
1017.727	1445.63
1018.018	1443.14
1018.31	1443.14
1018.602	1452.41
1018.893	1419.41
1019.185	1409.24
1019.476	1404.27
1019.767	1389.58
1020.058	1356.59
1020.35	1344.61
1020.641	1364.27
1020.932	1347.55
1021.223	1340.54
1021.514	1341.22
1021.804	1318.85
1022.095	1328.79
1022.386	1303.48
1022.677	1301
1022.967	1292.86
1023.258	1288.57
1023.548	1295.35
1023.839	1246.54
1024.129	1265.97
1024.419	1240.89
1024.709	1230.72
1025	1201.79
1025.29	1202.02
1025.58	1228.91
1025.87	1213.77
1026.16	1204.5
1026.449	1213.77
1026.739	1190.04
1027.029	1183.26
1027.319	1171.96
1027.608	1170.15
1027.898	1162.92
1028.187	1178.97
1028.477	1146.65
1028.766	1159.53
1029.055	1124.73
1029.344	1137.84
1029.634	1146.65
1029.923	1090.38
1030.212	1115.24
1030.501	1083.83
1030.79	1083.15
1031.078	1096.48
1031.367	1096.03
1031.656	1076.14
1031.945	1075.69
1032.233	1062.36
1032.522	1064.62
1032.81	1062.36
1033.099	1031.17
1033.387	1041.79
1033.675	1012.19
1033.963	1006.09
1034.251	991.17
1034.54	1014.9
1034.828	983.94
1035.116	995.92
1035.403	972.19
1035.691	979.2
1035.979	970.16
1036.267	956.37
1036.554	955.02
1036.842	964.96
1037.129	951.4
1037.417	918.18
1037.704	923.83
1037.992	933.55
1038.279	924.74
1038.566	908.24
1038.853	908.24
1039.14	908.24
