Data from hue_100_FLMS001491_00026.txt Node
Date: Tue Feb 07 17:02:56 GMT 2017
User: dcchb
Spectrometer: FLMS00149
Trigger mode: 0
Integration Time (sec): 2.000000E-2
Scans to average: 10
Electric dark correction enabled: true
Nonlinearity correction enabled: false
Boxcar width: 0
XAxis mode: Wavelengths
Number of Pixels in Spectrum: 2048
>>>>>Begin Spectral Data<<<<<
341.393	-5.97
341.776	-5.97
342.16	-5.97
342.543	-65.86
342.927	-95.01
343.31	-81.9
343.693	-71.74
344.077	-69.48
344.46	-45.07
344.843	-62.24
345.226	-29.02
345.61	-36.03
345.993	-17.5
346.376	-12.3
346.759	33.35
347.142	20.92
347.525	19.11
347.908	77.64
348.291	74.48
348.674	94.59
349.057	105.21
349.44	123.06
349.823	130.75
350.206	176.17
350.588	196.96
350.971	218.65
351.354	222.27
351.737	228.37
352.119	250.06
352.502	258.88
352.884	256.17
353.267	299.33
353.65	289.16
354.032	296.16
354.414	285.77
354.797	310.63
355.179	329.84
355.562	316.95
355.944	310.4
356.326	328.71
356.709	334.81
357.091	335.94
357.473	342.27
357.855	326.22
358.238	333.68
358.62	344.98
359.002	337.52
359.384	341.14
359.766	340.01
360.148	347.46
360.53	334.81
360.912	335.49
361.294	346.56
361.676	345.43
362.057	330.97
362.439	346.56
362.821	331.42
363.203	314.02
363.584	308.14
363.966	328.25
364.348	313.57
364.729	309.5
365.111	328.48
365.493	329.84
365.874	304.75
366.256	303.4
366.637	307.01
367.019	341.36
367.4	329.61
367.781	320.34
368.163	336.84
368.544	295.71
368.925	325.54
369.306	334.13
369.688	309.72
370.069	315.83
370.45	320.12
370.831	312.44
371.212	317.41
371.593	317.18
371.974	320.57
372.355	313.79
372.736	342.72
373.117	311.53
373.498	337.07
373.879	326.9
374.26	330.29
374.641	318.54
375.021	303.62
375.402	331.87
375.783	311.08
376.163	324.41
376.544	340.01
376.925	322.38
377.305	330.74
377.686	329.61
378.066	340.46
378.447	332.55
378.827	346.33
379.208	340.01
379.588	343.39
379.968	340.23
380.349	334.13
380.729	330.51
381.109	343.39
381.489	343.17
381.87	343.39
382.25	335.49
382.63	348.82
383.01	339.55
383.39	361.02
383.77	357.86
384.15	346.11
384.53	353.56
384.91	342.27
385.29	349.5
385.67	343.17
386.049	375.71
386.429	361.7
386.809	359.89
387.189	356.73
387.568	344.52
387.948	384.75
388.328	364.19
388.707	363.96
389.087	373.68
389.466	378.42
389.846	377.07
390.225	372.77
390.605	394.47
390.984	388.59
391.363	369.16
391.743	380
392.122	381.59
392.501	375.48
392.881	388.59
393.26	370.06
393.639	381.36
394.018	389.72
394.397	399.21
394.776	385.2
395.155	399.21
395.534	413.68
395.913	393.34
396.292	400.12
396.671	412.09
397.05	395.14
397.429	388.59
397.808	409.83
398.186	396.5
398.565	398.31
398.944	408.03
399.323	400.34
399.701	415.48
400.08	418.2
400.458	402.15
400.837	432.21
401.215	426.33
401.594	403.05
401.972	413.68
402.351	420.23
402.729	430.62
403.107	428.36
403.486	435.37
403.864	461.13
404.242	448.48
404.62	448.48
404.999	457.74
405.377	433.56
405.755	448.7
406.133	462.04
406.511	490.96
406.889	442.83
407.267	462.04
407.645	474.01
408.023	459.78
408.401	485.76
408.779	461.13
409.156	480.57
409.534	452.54
409.912	481.92
410.29	478.76
410.667	498.42
411.045	499.1
411.422	491.64
411.8	488.93
412.178	491.19
412.555	503.84
412.933	515.82
413.31	528.7
413.687	509.49
414.065	540.9
414.442	549.94
414.819	541.58
415.197	541.58
415.574	536.16
415.951	549.04
416.328	536.84
416.705	528.7
417.082	542.71
417.46	546.55
417.837	555.82
418.214	567.34
418.591	570.96
418.967	575.71
419.344	575.93
419.721	581.13
420.098	565.08
420.475	568.47
420.852	554.69
421.228	588.81
421.605	586.78
421.982	589.72
422.358	589.26
422.735	606.21
423.111	603.95
423.488	610.05
423.864	616.38
424.241	602.37
424.617	643.05
424.994	620
425.37	622.48
425.746	640.34
426.123	646.44
426.499	631.75
426.875	665.87
427.251	642.82
427.627	682.6
428.003	674.23
428.379	665.65
428.756	691.86
429.132	684.63
429.507	681.01
429.883	710.84
430.259	711.75
430.635	711.97
431.011	714.68
431.387	721.24
431.763	747.68
432.138	744.29
432.514	763.27
432.89	761.24
433.265	741.8
433.641	769.15
434.016	785.64
434.392	793.1
434.767	793.1
435.143	784.06
435.518	793.33
435.894	812.08
436.269	821.57
436.644	815.25
437.02	836.04
437.395	856.15
437.77	828.58
438.145	875.13
438.52	858.86
438.895	867.22
439.271	859.99
439.646	891.86
440.021	879.2
440.395	911.06
440.77	900.44
441.145	888.24
441.52	895.7
441.895	935.24
442.27	914.45
442.645	927.33
443.019	949.25
443.394	954.45
443.769	963.04
444.143	952.87
444.518	965.07
444.892	974.34
445.267	963.72
445.641	1012.3
446.016	982.02
446.39	1016.37
446.764	995.36
447.139	1009.14
447.513	1003.26
447.887	1013.43
448.262	1008.24
448.636	1027.44
449.01	1019.76
449.384	1041
449.758	1026.54
450.132	1056.37
450.506	1084.39
450.88	1068.57
451.254	1082.13
451.628	1078.74
452.002	1120.55
452.376	1098.86
452.75	1124.39
453.123	1133.66
453.497	1136.37
453.871	1151.51
454.244	1184.73
454.618	1185.41
454.992	1189.47
455.365	1188.8
455.739	1237.61
456.112	1215.01
456.486	1237.16
456.859	1237.83
457.232	1293.2
457.606	1266.76
457.979	1286.42
458.352	1324.39
458.725	1356.02
459.099	1359.19
459.472	1365.97
459.845	1399.19
460.218	1380.88
460.591	1428.79
460.964	1399.41
461.337	1465.85
461.71	1469.02
462.083	1502.01
462.456	1543.14
462.829	1490.48
463.201	1527.77
463.574	1533.19
463.947	1582.68
464.32	1593.08
464.692	1598.73
465.065	1643.7
465.438	1661.55
465.81	1676.69
466.183	1717.82
466.555	1747.88
466.928	1768.89
467.3	1774.54
467.672	1769.12
468.045	1862.9
468.417	1859.51
468.789	1875.33
469.161	1939.29
469.534	1943.13
469.906	1992.84
470.278	2006.85
470.65	2039.4
471.022	2102.44
471.394	2175.44
471.766	2166.4
472.138	2220.63
472.51	2283.68
472.882	2340.4
473.253	2368.88
473.625	2410.23
473.997	2458.59
474.369	2509.44
474.74	2561.42
475.112	2581.3
475.484	2678.25
475.855	2731.81
476.227	2781.97
476.598	2871.92
476.97	2926.15
477.341	3011.12
477.713	3088.41
478.084	3161.17
478.455	3259.93
478.827	3312.13
479.198	3419.47
479.569	3445.46
479.94	3567.04
480.311	3630.99
480.682	3725.45
481.053	3862.62
481.424	3986.01
481.795	4042.51
482.166	4204.54
482.537	4267.59
482.908	4421.48
483.279	4516.39
483.65	4630.74
484.021	4787.8
484.391	4884.97
484.762	4980.56
485.133	5072.54
485.503	5219.42
485.874	5380.78
486.244	5453.09
486.615	5661.22
486.985	5802.01
487.356	5938.28
487.726	6069.35
488.097	6246.74
488.467	6329.9
488.837	6540.29
489.207	6691.48
489.578	6767.18
489.948	6957.91
490.318	7164.91
490.688	7194.06
491.058	7420.27
491.428	7550.21
491.798	7775.06
492.168	7977.54
492.538	8025
492.908	8238.55
493.278	8446.91
493.648	8488.04
494.017	8753.57
494.387	8871.76
494.757	8964.19
495.126	9148.36
495.496	9262.03
495.866	9386.1
496.235	9457.96
496.605	9711.74
496.974	9798.29
497.344	9959.19
497.713	10103.59
498.082	10235.79
498.452	10414.09
498.821	10519.4
499.19	10599.62
499.559	10787.87
499.928	10840.29
500.298	10994.19
500.667	11130.91
501.036	11174.75
501.405	11346.95
501.774	11429.21
502.143	11600.05
502.512	11661.29
502.88	11776.77
503.249	11892.02
503.618	11927.72
503.987	12102.63
504.356	12237.09
504.724	12277.32
505.093	12330.2
505.462	12462.17
505.83	12499.69
506.199	12733.8
506.567	12835.27
506.936	12872.11
507.304	13063.29
507.672	13099.44
508.041	13208.82
508.409	13229.61
508.777	13439.77
509.145	13481.35
509.514	13502.82
509.882	13670.73
510.25	13602.03
510.618	13713.44
510.986	13903.49
511.354	13952.3
511.722	14016.71
512.09	14149.36
512.458	14041.57
512.826	14254.89
513.193	14309.58
513.561	14247.44
513.929	14336.47
514.297	14505.96
514.664	14658.95
515.032	14619.4
515.4	14658.72
515.767	14789.12
516.135	14759.97
516.502	14777.14
516.869	14939.4
517.237	14987.3
517.604	15025.04
517.972	15188.43
518.339	15142.33
518.706	15209.67
519.073	15164.02
519.44	15255.77
519.808	15418.93
520.175	15269.33
520.542	15575.54
520.909	15520.62
521.276	15542.54
521.643	15652.82
522.009	15675.87
522.376	15780.28
522.743	15800.62
523.11	15865.02
523.477	15981.63
523.843	16025.47
524.21	16174.17
524.577	16236.99
524.943	16236.76
525.31	16211.23
525.676	16334.39
526.043	16374.84
526.409	16459.36
526.776	16520.6
527.142	16469.75
527.508	16665.9
527.874	16622.97
528.241	16625.23
528.607	16504.33
528.973	16697.09
529.339	16661.61
529.705	16773.47
530.071	16798.1
530.437	16757.2
530.803	16773.47
531.169	16861.38
531.535	16783.19
531.901	16823.87
532.267	16846.24
532.632	16972.34
532.998	16708.61
533.364	16852.57
533.73	16901.15
534.095	16934.15
534.461	16928.04
534.826	16961.49
535.192	16964.2
535.557	16973.69
535.923	16883.07
536.288	16984.09
536.653	16902.51
537.019	16849.4
537.384	16833.81
537.749	16900.7
538.114	16750.2
538.479	16802.17
538.845	16805.56
539.21	16690.31
539.575	16759.23
539.94	16733.92
540.305	16824.32
540.67	16681.95
541.034	16689.86
541.399	16741.83
541.764	16657.09
542.129	16688.05
542.494	16569.63
542.858	16700.03
543.223	16592.46
543.587	16573.7
543.952	16452.35
544.316	16519.92
544.681	16449.19
545.045	16449.19
545.41	16507.94
545.774	16414.61
546.138	16422.07
546.503	16418.23
546.867	16304.56
547.231	16349.75
547.595	16315.18
547.959	16246.71
548.324	16232.24
548.688	16186.37
549.052	16206.03
549.416	16264.78
549.779	16142.08
550.143	16159.7
550.507	16125.8
550.871	16082.87
551.235	16011.23
551.599	16129.87
551.962	16043.1
552.326	16040.16
552.689	16064.56
553.053	15946.83
553.417	16039.25
553.78	16155.86
554.143	15910.22
554.507	15971.91
554.87	15922.19
555.234	15984.79
555.597	15775.98
555.96	15867.28
556.323	15887.62
556.686	15794.06
557.05	15951.8
557.413	15917.45
557.776	15866.38
558.139	15911.35
558.502	15979.59
558.865	15859.6
559.228	15919.03
559.59	15890.78
559.953	15851.46
560.316	15992.02
560.679	15988.63
561.041	16001.06
561.404	15945.92
561.767	16077.9
562.129	15950.89
562.492	16047.61
562.854	15969.88
563.217	16002.42
563.579	16026.6
563.941	16059.59
564.304	16006.03
564.666	16147.5
565.028	16020.95
565.39	16093.72
565.753	16217.55
566.115	16202.41
566.477	16169.42
566.839	16131.68
567.201	16259.13
567.563	16281.51
567.925	16340.04
568.287	16289.64
568.648	16308.17
569.01	16286.25
569.372	16369.41
569.734	16394.05
570.095	16468.39
570.457	16486.47
570.819	16484.21
571.18	16396.53
571.542	16522.86
571.903	16449.19
572.265	16518.11
572.626	16479.92
572.987	16583.87
573.349	16653.7
573.71	16539.35
574.071	16561.73
574.432	16611.44
574.794	16697.09
575.155	16659.8
575.516	16584.1
575.877	16712
576.238	16684.66
576.599	16726.02
576.96	16618.45
577.32	16680.59
577.681	16693.47
578.042	16657.77
578.403	16710.65
578.763	16832.45
579.124	16763.53
579.485	16834.71
579.845	16806.69
580.206	16705.68
580.566	16689.41
580.927	16734.15
581.287	16879.23
581.648	16806.24
582.008	16875.16
582.368	16800.36
582.728	16825.45
583.089	16708.84
583.449	16695.06
583.809	16797.43
584.169	16720.59
584.529	16719.69
584.889	16737.77
585.249	16710.65
585.609	16594.49
585.969	16697.54
586.329	16639.01
586.688	16719.91
587.048	16643.76
587.408	16644.89
587.768	16612.57
588.127	16506.36
588.487	16602.4
588.846	16716.75
589.206	16369.87
589.565	16498.9
589.925	16612.57
590.284	16471.33
590.643	16536.42
591.003	16617.54
591.362	16498.22
591.721	16578.22
592.08	16540.71
592.44	16584.32
592.799	16510.43
593.158	16514.04
593.517	16479.24
593.876	16492.35
594.235	16489.86
594.593	16492.57
594.952	16467.94
595.311	16450.77
595.67	16443.76
596.029	16477.89
596.387	16544.78
596.746	16483.99
597.104	16418.68
597.463	16433.59
597.822	16456.87
598.18	16390.43
598.538	16408.28
598.897	16450.32
599.255	16287.83
599.613	16513.82
599.972	16460.71
600.33	16452.8
600.688	16440.82
601.046	16461.62
601.404	16517.88
601.762	16472.46
602.12	16488.96
602.478	16529.18
602.836	16441.28
603.194	16374.61
603.552	16404.67
603.91	16314.27
604.268	16442.63
604.625	16383.88
604.983	16458.45
605.341	16366.25
605.698	16485.57
606.056	16560.37
606.413	16433.14
606.771	16488.51
607.128	16466.13
607.485	16497.55
607.843	16425.01
608.2	16529.41
608.557	16615.96
608.914	16513.14
609.272	16622.51
609.629	16584.1
609.986	16644.44
610.343	16530.31
610.7	16685.79
611.057	16567.38
611.414	16668.84
611.771	16619.8
612.127	16664.32
612.484	16626.13
612.841	16730.53
613.198	16650.54
613.554	16686.69
613.911	16760.59
614.267	16702.06
614.624	16761.04
614.98	16780.93
615.337	16832.9
615.693	16775.05
616.05	16799.69
616.406	16911.32
616.762	16861.15
617.118	16826.8
617.475	16839.23
617.831	16987.93
618.187	16970.53
618.543	16848.5
618.899	17014.14
619.255	16973.92
619.611	16858.44
619.967	17073.8
620.323	17061.6
620.678	16974.6
621.034	16868.16
621.39	16929.85
621.746	16985.67
622.101	17150.86
622.457	16967.14
622.812	17008.49
623.168	16999.68
623.523	17103.41
623.879	17089.17
624.234	16919.23
624.589	16951.32
624.945	16967.36
625.3	16958.55
625.655	16952.22
626.01	16984.54
626.365	16991.54
626.72	16988.16
627.075	16935.95
627.43	16891.89
627.785	16904.09
628.14	16925.33
628.495	16937.53
628.85	16956.07
629.205	16815.73
629.559	16949.96
629.914	16859.57
630.269	16976.63
630.623	16817.99
630.978	16802.62
631.332	16865.45
631.687	16875.84
632.041	16834.03
632.396	16796.75
632.75	16731.21
633.104	16723.76
633.459	16704.77
633.813	16624.77
634.167	16744.55
634.521	16646.24
634.875	16634.94
635.229	16674.26
635.583	16560.14
635.937	16566.7
636.291	16535.74
636.645	16587.26
636.999	16496.19
637.352	16588.39
637.706	16582.97
638.06	16589.52
638.413	16481.5
638.767	16477.43
639.121	16433.14
639.474	16352.24
639.828	16293.26
640.181	16375.29
640.534	16321.05
640.888	16270.43
641.241	16268.4
641.594	16275.18
641.947	16306.59
642.301	16251.23
642.654	16243.09
643.007	16271.11
643.36	16230.89
643.713	16318.79
644.066	16291
644.419	16173.26
644.771	16046.71
645.124	15925.36
645.477	15969.2
645.83	15834.96
646.182	15796.55
646.535	15665.03
646.888	15809.88
647.24	15549.1
647.593	15688.08
647.945	15707.28
648.298	15621.86
648.65	15540.74
649.002	15474.3
649.355	15697.57
649.707	15646.72
650.059	15797.68
650.411	15951.35
650.763	16032.47
651.115	16097.78
651.467	16048.29
651.819	16068.41
652.171	16002.19
652.523	16053.49
652.875	15931.91
653.227	15933.49
653.578	16084.45
653.93	16071.57
654.282	15943.66
654.633	15919.93
654.985	15897.79
655.337	15956.77
655.688	15944.11
656.039	16081.96
656.391	15939.6
656.742	16022.98
657.094	15931.69
657.445	16024.79
657.796	15978.69
658.147	15966.94
658.498	16009.88
658.849	16026.82
659.2	16046.03
659.551	15985.92
659.902	16043.32
660.253	16080.38
660.604	16129.42
660.955	15943.21
661.306	16052.81
661.656	16104.11
662.007	16018.01
662.358	16022.3
662.708	16011.23
663.059	15972.59
663.409	15865.25
663.76	16014.85
664.11	16057.56
664.461	16073.15
664.811	16023.43
665.161	16087.16
665.511	16015.07
665.862	16051.68
666.212	16134.84
666.562	16065.02
666.912	16100.49
667.262	16102.3
667.612	16037.9
667.962	16055.75
668.312	16060.04
668.662	16036.99
669.011	16006.94
669.361	15996.54
669.711	16000.38
670.06	15922.65
670.41	15970.55
670.76	15921.74
671.109	15993.15
671.459	16002.87
671.808	15979.82
672.157	15947.28
672.507	15871.35
672.856	15839.03
673.205	15859.37
673.554	15924.91
673.904	15915.87
674.253	15941.63
674.602	15928.3
674.951	15649.89
675.3	15600.62
675.649	15900.27
675.998	15812.37
676.346	15771.92
676.695	15879.03
677.044	15727.4
677.393	15832.93
677.741	15787.06
678.09	15717
678.438	15717.68
678.787	15646.27
679.135	15682.65
679.484	15580.51
679.832	15610.34
680.181	15578.02
680.529	15520.85
680.877	15527.63
681.225	15546.61
681.573	15516.1
681.922	15442.88
682.27	15438.14
682.618	15338.25
682.966	15370.8
683.314	15366.05
683.661	15297.58
684.009	15269.33
684.357	15187.52
684.705	15152.72
685.053	15247.64
685.4	15110.92
685.748	15090.35
686.095	15088.09
686.443	15066.62
686.79	15002.22
687.138	15081.09
687.485	15032.73
687.832	14983.91
688.18	14944.37
688.527	14806.07
688.874	14875.44
689.221	14747.99
689.568	14764.26
689.915	14789.79
690.262	14724.03
690.609	14710.93
690.956	14674.77
691.303	14558.84
691.65	14535.11
691.997	14526.3
692.344	14422.57
692.69	14378.96
693.037	14324.95
693.383	14201.79
693.73	14242.01
694.077	14157.49
694.423	14170.6
694.769	14127.44
695.116	14010.61
695.462	14036.59
695.808	13897.84
696.155	13993.21
696.501	13858.75
696.847	13893.32
697.193	13744.62
697.539	13754.12
697.885	13693.78
698.231	13569.04
698.577	13615.81
698.923	13614.01
699.269	13451.07
699.614	13387.12
699.96	13388.48
700.306	13384.41
700.651	13284.52
700.997	13256.5
701.342	13247.69
701.688	13204.98
702.033	13197.07
702.379	13146.22
702.724	13117.07
703.069	13111.42
703.415	12915.95
703.76	12882.73
704.105	12819.45
704.45	12933.12
704.795	12744.65
705.14	12708.27
705.485	12612.9
705.83	12677.08
706.175	12621.26
706.52	12528.39
706.865	12548.5
707.209	12589.17
707.554	12466.24
707.899	12490.87
708.243	12419.24
708.588	12421.04
708.932	12253.14
709.277	12319.35
709.621	12245.91
709.966	12218.79
710.31	12198.45
710.654	12123.88
710.998	12163.2
711.342	12098.57
711.687	12050.88
712.031	11987.16
712.375	11982.86
712.719	12001.17
713.063	11947.16
713.407	11944.45
713.75	11908.74
714.094	11894.5
714.438	11824.67
714.782	11780.61
715.125	11813.38
715.469	11753.72
715.812	11720.5
716.156	11654.96
716.499	11642.76
716.843	11669.88
717.186	11639.82
717.53	11665.81
717.873	11671.46
718.216	11652.7
718.559	11599.37
718.902	11528.41
719.246	11560.73
719.589	11442.31
719.932	11476.89
720.275	11504.91
720.617	11532.71
720.96	11453.39
721.303	11454.52
721.646	11389.88
721.989	11414.52
722.331	11401.64
722.674	11376.78
723.016	11303.78
723.359	11321.41
723.701	11345.14
724.044	11307.63
724.386	11292.49
724.729	11311.24
725.071	11306.95
725.413	11245.26
725.755	11296.33
726.097	11181.75
726.439	11147.18
726.782	11217.69
727.124	11251.13
727.465	11170.45
727.807	11129.1
728.149	11158.25
728.491	11221.98
728.833	11225.82
729.175	11165.94
729.516	11124.35
729.858	11181.75
730.199	11199.83
730.541	11200.74
730.882	11150.79
731.224	11106.73
731.565	11125.03
731.906	11124.81
732.248	11146.95
732.589	11106.5
732.93	11088.42
733.271	11090.46
733.612	11085.94
733.953	11096.78
734.294	11037.58
734.635	11030.57
734.976	11121.42
735.317	11050.68
735.658	11039.61
735.999	11046.62
736.339	11079.16
736.68	11142.43
737.021	11064.69
737.361	11025.6
737.702	11174.97
738.042	11091.36
738.383	11148.53
738.723	11122.55
739.063	11039.61
739.404	11142.66
739.744	11117.57
740.084	11120.74
740.424	11141.3
740.764	11124.81
741.104	11191.02
741.444	11195.99
741.784	11174.52
742.124	11247.97
742.464	11189.66
742.804	11250.9
743.143	11289.32
743.483	11269.66
743.823	11245.48
744.162	11330.68
744.502	11401.41
744.841	11421.52
745.181	11403.67
745.52	11465.59
745.86	11426.27
746.199	11494.97
746.538	11522.31
746.877	11659.48
747.216	11627.39
747.556	11671.46
747.895	11741.74
748.234	11806.82
748.573	11873.49
748.911	11908.06
749.25	11951.9
749.589	11989.42
749.928	12174.72
750.267	12264.66
750.605	12210.65
750.944	12299.92
751.283	12401.61
751.621	12510.76
751.96	12555.5
752.298	12710.98
752.636	12828.49
752.975	12848.15
753.313	12938.77
753.651	13118.88
753.989	13197.75
754.327	13291.98
754.666	13371.98
755.004	13501.24
755.342	13662.14
755.679	13796.37
756.017	13911.63
756.355	14051.74
756.693	14202.69
757.031	14379.64
757.368	14458.5
757.706	14562
758.044	14709.12
758.381	14966.97
758.719	14995.89
759.056	15336.67
759.394	15364.92
759.731	15499.15
760.068	15662.09
760.405	15896.43
760.743	15994.73
761.08	16149.08
761.417	16290.09
761.754	16457.77
762.091	16690.76
762.428	16817.54
762.765	16833.58
763.102	17198.77
763.438	17203.74
763.775	17401.7
764.112	17644.41
764.449	17799.21
764.785	17929.15
765.122	18016.38
765.458	18179.99
765.795	18291.62
766.131	18520.32
766.467	18606.87
766.804	18814.32
767.14	18793.98
767.476	18935.67
767.812	19048.21
768.148	19241.43
768.485	19328.21
768.821	19365.95
769.157	19497.24
769.492	19655.43
769.828	19688.2
770.164	19720.51
770.5	19886.61
770.836	20025.14
771.171	19970.68
771.507	20089.99
771.842	20127.73
772.178	20296.09
772.513	20371.12
772.849	20367.28
773.184	20454.73
773.519	20478.23
773.855	20609.98
774.19	20647.49
774.525	20648.4
774.86	20820.14
775.195	20761.84
775.53	20833.93
775.865	20922.74
776.2	20774.27
776.535	20809.52
776.87	20963.19
777.205	20808.62
777.539	20765.68
777.874	21070.08
778.209	20873.02
778.543	20961.16
778.878	20857.43
779.212	20794.16
779.547	20853.82
779.881	21093.81
780.215	20920.26
780.55	21098.33
780.884	20999.8
781.218	21013.81
781.552	21080.93
781.886	20999.12
782.22	20950.08
782.554	20878.22
782.888	20859.92
783.222	20794.61
783.556	20823.31
783.889	20750.32
784.223	20730.66
784.557	20642.75
784.89	20779.69
785.224	20647.95
785.557	20560.72
785.891	20682.75
786.224	20593.26
786.558	20662.86
786.891	20438.69
787.224	20512.13
787.557	20414.05
787.891	20373.83
788.224	20355.3
788.557	20352.59
788.89	20334.28
789.223	20377.22
789.556	20185.81
789.888	20261.52
790.221	20210.22
790.554	20104.91
790.887	20036.44
791.219	20030.56
791.552	19965.93
791.884	19889.1
792.217	19923.67
792.549	19891.13
792.882	19794.18
793.214	19732.26
793.546	19770.91
793.879	19661.53
794.211	19595.09
794.543	19636.9
794.875	19644.13
795.207	19629.22
795.539	19507.41
795.871	19471.71
796.203	19316.46
796.535	19336.79
796.867	19352.84
797.198	19244.82
797.53	19210.24
797.862	19168.44
798.193	19131.38
798.525	19067.87
798.856	19085.5
799.188	18857.48
799.519	18803.47
799.85	18784.04
800.182	18790.14
800.513	18847.77
800.844	18612.07
801.175	18713.53
801.506	18799.41
801.837	18531.39
802.168	18573.42
802.499	18582.92
802.83	18443.26
803.161	18376.37
803.491	18325.52
803.822	18418.85
804.153	18326.42
804.483	18185.64
804.814	18035.81
805.145	18093.21
805.475	18132.08
805.805	18067.9
806.136	17999.43
806.466	18085.08
806.796	18000.56
807.126	17897.96
807.457	17797.63
807.787	17817.06
808.117	17789.26
808.447	17725.08
808.777	17671.07
809.107	17626.56
809.436	17570.29
809.766	17509.27
810.096	17496.16
810.426	17438.76
810.755	17445.77
811.085	17398.09
811.414	17381.59
811.744	17318.32
812.073	17307.47
812.403	17209.62
812.732	17106.34
813.061	17163.07
813.39	17030.87
813.719	17090.3
814.049	17234.02
814.378	17104.99
814.707	16959.68
815.036	17025.22
815.365	16883.98
815.693	16836.52
816.022	16829.06
816.351	16735.96
816.68	16673.81
817.008	16770.76
817.337	16523.31
817.665	16542.07
817.994	16592.01
818.322	16486.02
818.651	16479.92
818.979	16400.6
819.307	16473.14
819.636	16401.28
819.964	16361.28
820.292	16378.68
820.62	16296.42
820.948	16374.61
821.276	16370.32
821.604	16284.9
821.932	16368.06
822.259	16369.41
822.587	16302.98
822.915	16302.75
823.243	16310.66
823.57	16315.4
823.898	16332.35
824.225	16291.68
824.553	16266.59
824.88	16285.12
825.207	16353.82
825.535	16357.89
825.862	16288.29
826.189	16272.47
826.516	16502.52
826.843	16414.61
827.17	16361.73
827.497	16355.86
827.824	16408.28
828.151	16445.12
828.478	16355.63
828.805	16367.38
829.131	16319.02
829.458	16344.56
829.785	16200.83
830.111	16368.74
830.438	16408.28
830.764	16291.9
831.09	16341.62
831.417	16314.73
831.743	16307.49
832.069	16361.05
832.395	16249.87
832.722	16269.98
833.048	16196.31
833.374	16288.96
833.7	16183.66
834.026	16263.43
834.351	16224.11
834.677	16193.37
835.003	16334.61
835.329	16189.31
835.654	16135.07
835.98	16013.04
836.306	16127.16
836.631	16020.72
836.956	16084.45
837.282	16076.09
837.607	16093.26
837.932	15948.86
838.258	15969.88
838.583	15939.14
838.908	15938.47
839.233	15819.82
839.558	15886.49
839.883	15780.05
840.208	15696.66
840.533	15736.89
840.858	15744.8
841.182	15741.86
841.507	15650.11
841.832	15650.56
842.156	15627.51
842.481	15652.6
842.805	15619.6
843.13	15467.97
843.454	15543.45
843.778	15459.16
844.103	15340.29
844.427	15382.32
844.751	15344.13
845.075	15306.84
845.399	15350.23
845.723	15178.94
846.047	15226.85
846.371	15005.83
846.695	15149.79
847.019	14983.01
847.343	14856.46
847.666	14794.77
847.99	14782.56
848.313	14738.72
848.637	14596.35
848.96	14662.57
849.284	14613.53
849.607	14545.51
849.931	14555.9
850.254	14388.45
850.577	14284.72
850.9	14195.01
851.223	14233.65
851.546	14140.09
851.869	14038.85
852.192	14026.88
852.515	13983.94
852.838	13944.85
853.161	13872.76
853.483	13910.27
853.806	13826.88
854.129	13717.51
854.451	13749.6
854.774	13638.86
855.096	13626.21
855.419	13652.88
855.741	13528.36
856.063	13431.41
856.385	13433.45
856.708	13447.23
857.03	13443.39
857.352	13371.07
857.674	13277.52
857.996	13229.38
858.318	13229.84
858.64	13178.54
858.961	13116.84
859.283	13058.09
859.605	12960.01
859.926	13026.23
860.248	13045.21
860.57	12882.5
860.891	12939.9
861.212	12927.02
861.534	12809.96
861.855	12845.89
862.176	12801.6
862.498	12758.21
862.819	12728.61
863.14	12669.17
863.461	12707.36
863.782	12605.67
864.103	12649.96
864.424	12657.87
864.745	12613.35
865.065	12500.82
865.386	12489.06
865.707	12535.84
866.027	12574.71
866.348	12403.87
866.668	12516.18
866.989	12457.88
867.309	12329.52
867.63	12434.83
867.95	12353.7
868.27	12291.56
868.59	12287.94
868.91	12298.56
869.23	12373.36
869.55	12292.01
869.87	12242.29
870.19	12237.09
870.51	12285.68
870.83	12238
871.15	12145.12
871.469	12190.77
871.789	12214.5
872.109	12116.42
872.428	12072.8
872.748	12065.12
873.067	12066.93
873.386	12021.73
873.706	12070.09
874.025	11942.64
874.344	11892.47
874.663	11987.16
874.982	11931.79
875.301	11972.24
875.62	11940.15
875.939	11875.52
876.258	11810.44
876.577	11856.54
876.896	11783.55
877.214	11779.03
877.533	11762.53
877.852	11733.38
878.17	11787.16
878.489	11768.41
878.807	11721.85
879.125	11694.06
879.444	11639.14
879.762	11647.05
880.08	11675.98
880.398	11586.26
880.716	11633.72
881.034	11601.63
881.352	11625.58
881.67	11487.96
881.988	11575.42
882.306	11505.14
882.624	11477.79
882.941	11350.11
883.259	11329.55
883.577	11363.9
883.894	11316.21
884.212	11258.81
884.529	11253.62
884.846	11303.78
885.164	11271.7
885.481	11201.19
885.798	11197.8
886.115	11112.6
886.432	11063.79
886.75	11082.1
887.067	11053.85
887.383	11032.61
887.7	11062.21
888.017	11011.14
888.334	10993.74
888.651	10902.67
888.967	10938.14
889.284	10808.66
889.6	10790.13
889.917	10765.27
890.233	10772.95
890.55	10730.69
890.866	10759.62
891.182	10726.85
891.498	10656.12
891.815	10629.23
892.131	10621.99
892.447	10517.36
892.763	10570.02
893.079	10492.51
893.395	10422.45
893.71	10410.25
894.026	10412.51
894.342	10399.85
894.657	10357.82
894.973	10276.24
895.289	10275.11
895.604	10253.42
895.92	10184.49
896.235	10168.22
896.55	10138.62
896.865	10142.46
897.181	10094.32
897.496	10099.52
897.811	9950.37
898.126	10034.67
898.441	9842.13
898.756	9872.64
899.071	9760.32
899.386	9820.89
899.7	9767.55
900.015	9712.19
900.33	9641.91
900.644	9646.65
900.959	9677.16
901.273	9554.68
901.588	9554.23
901.902	9445.08
902.216	9473.78
902.531	9431.29
902.845	9463.83
903.159	9391.74
903.473	9277.62
903.787	9268.58
904.101	9261.13
904.415	9216.38
904.729	9162.82
905.042	9139.32
905.356	9132.77
905.67	9150.62
905.984	9132.99
906.297	9019.1
906.611	8941.59
906.924	8927.12
907.237	9010.51
907.551	8875.15
907.864	8810.97
908.177	8806.68
908.491	8888.25
908.804	8809.16
909.117	8699.11
909.43	8690.97
909.743	8618.88
910.056	8633.8
910.368	8596.96
910.681	8533.24
910.994	8483.07
911.307	8485.1
911.619	8446.91
911.932	8371.66
912.244	8347.03
912.557	8366.91
912.869	8382.28
913.181	8320.59
913.494	8294.82
913.806	8185.9
914.118	8160.82
914.43	8178.44
914.742	8155.39
915.054	8144.09
915.366	8092.12
915.678	7985
915.99	7972.35
916.302	7939.13
916.613	7889.64
916.925	7808.96
917.236	7856.64
917.548	7800.37
917.859	7792.69
918.171	7714.5
918.482	7701.17
918.794	7613.26
919.105	7615.52
919.416	7616.65
919.727	7551.79
920.038	7633.6
920.349	7473.6
920.66	7456.43
920.971	7446.94
921.282	7448.29
921.593	7375.53
921.903	7320.61
922.214	7345.92
922.525	7326.94
922.835	7238.35
923.146	7196.1
923.456	7225.7
923.767	7177.57
924.077	7127.4
924.387	7111.58
924.697	7058.92
925.008	7041.52
925.318	6956.55
925.628	6955.42
925.938	6879.95
926.248	6899.83
926.558	6902.09
926.867	6897.57
927.177	6845.82
927.487	6753.4
927.796	6704.58
928.106	6761.53
928.416	6713.62
928.725	6773.51
929.034	6665.49
929.344	6661.87
929.653	6620.97
929.962	6592.27
930.271	6539.16
930.581	6473.86
930.89	6497.58
931.199	6397.47
931.508	6463.91
931.817	6415.33
932.125	6414.42
932.434	6319.06
932.743	6291.26
933.051	6317.48
933.36	6285.16
933.669	6272.96
933.977	6246.97
934.286	6242.22
934.594	6230.02
934.902	6117.25
935.21	6141.43
935.519	6136.24
935.827	6124.49
936.135	6033.19
936.443	6025.05
936.751	6005.39
937.059	5983.92
937.367	5923.36
937.674	5967.2
937.982	5933.76
938.29	5905.06
938.597	5835
938.905	5803.59
939.213	5783.7
939.52	5774.21
939.827	5808.11
940.135	5714.78
940.442	5724.95
940.749	5683.14
941.056	5706.64
941.363	5618.51
941.67	5591.39
941.977	5543.94
942.284	5562.69
942.591	5580.09
942.898	5506.65
943.205	5479.31
943.511	5457.38
943.818	5466.2
944.125	5414.22
944.431	5430.27
944.738	5356.37
945.044	5407.67
945.35	5320.44
945.657	5253.77
945.963	5303.26
946.269	5284.73
946.575	5265.98
946.881	5210.61
947.187	5181.01
947.493	5225.07
947.799	5120.9
948.105	5096.26
948.41	5054.91
948.716	5042.25
949.022	5030.73
949.327	5032.76
949.633	4998.19
949.938	5042.93
950.244	4976.04
950.549	4997.28
950.854	4912.09
951.16	4912.09
951.465	4861.92
951.77	4892.88
952.075	4841.58
952.38	4830.28
952.685	4816.72
952.99	4765.2
953.294	4787.35
953.599	4768.36
953.904	4678.65
954.209	4691.3
954.513	4644.75
954.818	4677.29
955.122	4628.48
955.426	4626.45
955.731	4624.19
956.035	4596.16
956.339	4537.18
956.643	4542.38
956.948	4509.61
957.252	4534.7
957.556	4495.15
957.86	4471.65
958.163	4424.64
958.467	4385.32
958.771	4424.87
959.075	4407.24
959.378	4346.91
959.682	4373.35
959.985	4335.38
960.289	4321.82
960.592	4281.82
960.896	4275.49
961.199	4261.94
961.502	4223.74
961.805	4268.49
962.108	4204.99
962.411	4190.07
962.714	4167.93
963.017	4170.64
963.32	4145.55
963.623	4116.4
963.926	4092.9
964.228	4097.87
964.531	4036.18
964.833	4045.44
965.136	4012.23
965.438	4017.42
965.741	3990.3
966.043	3958.89
966.345	3964.77
966.648	3896.07
966.95	3964.09
967.252	3861.49
967.554	3850.65
967.856	3880.48
968.158	3827.15
968.46	3821.27
968.761	3801.16
969.063	3812.68
969.365	3822.17
969.666	3769.07
969.968	3734.49
970.269	3744.66
970.571	3701.27
970.872	3686.58
971.174	3670.31
971.475	3696.75
971.776	3630.99
972.077	3632.8
972.378	3615.4
972.679	3595.51
972.98	3590.77
973.281	3556.87
973.582	3530.66
973.883	3552.8
974.183	3565.91
974.484	3546.25
974.785	3453.14
975.085	3489.3
975.386	3461.96
975.686	3456.31
975.986	3421.96
976.287	3421.51
976.587	3385.35
976.887	3379.25
977.187	3375.86
977.487	3355.07
977.787	3316.88
978.087	3319.81
978.387	3313.94
978.687	3306.25
978.987	3318.01
979.286	3236.88
979.586	3277.33
979.885	3201.62
980.185	3220.16
980.484	3236.2
980.784	3184.68
981.083	3164.11
981.382	3152.36
981.682	3151.46
981.981	3165.47
982.28	3097.45
982.579	3108.29
982.878	3122.08
983.177	3092.93
983.475	3074.62
983.774	3006.15
984.073	3018.8
984.372	3016.09
984.67	3012.48
984.969	2998.92
985.267	2996.43
985.566	2959.6
985.864	2965.25
986.162	2969.54
986.461	2950.33
986.759	2903.1
987.057	2899.49
987.355	2889.77
987.653	2858.36
987.951	2832.82
988.249	2823.78
988.547	2815.42
988.844	2794.86
989.142	2861.75
989.44	2762.54
989.737	2751.24
990.035	2812.03
990.332	2760.05
990.63	2717.34
990.927	2751.92
991.224	2733.16
991.521	2725.93
991.819	2688.64
992.116	2674.86
992.413	2662.43
992.71	2632.15
993.006	2627.63
993.303	2572.94
993.6	2637.35
993.897	2616.1
994.193	2595.31
994.49	2566.61
994.787	2593.51
995.083	2528.87
995.379	2556.9
995.676	2555.54
995.972	2542.89
996.268	2512.83
996.565	2498.59
996.861	2477.58
997.157	2486.39
997.453	2444.81
997.749	2450.91
998.044	2428.99
998.34	2428.99
998.636	2410.46
998.932	2388.09
999.227	2370.23
999.523	2346.96
999.818	2320.52
1000.114	2326.62
1000.409	2332.95
1000.704	2318.94
1001	2290.91
1001.295	2262.67
1001.59	2307.86
1001.885	2257.47
1002.18	2276.68
1002.475	2268.54
1002.77	2234.42
1003.065	2194.42
1003.359	2215.44
1003.654	2196
1003.949	2150.13
1004.243	2186.74
1004.538	2134.31
1004.832	2162.78
1005.127	2132.27
1005.421	2115.55
1005.715	2114.87
1006.009	2095.67
1006.304	2049.11
1006.598	2086.17
1006.892	2073.29
1007.186	2050.02
1007.48	2037.14
1007.773	1996.23
1008.067	2009.34
1008.361	2001.43
1008.655	2007.31
1008.948	1990.13
1009.242	1970.7
1009.535	1956.69
1009.829	1921.21
1010.122	1924.14
1010.415	1946.29
1010.708	1895.44
1011.001	1888.21
1011.295	1862.68
1011.588	1904.03
1011.881	1847.99
1012.173	1827.42
1012.466	1849.57
1012.759	1843.24
1013.052	1823.13
1013.344	1811.83
1013.637	1809.35
1013.93	1781.55
1014.222	1794.2
1014.514	1769.12
1014.807	1769.12
1015.099	1738.61
1015.391	1740.87
1015.683	1698.16
1015.976	1731.61
1016.268	1698.39
1016.56	1683.7
1016.851	1677.82
1017.143	1653.42
1017.435	1660.42
1017.727	1646.19
1018.018	1644.38
1018.31	1659.74
1018.602	1641.67
1018.893	1595.34
1019.185	1592.18
1019.476	1571.84
1019.767	1574.55
1020.058	1582.91
1020.35	1548.11
1020.641	1531.39
1020.932	1506.98
1021.223	1528.45
1021.514	1541.33
1021.804	1485.06
1022.095	1517.38
1022.386	1494.55
1022.677	1505.62
1022.967	1494.78
1023.258	1468.56
1023.548	1457.04
1023.839	1428.11
1024.129	1418.39
1024.419	1421.11
1024.709	1426.3
1025	1371.39
1025.29	1389.24
1025.58	1380.66
1025.87	1349.47
1026.16	1370.03
1026.449	1352.63
1026.739	1343.59
1027.029	1344.95
1027.319	1337.95
1027.608	1352.63
1027.898	1313.99
1028.187	1297.95
1028.477	1302.92
1028.766	1287.55
1029.055	1262.24
1029.344	1258.85
1029.634	1258.63
1029.923	1252.75
1030.212	1222.47
1030.501	1265.63
1030.79	1228.8
1031.078	1222.69
1031.367	1223.6
1031.656	1200.77
1031.945	1200.1
1032.233	1170.49
1032.522	1142.02
1032.81	1180.21
1033.099	1176.14
1033.387	1147.44
1033.675	1151.06
1033.963	1145.41
1034.251	1126.65
1034.54	1115.35
1034.828	1122.36
1035.116	1120.78
1035.403	1106.54
1035.691	1085.97
1035.979	1078.06
1036.267	1035.58
1036.554	1062.02
1036.842	1076.48
1037.129	1040.1
1037.417	1047.56
1037.704	1049.14
1037.992	1047.33
1038.279	1020.21
1038.566	1027.67
1038.853	1027.67
1039.14	1027.67
