Data from hue_250_FLMS001491_00031.txt Node
Date: Tue Feb 07 16:00:52 GMT 2017
User: dcchb
Spectrometer: FLMS00149
Trigger mode: 0
Integration Time (sec): 2.000000E-2
Scans to average: 10
Electric dark correction enabled: true
Nonlinearity correction enabled: false
Boxcar width: 0
XAxis mode: Wavelengths
Number of Pixels in Spectrum: 2048
>>>>>Begin Spectral Data<<<<<
341.393	-5.96
341.776	-5.96
342.16	-5.96
342.543	-63.13
342.927	-55
343.31	-63.81
343.693	-65.62
344.077	-56.81
344.46	-75.56
344.843	-45.06
345.226	-17.49
345.61	-27.88
345.993	-24.04
346.376	-7.99
346.759	20.25
347.142	10.99
347.525	30.87
347.908	55.96
348.291	60.03
348.674	102.74
349.057	103.42
349.44	130.31
349.823	114.71
350.206	161.72
350.588	190.42
350.971	222.06
351.354	217.54
351.737	234.49
352.119	229.29
352.502	253.02
352.884	271.09
353.267	266.35
353.65	299.12
354.032	295.27
354.414	300.25
354.797	317.65
355.179	315.16
355.562	319.68
355.944	306.8
356.326	314.94
356.709	330.98
357.091	316.29
357.473	333.01
357.855	310.64
358.238	333.24
358.62	334.82
359.002	336.63
359.384	334.14
359.766	321.04
360.148	328.72
360.53	319.45
360.912	343.18
361.294	332.56
361.676	328.04
362.057	300.47
362.439	317.42
362.821	331.66
363.203	346.57
363.584	323.97
363.966	301.83
364.348	327.14
364.729	323.3
365.111	330.75
365.493	295.95
365.874	301.83
366.256	291.43
366.637	294.82
367.019	315.39
367.4	292.11
367.781	271.09
368.163	299.34
368.544	290.3
368.925	292.11
369.306	316.29
369.688	293.01
370.069	294.14
370.45	304.31
370.831	315.16
371.212	302.73
371.593	314.48
371.974	293.47
372.355	321.71
372.736	305.9
373.117	310.19
373.498	319
373.879	282.39
374.26	307.03
374.641	305.44
375.021	307.93
375.402	319
375.783	310.64
376.163	302.96
376.544	317.87
376.925	310.87
377.305	299.79
377.686	329.17
378.066	317.2
378.447	314.71
378.827	331.88
379.208	313.58
379.588	302.28
379.968	332.79
380.349	319.91
380.729	306.35
381.109	345.22
381.489	338.44
381.87	318.1
382.25	331.21
382.63	327.14
383.01	328.04
383.39	335.05
383.77	335.05
384.15	334.6
384.53	322.62
384.91	355.39
385.29	334.6
385.67	354.26
386.049	342.05
386.429	338.89
386.809	348.83
387.189	357.42
387.568	352.45
387.948	363.97
388.328	348.83
388.707	349.74
389.087	331.21
389.466	359.45
389.846	351.09
390.225	362.84
390.605	344.31
390.984	356.97
391.363	351.09
391.743	363.07
392.122	348.61
392.501	377.08
392.881	356.74
393.26	390.41
393.639	371.43
394.018	373.69
394.397	378.89
394.776	387.02
395.155	386.8
395.534	365.56
395.913	384.09
396.292	381.6
396.671	393.13
397.05	379.11
397.429	389.28
397.808	376.18
398.186	385.89
398.565	419.79
398.944	383.86
399.323	390.41
399.701	403.52
400.08	386.57
400.458	406.46
400.837	400.13
401.215	384.09
401.594	419.57
401.972	411.88
402.351	420.02
402.729	424.54
403.107	417.76
403.486	432.45
403.864	450.3
404.242	439.45
404.62	409.62
404.999	412.11
405.377	436.51
405.755	437.42
406.133	453.01
406.511	413.92
406.889	449.39
407.267	458.66
407.645	467.7
408.023	472.22
408.401	471.77
408.779	484.65
409.156	479.22
409.534	482.39
409.912	477.19
410.29	489.39
410.667	509.51
411.045	512.9
411.422	520.13
411.8	507.7
412.178	536.85
412.555	540.92
412.933	515.38
413.31	572.78
413.687	566
414.065	538.43
414.442	576.4
414.819	591.54
415.197	580.01
415.574	603.06
415.951	586.57
416.328	604.42
416.705	610.07
417.082	597.19
417.46	603.06
417.837	626.11
418.214	608.49
418.591	627.47
418.967	629.5
419.344	638.99
419.721	652.55
420.098	648.94
420.475	671.54
420.852	686
421.228	657.98
421.605	688.03
421.982	702.5
422.358	692.78
422.735	714.47
423.111	729.16
423.488	759.22
423.864	760.12
424.241	737.52
424.617	756.05
424.994	768.48
425.37	776.62
425.746	781.82
426.123	782.95
426.499	778.65
426.875	824.3
427.251	851.19
427.627	836.73
428.003	857.52
428.379	852.77
428.756	846.45
429.132	883.06
429.507	886.67
429.883	880.12
430.259	909.5
430.635	888.48
431.011	918.54
431.387	915.15
431.763	949.49
432.138	950.4
432.514	969.16
432.89	954.47
433.265	1011.19
433.641	1029.27
434.016	986.1
434.392	1042.15
434.767	1043.73
435.143	1078.76
435.518	1101.81
435.894	1090.73
436.269	1135.48
436.644	1131.41
437.02	1134.12
437.395	1129.15
437.77	1179.09
438.145	1193.78
438.52	1210.5
438.895	1210.73
439.271	1227.45
439.646	1252.09
440.021	1288.02
440.395	1296.83
440.77	1292.76
441.145	1275.81
441.52	1308.58
441.895	1321.01
442.27	1344.06
442.645	1351.07
443.019	1357.17
443.394	1362.59
443.769	1383.38
444.143	1392.42
444.518	1413.89
444.892	1429.26
445.267	1421.8
445.641	1451.63
446.016	1443.27
446.39	1454.79
446.764	1454.34
447.139	1445.3
447.513	1460.89
447.887	1497.73
448.262	1480.55
448.636	1510.61
449.01	1511.74
449.384	1532.98
449.758	1548.8
450.132	1543.6
450.506	1565.52
450.88	1550.61
451.254	1591.29
451.628	1597.61
452.002	1619.53
452.376	1628.8
452.75	1644.84
453.123	1638.52
453.497	1644.62
453.871	1675.13
454.244	1730.04
454.618	1698.4
454.992	1735.01
455.365	1741.11
455.739	1796.25
456.112	1792.41
456.486	1822.24
456.859	1839.41
457.232	1828.57
457.606	1836.25
457.979	1914.67
458.352	1910.15
458.725	1918.51
459.099	1921.67
459.472	1969.81
459.845	1983.59
460.218	2005.06
460.591	2028.79
460.964	2040.77
461.337	2069.47
461.71	2111.05
462.083	2102.91
462.456	2123.02
462.829	2118.73
463.201	2170.03
463.574	2170.93
463.947	2196.69
464.32	2247.54
464.692	2270.82
465.065	2290.7
465.438	2313.98
465.81	2327.99
466.183	2340.42
466.555	2375.67
466.928	2379.06
467.3	2387.88
467.672	2418.38
468.045	2500.19
468.417	2480.53
468.789	2556.01
469.161	2526.63
469.534	2581.77
469.906	2650.69
470.278	2635.1
470.65	2676.23
471.022	2685.04
471.394	2788.77
471.766	2774.98
472.138	2780.63
472.51	2878.26
472.882	2916.45
473.253	2930.46
473.625	2932.72
473.997	3045.48
474.369	3035.77
474.74	3040.51
475.112	3115.77
475.484	3155.54
475.855	3218.59
476.227	3173.17
476.598	3292.94
476.97	3316.66
477.341	3352.37
477.713	3433.05
478.084	3443.21
478.455	3537.9
478.827	3526.15
479.198	3624.23
479.569	3598.92
479.94	3787.16
480.311	3766.82
480.682	3811.34
481.053	3874.16
481.424	3976.08
481.795	3987.83
482.166	4028.51
482.537	4036.87
482.908	4163.2
483.279	4150.09
483.65	4238.45
484.021	4250.65
484.391	4299.46
484.762	4340.14
485.133	4406.13
485.503	4444.77
485.874	4527.25
486.244	4608.61
486.615	4590.3
486.985	4657.87
487.356	4790.52
487.726	4818.77
488.097	4928.37
488.467	4883.18
488.837	4973.34
489.207	5054.47
489.578	5117.07
489.948	5096.5
490.318	5172.89
490.688	5170.17
491.058	5254.92
491.428	5370.62
491.798	5392.77
492.168	5450.39
492.538	5492.88
492.908	5527
493.278	5532.88
493.648	5594.12
494.017	5683.38
494.387	5700.56
494.757	5716.38
495.126	5792.31
495.496	5792.08
495.866	5801.12
496.235	5852.19
496.605	5898.97
496.974	5938.74
497.344	5953.66
497.713	6014.45
498.082	6005.41
498.452	6041.79
498.821	6089.02
499.19	6145.52
499.559	6183.93
499.928	6171.73
500.298	6161.34
500.667	6258.51
501.036	6251.5
501.405	6274.78
501.774	6317.04
502.143	6353.19
502.512	6356.36
502.88	6403.59
503.249	6412.4
503.618	6397.26
503.987	6383.7
504.356	6505.73
504.724	6513.42
505.093	6538.27
505.462	6556.35
505.83	6617.37
506.199	6666.63
506.567	6635.67
506.936	6688.1
507.304	6740.08
507.672	6744.37
508.041	6809.23
508.409	6846.74
508.777	6811.49
509.145	6862.33
509.514	6874.31
509.882	6900.3
510.25	6838.15
510.618	6877.25
510.986	6916.12
511.354	6962.44
511.722	7025.95
512.09	7079.96
512.458	7008.32
512.826	7075.44
513.193	7096.68
513.561	7079.5
513.929	7126.96
514.297	7229.56
514.664	7171.93
515.032	7206.73
515.4	7219.39
515.767	7209.44
516.135	7187.52
516.502	7224.58
516.869	7322.43
517.237	7311.14
517.604	7260.74
517.972	7305.71
518.339	7350.46
518.706	7444.92
519.073	7376.9
519.44	7438.36
519.808	7442.43
520.175	7430.45
520.542	7438.59
520.909	7511.36
521.276	7481.75
521.643	7481.98
522.009	7588.42
522.376	7625.03
522.743	7563.33
523.11	7601.75
523.477	7647.4
523.843	7655.31
524.21	7780.28
524.577	7719.71
524.943	7739.82
525.31	7712.48
525.676	7816.66
526.043	7845.13
526.409	7822.08
526.776	7866.15
527.142	7829.99
527.508	7858.47
527.874	7967.84
528.241	7947.95
528.607	7918.58
528.973	7952.47
529.339	7981.4
529.705	7957.22
530.071	8004.9
530.437	8043.09
530.803	8069.31
531.169	8050.55
531.535	8050.55
531.901	8027.95
532.267	8041.29
532.632	8083.32
532.998	8066.6
533.364	8091
533.73	8081.74
534.095	8171.9
534.461	8139.14
534.826	8120.61
535.192	8087.61
535.557	8136.42
535.923	8109.53
536.288	8145.24
536.653	8072.92
537.019	8058.46
537.384	8071.12
537.749	8085.8
538.114	8071.12
538.479	8084
538.845	8064.34
539.21	8001.96
539.575	8088.97
539.94	8136.88
540.305	8047.39
540.67	8083.09
541.034	8072.25
541.399	8137.1
541.764	8114.73
542.129	8057.56
542.494	8036.09
542.858	8081.96
543.223	8021.17
543.587	8114.05
543.952	8032.02
544.316	8059.14
544.681	8001.29
545.045	8069.76
545.41	8064.79
545.774	8026.14
546.138	8017.33
546.503	8058.23
546.867	8048.29
547.231	8015.07
547.595	8085.58
547.959	7986.82
548.324	7992.7
548.688	8011.91
549.052	7990.67
549.416	7991.8
549.779	7978.01
550.143	7994.96
550.507	7997.67
550.871	8011.23
551.235	7993.6
551.599	7964.23
551.962	7979.59
552.326	7939.59
552.689	8036.99
553.053	7980.95
553.417	7958.8
553.78	8054.39
554.143	7959.48
554.507	7979.59
554.87	8014.62
555.234	8088.29
555.597	7965.13
555.96	7985.69
556.323	8038.8
556.686	7993.83
557.05	8083.54
557.413	8048.52
557.776	8003.32
558.139	8051
558.502	8053.04
558.865	8088.97
559.228	8047.61
559.59	8168.29
559.953	8140.72
560.316	8169.42
560.679	8167.38
561.041	8184.56
561.404	8208.74
561.767	8235.86
562.129	8141.4
562.492	8195.41
562.854	8218.91
563.217	8177.33
563.579	8251.9
563.941	8271.79
564.304	8260.71
564.666	8342.97
565.028	8312.69
565.39	8358.34
565.753	8395.63
566.115	8436.76
566.477	8438.56
566.839	8451.44
567.201	8476.3
567.563	8436.76
567.925	8514.27
568.287	8561.27
568.648	8506.36
569.01	8549.75
569.372	8608.05
569.734	8567.15
570.095	8593.36
570.457	8605.56
570.819	8672.91
571.18	8634.49
571.542	8699.8
571.903	8726.92
572.265	8719.91
572.626	8756.97
572.987	8766.92
573.349	8812.34
573.71	8844.65
574.071	8836.07
574.432	8871.32
574.794	8935.05
575.155	8861.38
575.516	8876.97
575.877	8943.41
576.238	8971.43
576.599	8952.45
576.96	8951.32
577.32	8970.3
577.681	9018.66
578.042	9025.89
578.403	9024.08
578.763	9043.29
579.124	9072.22
579.485	9142.5
579.845	9139.79
580.206	9107.47
580.566	9120.35
580.927	9176.85
581.287	9186.34
581.648	9150.86
582.008	9188.83
582.368	9234.25
582.728	9268.37
583.089	9293.68
583.449	9216.17
583.809	9220.24
584.169	9239.22
584.529	9265.21
584.889	9363.06
585.249	9299.78
585.609	9233.34
585.969	9340.23
586.329	9305.89
586.688	9306.56
587.048	9275.83
587.408	9329.39
587.768	9401.48
588.127	9392.21
588.487	9420.23
588.846	9426.56
589.206	9373
589.565	9406.45
589.925	9463.4
590.284	9391.31
590.643	9514.69
591.003	9477.63
591.362	9530.51
591.721	9549.72
592.08	9467.01
592.44	9474.24
592.799	9543.62
593.158	9435.15
593.517	9575.48
593.876	9558.31
594.235	9510.4
594.593	9576.16
594.952	9548.82
595.311	9497.97
595.67	9601.02
596.029	9687.12
596.387	9608.25
596.746	9649.61
597.104	9612.54
597.463	9561.02
597.822	9628.36
598.18	9574.13
598.538	9602.15
598.897	9707.46
599.255	9616.39
599.613	9714.69
599.972	9728.7
600.33	9708.36
600.688	9660.45
601.046	9698.87
601.404	9645.31
601.762	9716.04
602.12	9772.09
602.478	9787.91
602.836	9756.49
603.194	9718.76
603.552	9755.59
603.91	9688.25
604.268	9746.55
604.625	9743.61
604.983	9765.53
605.341	9691.64
605.698	9772.77
606.056	9740.22
606.413	9716.72
606.771	9857.28
607.128	9784.74
607.485	9723.05
607.843	9755.59
608.2	9828.13
608.557	9855.02
608.914	9783.61
609.272	9832.2
609.629	9878.53
609.986	9883.95
610.343	9919.43
610.7	9975.02
611.057	9886.66
611.414	9923.5
611.771	9904.74
612.127	9870.62
612.484	9924.85
612.841	9965.75
613.198	9921.69
613.554	9961.01
613.911	9971.63
614.267	10008.01
614.624	9991.97
614.98	9979.99
615.337	10044.85
615.693	9980.67
616.05	9963.95
616.406	10087.79
616.762	10075.13
617.118	9970.73
617.475	10049.37
617.831	10070.61
618.187	10050.27
618.543	10031.97
618.899	10142.47
619.255	10105.86
619.611	10105.64
619.967	10233.54
620.323	10191.74
620.678	10071.06
621.034	10075.13
621.39	10102.7
621.746	10029.03
622.101	10222.47
622.457	10041.01
622.812	10183.83
623.168	10149.48
623.523	10100.89
623.879	10230.38
624.234	10092.31
624.589	10111.74
624.945	10166.43
625.3	10103.6
625.655	10146.99
626.01	10121.23
626.365	10178.4
626.72	10110.38
627.075	10124.85
627.43	10105.41
627.785	10095.69
628.14	10045.3
628.495	10147.22
628.85	10076.71
629.205	10049.37
629.559	10114
629.914	10054.34
630.269	10054.11
630.623	10042.82
630.978	10032.42
631.332	10119.2
631.687	10062.48
632.041	10054.57
632.396	10014.57
632.75	9984.06
633.104	10024.96
633.459	9947.22
633.813	9984.74
634.167	9928.92
634.521	9906.1
634.875	9954
635.229	9859.77
635.583	9862.93
635.937	9795.82
636.291	9795.59
636.645	9870.84
636.999	9833.33
637.352	9796.04
637.706	9782.93
638.06	9881.92
638.413	9796.95
638.767	9728.7
639.121	9756.49
639.474	9735.93
639.828	9821.13
640.181	9776.61
640.534	9770.28
640.888	9641.02
641.241	9710.39
641.594	9721.47
641.947	9697.97
642.301	9683.28
642.654	9688.25
643.007	9661.13
643.36	9577.74
643.713	9644.86
644.066	9671.07
644.419	9599.44
644.771	9526.9
645.124	9479.44
645.477	9391.08
645.83	9409.61
646.182	9371.42
646.535	9331.65
646.888	9378.43
647.24	9333.46
647.593	9352.66
647.945	9287.58
648.298	9268.82
648.65	9238.77
649.002	9260.46
649.355	9307.69
649.707	9294.13
650.059	9341.59
650.411	9438.99
650.763	9456.62
651.115	9526.67
651.467	9519.66
651.819	9501.59
652.171	9541.81
652.523	9485.32
652.875	9500.23
653.227	9477.63
653.578	9486.45
653.93	9477.18
654.282	9384.75
654.633	9370.97
654.985	9445.99
655.337	9470.63
655.688	9477.63
656.039	9432.44
656.391	9393.11
656.742	9407.58
657.094	9470.85
657.445	9467.01
657.796	9424.53
658.147	9529.83
658.498	9523.05
658.849	9461.59
659.2	9418.65
659.551	9438.09
659.902	9390.63
660.253	9427.92
660.604	9497.07
660.955	9409.84
661.306	9456.62
661.656	9433.34
662.007	9547.91
662.358	9496.39
662.708	9416.62
663.059	9444.64
663.409	9407.58
663.76	9444.19
664.11	9497.29
664.461	9498.42
664.811	9407.58
665.161	9424.53
665.511	9522.15
665.862	9474.24
666.212	9507.46
666.562	9525.54
666.912	9440.57
667.262	9416.16
667.612	9486.22
667.962	9451.19
668.312	9409.61
668.662	9495.03
669.011	9438.54
669.361	9454.58
669.711	9429.05
670.06	9403.96
670.41	9445.09
670.76	9442.6
671.109	9440.8
671.459	9429.72
671.808	9401.93
672.157	9483.51
672.507	9374.58
672.856	9356.05
673.205	9346.79
673.554	9408.71
673.904	9369.39
674.253	9385.21
674.602	9313.34
674.951	9267.92
675.3	9219.11
675.649	9311.99
675.998	9265.89
676.346	9293.91
676.695	9307.69
677.044	9259.56
677.393	9238.54
677.741	9322.38
678.09	9259.33
678.438	9184.76
678.787	9234.25
679.135	9204.19
679.484	9188.83
679.832	9246
680.181	9132.33
680.529	9256.4
680.877	9142.95
681.225	9174.14
681.573	9169.62
681.922	9135.95
682.27	9081.71
682.618	9086
682.966	9072.9
683.314	9121.48
683.661	9008.27
684.009	9003.75
684.357	8996.51
684.705	8939.79
685.053	8951.77
685.4	8966.69
685.748	8918.78
686.095	8900.92
686.443	8930.75
686.79	8878.33
687.138	8905.44
687.485	8893.69
687.832	8780.7
688.18	8804.88
688.527	8751.78
688.874	8718.56
689.221	8692.57
689.568	8747.03
689.915	8681.95
690.262	8679.46
690.609	8664.32
690.956	8639.69
691.303	8646.92
691.65	8596.3
691.997	8516.98
692.344	8497.09
692.69	8467.04
693.037	8485.57
693.383	8347.94
693.73	8417.1
694.077	8413.48
694.423	8366.02
694.769	8338.68
695.116	8309.3
695.462	8331.9
695.808	8270.21
696.155	8293.03
696.501	8301.84
696.847	8196.99
697.193	8148.63
697.539	8134.39
697.885	8188.17
698.231	8055.75
698.577	8116.99
698.923	8039.03
699.269	8021.17
699.614	8011.68
699.96	7947.5
700.306	7933.72
700.651	7900.05
700.997	7915.19
701.342	7856.21
701.688	7831.35
702.033	7828.86
702.379	7794.29
702.724	7828.64
703.069	7792.93
703.415	7724.23
703.76	7740.28
704.105	7669.09
704.45	7622.31
704.795	7642.43
705.14	7595.87
705.485	7620.28
705.83	7550.68
706.175	7538.02
706.52	7490.79
706.865	7430
707.209	7466.84
707.554	7419.16
707.899	7486.95
708.243	7412.6
708.588	7387.52
708.932	7352.26
709.277	7351.13
709.621	7294.19
709.966	7269.78
710.31	7281.08
710.654	7186.39
710.998	7274.75
711.342	7199.5
711.687	7198.37
712.031	7141.2
712.375	7180.52
712.719	7159.5
713.063	7179.61
713.407	7129.22
713.75	7143.23
714.094	7055.77
714.438	7056
714.782	7052.16
715.125	7044.48
715.469	7040.63
715.812	6989.56
716.156	6967.87
716.499	6962.44
716.843	7037.47
717.186	6971.26
717.53	7014.65
717.873	6895.1
718.216	7012.84
718.559	6943.46
718.902	6913.41
719.246	6932.39
719.589	6873.18
719.932	6888.77
720.275	6823.24
720.617	6876.12
720.96	6833.86
721.303	6820.53
721.646	6812.84
721.989	6817.36
722.331	6863.69
722.674	6831.83
723.016	6784.37
723.359	6763.81
723.701	6752.96
724.044	6744.6
724.386	6736.01
724.729	6800.41
725.071	6735.33
725.413	6745.05
725.755	6693.07
726.097	6660.76
726.439	6713.19
726.782	6661.44
727.124	6788.66
727.465	6697.82
727.807	6672.06
728.149	6688.78
728.491	6676.58
728.833	6670.47
729.175	6700.3
729.516	6633.64
729.858	6580.31
730.199	6671.83
730.541	6667.76
730.882	6595.9
731.224	6663.02
731.565	6611.27
731.906	6596.58
732.248	6659.18
732.589	6600.65
732.93	6594.09
733.271	6637.71
733.612	6636.58
733.953	6586.18
734.294	6552.96
734.635	6525.85
734.976	6640.19
735.317	6600.65
735.658	6565.62
735.999	6578.27
736.339	6537.82
736.68	6608.78
737.021	6610.81
737.361	6617.37
737.702	6583.7
738.042	6592.51
738.383	6585.28
738.723	6579.4
739.063	6584.15
739.404	6638.61
739.744	6627.31
740.084	6589.35
740.424	6649.01
740.764	6583.92
741.104	6668.44
741.444	6592.06
741.784	6646.75
742.124	6681.32
742.464	6631.38
742.804	6700.98
743.143	6656.92
743.483	6649.68
743.823	6684.94
744.162	6689.23
744.502	6717.48
744.841	6682.68
745.181	6748.89
745.52	6766.97
745.86	6814.2
746.199	6801.77
746.538	6866.85
746.877	6865.27
747.216	6932.61
747.556	6924.7
747.895	6885.16
748.234	6958.38
748.573	6986.4
748.911	7066.85
749.25	7046.06
749.589	7083.34
749.928	7139.61
750.267	7197.01
750.605	7211.48
750.944	7323.79
751.283	7312.49
751.621	7386.16
751.96	7427.52
752.298	7486.27
752.636	7558.59
752.975	7574.18
753.313	7616.44
753.651	7709.09
753.989	7738.02
754.327	7797.68
754.666	7884.68
755.004	8013.26
755.342	8128.06
755.679	8115.41
756.017	8195.63
756.355	8327.83
756.693	8366.7
757.031	8552.68
757.368	8563.31
757.706	8667.71
758.044	8770.53
758.381	8855.05
758.719	8940.47
759.056	9104.08
759.394	9188.15
759.731	9106.79
760.068	9352.21
760.405	9337.3
760.743	9470.85
761.08	9658.87
761.417	9665.42
761.754	9834.68
762.091	9876.94
762.428	10015.02
762.765	10041.69
763.102	10201.91
763.438	10282.81
763.775	10400.09
764.112	10488.23
764.449	10604.38
764.785	10681.22
765.122	10707.43
765.458	10754.89
765.795	10920.53
766.131	11069.23
766.467	11083.01
766.804	11204.14
767.14	11243.46
767.476	11290.47
767.812	11371.37
768.148	11478.71
768.485	11564.58
768.821	11600.06
769.157	11706.27
769.492	11748.08
769.828	11853.84
770.164	11835.08
770.5	11919.6
770.836	11966.83
771.171	12043.44
771.507	12015.64
771.842	12050.9
772.178	12144.23
772.513	12228.75
772.849	12171.35
773.184	12317.56
773.519	12266.49
773.855	12261.29
774.19	12320.27
774.525	12390.32
774.86	12461.96
775.195	12490.43
775.53	12491.11
775.865	12480.72
776.2	12447.5
776.535	12463.54
776.87	12492.69
777.205	12547.16
777.539	12496.76
777.874	12641.16
778.209	12461.51
778.543	12532.47
778.878	12557.1
779.212	12614.27
779.547	12572.24
779.881	12639.81
780.215	12594.61
780.55	12613.14
780.884	12619.02
781.218	12603.43
781.552	12623.76
781.886	12520.26
782.22	12530.21
782.554	12513.26
782.888	12480.49
783.222	12455.86
783.556	12381.96
783.889	12398.69
784.223	12390.32
784.557	12354.62
784.89	12423.77
785.224	12378.57
785.557	12349.65
785.891	12286.15
786.224	12311.91
786.558	12332.25
786.891	12301.06
787.224	12233.27
787.557	12212.7
787.891	12257.9
788.224	12207.05
788.557	12236.2
788.89	12236.2
789.223	12227.16
789.556	12085.93
789.888	12159.82
790.221	12066.94
790.554	12068.07
790.887	12029.2
791.219	11953.05
791.552	12011.8
791.884	11954.63
792.217	11901.75
792.549	11918.25
792.882	11803.45
793.214	11818.14
793.546	11869.66
793.879	11751.24
794.211	11720.74
794.543	11739.27
794.875	11698.82
795.207	11701.53
795.539	11715.31
795.871	11713.51
796.203	11642.55
796.535	11570.01
796.867	11538.82
797.198	11521.42
797.53	11526.17
797.862	11451.59
798.193	11460.4
798.525	11478.48
798.856	11457.92
799.188	11348.32
799.519	11311.48
799.85	11256.12
800.182	11294.31
800.513	11254.31
800.844	11173.63
801.175	11200.3
801.506	11203.46
801.837	11119.85
802.168	11172.05
802.499	11141.54
802.83	11032.85
803.161	11047.53
803.491	11027.2
803.822	11040.3
804.153	11048.89
804.483	10932.96
804.814	10869.23
805.145	10979.51
805.475	10845.73
805.805	10864.49
806.136	10842.57
806.466	10803.25
806.796	10816.58
807.126	10672.4
807.457	10723.48
807.787	10751.5
808.117	10671.95
808.447	10593.08
808.777	10719.86
809.107	10603.03
809.436	10651.61
809.766	10592.63
810.096	10520.54
810.426	10458.62
810.755	10535.23
811.085	10509.7
811.414	10425.4
811.744	10365.52
812.073	10384.05
812.403	10397.16
812.732	10269.93
813.061	10376.82
813.39	10257.72
813.719	10272.19
814.049	10278.52
814.378	10307.21
814.707	10206.43
815.036	10252.3
815.365	10048.46
815.693	10058.63
816.022	10144.73
816.351	10087.56
816.68	10028.35
817.008	10074.45
817.337	9978.64
817.665	9969.37
817.994	9964.85
818.322	9967.11
818.651	9896.83
818.979	9939.77
819.307	9986.09
819.636	9841.24
819.964	9825.87
820.292	9902.03
820.62	9892.31
820.948	9835.59
821.276	9855.25
821.604	9802.37
821.932	9823.61
822.259	9898.86
822.587	9916.72
822.915	9792.65
823.243	9858.64
823.57	9826.78
823.898	9802.14
824.225	9826.78
824.553	9804.4
824.88	9791.97
825.207	9856.61
825.535	9865.64
825.862	9815.93
826.189	9860.22
826.516	9968.92
826.843	9895.25
827.17	9842.82
827.497	9907
827.824	9848.7
828.151	9823.16
828.478	9828.58
828.805	9879.88
829.131	9851.18
829.458	9914.46
829.785	9852.76
830.111	9813.67
830.438	9913.33
830.764	9834.23
831.09	9831.52
831.417	9854.35
831.743	9878.3
832.069	9782.48
832.395	9855.02
832.722	9797.4
833.048	9783.16
833.374	9841.92
833.7	9783.84
834.026	9807.34
834.351	9843.95
834.677	9794.01
835.003	9788.13
835.329	9807.34
835.654	9819.09
835.98	9728.92
836.306	9732.99
836.631	9733.9
836.956	9749.26
837.282	9750.62
837.607	9580.91
837.932	9663.84
838.258	9677.17
838.583	9681.69
838.908	9634.24
839.233	9607.12
839.558	9552.88
839.883	9583.84
840.208	9535.71
840.533	9573.9
840.858	9493.9
841.182	9563.73
841.507	9514.92
841.832	9442.15
842.156	9467.01
842.481	9463.17
842.805	9367.13
843.13	9383.17
843.454	9410.06
843.778	9356.28
844.103	9356.05
844.427	9278.77
844.751	9286.68
845.075	9295.04
845.399	9292.1
845.723	9186.11
846.047	9191.31
846.371	9163.97
846.695	9121.94
847.019	9042.62
847.343	8957.42
847.666	8994.26
847.99	8937.53
848.313	8974.14
848.637	8924.2
848.96	8897.99
849.284	8840.36
849.607	8828.84
849.931	8743.19
850.254	8686.47
850.577	8711.78
850.9	8641.04
851.223	8553.81
851.546	8556.75
851.869	8535.28
852.192	8549.29
852.515	8526.47
852.838	8505.23
853.161	8486.7
853.483	8469.52
853.806	8399.69
854.129	8402.41
854.451	8357.66
854.774	8343.88
855.096	8248.51
855.419	8278.12
855.741	8320.6
856.063	8231.34
856.385	8206.25
856.708	8139.81
857.03	8185.69
857.352	8141.85
857.674	8095.07
857.996	8063.88
858.318	8025.69
858.64	8020.04
858.961	8020.5
859.283	7964.9
859.605	7992.02
859.926	7953.38
860.248	7941.18
860.57	7893.94
860.891	7942.53
861.212	7845.81
861.534	7842.65
861.855	7786.15
862.176	7844
862.498	7812.14
862.819	7867.05
863.14	7764.23
863.461	7765.13
863.782	7731.69
864.103	7700.05
864.424	7728.75
864.745	7647.17
865.065	7684.46
865.386	7693.27
865.707	7592.03
866.027	7620.51
866.348	7622.54
866.668	7668.87
866.989	7562.43
867.309	7540.73
867.63	7542.77
867.95	7577.12
868.27	7483.56
868.59	7549.32
868.91	7506.61
869.23	7466.39
869.55	7454.41
869.87	7463.67
870.19	7522.66
870.51	7507.51
870.83	7492.37
871.15	7358.82
871.469	7432.26
871.789	7414.86
872.109	7376.22
872.428	7425.48
872.748	7434.3
873.067	7422.77
873.386	7370.34
873.706	7372.38
874.025	7345.94
874.344	7359.27
874.663	7393.62
874.982	7300.74
875.301	7340.97
875.62	7276.33
875.939	7300.51
876.258	7288.31
876.577	7245.83
876.896	7235.88
877.214	7206.73
877.533	7171.03
877.852	7228.88
878.17	7199.5
878.489	7212.15
878.807	7193.62
879.125	7189.56
879.444	7117.47
879.762	7082.67
880.08	7120.18
880.398	7087.19
880.716	7132.38
881.034	7083.12
881.352	7082.89
881.67	7045.15
881.988	7056.45
882.306	7049.9
882.624	6966.74
882.941	6993.4
883.259	6940.52
883.577	6953.63
883.894	6871.6
884.212	6928.32
884.529	6885.84
884.846	6888.1
885.164	6922.22
885.481	6831.83
885.798	6830.92
886.115	6802
886.432	6792.73
886.75	6818.04
887.067	6762.45
887.383	6744.14
887.7	6779.4
888.017	6739.63
888.334	6763.35
888.651	6737.37
888.967	6681.77
889.284	6623.92
889.6	6659.85
889.917	6615.11
890.233	6634.77
890.55	6590.48
890.866	6617.82
891.182	6569.69
891.498	6576.01
891.815	6442.01
892.131	6501.67
892.447	6495.34
892.763	6479.97
893.079	6458.95
893.395	6415.34
893.71	6455.56
894.026	6402.23
894.342	6399.97
894.657	6325.4
894.973	6342.57
895.289	6303.7
895.604	6355.45
895.92	6270.94
896.235	6214.22
896.55	6240.43
896.865	6200.66
897.181	6237.04
897.496	6244.5
897.811	6150.26
898.126	6187.32
898.441	6089.25
898.756	6135.35
899.071	6098.96
899.386	6049.25
899.7	5995.69
900.015	5983.26
900.33	5969.02
900.644	5964.5
900.959	5952.53
901.273	5931.96
901.588	5932.41
901.902	5907.1
902.216	5853.32
902.531	5855.35
902.845	5815.13
903.159	5712.76
903.473	5748.24
903.787	5752.76
904.101	5701.69
904.415	5697.84
904.729	5637.51
905.042	5639.99
905.356	5672.31
905.67	5632.76
905.984	5612.65
906.297	5591.41
906.611	5605.19
906.924	5560.9
907.237	5525.42
907.551	5532.88
907.864	5480
908.177	5478.19
908.491	5509.83
908.804	5401.13
909.117	5430.28
909.43	5402.49
909.743	5375.82
910.056	5364.75
910.368	5311.87
910.681	5288.82
910.994	5269.16
911.307	5247.01
911.619	5240
911.932	5179.67
912.244	5172.89
912.557	5192.77
912.869	5140.8
913.181	5122.94
913.494	5108.48
913.806	5078.43
914.118	5032.1
914.43	5004.08
914.742	5051.53
915.054	4989.84
915.366	4980.58
915.678	4984.87
915.99	4972.89
916.302	4916.17
916.613	4859.45
916.925	4906.9
917.236	4866.45
917.548	4833.01
917.859	4858.32
918.171	4851.09
918.482	4807.92
918.794	4790.75
919.105	4826.46
919.416	4749.85
919.727	4729.73
920.038	4765.67
920.349	4725.89
920.66	4690.41
920.971	4620.36
921.282	4653.8
921.593	4618.32
921.903	4593.92
922.214	4563.41
922.525	4643.63
922.835	4554.15
923.146	4516.63
923.456	4482.28
923.767	4476.63
924.077	4451.32
924.387	4482.74
924.697	4417.65
925.008	4435.5
925.318	4436.63
925.628	4399.57
925.938	4366.13
926.248	4339.91
926.558	4325.68
926.867	4349.41
927.177	4276.41
927.487	4256.53
927.796	4245.45
928.106	4240.03
928.416	4240.48
928.725	4237.77
929.034	4201.39
929.344	4214.04
929.653	4205
929.962	4135.63
930.271	4172.46
930.581	4076.42
930.89	4130.2
931.199	4082.97
931.508	4091.79
931.817	4069.41
932.125	4058.57
932.434	4031.9
932.743	3972.47
933.051	4021.96
933.36	3974.73
933.669	3904.9
933.977	3939.02
934.286	3948.74
934.594	3899.93
934.902	3866.25
935.21	3880.27
935.519	3847.05
935.827	3846.82
936.135	3833.71
936.443	3748.29
936.751	3816.09
937.059	3769.76
937.367	3802.53
937.674	3785.13
937.982	3795.97
938.29	3723.21
938.597	3725.24
938.905	3683.43
939.213	3690.44
939.52	3658.8
939.827	3651.34
940.135	3671.91
940.442	3630.33
940.749	3621.74
941.056	3550.78
941.363	3553.27
941.67	3571.8
941.977	3538.13
942.284	3551.01
942.591	3506.72
942.898	3507.62
943.205	3515.53
943.511	3494.51
943.818	3453.16
944.125	3426.72
944.431	3428.3
944.738	3424.46
945.044	3476.66
945.35	3415.64
945.657	3410.9
945.963	3351.47
946.269	3341.75
946.575	3352.14
946.881	3343.1
947.187	3325.48
947.493	3301.3
947.799	3259.94
948.105	3290.9
948.41	3241.64
948.716	3259.49
949.022	3250
949.327	3211.58
949.633	3198.25
949.938	3180.17
950.244	3178.59
950.549	3207.29
950.854	3154.86
951.16	3150.79
951.465	3140.4
951.77	3124.58
952.075	3099.95
952.38	3064.69
952.685	3088.65
952.99	3021.53
953.294	3046.61
953.599	3045.48
953.904	2991.93
954.209	2997.58
954.513	2977.01
954.818	2996.67
955.122	2970.68
955.426	2979.27
955.731	2952.38
956.035	2975.88
956.339	2926.62
956.643	2896.79
956.948	2849.11
957.252	2868.09
957.556	2869.44
957.86	2864.25
958.163	2840.97
958.467	2856.79
958.771	2839.84
959.075	2814.53
959.378	2810.91
959.682	2798.71
959.985	2785.38
960.289	2762.1
960.592	2744.48
960.896	2764.36
961.199	2701.99
961.502	2724.14
961.805	2700.64
962.108	2705.83
962.411	2688.21
962.714	2692.95
963.017	2682.1
963.32	2655.21
963.623	2659.51
963.926	2627.87
964.228	2592.16
964.531	2592.16
964.833	2588.77
965.136	2603.69
965.438	2607.76
965.741	2550.13
966.043	2542.9
966.345	2558.94
966.648	2553.75
966.95	2563.92
967.252	2513.3
967.554	2527.08
967.856	2483.47
968.158	2511.04
968.46	2505.16
968.761	2486.86
969.063	2463.81
969.365	2423.81
969.666	2430.81
969.968	2411.6
970.269	2381.32
970.571	2407.99
970.872	2424.03
971.174	2384.94
971.475	2391.94
971.776	2358.5
972.077	2385.62
972.378	2335
972.679	2361.66
972.98	2349.23
973.281	2314.88
973.582	2315.11
973.883	2300.87
974.183	2258.39
974.484	2265.62
974.785	2308.56
975.085	2279.86
975.386	2247.77
975.686	2239.63
975.986	2243.92
976.287	2246.64
976.587	2198.05
976.887	2228.11
977.187	2212.06
977.487	2206.18
977.787	2171.61
978.087	2134.77
978.387	2125.96
978.687	2137.03
978.987	2136.36
979.286	2094.78
979.586	2081.89
979.885	2121.22
980.185	2084.38
980.484	2092.52
980.784	2082.57
981.083	2080.54
981.382	2051.84
981.682	2049.8
981.981	2046.64
982.28	2042.12
982.579	2021.33
982.878	2028.56
983.177	2025.62
983.475	2012.07
983.774	1984.27
984.073	1979.98
984.372	1981.78
984.67	1945.63
984.969	1976.13
985.267	1933.2
985.566	1968.45
985.864	1976.36
986.162	1936.14
986.461	1932.75
986.759	1903.59
987.057	1915.57
987.355	1905.18
987.653	1876.25
987.951	1901.79
988.249	1902.92
988.547	1851.62
988.844	1861.34
989.142	1853.43
989.44	1836.7
989.737	1858.62
990.035	1811.17
990.332	1820.88
990.63	1807.33
990.927	1828.12
991.224	1805.29
991.521	1781.79
991.819	1793.54
992.116	1784.05
992.413	1746.99
992.71	1778.17
993.006	1746.31
993.303	1739.08
993.6	1734.33
993.897	1728.68
994.193	1711.73
994.49	1733.43
994.787	1737.27
995.083	1691.85
995.379	1682.36
995.676	1689.59
995.972	1676.71
996.268	1691.62
996.565	1658.85
996.861	1673.54
997.157	1684.62
997.453	1650.27
997.749	1651.62
998.044	1645.3
998.34	1584.73
998.636	1621.12
998.932	1592.19
999.227	1579.99
999.523	1586.99
999.818	1573.89
1000.114	1553.32
1000.409	1549.71
1000.704	1573.43
1001	1530.27
1001.295	1547.9
1001.59	1526.2
1001.885	1533.43
1002.18	1536.37
1002.475	1505.64
1002.77	1497.95
1003.065	1487.33
1003.359	1472.87
1003.654	1479.88
1003.949	1461.12
1004.243	1462.25
1004.538	1436.26
1004.832	1440.78
1005.127	1444.62
1005.421	1431.52
1005.715	1415.7
1006.009	1422.02
1006.304	1403.49
1006.598	1396.49
1006.892	1418.41
1007.186	1405.98
1007.48	1372.53
1007.773	1377.05
1008.067	1382.7
1008.361	1377.96
1008.655	1349.26
1008.948	1331.63
1009.242	1347.9
1009.535	1341.12
1009.829	1329.82
1010.122	1293.44
1010.415	1314.68
1010.708	1297.73
1011.001	1291.86
1011.295	1290.73
1011.588	1271.29
1011.881	1247.57
1012.173	1254.35
1012.466	1283.05
1012.759	1255.02
1013.052	1252.54
1013.344	1238.75
1013.637	1243.95
1013.93	1236.49
1014.222	1227.23
1014.514	1218.19
1014.807	1208.47
1015.099	1208.25
1015.391	1204.86
1015.683	1201.01
1015.976	1206.66
1016.268	1154.69
1016.56	1179.32
1016.851	1134.12
1017.143	1150.17
1017.435	1138.64
1017.727	1142.03
1018.018	1134.12
1018.31	1115.82
1018.602	1150.39
1018.893	1113.11
1019.185	1113.33
1019.476	1089.6
1019.767	1125.76
1020.058	1119.21
1020.35	1088.02
1020.641	1074.01
1020.932	1067.46
1021.223	1071.07
1021.514	1054.35
1021.804	1065.42
1022.095	1049.15
1022.386	1055.93
1022.677	1031.75
1022.967	1033.11
1023.258	1035.59
1023.548	1026.33
1023.839	986.56
1024.129	1013
1024.419	990.4
1024.709	990.4
1025	974.58
1025.29	995.82
1025.58	956.05
1025.87	967.8
1026.16	961.7
1026.449	953.11
1026.739	948.36
1027.029	932.09
1027.319	956.5
1027.608	956.95
1027.898	923.96
1028.187	938.87
1028.477	921.7
1028.766	947.01
1029.055	901.36
1029.344	904.52
1029.634	897.52
1029.923	870.4
1030.212	882.15
1030.501	883.51
1030.79	895.03
1031.078	872.89
1031.367	877.18
1031.656	856.39
1031.945	878.08
1032.233	868.59
1032.522	843.51
1032.81	841.7
1033.099	820.68
1033.387	857.52
1033.675	840.35
1033.963	858.2
1034.251	852.77
1034.54	830.18
1034.828	816.62
1035.116	805.77
1035.403	816.62
1035.691	790.85
1035.979	813.68
1036.267	796.5
1036.554	781.14
1036.842	781.82
1037.129	797.41
1037.417	777.52
1037.704	798.09
1037.992	766.22
1038.279	761.25
1038.566	761.03
1038.853	761.03
1039.14	761.03
