Data from hue_170_FLMS001491_00062.txt Node
Date: Tue Feb 07 16:49:01 GMT 2017
User: dcchb
Spectrometer: FLMS00149
Trigger mode: 0
Integration Time (sec): 2.000000E-2
Scans to average: 10
Electric dark correction enabled: true
Nonlinearity correction enabled: false
Boxcar width: 0
XAxis mode: Wavelengths
Number of Pixels in Spectrum: 2048
>>>>>Begin Spectral Data<<<<<
341.393	-30.66
341.776	-30.66
342.16	-30.66
342.543	-51.68
342.927	-59.36
343.31	-81.28
343.693	-63.43
344.077	-71.11
344.46	-65.92
344.843	-67.72
345.226	-32.92
345.61	-36.99
345.993	-17.78
346.376	12.5
346.759	-2.87
347.142	37.81
347.525	53.18
347.908	59.73
348.291	62.44
348.674	99.28
349.057	115.1
349.44	112.61
349.823	149.45
350.206	158.94
350.588	188.99
350.971	189.67
351.354	215.66
351.737	222.44
352.119	249.1
352.502	253.17
352.884	279.84
353.267	263.34
353.65	296.33
354.032	320.97
354.414	312.15
354.797	316.22
355.179	304.92
355.562	315.54
355.944	314.64
356.326	333.4
356.709	319.38
357.091	338.59
357.473	324.36
357.855	336.33
358.238	319.61
358.62	322.77
359.002	316.45
359.384	342.21
359.766	324.81
360.148	332.27
360.53	336.56
360.912	331.36
361.294	335.88
361.676	332.49
362.057	322.1
362.439	328.2
362.821	320.06
363.203	344.02
363.584	325.71
363.966	324.81
364.348	352.38
364.729	339.95
365.111	337.46
365.493	329.55
365.874	347.63
366.256	317.58
366.637	320.06
367.019	318.03
367.4	307.86
367.781	304.24
368.163	330.68
368.544	320.06
368.925	319.38
369.306	310.8
369.688	294.75
370.069	313.73
370.45	304.47
370.831	300.18
371.212	323.9
371.593	303.11
371.974	296.79
372.355	304.02
372.736	337.46
373.117	310.8
373.498	303.34
373.879	308.09
374.26	311.02
374.641	298.37
375.021	306.05
375.402	300.4
375.783	316.22
376.163	316.45
376.544	315.99
376.925	333.17
377.305	322.1
377.686	320.06
378.066	325.49
378.447	328.42
378.827	313.28
379.208	327.75
379.588	327.07
379.968	343.11
380.349	329.78
380.729	340.85
381.109	342.66
381.489	333.62
381.87	328.42
382.25	330.46
382.63	342.43
383.01	370.68
383.39	336.11
383.77	328.42
384.15	315.32
384.53	365.26
384.91	327.97
385.29	349.67
385.67	361.87
386.049	357.12
386.429	339.04
386.809	335.88
387.189	347.63
387.568	371.59
387.948	353.51
388.328	345.82
388.707	370.46
389.087	365.94
389.466	361.64
389.846	366.84
390.225	363.22
390.605	368.42
390.984	379.04
391.363	381.76
391.743	364.13
392.122	369.33
392.501	375.88
392.881	371.36
393.26	369.33
393.639	387.86
394.018	377.24
394.397	373.62
394.776	388.99
395.155	378.59
395.534	406.39
395.913	379.72
396.292	379.72
396.671	385.15
397.05	392.6
397.429	397.12
397.808	401.42
398.186	391.92
398.565	405.03
398.944	377.91
399.323	401.42
399.701	404.58
400.08	401.19
400.458	402.09
400.837	396.9
401.215	416.78
401.594	407.29
401.972	417.46
402.351	413.17
402.729	415.65
403.107	426.5
403.486	427.63
403.864	435.09
404.242	429.66
404.62	426.95
404.999	443.45
405.377	450.45
405.755	463.56
406.133	443.9
406.511	433.28
406.889	460.4
407.267	462.43
407.645	459.27
408.023	461.53
408.401	438.25
408.779	477.57
409.156	487.74
409.534	482.54
409.912	485.71
410.29	487.06
410.667	492.71
411.045	473.5
411.422	524.8
411.8	501.75
412.178	511.7
412.555	520.73
412.933	516.44
413.31	530.45
413.687	549.21
414.065	557.8
414.442	541.53
414.819	560.06
415.197	571.81
415.574	558.7
415.951	569.32
416.328	578.36
416.705	585.59
417.082	570.68
417.46	575.87
417.837	608.42
418.214	591.69
418.591	584.24
418.967	606.83
419.344	617
419.721	620.85
420.098	640.96
420.475	628.08
420.852	632.82
421.228	633.05
421.605	637.57
421.982	674.86
422.358	682.76
422.735	674.18
423.111	686.61
423.488	694.29
423.864	680.73
424.241	700.84
424.617	717.57
424.994	713.05
425.37	716.44
425.746	736.1
426.123	738.81
426.499	737.45
426.875	738.36
427.251	751.46
427.627	789.65
428.003	786.04
428.379	784.46
428.756	771.8
429.132	815.64
429.507	817.9
429.883	833.5
430.259	846.6
430.635	837.11
431.011	831.69
431.387	852.93
431.763	850.9
432.138	856.32
432.514	849.54
432.89	890.67
433.265	909.2
433.641	917.33
434.016	935.19
434.392	936.09
434.767	948.97
435.143	937
435.518	969.99
435.894	987.39
436.269	1022.64
436.644	998.46
437.02	1008.18
437.395	1072.36
437.77	1042.3
438.145	1050.66
438.52	1089.53
438.895	1062.42
439.271	1072.58
439.646	1100.61
440.021	1099.02
440.395	1110.78
440.77	1128.85
441.145	1133.6
441.52	1165.69
441.895	1170.66
442.27	1185.35
442.645	1169.53
443.019	1182.86
443.394	1211.34
443.769	1206.37
444.143	1224.9
444.518	1245.91
444.892	1238.46
445.267	1215.41
445.641	1265.57
446.016	1262.41
446.39	1295.4
446.764	1291.34
447.139	1306.02
447.513	1300.15
447.887	1305.57
448.262	1294.5
448.636	1319.13
449.01	1338.57
449.384	1348.06
449.758	1385.12
450.132	1365.23
450.506	1396.87
450.88	1441.16
451.254	1430.54
451.628	1444.33
452.002	1424.44
452.376	1421.05
452.75	1470.09
453.123	1492.46
453.497	1490.2
453.871	1537.43
454.244	1540.37
454.618	1553.93
454.992	1586.47
455.365	1571.78
455.739	1626.92
456.112	1639.12
456.486	1620.14
456.859	1663.3
457.232	1693.59
457.606	1726.35
457.979	1739.23
458.352	1741.04
458.725	1769.97
459.099	1792.57
459.472	1849.29
459.845	1860.36
460.218	1858.55
460.591	1886.57
460.964	1906.01
461.337	1935.61
461.71	1974.26
462.083	2029.85
462.456	2006.35
462.829	2019.45
463.201	2062.62
463.574	2094.7
463.947	2124.99
464.32	2158.43
464.692	2167.7
465.065	2175.15
465.438	2243.4
465.81	2287.47
466.183	2303.74
466.555	2343.51
466.928	2368.14
467.3	2410.4
467.672	2426.9
468.045	2499.44
468.417	2537.41
468.789	2534.92
469.161	2585.77
469.534	2608.14
469.906	2697.85
470.278	2741.24
470.65	2797.96
471.022	2795.48
471.394	2882.03
471.766	2918.19
472.138	2983.72
472.51	3016.94
472.882	3120.67
473.253	3117.28
473.625	3247.89
473.997	3336.03
474.369	3344.39
474.74	3379.64
475.112	3448.34
475.484	3545.74
475.855	3603.37
476.227	3664.83
476.598	3779.41
476.97	3888.33
477.341	3946.18
477.713	4006.97
478.084	4076.57
478.455	4198.83
478.827	4249
479.198	4429.78
479.569	4413.74
479.94	4617.35
480.311	4641.98
480.682	4765.37
481.053	4933.73
481.424	5080.39
481.795	5093.72
482.166	5237.22
482.537	5321.74
482.908	5436.54
483.279	5591.11
483.65	5681.96
484.021	5830.43
484.391	5944.32
484.762	6055.05
485.133	6100.48
485.503	6203.52
485.874	6474.7
486.244	6505.89
486.615	6642.61
486.985	6807.8
487.356	6939.32
487.726	7088.02
488.097	7243.72
488.467	7306.77
488.837	7507.22
489.207	7622.02
489.578	7745.4
489.948	7920.99
490.318	8041.67
490.688	8133.19
491.058	8323.24
491.428	8428.32
491.798	8584.7
492.168	8783.34
492.538	8834.87
492.908	8997.57
493.278	9096.1
493.648	9217.68
494.017	9370.9
494.387	9426.26
494.757	9526.83
495.126	9687.5
495.496	9765.69
495.866	9815.18
496.235	10029.41
496.605	10098.79
496.974	10245
497.344	10300.36
497.713	10365.22
498.082	10483.18
498.452	10577.19
498.821	10629.85
499.19	10722.95
499.559	10870.52
499.928	10922.72
500.298	10963.85
500.667	11150.29
501.036	11049.05
501.405	11207.46
501.774	11270.28
502.143	11381.01
502.512	11469.83
502.88	11510.28
503.249	11546.66
503.618	11677.05
503.987	11736.26
504.356	11717.95
504.724	11843.83
505.093	11838.4
505.462	11991.85
505.83	12020.77
506.199	12032.75
506.567	12293.31
506.936	12202.01
507.304	12339.41
507.672	12349.12
508.041	12355.45
508.409	12440.42
508.777	12599.51
509.145	12688.78
509.514	12630.7
509.882	12723.13
510.25	12751.6
510.618	12733.52
510.986	12821.43
511.354	12889
511.722	12963.57
512.09	13089.44
512.458	13050.12
512.826	13123.34
513.193	13225.94
513.561	13214.19
513.929	13293.05
514.297	13313.62
514.664	13367.85
515.032	13441.07
515.4	13391.58
515.767	13527.62
516.135	13478.36
516.502	13371.24
516.869	13644.91
517.237	13634.29
517.604	13552.71
517.972	13683.1
518.339	13704.57
518.706	13601.75
519.073	13782.53
519.44	13727.17
519.808	13875.86
520.175	13841.06
520.542	13955.18
520.909	13983.66
521.276	13897.11
521.643	14009.19
522.009	14058.68
522.376	14020.04
522.743	14135.74
523.11	14192.92
523.477	14235.85
523.843	14231.79
524.21	14356.98
524.577	14388.39
524.943	14458.22
525.31	14360.37
525.676	14514.27
526.043	14453.7
526.409	14585.68
526.776	14621.38
527.142	14606.69
527.508	14604.43
527.874	14575.73
528.241	14622.74
528.607	14654.37
528.973	14735.73
529.339	14597.65
529.705	14568.05
530.071	14681.72
530.437	14754.94
530.803	14707.03
531.169	14750.87
531.535	14700.48
531.901	14686.01
532.267	14679.01
532.632	14653.47
532.998	14600.36
533.364	14693.7
533.73	14693.24
534.095	14740.47
534.461	14664.32
534.826	14636.52
535.192	14619.57
535.557	14774.15
535.923	14540.25
536.288	14562.63
536.653	14514.27
537.019	14490.09
537.384	14493.93
537.749	14511.78
538.114	14488.05
538.479	14391.1
538.845	14398.11
539.21	14380.71
539.575	14350.65
539.94	14268.4
540.305	14395.62
540.67	14218
541.034	14267.94
541.399	14302.75
541.764	14132.13
542.129	14113.15
542.494	14143.88
542.858	14123.32
543.223	14006.71
543.587	14055.29
543.952	14004.67
544.316	13905.69
544.681	13906.15
545.045	13853.72
545.41	13914.28
545.774	13818.24
546.138	13790.22
546.503	13734.17
546.867	13672.71
547.231	13784.79
547.595	13688.07
547.959	13663.89
548.324	13587.06
548.688	13530.34
549.052	13492.6
549.416	13507.29
549.779	13473.61
550.143	13464.8
550.507	13469.77
550.871	13395.65
551.235	13314.3
551.599	13362.43
551.962	13263.68
552.326	13231.14
552.689	13244.92
553.053	13187.52
553.417	13085.83
553.78	13192.27
554.143	13216.67
554.507	13123.57
554.87	13133.28
555.234	13202.44
555.597	13134.19
555.96	13069.78
556.323	13145.71
556.686	13015.77
557.05	13120.18
557.413	13144.36
557.776	13005.15
558.139	13013.74
558.502	13006.73
558.865	12965.83
559.228	13052.83
559.59	12965.38
559.953	13063.68
560.316	13099.39
560.679	12971.48
561.041	13032.27
561.404	13063.91
561.767	13042.21
562.129	13008.77
562.492	13060.29
562.854	13018.71
563.217	12983.46
563.579	13012.38
563.941	13035.43
564.304	13053.06
564.666	13073.17
565.028	13016
565.39	13095.77
565.753	13126.28
566.115	13066.17
566.477	13114.53
566.839	13063.23
567.201	13107.75
567.563	13139.39
567.925	13078.37
568.287	13177.13
568.648	13079.73
569.01	13141.65
569.372	13264.58
569.734	13193.17
570.095	13234.07
570.457	13225.94
570.819	13282.43
571.18	13119.27
571.542	13274.3
571.903	13183.45
572.265	13306.84
572.626	13230.23
572.987	13259.38
573.349	13399.72
573.71	13356.33
574.071	13322.21
574.432	13334.64
574.794	13378.02
575.155	13306.39
575.516	13264.81
575.877	13337.35
576.238	13345.93
576.599	13374.18
576.96	13300.51
577.32	13362.21
577.681	13364.24
578.042	13313.84
578.403	13346.84
578.763	13291.25
579.124	13366.5
579.485	13453.28
579.845	13408.53
580.206	13385.93
580.566	13312.49
580.927	13427.97
581.287	13406.95
581.648	13363.79
582.008	13414.86
582.368	13263.9
582.728	13344.8
583.089	13338.48
583.449	13313.84
583.809	13321.75
584.169	13327.4
584.529	13328.53
584.889	13329.66
585.249	13289.21
585.609	13204.7
585.969	13289.89
586.329	13270.68
586.688	13191.36
587.048	13300.74
587.408	13286.73
587.768	13267.29
588.127	13197.92
588.487	13161.08
588.846	13224.13
589.206	13157.46
589.565	13113.17
589.925	13206.5
590.284	13168.31
590.643	13166.28
591.003	13164.47
591.362	13204.02
591.721	13102.55
592.08	13164.7
592.44	13168.76
592.799	13078.37
593.158	13130.35
593.517	13085.38
593.876	13003.57
594.235	13025.26
594.593	13037.69
594.952	13024.81
595.311	12995.21
595.67	13061.42
596.029	13070.24
596.387	13048.77
596.746	13045.83
597.104	13060.29
597.463	13008.09
597.822	13020.75
598.18	12985.49
598.538	12937.81
598.897	13028.88
599.255	12940.75
599.613	13059.16
599.972	13008.77
600.33	13075.43
600.688	12969.9
601.046	12972.84
601.404	13002.89
601.762	13067.52
602.12	13048.54
602.478	13060.29
602.836	12991.37
603.194	12978.49
603.552	12994.31
603.91	12942.33
604.268	13025.49
604.625	12866.85
604.983	13028.43
605.341	12894.19
605.698	13029.56
606.056	13014.64
606.413	12985.27
606.771	12936.23
607.128	13068.65
607.485	12945.49
607.843	12971.25
608.2	13050.12
608.557	13098.71
608.914	13057.13
609.272	13086.05
609.629	13054.19
609.986	13088.77
610.343	12987.75
610.7	13093.29
611.057	13097.58
611.414	13145.04
611.771	13051.25
612.127	13173.06
612.484	13201.08
612.841	13175.09
613.198	13066.62
613.554	13208.76
613.911	13191.36
614.267	13265.48
614.624	13183.68
614.98	13109.56
615.337	13236.78
615.693	13278.59
616.05	13247.18
616.406	13250.8
616.762	13261.19
617.118	13239.72
617.475	13213.06
617.831	13328.08
618.187	13209.44
618.543	13316.56
618.899	13385.71
619.255	13314.97
619.611	13315.88
619.967	13362.43
620.323	13386.39
620.678	13352.94
621.034	13284.02
621.39	13362.88
621.746	13258.93
622.101	13442.43
622.457	13345.48
622.812	13306.84
623.168	13386.61
623.523	13292.83
623.879	13401.98
624.234	13322.66
624.589	13345.93
624.945	13349.55
625.3	13346.84
625.655	13396.78
626.01	13282.89
626.365	13246.73
626.72	13331.02
627.075	13395.65
627.43	13206.28
627.785	13249.67
628.14	13208.31
628.495	13315.43
628.85	13254.19
629.205	13257.12
629.559	13265.71
629.914	13316.1
630.269	13274.07
630.623	13230.01
630.978	13176
631.332	13298.03
631.687	13192.72
632.041	13192.27
632.396	13232.04
632.75	13136
633.104	13107.75
633.459	13154.3
633.813	13136.22
634.167	13092.38
634.521	13022.33
634.875	13063.46
635.229	13115.43
635.583	13033.4
635.937	13051.7
636.291	13016
636.645	12985.94
636.999	12844.48
637.352	12959.73
637.706	12872.5
638.06	12936.45
638.413	12867.53
638.767	12882.9
639.121	12933.52
639.474	12856
639.828	12806.97
640.181	12801.54
640.534	12820.3
640.888	12781.66
641.241	12767.19
641.594	12827.53
641.947	12777.59
642.301	12738.72
642.654	12805.16
643.007	12745.05
643.36	12833.41
643.713	12786.63
644.066	12764.03
644.419	12624.82
644.771	12598.84
645.124	12526.52
645.477	12504.15
645.83	12423.92
646.182	12294.89
646.535	12346.86
646.888	12268
647.24	12125.63
647.593	12296.7
647.945	12343.7
648.298	12256.47
648.65	12242.91
649.002	12175.12
649.355	12240.2
649.707	12239.3
650.059	12361.78
650.411	12489.01
650.763	12464.38
651.115	12559.51
651.467	12538.5
651.819	12549.8
652.171	12617.37
652.523	12425.28
652.875	12567.2
653.227	12477.48
653.578	12591.38
653.93	12617.82
654.282	12594.54
654.633	12505.05
654.985	12544.6
655.337	12584.15
655.688	12517.03
656.039	12602
656.391	12440.87
656.742	12502.34
657.094	12446.3
657.445	12617.59
657.796	12522.68
658.147	12509.8
658.498	12480.19
658.849	12595.67
659.2	12517.03
659.551	12504.6
659.902	12528.55
660.253	12532.4
660.604	12515.67
660.955	12575.33
661.306	12509.8
661.656	12542.57
662.007	12532.17
662.358	12616.24
662.708	12513.64
663.059	12592.28
663.409	12485.84
663.76	12567.42
664.11	12564.26
664.461	12623.69
664.811	12644.03
665.161	12571.94
665.511	12581.89
665.862	12602
666.212	12744.14
666.562	12648.1
666.912	12647.42
667.262	12579.17
667.612	12644.48
667.962	12659.62
668.312	12639.06
668.662	12689.68
669.011	12635.22
669.361	12662.56
669.711	12583.92
670.06	12606.07
670.41	12573.75
670.76	12599.06
671.109	12588.89
671.459	12552.51
671.808	12573.75
672.157	12565.62
672.507	12477.71
672.856	12447.65
673.205	12562.23
673.554	12562
673.904	12464.38
674.253	12515.67
674.602	12505.28
674.951	12308
675.3	12270.48
675.649	12428.67
675.998	12352.51
676.346	12346.86
676.695	12446.75
677.044	12309.8
677.393	12360.42
677.741	12368.33
678.09	12381.89
678.438	12275.23
678.787	12313.42
679.135	12382.12
679.484	12212.18
679.832	12340.76
680.181	12239.97
680.529	12327.88
680.877	12185.74
681.225	12164.04
681.573	12248.79
681.922	12157.04
682.27	12076.82
682.618	12147.1
682.966	12104.84
683.314	12028
683.661	12042.92
684.009	11971.28
684.357	11924.73
684.705	11947.55
685.053	11870.49
685.4	11964.73
685.748	11787.56
686.095	11857.16
686.443	11750.95
686.79	11784.85
687.138	11752.3
687.485	11791.62
687.832	11758.63
688.18	11717.73
688.527	11651.74
688.874	11618.3
689.221	11592.08
689.568	11561.12
689.915	11518.41
690.262	11529.26
690.609	11509.6
690.956	11440.67
691.303	11439.09
691.65	11348.25
691.997	11335.14
692.344	11315.93
692.69	11280.68
693.037	11224.86
693.383	11098.54
693.73	11161.59
694.077	11055.15
694.423	11084.52
694.769	11018.99
695.116	10989.61
695.462	10970.63
695.808	10912.1
696.155	10947.35
696.501	10850.18
696.847	10803.85
697.193	10768.38
697.539	10736.06
697.885	10766.34
698.231	10605.89
698.577	10695.38
698.923	10639.56
699.269	10555.27
699.614	10513.92
699.96	10485.44
700.306	10437.54
700.651	10376.75
700.997	10442.28
701.342	10344.43
701.688	10255.85
702.033	10275.96
702.379	10271.66
702.724	10176.98
703.069	10275.05
703.415	10126.13
703.76	10092.69
704.105	10101.27
704.45	10111.22
704.795	9994.84
705.14	9959.81
705.485	9974.95
705.83	9913.26
706.175	9926.14
706.52	9866.7
706.865	9833.03
707.209	9759.59
707.554	9776.99
707.899	9705.35
708.243	9695.41
708.588	9598.69
708.932	9612.47
709.277	9609.54
709.621	9565.47
709.966	9493.61
710.31	9514.17
710.654	9450.67
710.998	9518.92
711.342	9499.71
711.687	9400.28
712.031	9439.37
712.375	9343.33
712.719	9378.81
713.063	9368.64
713.407	9332.48
713.75	9267.4
714.094	9290
714.438	9295.87
714.782	9227.62
715.125	9246.61
715.469	9190.11
715.812	9218.81
716.156	9210.9
716.499	9137.68
716.843	9182.65
717.186	9072.6
717.53	9151.92
717.873	9155.99
718.216	9104.92
718.559	8987.4
718.902	9028.99
719.246	9048.65
719.589	8978.82
719.932	9000.51
720.275	9037.35
720.617	8988.53
720.96	8907.41
721.303	8970
721.646	8991.47
721.989	8848.65
722.331	8937.24
722.674	8917.35
723.016	8906.05
723.359	8897.69
723.701	8885.71
724.044	8899.72
724.386	8788.09
724.729	8878.03
725.071	8861.98
725.413	8839.16
725.755	8845.26
726.097	8802.55
726.439	8777.24
726.782	8765.72
727.124	8828.31
727.465	8794.42
727.807	8787.18
728.149	8786.96
728.491	8706.73
728.833	8773.63
729.175	8771.59
729.516	8777.69
729.858	8737.24
730.199	8711.25
730.541	8743.34
730.882	8756.68
731.224	8741.08
731.565	8683.23
731.906	8762.1
732.248	8784.02
732.589	8681.2
732.93	8701.76
733.271	8671.26
733.612	8718.71
733.953	8741.99
734.294	8747.41
734.635	8707.19
734.976	8733.85
735.317	8707.41
735.658	8728.65
735.999	8726.17
736.339	8650.24
736.68	8776.79
737.021	8751.03
737.361	8801.42
737.702	8724.59
738.042	8851.82
738.383	8801.2
738.723	8722.55
739.063	8721.65
739.404	8809.78
739.744	8824.25
740.084	8839.39
740.424	8782.89
740.764	8793.74
741.104	8848.65
741.444	8879.39
741.784	8867.86
742.124	8855.21
742.464	8841.87
742.804	8866.5
743.143	8879.16
743.483	8951.7
743.823	8932.94
744.162	8960.96
744.502	9031.25
744.841	9045.48
745.181	9070.79
745.52	9062.43
745.86	9069.89
746.199	9167.51
746.538	9278.02
746.877	9293.39
747.216	9297
747.556	9341.52
747.895	9422.87
748.234	9499.26
748.573	9498.35
748.911	9559.37
749.25	9612.47
749.589	9660.61
749.928	9748.06
750.267	9838.46
750.605	9867.38
750.944	9961.39
751.283	10011.11
751.621	10107.38
751.96	10139.47
752.298	10289.07
752.636	10348.27
752.975	10492.45
753.313	10546.69
753.651	10632.56
753.989	10746.45
754.327	10877.3
754.666	10890.86
755.004	11028.26
755.342	11289.49
755.679	11345.99
756.017	11432.09
756.355	11617.39
756.693	11674.57
757.031	11969.47
757.368	11990.49
757.706	12179.64
758.044	12324.94
758.381	12424.6
758.719	12560.19
759.056	12820.52
759.394	12866.62
759.731	13019.39
760.068	13136.9
760.405	13377.8
760.743	13498.02
761.08	13751.12
761.417	13798.58
761.754	13966.48
762.091	14151.79
762.428	14340.26
762.765	14467.49
763.102	14761.26
763.438	14703.64
763.775	14916.06
764.112	15168.94
764.449	15283.28
764.785	15416.39
765.122	15476.5
765.458	15710.62
765.795	15763.05
766.131	15966.66
766.467	16122.36
766.804	16199.87
767.14	16249.13
767.476	16553.76
767.812	16692.97
768.148	16840.31
768.485	16852.51
768.821	16948.33
769.157	17133.86
769.492	17250.01
769.828	17364.36
770.164	17406.39
770.5	17499.5
770.836	17571.13
771.171	17638.7
771.507	17686.84
771.842	17839.38
772.178	17940.84
772.513	18087.96
772.849	18062.65
773.184	18158.69
773.519	18316.2
773.855	18406.82
774.19	18455.86
774.525	18406.37
774.86	18521.84
775.195	18670.31
775.53	18659.92
775.865	18696.98
776.2	18657.21
776.535	18567.49
776.87	18668.73
777.205	18804.32
777.539	18761.61
777.874	18909.86
778.209	18774.04
778.543	18799.58
778.878	18920.48
779.212	18833.7
779.547	18831.44
779.881	19057.87
780.215	18899.46
780.55	19084.77
780.884	18949.18
781.218	19042.96
781.552	19035.73
781.886	19023.07
782.22	18971.1
782.554	18826.02
782.888	18877.31
783.222	18924.54
783.556	18899.91
783.889	18805.68
784.223	18769.97
784.557	18778.11
784.89	18882.96
785.224	18845.45
785.557	18723.19
785.891	18778.79
786.224	18816.53
786.558	18729.52
786.891	18603.65
787.224	18582.63
787.557	18760.93
787.891	18653.37
788.224	18754.15
788.557	18728.39
788.89	18661.5
789.223	18671.9
789.556	18576.76
789.888	18485.91
790.221	18558
790.554	18299.7
790.887	18393.49
791.219	18333.37
791.552	18385.58
791.884	18262.42
792.217	18267.16
792.549	18284.34
792.882	18115.53
793.214	18035.98
793.546	18244.11
793.879	18129.31
794.211	18007.05
794.543	18032.82
794.875	17932.48
795.207	18095.87
795.539	17909.88
795.871	17927.73
796.203	17793.95
796.535	17826.49
796.867	17778.36
797.198	17717.34
797.53	17656.56
797.862	17594.64
798.193	17637.35
798.525	17428.31
798.856	17638.02
799.188	17381.76
799.519	17315.55
799.85	17286.85
800.182	17313.06
800.513	17358.48
800.844	17138.6
801.175	17300.63
801.506	17177.02
801.837	17168.21
802.168	17042.11
802.499	16983.35
802.83	17040.98
803.161	17001.43
803.491	16929.34
803.822	16933.18
804.153	16865.84
804.483	16823.81
804.814	16697.94
805.145	16704.94
805.475	16754.43
805.805	16671.72
806.136	16681.67
806.466	16713.98
806.796	16633.08
807.126	16520.31
807.457	16432.63
807.787	16361.67
808.117	16342.69
808.447	16302.69
808.777	16377.72
809.107	16286.87
809.436	16313.77
809.766	16273.32
810.096	16130.49
810.426	16186.76
810.755	16146.31
811.085	16181.11
811.414	16091.85
811.744	15998.07
812.073	15974.11
812.403	16066.54
812.732	15875.59
813.061	15924.17
813.39	15783.38
813.719	15658.19
814.049	15884.62
814.378	15757.4
814.707	15765.76
815.036	15703.39
815.365	15684.63
815.693	15510.85
816.022	15527.57
816.351	15495.03
816.68	15477.86
817.008	15476.73
817.337	15309.5
817.665	15314.02
817.994	15327.58
818.322	15369.16
818.651	15266.56
818.979	15253.45
819.307	15231.76
819.636	15210.07
819.964	15205.09
820.292	15169.16
820.62	15181.37
820.948	15129.16
821.276	15196.28
821.604	15143.85
821.932	15233.12
822.259	15250.29
822.587	15131.42
822.915	15063.18
823.243	15154.47
823.57	15141.59
823.898	15121.48
824.225	15062.05
824.553	15067.02
824.88	15203.51
825.207	15156.28
825.535	15106.11
825.862	15180.69
826.189	15165.32
826.516	15154.47
826.843	15272.89
827.17	15229.05
827.497	15285.32
827.824	15217.07
828.151	15220.91
828.478	15113.8
828.805	15280.57
829.131	15069.96
829.458	15226.56
829.785	15074.7
830.111	15198.77
830.438	15163.97
830.764	15158.32
831.09	15178.88
831.417	15107.7
831.743	15189.28
832.069	15123.06
832.395	15058.43
832.722	15104.08
833.048	15096.4
833.374	15114.25
833.7	14945.67
834.026	14968.72
834.351	15061.82
834.677	15035.38
835.003	15039
835.329	15040.13
835.654	14932.79
835.98	14932.33
836.306	15006.23
836.631	14867.25
836.956	15019.56
837.282	14853.92
837.607	14932.33
837.932	14878.32
838.258	14836.29
838.583	14797.65
838.908	14731.66
839.233	14809.85
839.558	14758.55
839.883	14755.61
840.208	14674.94
840.533	14654.83
840.858	14657.99
841.182	14737.99
841.507	14618.9
841.832	14516.07
842.156	14523.76
842.481	14525.34
842.805	14490.99
843.13	14429.52
843.454	14368.96
843.778	14333.25
844.103	14327.38
844.427	14215.74
844.751	14224.33
845.075	14293.25
845.399	14215.29
845.723	14089.19
846.047	14075.41
846.371	14041.06
846.695	14009.87
847.019	13890.78
847.343	13825.47
847.666	13774.4
847.99	13739.82
848.313	13729.2
848.637	13646.49
848.96	13624.57
849.284	13515.2
849.607	13422.09
849.931	13450.79
850.254	13369.89
850.577	13331.25
850.9	13173.06
851.223	13206.5
851.546	13091.7
851.869	12947.98
852.192	13160.63
852.515	12929.9
852.838	12924.48
853.161	12956.57
853.483	12927.87
853.806	12779.62
854.129	12788.21
854.451	12706.63
854.774	12671.38
855.096	12649.68
855.419	12641.55
855.741	12566.97
856.063	12517.26
856.385	12545.05
856.708	12427.99
857.03	12432.96
857.352	12406.3
857.674	12425.05
857.996	12263.03
858.318	12236.36
858.64	12308
858.961	12172.41
859.283	12170.82
859.605	12035.46
859.926	12212.63
860.248	12115.68
860.57	12009.92
860.891	12075.01
861.212	12001.34
861.534	12002.69
861.855	11870.27
862.176	11965.63
862.498	11922.47
862.819	11878.18
863.14	11852.87
863.461	11891.96
863.782	11810.16
864.103	11804.73
864.424	11866.88
864.745	11860.78
865.065	11724.06
865.386	11610.61
865.707	11636.83
866.027	11724.28
866.348	11734
866.668	11635.02
866.989	11632.76
867.309	11557.28
867.63	11519.09
867.95	11498.75
868.27	11442.48
868.59	11523.38
868.91	11501.69
869.23	11440.22
869.55	11402.48
869.87	11416.95
870.19	11430.5
870.51	11397.51
870.83	11329.72
871.15	11332.43
871.469	11275.48
871.789	11327.23
872.109	11336.5
872.428	11237.74
872.748	11285.42
873.067	11204.52
873.386	11235.48
873.706	11183.96
874.025	11134.92
874.344	11100.8
874.663	11158.42
874.982	11125.88
875.301	11084.52
875.62	11048.59
875.939	11027.35
876.258	11063.28
876.577	10903.51
876.896	10974.02
877.214	10955.94
877.533	11026.67
877.852	10990.52
878.17	11011.31
878.489	10934.92
878.807	10970.4
879.125	10945.77
879.444	10866.9
879.762	10819.9
880.08	10849.05
880.398	10713.01
880.716	10831.65
881.034	10761.37
881.352	10734.7
881.67	10675.72
881.988	10715.27
882.306	10642.05
882.624	10675.5
882.941	10524.54
883.259	10561.6
883.577	10500.59
883.894	10611.32
884.212	10572.67
884.529	10559.57
884.846	10490.42
885.164	10502.62
885.481	10489.29
885.798	10451.55
886.115	10331.55
886.432	10339.91
886.75	10383.53
887.067	10346.01
887.383	10268.05
887.7	10317.99
888.017	10252.91
888.334	10288.61
888.651	10231.67
888.967	10188.28
889.284	10214.04
889.6	10125.68
889.917	10035.06
890.233	10061.27
890.55	9993.93
890.866	10012.01
891.182	9929.98
891.498	9877.55
891.815	9967.94
892.131	9843.88
892.447	9876.65
892.763	9794.16
893.079	9854.95
893.395	9761.85
893.71	9724.33
894.026	9723.66
894.342	9708.74
894.657	9580.38
894.973	9631
895.289	9619.48
895.604	9635.07
895.92	9493.15
896.235	9404.57
896.55	9441.86
896.865	9441.63
897.181	9478.24
897.496	9443.66
897.811	9318.24
898.126	9328.41
898.441	9327.51
898.756	9215.42
899.071	9165.25
899.386	9217.46
899.7	9112.37
900.015	9035.99
900.33	9036.22
900.644	9011.13
900.959	9040.51
901.273	8952.83
901.588	8930.23
901.902	8887.07
902.216	8866.05
902.531	8849.1
902.845	8800.74
903.159	8780.63
903.473	8724.14
903.787	8648.43
904.101	8627.64
904.415	8615.44
904.729	8602.78
905.042	8534.76
905.356	8489.79
905.67	8493.18
905.984	8499.73
906.297	8416.35
906.611	8401.21
906.924	8414.76
907.237	8317.14
907.551	8310.36
907.864	8260.64
908.177	8296.12
908.491	8272.4
908.804	8222
909.117	8134.55
909.43	8076.47
909.743	8040.99
910.056	8031.5
910.368	7991.05
910.681	8000.31
910.994	7962.57
911.307	7921.9
911.619	7864.27
911.932	7872.63
912.244	7883.25
912.557	7825.18
912.869	7719.87
913.181	7681
913.494	7719.87
913.806	7659.08
914.118	7629.47
914.43	7527.56
914.742	7610.72
915.054	7515.58
915.366	7582.24
915.678	7500.21
915.99	7443.26
916.302	7398.07
916.613	7341.12
916.925	7351.74
917.236	7359.43
917.548	7290.73
917.859	7188.81
918.171	7210.28
918.482	7132.09
918.794	7197.62
919.105	7158.98
919.416	7080.34
919.727	7064.74
920.038	7050.51
920.349	7021.81
920.66	6935.26
920.971	7001.02
921.282	6944.75
921.593	6919.66
921.903	6847.8
922.214	6844.64
922.525	6796.5
922.835	6772.77
923.146	6763.96
923.456	6792.66
923.767	6688.93
924.077	6648.26
924.387	6597.64
924.697	6655.94
925.008	6598.32
925.318	6574.36
925.628	6551.99
925.938	6549.73
926.248	6471.54
926.558	6459.56
926.867	6455.49
927.177	6400.58
927.487	6396.06
927.796	6349.06
928.106	6344.54
928.416	6275.39
928.725	6301.83
929.034	6261.37
929.344	6236.06
929.653	6229.51
929.962	6158.78
930.271	6154.71
930.581	6107.25
930.89	6036.52
931.199	6029.52
931.508	6026.58
931.817	6026.35
932.125	6003.3
932.434	6013.02
932.743	5892.57
933.051	5901.61
933.36	5888.05
933.669	5864.55
933.977	5886.92
934.286	5765.57
934.594	5812.12
934.902	5792.91
935.21	5757.21
935.519	5699.58
935.827	5722.86
936.135	5721.95
936.443	5621.17
936.751	5646.93
937.059	5646.93
937.367	5599.25
937.674	5538.68
937.982	5538.91
938.29	5519.7
938.597	5514.73
938.905	5431.34
939.213	5431.34
939.52	5410.55
939.827	5408.29
940.135	5409.42
940.442	5325.13
940.749	5295.07
941.056	5324.68
941.363	5297.56
941.67	5251.91
941.977	5209.65
942.284	5204
942.591	5212.59
942.898	5186.37
943.205	5193.83
943.511	5092.37
943.818	5124
944.125	5049.66
944.431	5041.07
944.738	5029.54
945.044	5058.47
945.35	5015.08
945.657	4928.75
945.963	4916.78
946.269	4911.35
946.575	4921.52
946.881	4881.52
947.187	4879.94
947.493	4854.41
947.799	4868.87
948.105	4789.1
948.41	4746.84
948.716	4794.29
949.022	4723.11
949.327	4746.16
949.633	4748.65
949.938	4675.43
950.244	4642.66
950.549	4630.91
950.854	4602.44
951.16	4631.14
951.465	4554.98
951.77	4591.81
952.075	4511.36
952.38	4547.75
952.685	4553.4
952.99	4460.74
953.294	4504.36
953.599	4454.19
953.904	4431.82
954.209	4401.08
954.513	4411.25
954.818	4324.48
955.122	4293.74
955.426	4345.27
955.731	4286.51
956.035	4296.68
956.339	4261.65
956.643	4274.08
956.948	4258.94
957.252	4222.11
957.556	4174.2
957.86	4190.02
958.163	4191.15
958.467	4113.18
958.771	4135.1
959.075	4124.26
959.378	4098.95
959.682	4099.85
959.985	4056.91
960.289	4053.52
960.592	4033.86
960.896	4033.64
961.199	3994.99
961.502	3995.67
961.805	3961.77
962.108	3917.71
962.411	3902.34
962.714	3928.78
963.017	3877.48
963.32	3881.78
963.623	3859.63
963.926	3845.17
964.228	3833.64
964.531	3796.35
964.833	3792.74
965.136	3700.76
965.438	3768.79
965.741	3709.8
966.043	3733.98
966.345	3708
966.648	3702.12
966.95	3682.91
967.252	3659.64
967.554	3665.74
967.856	3631.39
968.158	3602.01
968.46	3620.31
968.761	3555.23
969.063	3565.4
969.365	3576.47
969.666	3542.12
969.968	3501.67
970.269	3506.87
970.571	3512.07
970.872	3489.02
971.174	3423.71
971.475	3451.28
971.776	3426.42
972.077	3425.07
972.378	3391.85
972.679	3390.94
972.98	3367.89
973.281	3357.27
973.582	3381.22
973.883	3339.64
974.183	3311.85
974.484	3298.51
974.785	3294.22
975.085	3302.81
975.386	3284.28
975.686	3236.6
975.986	3214.45
976.287	3219.42
976.587	3175.13
976.887	3195.47
977.187	3188.91
977.487	3167.44
977.787	3141.68
978.087	3116.6
978.387	3111.18
978.687	3108.69
978.987	3113.44
979.286	3067.79
979.586	3057.39
979.885	3018.97
980.185	3033.44
980.484	3039.31
980.784	3037.05
981.083	2969.48
981.382	2972.42
981.682	2943.27
981.981	2930.39
982.28	2971.97
982.579	2879.77
982.878	2885.19
983.177	2887.68
983.475	2852.42
983.774	2842.71
984.073	2873.67
984.372	2840.22
984.67	2815.36
984.969	2837.74
985.267	2829.37
985.566	2802.26
985.864	2809.49
986.162	2816.04
986.461	2752.99
986.759	2743.5
987.057	2762.48
987.355	2709.6
987.653	2716.16
987.951	2670.73
988.249	2701.24
988.547	2703.95
988.844	2691.98
989.142	2637.06
989.44	2628.7
989.737	2630.74
990.035	2605.88
990.332	2601.58
990.63	2564.07
990.927	2550.51
991.224	2576.95
991.521	2552.09
991.819	2507.58
992.116	2522.49
992.413	2519.1
992.71	2493.34
993.006	2508.93
993.303	2507.58
993.6	2475.71
993.897	2451.98
994.193	2466.22
994.49	2432.55
994.787	2421.48
995.083	2415.83
995.379	2422.15
995.676	2383.74
995.972	2363.17
996.268	2397.97
996.565	2335.83
996.861	2338.09
997.157	2329.27
997.453	2288.15
997.749	2322.5
998.044	2276.39
998.34	2294.7
998.636	2283.63
998.932	2279.78
999.227	2240.69
999.523	2213.8
999.818	2210.86
1000.114	2204.31
1000.409	2199.79
1000.704	2195.04
1001	2176.96
1001.295	2138.55
1001.59	2134.48
1001.885	2135.16
1002.18	2120.47
1002.475	2112.33
1002.77	2085.67
1003.065	2073.24
1003.359	2056.74
1003.654	2072.33
1003.949	2064.88
1004.243	2047.7
1004.538	2035.27
1004.832	2030.98
1005.127	2031.2
1005.421	2020.13
1005.715	1960.02
1006.009	1979.45
1006.304	1973.58
1006.598	1953.24
1006.892	1948.95
1007.186	1930.87
1007.48	1940.13
1007.773	1882.73
1008.067	1916.86
1008.361	1906.69
1008.655	1903.75
1008.948	1867.14
1009.242	1881.83
1009.535	1861.94
1009.829	1850.42
1010.122	1830.3
1010.415	1820.81
1010.708	1769.06
1011.001	1794.83
1011.295	1786.24
1011.588	1796.41
1011.881	1795.05
1012.173	1752.79
1012.466	1743.53
1012.759	1717.54
1013.052	1714.83
1013.344	1716.41
1013.637	1727.26
1013.93	1692.23
1014.222	1663.53
1014.514	1659.69
1014.807	1680.48
1015.099	1667.6
1015.391	1627.6
1015.683	1668.28
1015.976	1635.51
1016.268	1613.14
1016.56	1599.12
1016.851	1596.41
1017.143	1583.31
1017.435	1583.98
1017.727	1563.65
1018.018	1585.34
1018.31	1549.18
1018.602	1536.3
1018.893	1487.94
1019.185	1490.43
1019.476	1512.35
1019.767	1503.76
1020.058	1525.68
1020.35	1459.02
1020.641	1466.25
1020.932	1442.52
1021.223	1445.46
1021.514	1425.12
1021.804	1439.13
1022.095	1407.49
1022.386	1417.43
1022.677	1390.32
1022.967	1416.08
1023.258	1386.47
1023.548	1375.4
1023.839	1392.35
1024.129	1351.22
1024.419	1345.8
1024.709	1354.61
1025	1350.77
1025.29	1335.85
1025.58	1322.07
1025.87	1303.54
1026.16	1285.46
1026.449	1287.72
1026.739	1286.36
1027.029	1282.3
1027.319	1243.43
1027.608	1268.29
1027.898	1265.57
1028.187	1235.52
1028.477	1228.06
1028.766	1220.83
1029.055	1205.91
1029.344	1210.43
1029.634	1193.94
1029.923	1207.27
1030.212	1174.95
1030.501	1179.25
1030.79	1196.2
1031.078	1176.76
1031.367	1163.88
1031.656	1141.74
1031.945	1162.53
1032.233	1152.81
1032.522	1136.09
1032.81	1123.2
1033.099	1100.61
1033.387	1095.64
1033.675	1117.33
1033.963	1076.65
1034.251	1065.81
1034.54	1080.95
1034.828	1067.61
1035.116	1049.08
1035.403	1054.73
1035.691	1038.69
1035.979	1040.27
1036.267	1016.09
1036.554	1016.77
1036.842	1013.15
1037.129	1024.45
1037.417	973.15
1037.704	1009.76
1037.992	1007.73
1038.279	1009.99
1038.566	981.51
1038.853	981.51
1039.14	981.51
