Data from hue_50_FLMS001491_32.txt Node
Date: Mon Feb 06 15:10:02 GMT 2017
User: dcchb
Spectrometer: FLMS00149
Trigger mode: 0
Integration Time (sec): 2.000000E-2
Scans to average: 10
Electric dark correction enabled: true
Nonlinearity correction enabled: false
Boxcar width: 0
XAxis mode: Wavelengths
Number of Pixels in Spectrum: 2048
>>>>>Begin Spectral Data<<<<<
341.393	-7.92
341.776	-7.92
342.16	-7.92
342.543	-56.96
342.927	-45.44
343.31	-56.06
343.693	-77.75
344.077	-70.29
344.46	-51.09
344.843	-56.74
345.226	-59.67
345.61	-25.1
345.993	-23.52
346.376	-1.82
346.759	5.18
347.142	38.85
347.525	43.37
347.908	67.1
348.291	81.79
348.674	66.65
349.057	119.08
349.44	118.4
349.823	156.59
350.206	154.11
350.588	178.29
350.971	193.43
351.354	210.15
351.737	240.88
352.119	251.96
352.502	244.27
352.884	282.24
353.267	272.52
353.65	283.82
354.032	291.05
354.414	324.5
354.797	332.41
355.179	328.79
355.562	319.3
355.944	327.89
356.326	350.49
356.709	323.37
357.091	325.4
357.473	334.67
357.855	348.68
358.238	329.69
358.62	344.38
359.002	348.45
359.384	362.01
359.766	350.94
360.148	349.36
360.53	346.64
360.912	351.62
361.294	324.05
361.676	315.01
362.057	326.3
362.439	317.72
362.821	345.97
363.203	310.94
363.584	324.05
363.966	342.58
364.348	325.18
364.729	327.89
365.111	326.08
365.493	315.01
365.874	328.79
366.256	311.62
366.637	323.59
367.019	333.99
367.4	334.89
367.781	308.23
368.163	319.07
368.544	308.45
368.925	316.59
369.306	316.36
369.688	310.26
370.069	312.07
370.45	314.78
370.831	303.48
371.212	318.62
371.593	326.08
371.974	306.19
372.355	309.58
372.736	313.65
373.117	308.68
373.498	325.85
373.879	315.01
374.26	293.99
374.641	320.2
375.021	324.72
375.402	305.51
375.783	323.59
376.163	312.52
376.544	319.75
376.925	342.12
377.305	338.51
377.686	323.82
378.066	320.66
378.447	322.01
378.827	342.12
379.208	314.33
379.588	325.85
379.968	325.18
380.349	327.89
380.729	342.8
381.109	331.73
381.489	331.28
381.87	334.21
382.25	334.21
382.63	330.82
383.01	357.94
383.39	342.58
383.77	331.73
384.15	330.37
384.53	366.3
384.91	350.71
385.29	340.99
385.67	338.96
386.049	357.72
386.429	341.67
386.809	343.93
387.189	342.12
387.568	343.25
387.948	343.48
388.328	338.51
388.707	363.14
389.087	369.69
389.466	359.75
389.846	360.65
390.225	366.76
390.605	359.75
390.984	357.26
391.363	367.43
391.743	354.78
392.122	351.84
392.501	362.69
392.881	359.3
393.26	378.96
393.639	358.85
394.018	354.78
394.397	377.38
394.776	358.39
395.155	377.6
395.534	385.06
395.913	366.98
396.292	384.83
396.671	369.92
397.05	361.33
397.429	374.44
397.808	372.18
398.186	378.28
398.565	361.56
398.944	397.49
399.323	352.97
399.701	381.44
400.08	397.04
400.458	367.21
400.837	392.29
401.215	385.74
401.594	390.26
401.972	401.33
402.351	378.96
402.729	380.99
403.107	373.08
403.486	412.63
403.864	398.85
404.242	395.23
404.62	402.91
404.999	403.14
405.377	388.68
405.755	409.69
406.133	406.98
406.511	385.96
406.889	407.21
407.267	386.19
407.645	422.8
408.023	406.08
408.401	418.28
408.779	398.62
409.156	407.88
409.534	418.73
409.912	413.76
410.29	424.16
410.667	443.59
411.045	436.13
411.422	410.82
411.8	443.82
412.178	434.78
412.555	450.37
412.933	437.94
413.31	425.29
413.687	446.08
414.065	453.53
414.442	437.94
414.819	440.88
415.197	475.91
415.574	465.28
415.951	468.22
416.328	449.69
416.705	435.45
417.082	453.76
417.46	479.75
417.837	470.26
418.214	494.89
418.591	492.4
418.967	463.48
419.344	468.67
419.721	472.74
420.098	471.39
420.475	468
420.852	480.88
421.228	485.62
421.605	473.42
421.982	499.86
422.358	489.46
422.735	494.66
423.111	457.37
423.488	536.02
423.864	474.1
424.241	515.68
424.617	500.54
424.994	500.54
425.37	505.96
425.746	529.69
426.123	505.51
426.499	519.07
426.875	546.19
427.251	505.96
427.627	537.6
428.003	544.6
428.379	545.06
428.756	529.24
429.132	555.23
429.507	561.33
429.883	573.76
430.259	557.03
430.635	548.67
431.011	571.04
431.387	558.84
431.763	587.77
432.138	553.64
432.514	591.83
432.89	583.93
433.265	596.13
433.641	592.51
434.016	585.28
434.392	601.78
434.767	614.43
435.143	605.17
435.518	630.7
435.894	609.01
436.269	636.35
436.644	637.26
437.02	627.77
437.395	625.96
437.77	632.51
438.145	644.94
438.52	660.53
438.895	641.55
439.271	653.3
439.646	638.84
440.021	677.93
440.395	659.86
440.77	676.35
441.145	646.75
441.52	656.92
441.895	664.38
442.27	670.48
442.645	663.47
443.019	689.23
443.394	696.69
443.769	709.35
444.143	692.62
444.518	708.44
444.892	705.96
445.267	717.26
445.641	726.52
446.016	715
446.39	738.27
446.764	718.16
447.139	710.7
447.513	709.57
447.887	731.94
448.262	723.58
448.636	737.14
449.01	720.19
449.384	737.37
449.758	761.55
450.132	738.95
450.506	737.14
450.88	772.39
451.254	761.77
451.628	781.21
452.002	764.26
452.376	790.02
452.75	786.63
453.123	810.36
453.497	798.16
453.871	812.85
454.244	787.54
454.618	817.14
454.992	823.02
455.365	825.73
455.739	830.25
456.112	863.24
456.486	861.43
456.859	867.99
457.232	874.31
457.606	876.8
457.979	871.15
458.352	907.53
458.725	916.57
459.099	919.06
459.472	921.09
459.845	936.46
460.218	933.07
460.591	914.31
460.964	958.38
461.337	976.91
461.71	990.92
462.083	980.98
462.456	1007.87
462.829	992.28
463.201	1008.77
463.574	1010.58
463.947	1047.42
464.32	1082.67
464.692	1062.33
465.065	1082.9
465.438	1066.17
465.81	1115.21
466.183	1137.81
466.555	1135.32
466.928	1159.5
467.3	1180.75
467.672	1182.1
468.045	1201.99
468.417	1221.42
468.789	1235.89
469.161	1256.9
469.534	1259.84
469.906	1289.44
470.278	1317.69
470.65	1315.21
471.022	1380.51
471.394	1395.2
471.766	1448.31
472.138	1432.94
472.51	1472.49
472.882	1495.09
473.253	1537.57
473.625	1557.91
473.997	1601.53
474.369	1609.89
474.74	1633.62
475.112	1698.7
475.484	1741.63
475.855	1753.16
476.227	1833.38
476.598	1874.51
476.97	1883.55
477.341	1948.41
477.713	2012.36
478.084	2069.99
478.455	2109.31
478.827	2164.45
479.198	2213.26
479.569	2266.14
479.94	2349.75
480.311	2404.22
480.682	2482.86
481.053	2592.46
481.424	2642.63
481.795	2716.98
482.166	2793.13
482.537	2857.99
482.908	2925.11
483.279	3014.37
483.65	3102.73
484.021	3260.47
484.391	3279.22
484.762	3374.13
485.133	3452.55
485.503	3579.1
485.874	3690.51
486.244	3741.36
486.615	3889.83
486.985	3998.98
487.356	4115.81
487.726	4232.42
488.097	4337.72
488.467	4395.35
488.837	4522.8
489.207	4695.23
489.578	4833.31
489.948	4918.05
490.318	5056.35
490.688	5118.5
491.058	5339.96
491.428	5427.19
491.798	5574.53
492.168	5676.45
492.538	5778.59
492.908	5942.43
493.278	6133.38
493.648	6184.23
494.017	6354.4
494.387	6453.38
494.757	6602.3
495.126	6760.49
495.496	6836.87
495.866	6968.16
496.235	7078.22
496.605	7236.41
496.974	7299.23
497.344	7485.21
497.713	7555.27
498.082	7711.42
498.452	7832.32
498.821	7972.88
499.19	8038.19
499.559	8219.43
499.928	8302.82
500.298	8390.27
500.667	8618.06
501.036	8646.31
501.405	8825.74
501.774	8872.07
502.143	9064.61
502.512	9090.14
502.88	9253.75
503.249	9374.2
503.618	9432.96
503.987	9594.76
504.356	9659.17
504.724	9786.62
505.093	9823.91
505.462	9979.84
505.83	10046.28
506.199	10194.29
506.567	10414.85
506.936	10407.17
507.304	10578.01
507.672	10562.42
508.041	10733.04
508.409	10761.96
508.777	10977.55
509.145	11090.09
509.514	11144.1
509.882	11298.9
510.25	11342.51
510.618	11383.87
510.986	11471.32
511.354	11688.04
511.722	11777.3
512.09	11822.95
512.458	11973.46
512.826	12128.93
513.193	12137.75
513.561	12227.46
513.929	12396.95
514.297	12540.67
514.664	12612.54
515.032	12671.29
515.4	12812.08
515.767	12929.36
516.135	12925.97
516.502	12949.48
516.869	13167.55
517.237	13300.2
517.604	13322.57
517.972	13498.16
518.339	13589.23
518.706	13608.22
519.073	13706.74
519.44	13829.23
519.808	13917.36
520.175	13936.12
520.542	14111.25
520.909	14210.91
521.276	14218.37
521.643	14391.7
522.009	14577.46
522.376	14661.3
522.743	14690
523.11	14824.68
523.477	15071.23
523.843	15047.05
524.21	15219.92
524.577	15441.16
524.943	15457.43
525.31	15489.97
525.676	15731.1
526.043	15769.06
526.409	15888.83
526.776	16079.79
527.142	16081.82
527.508	16128.6
527.874	16274.13
528.241	16435.26
528.607	16537.18
528.973	16595.26
529.339	16690.17
529.705	16762.03
530.071	16975.58
530.437	17006.77
530.803	17157.27
531.169	17206.54
531.535	17236.82
531.901	17342.58
532.267	17439.08
532.632	17657.37
532.998	17546.87
533.364	17684.04
533.73	17726.07
534.095	17914.54
534.461	17946.63
534.826	18099.4
535.192	18215.33
535.557	18340.29
535.923	18293.52
536.288	18349.56
536.653	18423.23
537.019	18501.65
537.384	18581.42
537.749	18614.19
538.114	18659.38
538.479	18630.91
538.845	18823.45
539.21	18834.07
539.575	18951.13
539.94	18950.67
540.305	19127.62
540.67	19074.74
541.034	19152.25
541.399	19275.19
541.764	19315.41
542.129	19345.47
542.494	19441.96
542.858	19607.83
543.223	19633.82
543.587	19779.13
543.952	19771.22
544.316	19775.06
544.681	19913.59
545.045	19999.91
545.41	20104.99
545.774	20106.12
546.138	20183.18
546.503	20100.7
546.867	20184.99
547.231	20415.27
547.595	20384.99
547.959	20446.45
548.324	20484.42
548.688	20596.96
549.052	20683.51
549.416	20673.79
549.779	20783.17
550.143	20845.99
550.507	20961.92
550.871	20994.91
551.235	20991.75
551.599	21111.52
551.962	21286.66
552.326	21273.1
552.689	21413.66
553.053	21342.48
553.417	21349.71
553.78	21701.34
554.143	21672.18
554.507	21760.32
554.87	21796.47
555.234	22039.63
555.597	21918.73
555.96	21902.23
556.323	22038.95
556.686	22089.57
557.05	22258.84
557.413	22328.21
557.776	22500.86
558.139	22598.26
558.502	22658.37
558.865	22707.64
559.228	22921.42
559.59	22927.07
559.953	22888.42
560.316	23217.91
560.679	23276.66
561.041	23364.34
561.404	23419.94
561.767	23473.72
562.129	23518.92
562.492	23715.52
562.854	23708.29
563.217	23790.77
563.579	23859.25
563.941	23971.11
564.304	24013.82
564.666	24240.03
565.028	24334.94
565.39	24395.05
565.753	24552.79
566.115	24569.51
566.477	24699
566.839	24845.89
567.201	24936.05
567.563	24942.61
567.925	25101.92
568.287	25146.67
568.648	25268.47
569.01	25328.81
569.372	25427.79
569.734	25475.7
570.095	25646.54
570.457	25717.95
570.819	25843.6
571.18	25867.78
571.542	26003.14
571.903	25994.33
572.265	26138.96
572.626	26255.11
572.987	26322.68
573.349	26441.78
573.71	26609.23
574.071	26636.8
574.432	26695.78
574.794	26887.87
575.155	26925.15
575.516	26840.18
575.877	27008.54
576.238	27147.52
576.599	27314.3
576.96	27231.13
577.32	27246.95
577.681	27492.14
578.042	27594.97
578.403	27592.25
578.763	27674.06
579.124	27731.69
579.485	27909.99
579.845	28091
580.206	28088.51
580.566	28183.65
580.927	28157.44
581.287	28497.54
581.648	28410.09
582.008	28799
582.368	28574.38
582.728	28624.77
583.089	28798.1
583.449	28854.37
583.809	29022.27
584.169	29086
584.529	29192.66
584.889	29440.12
585.249	29293
585.609	29323.96
585.969	29645.53
586.329	29690.73
586.688	29829.26
587.048	29802.59
587.408	29921.68
587.768	30039.87
588.127	30046.65
588.487	30241.45
588.846	30438.28
589.206	30324.39
589.565	30530.03
589.925	30690.25
590.284	30680.54
590.643	30917.37
591.003	31100.41
591.362	31209.11
591.721	31200.07
592.08	31179.96
592.44	31390.8
592.799	31521.87
593.158	31520.29
593.517	31693.16
593.876	31750.11
594.235	31871.92
594.593	31901.75
594.952	32064.68
595.311	31997.56
595.67	32109.65
596.029	32344.67
596.387	32430.77
596.746	32593.03
597.104	32463.77
597.463	32597.55
597.822	32814.49
598.18	32677.77
598.538	32793.02
598.897	33055.39
599.255	33015.61
599.613	33341.93
599.972	33246.8
600.33	33357.53
600.688	33336.28
601.046	33628.71
601.404	33720
601.762	33725.43
602.12	33918.42
602.478	33881.58
602.836	33941.47
603.194	33936.95
603.552	34069.82
603.91	34074.12
604.268	34403.15
604.625	34158.18
604.983	34568.57
605.341	34369.03
605.698	34608.57
606.056	34499.42
606.413	34734.44
606.771	34956.58
607.128	34785.51
607.485	34710.94
607.843	34889.01
608.2	35115.45
608.557	35257.36
608.914	35105.28
609.272	35434.76
609.629	35450.58
609.986	35483.57
610.343	35508.66
610.7	35707.3
611.057	35761.08
611.414	35820.96
611.771	35833.62
612.127	36067.29
612.484	35975.54
612.841	36228.86
613.198	36101.18
613.554	36145.48
613.911	36409.2
614.267	36363.32
614.624	36354.06
614.98	36486.03
615.337	36800.15
615.693	36691.9
616.05	36608.06
616.406	36931.22
616.762	36807.61
617.118	36682.86
617.475	36811.22
617.831	37023.42
618.187	37093.7
618.543	37120.59
618.899	37169.4
619.255	37341.6
619.611	37297.54
619.967	37599.45
620.323	37491.2
620.678	37490.07
621.034	37544.54
621.39	37384.54
621.746	37567.59
622.101	37875.83
622.457	37549.28
622.812	37771.87
623.168	37851.19
623.523	37832.66
623.879	37866.79
624.234	37715.83
624.589	37920.57
624.945	37857.52
625.3	37872.89
625.655	37931.19
626.01	38006.9
626.365	38016.61
626.72	37921.47
627.075	37920.8
627.43	37971.87
627.785	37995.37
628.14	37958.99
628.495	38057.97
628.85	37941.59
629.205	37963.06
629.559	38127.8
629.914	37902.94
630.269	37888.26
630.623	37958.54
630.978	37990.4
631.332	38017.74
631.687	38198.08
632.041	38003.51
632.396	38068.14
632.75	37862.95
633.104	38123.73
633.459	37886.45
633.813	37953.34
634.167	37908.37
634.521	37955.6
634.875	38107.46
635.229	37941.81
635.583	37852.1
635.937	37830.86
636.291	37774.36
636.645	37804.87
636.999	37772.33
637.352	37953.34
637.706	37717.41
638.06	37895.49
638.413	37740.01
638.767	37714.7
639.121	37780.69
639.474	37540.02
639.828	37478.1
640.181	37570.07
640.534	37637.87
640.888	37624.53
641.241	37367.82
641.594	37532.78
641.947	37557.87
642.301	37382.28
642.654	37454.59
643.007	37418.44
643.36	37296.41
643.713	37384.09
644.066	37393.35
644.419	37219.35
644.771	37158.78
645.124	36649.64
645.477	36634.95
645.83	36469.08
646.182	36357.67
646.535	36153.39
646.888	36241.52
647.24	36052.82
647.593	36246.26
647.945	36181.86
648.298	36100.73
648.65	35984.8
649.002	35759.5
649.355	36038.36
649.707	36005.82
650.059	36101.86
650.411	36566.48
650.763	36542.75
651.115	36912.24
651.467	36803.76
651.819	36718.57
652.171	36836.53
652.523	36604.22
652.875	36756.53
653.227	36447.62
653.578	36765.35
653.93	36698.91
654.282	36551.34
654.633	36398.58
654.985	36490.78
655.337	36504.79
655.688	36635.18
656.039	36671.79
656.391	36361.52
656.742	36469.08
657.094	36428.18
657.445	36673.82
657.796	36519.7
658.147	36361.52
658.498	36453.49
658.849	36524.9
659.2	36417.79
659.551	36245.13
659.902	36446.94
660.253	36365.58
660.604	36509.99
660.955	36289.2
661.306	36372.81
661.656	36268.41
662.007	36230.45
662.358	36277
662.708	36255.3
663.059	36100.96
663.409	36020.73
663.76	36357
664.11	36204.91
664.461	36339.82
664.811	36245.59
665.161	36176.89
665.511	36035.42
665.862	36230.9
666.212	36181.18
666.562	36263.44
666.912	36047.85
667.262	36043.11
667.612	36196.1
667.962	36225.02
668.312	36222.99
668.662	36304.34
669.011	36213.5
669.361	36150.45
669.711	36050.79
670.06	36090.56
670.41	36104.57
670.76	36005.82
671.109	36035.87
671.459	36089.21
671.808	36066.16
672.157	36224.34
672.507	35781.19
672.856	35844.69
673.205	35964.24
673.554	35973.73
673.904	35843.11
674.253	36026.61
674.602	35895.77
674.951	35389.79
675.3	35191.6
675.649	35842.43
675.998	35891.25
676.346	35737.35
676.695	35838.59
677.044	35612.61
677.393	35724.92
677.741	35686.51
678.09	35556.11
678.438	35618.03
678.787	35515.21
679.135	35552.72
679.484	35279.06
679.832	35493.06
680.181	35238.83
680.529	35411.26
680.877	35467.53
681.225	35342.11
681.573	35358.15
681.922	35140.08
682.27	35243.35
682.618	35140.08
682.966	35044.04
683.314	35138.72
683.661	35046.3
684.009	34914.77
684.357	34875
684.705	34867.32
685.053	34921.55
685.4	34747.09
685.748	34593.2
686.095	34615.57
686.443	34536.7
686.79	34435.69
687.138	34459.87
687.485	34478.85
687.832	34346.2
688.18	34378.74
688.527	34263.04
688.874	34290.16
689.221	34144.62
689.568	33911.86
689.915	34036.61
690.262	34017.62
690.609	33801.13
690.956	33707.57
691.303	33706.67
691.65	33566.79
691.997	33443.17
692.344	33311.88
692.69	33398.66
693.037	33421.71
693.383	33007.93
693.73	33167.7
694.077	33022.85
694.423	33024.65
694.769	32919.35
695.116	32798.9
695.462	32767.71
695.808	32668.05
696.155	32783.3
696.501	32450.43
696.847	32595.96
697.193	32318.46
697.539	32209.53
697.885	32146.71
698.231	32107.39
698.577	32162.98
698.923	32111.46
699.269	31954.85
699.614	31853.84
699.96	31758.7
700.306	31708.3
700.651	31632.6
700.997	31343.34
701.342	31385.15
701.688	31452.27
702.033	31323.68
702.379	31192.84
702.724	31123.69
703.069	31229.9
703.415	30821.55
703.76	30989.45
704.105	30877.59
704.45	30842.56
704.795	30656.35
705.14	30509.69
705.485	30572.52
705.83	30337.49
706.175	30426.53
706.52	30366.42
706.865	30280.77
707.209	30237.61
707.554	30124.39
707.899	30248.68
708.243	29964.85
708.588	30010.27
708.932	29814.57
709.277	29674.91
709.621	29792.2
709.966	29602.82
710.31	29618.42
710.654	29360.12
710.998	29517.85
711.342	29526.67
711.687	29309.05
712.031	29257.52
712.375	29093.68
712.719	29232.44
713.063	29158.09
713.407	29201.03
713.75	29003.29
714.094	29038.54
714.438	28872.9
714.782	28894.82
715.125	28730.08
715.469	28759.68
715.812	28567.82
716.156	28484.66
716.499	28546.13
716.843	28605.79
717.186	28296.64
717.53	28522.63
717.873	28439.69
718.216	28383.65
718.559	28153.14
718.902	28096.2
719.246	28118.34
719.589	27991.34
719.932	27983.66
720.275	27940.49
720.617	27948.86
720.96	27855.07
721.303	27843.55
721.646	27896.65
721.989	27595.42
722.331	27691.24
722.674	27660.73
723.016	27727.62
723.359	27555.42
723.701	27495.08
724.044	27459.15
724.386	27364.92
724.729	27439.04
725.071	27365.82
725.413	27304.58
725.755	27330.34
726.097	27273.39
726.439	26979.84
726.782	27026.39
727.124	27227.07
727.465	26940.97
727.807	26997.69
728.149	26912.5
728.491	26877.47
728.833	26968.32
729.175	26648.32
729.516	26734.65
729.858	26693.75
730.199	26750.24
730.541	26693.07
730.882	26668.66
731.224	26665.5
731.565	26511.61
731.906	26500.53
732.248	26582.11
732.589	26386.18
732.93	26393.42
733.271	26271.39
733.612	26437.71
733.953	26324.72
734.294	26335.11
734.635	26136.25
734.976	26240.88
735.317	26059.87
735.658	26145.51
735.999	25936.48
736.339	26007.21
736.68	26144.84
737.021	26022.58
737.361	25863.71
737.702	26001.11
738.042	25919.53
738.383	25795.01
738.723	25788.23
739.063	25668.92
739.404	25754.11
739.744	25690.61
740.084	25528.81
740.424	25648.8
740.764	25551.86
741.104	25630.72
741.444	25503.27
741.784	25331.52
742.124	25394.35
742.464	25472.76
742.804	25270.06
743.143	25209.72
743.483	25367
743.823	25086.78
744.162	25155.93
744.502	25091.3
744.841	25088.59
745.181	25096.95
745.52	25008.37
745.86	25030.97
746.199	24953.68
746.538	24936.73
746.877	25093.56
747.216	24972.66
747.556	24736.28
747.895	24913
748.234	24765.66
748.573	24687.25
748.911	24720.01
749.25	24681.82
749.589	24471.43
749.928	24519.12
750.267	24547.81
750.605	24552.56
750.944	24397.76
751.283	24280.03
751.621	24395.5
751.96	24263.08
752.298	24217.88
752.636	24160.25
752.975	24192.34
753.313	24115.51
753.651	24141.05
753.989	23934.27
754.327	23880.94
754.666	23811.11
755.004	23928.4
755.342	23925.68
755.679	23865.35
756.017	23751.23
756.355	23697.67
756.693	23719.59
757.031	23644.56
757.368	23387.85
757.706	23365.25
758.044	23328.19
758.381	23320.95
758.719	23276.21
759.056	23206.16
759.394	23249.77
759.731	22940.85
760.068	22982.43
760.405	22900.17
760.743	22929.1
761.08	22964.81
761.417	22768.43
761.754	22588.54
762.091	22669.45
762.428	22502.22
762.765	22490.02
763.102	22523.46
763.438	22248.21
763.775	22254.32
764.112	22243.02
764.449	22348.1
764.785	22167.09
765.122	22028.11
765.458	21994.21
765.795	21854.1
766.131	21904.72
766.467	21756.02
766.804	21737.72
767.14	21652.98
767.476	21571.62
767.812	21496.37
768.148	21414.34
768.485	21291.86
768.821	21305.64
769.157	21233.78
769.492	21199.88
769.828	21140.45
770.164	20928.93
770.5	21005.31
770.836	20948.81
771.171	20792.21
771.507	20834.69
771.842	20546.11
772.178	20600.35
772.513	20464.98
772.849	20401.03
773.184	20310.41
773.519	20335.95
773.855	20196.74
774.19	20160.81
774.525	20131.66
774.86	20116.29
775.195	20003.3
775.53	19975.28
775.865	19831.1
776.2	19665.68
776.535	19536.65
776.87	19638.79
777.205	19534.39
777.539	19446.25
777.874	19477.44
778.209	19294.62
778.543	19191.35
778.878	19141.18
779.212	19126.49
779.547	19069.77
779.881	19131.01
780.215	18838.13
780.55	19026.83
780.884	18808.08
781.218	18783.45
781.552	18772.15
781.886	18705.71
782.22	18620.29
782.554	18533.28
782.888	18325.61
783.222	18187.76
783.556	18237.02
783.889	18258.49
784.223	18089.91
784.557	18062.34
784.89	18053.07
785.224	17886.3
785.557	17857.6
785.891	17766.98
786.224	17859.63
786.558	17775.56
786.891	17489.02
787.224	17482.92
787.557	17390.94
787.891	17431.62
788.224	17322.92
788.557	17337.16
788.89	17252.41
789.223	17308.46
789.556	17083.15
789.888	17042.7
790.221	16982.82
790.554	16853.1
790.887	16947.34
791.219	16804.97
791.552	16776.04
791.884	16672.09
792.217	16624.63
792.549	16535.6
792.882	16444.07
793.214	16378.54
793.546	16435.94
793.879	16277.52
794.211	16228.03
794.543	16257.64
794.875	16226.23
795.207	16218.54
795.539	16089.28
795.871	16124.08
796.203	15969.28
796.535	15883.64
796.867	15848.38
797.198	15773.36
797.53	15846.8
797.862	15654.04
798.193	15669.86
798.525	15630.76
798.856	15571.55
799.188	15409.52
799.519	15441.16
799.85	15268.51
800.182	15307.61
800.513	15366.36
800.844	15261.96
801.175	15255.18
801.506	15264.9
801.837	15175.18
802.168	15132.7
802.499	14984.68
802.83	15034.17
803.161	14926.37
803.491	14966.82
803.822	14907.39
804.153	14767.28
804.483	14756.66
804.814	14618.36
805.145	14657
805.475	14637.57
805.805	14487.97
806.136	14645.02
806.466	14477.12
806.796	14475.99
807.126	14381.98
807.457	14363.45
807.787	14374.3
808.117	14318.25
808.447	14293.17
808.777	14239.61
809.107	14174.3
809.436	14152.16
809.766	14110.12
810.096	14082.55
810.426	14003.69
810.755	14056.11
811.085	14036.68
811.414	13967.75
811.744	13857.47
812.073	13810.7
812.403	13766.18
812.732	13689.57
813.061	13740.64
813.39	13704.03
813.719	13693.86
814.049	13736.12
814.378	13597.59
814.707	13591.94
815.036	13632.85
815.365	13506.75
815.693	13388.11
816.022	13433.08
816.351	13310.82
816.68	13305.17
817.008	13376.36
817.337	13198.06
817.665	13208.23
817.994	13225.4
818.322	13179.3
818.651	13205.06
818.979	13129.58
819.307	13148.34
819.636	13070.15
819.964	12982.24
820.292	13071.05
820.62	13090.72
820.948	12962.81
821.276	13043.03
821.604	13019.3
821.932	12997.16
822.259	12971.85
822.587	12955.8
822.915	12869.93
823.243	12991.51
823.57	12900.44
823.898	12951.06
824.225	12882.81
824.553	12848.01
824.88	12867.44
825.207	12959.87
825.535	12818.63
825.862	12939.08
826.189	12825.64
826.516	12954.22
826.843	12901.34
827.17	12885.3
827.497	12916.03
827.824	12899.08
828.151	12925.97
828.478	12879.87
828.805	12908.8
829.131	12822.47
829.458	12857.95
829.785	12745.87
830.111	12773.89
830.438	12821.34
830.764	12796.49
831.09	12845.75
831.417	12701.57
831.743	12832.87
832.069	12825.19
832.395	12738.18
832.722	12716.26
833.048	12715.58
833.374	12680.1
833.7	12643.04
834.026	12652.31
834.351	12698.18
834.677	12697.51
835.003	12621.8
835.329	12685.98
835.654	12703.15
835.98	12543.38
836.306	12610.05
836.631	12532.09
836.956	12599.43
837.282	12564.18
837.607	12493.44
837.932	12486.21
838.258	12485.31
838.583	12398.08
838.908	12380.23
839.233	12429.04
839.558	12382.26
839.883	12355.59
840.208	12348.14
840.533	12330.51
840.858	12351.07
841.182	12401.69
841.507	12287.35
841.832	12248.25
842.156	12171.42
842.481	12213.22
842.805	12209.38
843.13	12134.81
843.454	12133.68
843.778	12013.68
844.103	12067.24
844.427	12045.32
844.751	12010.52
845.075	12000.12
845.399	11949.5
845.723	11889.62
846.047	11861.82
846.371	11777.3
846.695	11740.47
847.019	11735.72
847.343	11670.41
847.666	11588.83
847.99	11547.93
848.313	11517.88
848.637	11484.43
848.96	11467.71
849.284	11397.2
849.607	11321.5
849.931	11377.99
850.254	11173.25
850.577	11248.73
850.9	11061.62
851.223	11089.86
851.546	11032.01
851.869	10921.05
852.192	11041.5
852.515	10932.81
852.838	10926.25
853.161	10856.88
853.483	10820.27
853.806	10748.86
854.129	10735.3
854.451	10713.38
854.774	10683.09
855.096	10618.92
855.419	10615.75
855.741	10583.44
856.063	10539.82
856.385	10527.39
856.708	10517.68
857.03	10439.94
857.352	10403.33
857.674	10340.28
857.996	10305.93
858.318	10218.02
858.64	10288.53
858.961	10266.61
859.283	10316.32
859.605	10114.52
859.926	10201.75
860.248	10175.09
860.57	10127.86
860.891	10113.17
861.212	10097.57
861.534	10050.34
861.855	10001.08
862.176	10004.69
862.498	10064.58
862.819	9992.94
863.14	9954.3
863.461	9958.59
863.782	9878.14
864.103	9879.73
864.424	9918.82
864.745	9879.95
865.065	9846.05
865.386	9813.29
865.707	9791.82
866.027	9809.22
866.348	9705.95
866.668	9772.16
866.989	9687.41
867.309	9665.72
867.63	9665.27
867.95	9697.13
868.27	9638.15
868.59	9705.95
868.91	9626.63
869.23	9575.33
869.55	9538.27
869.87	9552.5
870.19	9539.62
870.51	9556.8
870.83	9521.77
871.15	9509.57
871.469	9471.6
871.789	9524.48
872.109	9466.4
872.428	9437.03
872.748	9436.8
873.067	9381.89
873.386	9449.68
873.706	9384.6
874.025	9315.9
874.344	9351.83
874.663	9362
874.982	9292.85
875.301	9325.62
875.62	9259.18
875.939	9289.91
876.258	9240.19
876.577	9215.79
876.896	9172.4
877.214	9144.83
877.533	9198.61
877.852	9149.35
878.17	9160.42
878.489	9201.55
878.807	9165.17
879.125	9118.39
879.444	9098.96
879.762	9041.78
880.08	9050.82
880.398	9056.24
880.716	9025.29
881.034	8999.75
881.352	9012.18
881.67	8937.38
881.988	8967.21
882.306	8920.66
882.624	8901.9
882.941	8851.73
883.259	8908.45
883.577	8873.65
883.894	8813.09
884.212	8791.39
884.529	8868.23
884.846	8761.56
885.164	8758.17
885.481	8690.38
885.798	8748.91
886.115	8646.31
886.432	8697.84
886.75	8638.63
887.067	8628.91
887.383	8582.81
887.7	8620.32
888.017	8595.24
888.334	8605.86
888.651	8523.6
888.967	8517.95
889.284	8479.76
889.6	8427.33
889.917	8429.14
890.233	8386.43
890.55	8425.08
890.866	8384.85
891.182	8440.22
891.498	8334.46
891.815	8272.99
892.131	8273.67
892.447	8226.21
892.763	8230.05
893.079	8216.72
893.395	8176.95
893.71	8170.39
894.026	8192.31
894.342	8045.42
894.657	8042.26
894.973	8066.21
895.289	8013.11
895.604	8066.89
895.92	7930.85
896.235	7909.61
896.55	7885.65
896.865	7967.69
897.181	7860.12
897.496	7862.15
897.811	7821.48
898.126	7835.03
898.441	7771.08
898.756	7718.2
899.071	7731.76
899.386	7687.02
899.7	7600.92
900.015	7619.45
900.33	7568.37
900.644	7565.21
900.959	7564.31
901.273	7491.99
901.588	7504.87
901.902	7443.63
902.216	7440.24
902.531	7423.97
902.845	7348.49
903.159	7301.71
903.473	7328.38
903.787	7300.13
904.101	7216.07
904.415	7297.2
904.729	7278.44
905.042	7167.26
905.356	7183.07
905.67	7149.63
905.984	7084.09
906.297	7090.65
906.611	7093.13
906.924	7035.73
907.237	7009.97
907.551	7019.69
907.864	6923.42
908.177	6957.77
908.491	6942.63
908.804	6897.66
909.117	6839.58
909.43	6806.81
909.743	6744.67
910.056	6791.67
910.368	6720.26
910.681	6699.24
910.994	6671
911.307	6725.91
911.619	6584.9
911.932	6557.78
912.244	6543.54
912.557	6563.2
912.869	6512.58
913.181	6498.35
913.494	6464.22
913.806	6419.48
914.118	6413.38
914.43	6338.8
914.742	6328.86
915.054	6342.42
915.366	6279.14
915.678	6202.08
915.99	6210.9
916.302	6186.94
916.613	6200.5
916.925	6242.31
917.236	6141.29
917.548	6141.29
917.859	6142.42
918.171	6028.3
918.482	6027.17
918.794	6035.99
919.105	6012.48
919.416	5952.6
919.727	5973.84
920.038	5970.68
920.349	5939.94
920.66	5900.17
920.971	5876.22
921.282	5890
921.593	5799.61
921.903	5752.38
922.214	5761.87
922.525	5718.71
922.835	5758.7
923.146	5668.31
923.456	5722.32
923.767	5653.17
924.077	5656.56
924.387	5652.94
924.697	5596.9
925.008	5559.84
925.318	5515.32
925.628	5532.5
925.938	5466.73
926.248	5426.96
926.558	5421.76
926.867	5423.12
927.177	5407.53
927.487	5415.66
927.796	5319.85
928.106	5364.36
928.416	5339.05
928.725	5269.23
929.034	5254.54
929.344	5236.68
929.653	5203.24
929.962	5233.07
930.271	5176.12
930.581	5098.61
930.89	5122.34
931.199	5063.36
931.508	5104.03
931.817	5075.78
932.125	5013.19
932.434	5042.11
932.743	5003.47
933.051	4977.93
933.36	4942
933.669	4905.62
933.977	4855.68
934.286	4874.89
934.594	4885.28
934.902	4857.26
935.21	4823.36
935.519	4800.54
935.827	4757.15
936.135	4798.96
936.443	4732.74
936.751	4714.89
937.059	4708.34
937.367	4683.7
937.674	4648.23
937.982	4615.01
938.29	4611.16
938.597	4656.36
938.905	4565.52
939.213	4539.75
939.52	4543.82
939.827	4518.51
940.135	4486.65
940.442	4489.81
940.749	4494.33
941.056	4422.47
941.363	4426.76
941.67	4404.84
941.977	4356.71
942.284	4354.22
942.591	4410.72
942.898	4340.89
943.205	4340.44
943.511	4339.76
943.818	4256.6
944.125	4258.4
944.431	4229.93
944.738	4224.96
945.044	4204.62
945.35	4183.15
945.657	4207.78
945.963	4144.28
946.269	4167.33
946.575	4099.09
946.881	4092.53
947.187	4080.33
947.493	4024.29
947.799	4039.88
948.105	4020.22
948.41	4013.67
948.716	4018.86
949.022	3964.18
949.327	3950.84
949.633	3930.5
949.938	3939.32
950.244	3931.41
950.549	3865.19
950.854	3864.74
951.16	3839.21
951.465	3832.43
951.77	3855.48
952.075	3813.22
952.38	3794.46
952.685	3801.47
952.99	3773.22
953.294	3744.52
953.599	3744.97
953.904	3709.27
954.209	3698.87
954.513	3702.49
954.818	3681.02
955.122	3655.48
955.426	3675.37
955.731	3620.46
956.035	3579.78
956.339	3587.24
956.643	3568.93
956.948	3572.55
957.252	3537.52
957.556	3522.83
957.86	3536.39
958.163	3521.25
958.467	3514.92
958.771	3488.26
959.075	3476.28
959.378	3429.5
959.682	3445.32
959.985	3382.5
960.289	3413.46
960.592	3365.32
960.896	3365.1
961.199	3366.45
961.502	3344.98
961.805	3342.95
962.108	3305.44
962.411	3295.04
962.714	3268.15
963.017	3281.48
963.32	3302.27
963.623	3259.34
963.926	3200.58
964.228	3210.52
964.531	3186.57
964.833	3217.75
965.136	3164.65
965.438	3161.03
965.741	3153.8
966.043	3101.15
966.345	3110.64
966.648	3103.63
966.95	3089.17
967.252	3085.78
967.554	3085.55
967.856	3061.83
968.158	3047.82
968.46	3011.66
968.761	2998.55
969.063	2972.11
969.365	2975.73
969.666	2977.31
969.968	2980.92
970.269	2959.46
970.571	2941.15
970.872	2930.76
971.174	2922.17
971.475	2876.97
971.776	2866.35
972.077	2825.67
972.378	2827.93
972.679	2825.22
972.98	2831.1
973.281	2854.37
973.582	2775.05
973.883	2807.37
974.183	2768.95
974.484	2751.1
974.785	2745
975.085	2720.37
975.386	2763.98
975.686	2724.89
975.986	2724.89
976.287	2745.45
976.587	2697.32
976.887	2692.57
977.187	2669.52
977.487	2639.24
977.787	2634.94
978.087	2644.21
978.387	2639.01
978.687	2627.26
978.987	2627.71
979.286	2586.36
979.586	2590.43
979.885	2591.56
980.185	2531.67
980.484	2574.38
980.784	2545.23
981.083	2509.07
981.382	2476.53
981.682	2531.44
981.981	2491.67
982.28	2536.87
982.579	2457.55
982.878	2470.66
983.177	2450.32
983.475	2452.35
983.774	2415.52
984.073	2387.72
984.372	2423.88
984.67	2407.38
984.969	2396.31
985.267	2382.07
985.566	2400.37
985.864	2342.52
986.162	2358.34
986.461	2356.31
986.759	2320.6
987.057	2312.24
987.355	2284.22
987.653	2294.84
987.951	2291
988.249	2283.77
988.547	2295.07
988.844	2234.05
989.142	2238.57
989.44	2243.99
989.737	2234.96
990.035	2184.34
990.332	2180.49
990.63	2179.36
990.927	2194.5
991.224	2178.69
991.521	2195.41
991.819	2130.55
992.116	2149.99
992.413	2154.28
992.71	2110.21
993.006	2099.82
993.303	2104.79
993.6	2099.59
993.897	2039.71
994.193	2094.62
994.49	2105.92
994.787	2046.26
995.083	2084.9
995.379	2084.68
995.676	2035.86
995.972	1995.64
996.268	1999.26
996.565	1985.7
996.861	2007.16
997.157	1971.69
997.453	1999.93
997.749	1986.15
998.044	1958.8
998.34	1927.62
998.636	1955.19
998.932	1896.21
999.227	1913.83
999.523	1882.2
999.818	1906.38
1000.114	1876.55
1000.409	1873.16
1000.704	1853.95
1001	1832.93
1001.295	1848.98
1001.59	1840.84
1001.885	1845.14
1002.18	1810.79
1002.475	1796.1
1002.77	1816.21
1003.065	1763.33
1003.359	1769.43
1003.654	1774.18
1003.949	1729.21
1004.243	1735.53
1004.538	1747.74
1004.832	1741.63
1005.127	1723.78
1005.421	1741.41
1005.715	1710.68
1006.009	1718.81
1006.304	1711.58
1006.598	1660.96
1006.892	1648.53
1007.186	1678.36
1007.48	1653.28
1007.773	1653.73
1008.067	1637.68
1008.361	1601.07
1008.655	1616.21
1008.948	1613.28
1009.242	1604.69
1009.535	1582.09
1009.829	1582.09
1010.122	1564.46
1010.415	1547.06
1010.708	1560.4
1011.001	1544.8
1011.295	1529.44
1011.588	1535.54
1011.881	1510.23
1012.173	1494.64
1012.466	1498.48
1012.759	1492.15
1013.052	1484.92
1013.344	1467.52
1013.637	1470.23
1013.93	1473.62
1014.222	1453.51
1014.514	1456.44
1014.807	1455.77
1015.099	1443.34
1015.391	1433.39
1015.683	1432.04
1015.976	1410.57
1016.268	1408.08
1016.56	1393.17
1016.851	1388.42
1017.143	1406.73
1017.435	1357.69
1017.727	1346.62
1018.018	1355.2
1018.31	1325.6
1018.602	1324.02
1018.893	1317.24
1019.185	1305.49
1019.476	1310.69
1019.767	1301.65
1020.058	1271.36
1020.35	1300.52
1020.641	1281.08
1020.932	1270.01
1021.223	1247.41
1021.514	1246.05
1021.804	1253.96
1022.095	1259.16
1022.386	1253.74
1022.677	1229.11
1022.967	1228.65
1023.258	1206.51
1023.548	1203.34
1023.839	1194.08
1024.129	1200.86
1024.419	1196.11
1024.709	1191.59
1025	1169.9
1025.29	1132.84
1025.58	1140.29
1025.87	1147.98
1026.16	1122.67
1026.449	1159.28
1026.739	1144.36
1027.029	1121.31
1027.319	1111.6
1027.608	1100.52
1027.898	1100.52
1028.187	1062.1
1028.477	1074.53
1028.766	1093.52
1029.055	1080.86
1029.344	1034.08
1029.634	1067.08
1029.923	1060.07
1030.212	1020.52
1030.501	1024.14
1030.79	1041.99
1031.078	1034.53
1031.367	1006.06
1031.656	1013.97
1031.945	1004.25
1032.233	979.85
1032.522	994.31
1032.81	985.5
1033.099	991.82
1033.387	964.25
1033.675	963.58
1033.963	967.42
1034.251	949.34
1034.54	958.15
1034.828	973.07
1035.116	933.29
1035.403	930.13
1035.691	915.67
1035.979	923.8
1036.267	922.22
1036.554	920.41
1036.842	905.05
1037.129	891.49
1037.417	903.24
1037.704	868.44
1037.992	882.9
1038.279	890.58
1038.566	895.56
1038.853	895.56
1039.14	895.56
