Data from hue_320_FLMS001491_19.txt Node
Date: Mon Feb 06 15:46:48 GMT 2017
User: dcchb
Spectrometer: FLMS00149
Trigger mode: 0
Integration Time (sec): 2.000000E-2
Scans to average: 10
Electric dark correction enabled: true
Nonlinearity correction enabled: false
Boxcar width: 0
XAxis mode: Wavelengths
Number of Pixels in Spectrum: 2048
>>>>>Begin Spectral Data<<<<<
341.393	-3.57
341.776	-3.57
342.16	-3.57
342.543	-50.13
342.927	-51.71
343.31	-49.67
343.693	-68.43
344.077	-81.76
344.46	-46.28
344.843	-57.13
345.226	-37.92
345.61	-42.44
345.993	-33.4
346.376	4.79
346.759	11.34
347.142	32.36
347.525	38.69
347.908	62.19
348.291	67.61
348.674	87.72
349.057	112.36
349.44	117.55
349.823	144.45
350.206	170.43
350.588	190.77
350.971	211.79
351.354	224.9
351.737	233.93
352.119	242.3
352.502	263.54
352.884	277.55
353.267	273.26
353.65	289.53
354.032	295.63
354.414	311.9
354.797	314.16
355.179	304.44
355.562	319.58
355.944	322.52
356.326	329.53
356.709	331.11
357.091	339.02
357.473	350.09
357.855	335.4
358.238	339.02
358.62	321.84
359.002	327.94
359.384	341.5
359.766	321.84
360.148	329.98
360.53	344.89
360.912	312.8
361.294	325.91
361.676	345.34
362.057	324.1
362.439	323.42
362.821	321.39
363.203	337.66
363.584	308.28
363.966	322.52
364.348	327.27
364.729	306.02
365.111	320.03
365.493	325.01
365.874	321.39
366.256	313.71
366.637	313.03
367.019	301.96
367.4	302.86
367.781	290.2
368.163	314.84
368.544	308.73
368.925	300.6
369.306	308.06
369.688	319.81
370.069	303.54
370.45	301.73
370.831	306.02
371.212	316.64
371.593	322.52
371.974	316.87
372.355	312.35
372.736	313.93
373.117	321.16
373.498	302.41
373.879	300.37
374.26	328.4
374.641	323.88
375.021	323.65
375.402	321.62
375.783	332.01
376.163	318.23
376.544	324.1
376.925	328.85
377.305	304.44
377.686	344.21
378.066	326.81
378.447	328.17
378.827	333.37
379.208	315.06
379.588	322.07
379.968	317.1
380.349	328.4
380.729	323.2
381.109	317.1
381.489	308.73
381.87	352.35
382.25	315.74
382.63	360.94
383.01	343.54
383.39	337.66
383.77	354.16
384.15	318.45
384.53	349.19
384.91	346.7
385.29	362.29
385.67	353.48
386.049	358.45
386.429	352.58
386.809	346.7
387.189	369.07
387.568	347.83
387.948	339.92
388.328	345.57
388.707	346.7
389.087	346.7
389.466	350.99
389.846	339.92
390.225	365.68
390.605	357.32
390.984	357.1
391.363	346.7
391.743	368.39
392.122	366.81
392.501	370.2
392.881	362.07
393.26	388.28
393.639	352.8
394.018	358
394.397	395.74
394.776	371.11
395.155	374.5
395.534	373.82
395.913	369.75
396.292	375.4
396.671	372.69
397.05	387.38
397.429	393.03
397.808	379.47
398.186	398.45
398.565	398.45
398.944	396.64
399.323	404.33
399.701	403.87
400.08	393.7
400.458	405.46
400.837	396.19
401.215	383.54
401.594	408.17
401.972	406.36
402.351	410.2
402.729	398.68
403.107	415.85
403.486	397.77
403.864	407.72
404.242	435.06
404.62	428.73
404.999	435.29
405.377	423.76
405.755	425.57
406.133	436.42
406.511	439.8
406.889	430.99
407.267	452.23
407.645	445.91
408.023	451.78
408.401	490.88
408.779	460.14
409.156	459.01
409.534	456.98
409.912	488.39
410.29	474.15
410.667	464.89
411.045	473.93
411.422	478
411.8	519.35
412.178	508.73
412.555	508.05
412.933	527.03
413.31	510.09
413.687	519.58
414.065	542.63
414.442	530.65
414.819	550.08
415.197	558.9
415.574	578.33
415.951	555.51
416.328	543.53
416.705	571.33
417.082	579.91
417.46	577.88
417.837	586.47
418.214	570.87
418.591	603.87
418.967	621.95
419.344	604.09
419.721	633.7
420.098	626.47
420.475	649.29
420.852	668.95
421.228	655.17
421.605	665.56
421.982	646.81
422.358	682.96
422.735	670.31
423.111	679.8
423.488	694.94
423.864	688.84
424.241	719.35
424.617	690.42
424.994	684.32
425.37	710.31
425.746	733.36
426.123	726.35
426.499	749.63
426.875	756.63
427.251	772
427.627	757.99
428.003	776.29
428.379	793.47
428.756	750.53
429.132	794.82
429.507	823.98
429.883	824.65
430.259	821.94
430.635	838.44
431.011	834.37
431.387	853.58
431.763	872.79
432.138	894.26
432.514	884.09
432.89	854.48
433.265	883.86
433.641	913.69
434.016	923.18
434.392	916.85
434.767	930.41
435.143	944.2
435.518	930.41
435.894	964.08
436.269	961.37
436.644	970.86
437.02	997.08
437.395	960.24
437.77	1022.84
438.145	999.56
438.52	1030.75
438.895	1036.17
439.271	1056.29
439.646	1027.13
440.021	1053.8
440.395	1054.03
440.77	1056.74
441.145	1039.56
441.52	1099
441.895	1052.67
442.27	1070.52
442.645	1091.31
443.019	1109.39
443.394	1112.33
443.769	1122.5
444.143	1091.09
444.518	1132.44
444.892	1122.27
445.267	1135.15
445.641	1148.03
446.016	1140.58
446.39	1153.01
446.764	1144.19
447.139	1124.53
447.513	1171.09
447.887	1155.04
448.262	1155.49
448.636	1147.36
449.01	1165.21
449.384	1181.03
449.758	1191.88
450.132	1177.64
450.506	1214.93
450.88	1204.76
451.254	1194.14
451.628	1210.86
452.002	1224.64
452.376	1223.96
452.75	1231.2
453.123	1251.08
453.497	1267.35
453.871	1267.81
454.244	1283.17
454.618	1263.74
454.992	1327.92
455.365	1310.74
455.739	1314.58
456.112	1330.85
456.486	1338.31
456.859	1326.11
457.232	1343.74
457.606	1317.07
457.979	1361.36
458.352	1401.14
458.725	1380.57
459.099	1392.1
459.472	1440
459.845	1432.55
460.218	1447.91
460.591	1443.39
460.964	1434.81
461.337	1477.07
461.71	1486.78
462.083	1471.42
462.456	1493.11
462.829	1517.06
463.201	1516.16
463.574	1549.15
463.947	1515.48
464.32	1566.1
464.692	1580.34
465.065	1589.15
465.438	1606.78
465.81	1628.25
466.183	1618.3
466.555	1668.47
466.928	1648.81
467.3	1635.48
467.672	1682.48
468.045	1695.14
468.417	1702.14
468.789	1708.47
469.161	1734.01
469.534	1740.11
469.906	1782.37
470.278	1770.17
470.65	1824.18
471.022	1812.65
471.394	1863.27
471.766	1859.2
472.138	1880.22
472.51	1905.08
472.882	1933.32
473.253	1936.94
473.625	1976.71
473.997	1984.4
474.369	1985.53
474.74	2007.22
475.112	2030.27
475.484	2053.55
475.855	2070.72
476.227	2075.47
476.598	2136.48
476.97	2133.77
477.341	2198.63
477.713	2207.22
478.084	2242.7
478.455	2264.62
478.827	2291.73
479.198	2340.55
479.569	2326.99
479.94	2371.51
480.311	2380.09
480.682	2427.55
481.053	2460.77
481.424	2512.07
481.795	2563.59
482.166	2543.48
482.537	2540.54
482.908	2616.02
483.279	2599.75
483.65	2663.48
484.021	2692.4
484.391	2738.28
484.762	2725.39
485.133	2779.63
485.503	2767.88
485.874	2834.77
486.244	2854.43
486.615	2897.37
486.985	2905.5
487.356	2934.65
487.726	2995.9
488.097	2988.44
488.467	3027.31
488.837	3065.27
489.207	3080.64
489.578	3164.93
489.948	3135.55
490.318	3192.95
490.688	3197.02
491.058	3261.2
491.428	3259.17
491.798	3295.1
492.168	3360.18
492.538	3354.53
492.908	3371.03
493.278	3438.37
493.648	3425.94
494.017	3451.03
494.387	3472.04
494.757	3503.23
495.126	3511.36
495.496	3561.53
495.866	3594.75
496.235	3630.23
496.605	3627.74
496.974	3599.5
497.344	3664.35
497.713	3691.7
498.082	3688.08
498.452	3722.88
498.821	3761.53
499.19	3711.36
499.559	3769.89
499.928	3797.23
500.298	3773.73
500.667	3841.52
501.036	3795.87
501.405	3842.43
501.774	3852.37
502.143	3898.47
502.512	3851.24
502.88	3924.23
503.249	3891.01
503.618	3949.09
503.987	3958.81
504.356	3977.56
504.724	3972.82
505.093	4017.56
505.462	4020.73
505.83	4018.47
506.199	4058.47
506.567	4104.34
506.936	4094.85
507.304	4083.55
507.672	4109.09
508.041	4135.3
508.409	4132.14
508.777	4166.26
509.145	4154.74
509.514	4200.38
509.882	4185.92
510.25	4194.06
510.618	4217.33
510.986	4272.25
511.354	4286.48
511.722	4296.88
512.09	4299.14
512.458	4290.55
512.826	4336.65
513.193	4368.97
513.561	4331.68
513.929	4397.89
514.297	4395.41
514.664	4400.6
515.032	4407.38
515.4	4420.27
515.767	4420.27
516.135	4474.95
516.502	4429.3
516.869	4485.8
517.237	4492.35
517.604	4452.58
517.972	4496.2
518.339	4522.64
518.706	4522.86
519.073	4522.18
519.44	4560.37
519.808	4583.2
520.175	4556.76
520.542	4609.41
520.909	4645.12
521.276	4603.31
521.643	4680.82
522.009	4674.72
522.376	4696.87
522.743	4723.99
523.11	4758.11
523.477	4784.78
523.843	4797.2
524.21	4849.18
524.577	4852.12
524.943	4801.05
525.31	4863.19
525.676	4897.09
526.043	4950.19
526.409	4961.49
526.776	4935.96
527.142	5018.22
527.508	5001.94
527.874	5015.05
528.241	5086.91
528.607	5106.35
528.973	5117.42
529.339	5078.55
529.705	5174.37
530.071	5233.35
530.437	5190.64
530.803	5257.76
531.169	5240.13
531.535	5276.74
531.901	5300.47
532.267	5288.49
532.632	5290.98
532.998	5321.03
533.364	5396.28
533.73	5375.72
534.095	5434.25
534.461	5486.45
534.826	5469.5
535.192	5482.38
535.557	5488.71
535.923	5519.67
536.288	5573.46
536.653	5561.7
537.019	5561.93
537.384	5608.93
537.749	5613.91
538.114	5669.05
538.479	5689.16
538.845	5703.85
539.21	5695.03
539.575	5749.04
539.94	5721.47
540.305	5782.26
540.67	5794.69
541.034	5827.23
541.399	5868.36
541.764	5828.59
542.129	5876.5
542.494	5874.24
542.858	5936.61
543.223	5958.76
543.587	6000.56
543.952	6013.67
544.316	6063.61
544.681	6064.52
545.045	6065.87
545.41	6124.18
545.774	6153.55
546.138	6131.63
546.503	6148.58
546.867	6187.68
547.231	6248.01
547.595	6251.63
547.959	6291.63
548.324	6277.17
548.688	6309.71
549.052	6336.82
549.416	6328.92
549.779	6350.38
550.143	6383.83
550.507	6436.26
550.871	6487.33
551.235	6433.55
551.599	6505.18
551.962	6510.15
552.326	6528.01
552.689	6539.98
553.053	6499.31
553.417	6490.49
553.78	6586.31
554.143	6617.72
554.507	6602.13
554.87	6626.31
555.234	6729.81
555.597	6682.58
555.96	6699.75
556.323	6790.82
556.686	6768.23
557.05	6758.51
557.413	6771.84
557.776	6792.86
558.139	6852.52
558.502	6895.68
558.865	6875.12
559.228	6879.64
559.59	6940.88
559.953	6951.72
560.316	7012.97
560.679	6941.55
561.041	7095.22
561.404	7046.86
561.767	7077.37
562.129	7080.76
562.492	7116.92
562.854	7111.27
563.217	7177.48
563.579	7170.25
563.941	7237.37
564.304	7242.11
564.666	7268.1
565.028	7275.56
565.39	7306.74
565.753	7386.97
566.115	7358.72
566.477	7410.69
566.839	7388.55
567.201	7423.8
567.563	7461.32
567.925	7553.29
568.287	7564.36
568.648	7555.1
569.01	7525.72
569.372	7625.83
569.734	7607.53
570.095	7694.08
570.457	7659.73
570.819	7730.69
571.18	7738.37
571.542	7798.48
571.903	7864.92
572.265	7870.34
572.626	7931.13
572.987	7974.97
573.349	7975.65
573.71	8073.73
574.071	8082.77
574.432	8163.22
574.794	8260.62
575.155	8277.56
575.516	8259.03
575.877	8350.11
576.238	8433.49
576.599	8504.23
576.96	8612.47
577.32	8605.69
577.681	8726.37
578.042	8822.86
578.403	8799.59
578.763	8942.63
579.124	9023.31
579.485	9201.38
579.845	9299.91
580.206	9320.7
580.566	9466.46
580.927	9600.69
581.287	9753.68
581.648	9822.61
582.008	9981.7
582.368	10101.7
582.728	10228.47
583.089	10405.87
583.449	10555.02
583.809	10677.5
584.169	10917.04
584.529	11067.32
584.889	11376.01
585.249	11483.36
585.609	11616.46
585.969	11920.18
586.329	12056.45
586.688	12280.4
587.048	12571.01
587.408	12794.96
587.768	13121.51
588.127	13225.68
588.487	13460.93
588.846	13720.36
589.206	13875.61
589.565	14232.21
589.925	14582.94
590.284	14709.03
590.643	15039.42
591.003	15342.46
591.362	15571.84
591.721	15873.98
592.08	16204.59
592.44	16505.82
592.799	16784.23
593.158	17045.24
593.517	17342.64
593.876	17674.38
594.235	17868.27
594.593	18331.54
594.952	18495.6
595.311	18809.27
595.67	19122.03
596.029	19581.45
596.387	19797.49
596.746	20035.45
597.104	20280.87
597.463	20662.1
597.822	21000.62
598.18	21070.9
598.538	21526.48
598.897	21883.76
599.255	21936.87
599.613	22641.71
599.972	22777.75
600.33	23185.42
600.688	23362.37
601.046	23680.1
601.404	24076.7
601.762	24289.12
602.12	24708.32
602.478	24938.37
602.836	25217.68
603.194	25373.16
603.552	25616.32
603.91	25875.52
604.268	26188.28
604.625	26455.17
604.983	26745.1
605.341	26904.42
605.698	27226.9
606.056	27592.76
606.413	27821.68
606.771	28019.87
607.128	28389.13
607.485	28431.39
607.843	28679.29
608.2	29042.89
608.557	29352.94
608.914	29419.38
609.272	29801.52
609.629	30069.76
609.986	30233.15
610.343	30402.86
610.7	30807.37
611.057	31027.25
611.414	31048.04
611.771	31299.11
612.127	31613.67
612.484	31737.29
612.841	32006.66
613.198	32003.72
613.554	32296.59
613.911	32613.42
614.267	32677.15
614.624	32858.84
614.98	33067.87
615.337	33336.34
615.693	33474.64
616.05	33587.41
616.406	33834.86
616.762	33927.74
617.118	34042.99
617.475	34172.03
617.831	34433.04
618.187	34575.4
618.543	34745.57
618.899	34903.76
619.255	35174.26
619.611	35145.11
619.967	35406.57
620.323	35579.9
620.678	35552.55
621.034	35581.71
621.39	35767.24
621.746	35650.63
622.101	36396.15
622.457	36083.39
622.812	36402.25
623.168	36426.66
623.523	36522.92
623.879	36679.3
624.234	36509.14
624.589	36757.04
624.945	36844.95
625.3	37076.36
625.655	37005.85
626.01	37006.3
626.365	37157.26
626.72	37130.82
627.075	37152.29
627.43	37272.06
627.785	37316.58
628.14	37428.21
628.495	37553.86
628.85	37391.15
629.205	37510.47
629.559	37843.79
629.914	37600.18
630.269	37775.32
630.623	37643.12
630.978	37664.14
631.332	37806.51
631.687	38005.14
632.041	37787.98
632.396	37985.71
632.75	37851.25
633.104	37962.21
633.459	37985.03
633.813	37931.02
634.167	37927.41
634.521	38005.37
634.875	38046.73
635.229	38048.08
635.583	37992.04
635.937	37927.18
636.291	38090.79
636.645	37989.33
636.999	37942.32
637.352	38122.43
637.706	37955.2
638.06	38054.86
638.413	37915.2
638.767	38034.3
639.121	38064.8
639.474	37818.03
639.828	37947.29
640.181	37987.29
640.534	37965.6
640.888	37958.82
641.241	37931.7
641.594	37902.32
641.947	38046.27
642.301	37934.19
642.654	37938.71
643.007	37901.19
643.36	37898.25
643.713	37837.69
644.066	38092.15
644.419	37870.46
644.771	37564.25
645.124	37218.72
645.477	37339.17
645.83	36982.8
646.182	36945.51
646.535	36773.09
646.888	36861.22
647.24	36718.4
647.593	36914.33
647.945	36851.95
648.298	36667.55
648.65	36655.35
649.002	36556.14
649.355	36847.21
649.707	36706.42
650.059	36859.19
650.411	37226.18
650.763	37172.62
651.115	37626.62
651.467	37507.76
651.819	37510.47
652.171	37543.01
652.523	37412.17
652.875	37432.73
653.227	37288.55
653.578	37627.98
653.93	37436.8
654.282	37289.91
654.633	37247.2
654.985	37322.9
655.337	37374.43
655.688	37350.02
656.039	37507.76
656.391	37234.54
656.742	37169.69
657.094	37242
657.445	37367.42
657.796	37160.65
658.147	37135.79
658.498	37088.78
658.849	37267.99
659.2	37156.35
659.551	37189.57
659.902	37258.95
660.253	37099.18
660.604	37353.41
660.955	37101.21
661.306	37214.43
661.656	37150.48
662.007	37127.43
662.358	37293.07
662.708	37163.13
663.059	36984.61
663.409	36945.51
663.76	37210.59
664.11	37083.36
664.461	37199.29
664.811	37109.35
665.161	37037.49
665.511	37126.52
665.862	37207.43
666.212	37074.77
666.562	37148.44
666.912	37124.49
667.262	37091.27
667.612	37035.23
667.962	36985.74
668.312	37075.68
668.662	37086.75
669.011	37133.76
669.361	36932.63
669.711	37056.02
670.06	36948.9
670.41	36804.72
670.76	36938.05
671.109	37039.75
671.459	37018.05
671.808	36770.6
672.157	37009.24
672.507	36695.8
672.856	36912.07
673.205	36679.08
673.554	37008.56
673.904	36792.75
674.253	36927.43
674.602	36813.54
674.951	36318.64
675.3	36122.03
675.649	36830.49
675.998	36670.72
676.346	36714.78
676.695	36873.65
677.044	36552.3
677.393	36686.31
677.741	36596.37
678.09	36431.4
678.438	36536.71
678.787	36597.27
679.135	36550.72
679.484	36242.71
679.832	36448.35
680.181	36293.55
680.529	36363.15
680.877	36283.83
681.225	36275.92
681.573	36447.22
681.922	36251.74
682.27	36098.98
682.618	36100.56
682.966	36023.28
683.314	36101.69
683.661	36044.97
684.009	35799.78
684.357	35797.52
684.705	35879.1
685.053	35747.13
685.4	35694.02
685.748	35568.82
686.095	35560.92
686.443	35439.34
686.79	35354.82
687.138	35512.33
687.485	35393.91
687.832	35273.01
688.18	35340.58
688.527	35093.13
688.874	35141.94
689.221	35031.66
689.568	34963.87
689.915	34923.42
690.262	35027.6
690.609	34741.73
690.956	34633.48
691.303	34664.67
691.65	34525.24
691.997	34604.1
692.344	34311.23
692.69	34334.51
693.037	34262.87
693.383	34031.24
693.73	34158.47
694.077	33906.95
694.423	33935.87
694.769	33830.11
695.116	33829.66
695.462	33614.3
695.808	33577.69
696.155	33612.27
696.501	33460.63
696.847	33373.63
697.193	33168.66
697.539	33393.06
697.885	33140.19
698.231	33021.1
698.577	33044.15
698.923	32995.56
699.269	32707.2
699.614	32725.74
699.96	32680.09
700.306	32657.04
700.651	32624.95
700.997	32407.33
701.342	32397.83
701.688	32381.56
702.033	32165.3
702.379	32265.41
702.724	32122.36
703.069	32239.19
703.415	31845.98
703.76	31747.68
704.105	31934.8
704.45	31836.95
704.795	31595.6
705.14	31568.48
705.485	31501.13
705.83	31276.06
706.175	31304.76
706.52	31404.64
706.865	31134.59
707.209	31086.23
707.554	31086
707.899	31159.68
708.243	30892.11
708.588	30872.9
708.932	30764.43
709.277	30602.63
709.621	30665.9
709.966	30523.31
710.31	30506.36
710.654	30228.4
710.998	30445.57
711.342	30299.58
711.687	30162.87
712.031	30112.02
712.375	30070.21
712.719	30008.74
713.063	29924.91
713.407	30159.02
713.75	29903.44
714.094	29871.35
714.438	29797.9
714.782	29706.38
715.125	29609.89
715.469	29680.62
715.812	29560.85
716.156	29320.85
716.499	29401.76
716.843	29564.91
717.186	29195.43
717.53	29348.42
717.873	29398.37
718.216	29348.2
718.559	29137.58
718.902	29018.04
719.246	29043.12
719.589	28946.4
719.932	28905.95
720.275	28860.07
720.617	28740.76
720.96	28758.61
721.303	28666.18
721.646	28775.33
721.989	28540.08
722.331	28626.86
722.674	28513.19
723.016	28516.81
723.359	28526.07
723.701	28566.97
724.044	28301.45
724.386	28178.96
724.729	28405.17
725.071	28225.97
725.413	28300.32
725.755	28286.08
726.097	28088.34
726.439	27894.45
726.782	27996.82
727.124	28089.02
727.465	27888.8
727.807	27803.38
728.149	27786.66
728.491	27723.83
728.833	27828.69
729.175	27591.63
729.516	27704.17
729.858	27609.94
730.199	27608.58
730.541	27510.73
730.882	27515.03
731.224	27546.66
731.565	27466.89
731.906	27305.31
732.248	27374.01
732.589	27238.42
732.93	27216.05
733.271	27160.91
733.612	27216.05
733.953	27185.09
734.294	27058.09
734.635	26968.37
734.976	27039.33
735.317	26861.93
735.658	26950.97
735.999	26788.26
736.339	26761.15
736.68	26928.6
737.021	26761.82
737.361	26712.79
737.702	26830.07
738.042	26636.4
738.383	26610.64
738.723	26653.58
739.063	26546.46
739.404	26615.61
739.744	26394.6
740.084	26336.07
740.424	26498.78
740.764	26319.8
741.104	26435.51
741.444	26338.33
741.784	26231.67
742.124	26188.51
742.464	26171.11
742.804	26144.67
743.143	26036.42
743.483	26042.75
743.823	25968.85
744.162	26004.33
744.502	26080.71
744.841	25917.33
745.181	25997.32
745.52	25875.52
745.86	25872.13
746.199	25855.18
746.538	25778.57
746.877	25785.81
747.216	25772.25
747.556	25734.96
747.895	25662.64
748.234	25478.69
748.573	25471.24
748.911	25474.4
749.25	25483.44
749.589	25368.41
749.928	25370
750.267	25415.87
750.605	25353.95
750.944	25197.35
751.283	25083
751.621	25149.89
751.96	25090.23
752.298	24949.22
752.636	25070.57
752.975	24904.47
753.313	24711.48
753.651	24851.82
753.989	24754.19
754.327	24760.75
754.666	24664.7
755.004	24646.63
755.342	24582.9
755.679	24540.87
756.017	24390.36
756.355	24442.34
756.693	24362.34
757.031	24349.68
757.368	24254.55
757.706	24230.37
758.044	24185.85
758.381	24148.79
758.719	24106.53
759.056	24007.09
759.394	23929.13
759.731	23720.77
760.068	23730.04
760.405	23694.56
760.743	23620.44
761.08	23546.32
761.417	23474.23
761.754	23415.7
762.091	23327.56
762.428	23332.08
762.765	23163.28
763.102	23166.66
763.438	23037.4
763.775	23081.7
764.112	23036.95
764.449	22987.23
764.785	22833.34
765.122	22697.07
765.458	22722.16
765.795	22568.26
766.131	22373.01
766.467	22428.83
766.804	22407.81
767.14	22337.53
767.476	22328.72
767.812	22197.2
768.148	22118.56
768.485	22159.46
768.821	22006.7
769.157	22070.2
769.492	21861.84
769.828	21882.86
770.164	21656.42
770.5	21617.78
770.836	21658
771.171	21492.81
771.507	21485.81
771.842	21270.67
772.178	21336.88
772.513	21201.07
772.849	21288.07
773.184	21076.1
773.519	21048.3
773.855	20912.71
774.19	20912.26
774.525	20845.14
774.86	20718.14
775.195	20729.67
775.53	20677.46
775.865	20517.92
776.2	20443.35
776.535	20277.25
776.87	20304.14
777.205	20199.51
777.539	20103.02
777.874	20143.02
778.209	19951.61
778.543	19908.45
778.878	19853.31
779.212	19766.98
779.547	19606.53
779.881	19759.3
780.215	19510.04
780.55	19563.14
780.884	19368.8
781.218	19444.5
781.552	19361.34
781.886	19269.14
782.22	19143.49
782.554	19103.49
782.888	18967.45
783.222	18788.02
783.556	18786.89
783.889	18818.08
784.223	18711.64
784.557	18691.53
784.89	18613.34
785.224	18447.92
785.557	18434.81
785.891	18357.98
786.224	18297.19
786.558	18185.33
786.891	18101.04
787.224	18037.31
787.557	18034.37
787.891	17988.04
788.224	18026.91
788.557	18030.98
788.89	17887.93
789.223	17874.37
789.556	17661.27
789.888	17615.4
790.221	17557.09
790.554	17438.23
790.887	17517.32
791.219	17402.52
791.552	17415.4
791.884	17306.48
792.217	17205.24
792.549	17209.08
792.882	17065.58
793.214	16999.14
793.546	17028.75
793.879	16931.35
794.211	16825.81
794.543	16847.28
794.875	16790.34
795.207	16848.19
795.539	16647.51
795.871	16739.04
796.203	16552.83
796.535	16466.05
796.867	16487.07
797.198	16370.91
797.53	16374.53
797.862	16236
798.193	16205.94
798.525	16015.21
798.856	16201.65
799.188	16018.15
799.519	15938.61
799.85	15859.51
800.182	15873.75
800.513	15816.35
800.844	15762.57
801.175	15749.91
801.506	15803.02
801.837	15644.83
802.168	15626.07
802.499	15621.33
802.83	15384.72
803.161	15459.97
803.491	15478.05
803.822	15481.22
804.153	15397.15
804.483	15142.24
804.814	15206.87
805.145	15186.54
805.475	15165.52
805.805	15088.69
806.136	15048.91
806.466	15072.64
806.796	15036.03
807.126	14874.45
807.457	14870.61
807.787	14829.48
808.117	14711.97
808.447	14723.95
808.777	14835.81
809.107	14736.38
809.436	14651.18
809.766	14683.72
810.096	14622.93
810.426	14570.51
810.755	14527.34
811.085	14478.76
811.414	14436.05
811.744	14304.53
812.073	14343.39
812.403	14311.76
812.732	14232.44
813.061	14213
813.39	14167.35
813.719	14028.6
814.049	14154.7
814.378	14092.1
814.707	14044.19
815.036	13990.86
815.365	13978.88
815.693	13707.7
816.022	13824.09
816.351	13776.63
816.68	13779.79
817.008	13732.56
817.337	13693.92
817.665	13600.59
817.994	13683.07
818.322	13552
818.651	13580.25
818.979	13562.85
819.307	13603.3
819.636	13528.95
819.964	13409.41
820.292	13472.68
820.62	13446.02
820.948	13370.76
821.276	13441.72
821.604	13295.06
821.932	13383.19
822.259	13451.44
822.587	13427.49
822.915	13330.77
823.243	13425
823.57	13366.02
823.898	13385.91
824.225	13272.46
824.553	13284.44
824.88	13316.75
825.207	13415.73
825.535	13255.97
825.862	13313.36
826.189	13296.19
826.516	13402.63
826.843	13319.92
827.17	13385
827.497	13378
827.824	13293.7
828.151	13411.22
828.478	13293.7
828.805	13370.31
829.131	13288.28
829.458	13355.62
829.785	13241.95
830.111	13248.73
830.438	13356.08
830.764	13239.69
831.09	13302.07
831.417	13243.99
831.743	13273.37
832.069	13258.22
832.395	13246.02
832.722	13235.17
833.048	13163.09
833.374	13257.55
833.7	13233.59
834.026	13162.63
834.351	13181.62
834.677	13195.18
835.003	13214.38
835.329	13130.32
835.654	13146.36
835.98	13034.28
836.306	13119.02
836.631	12956.31
836.956	13079.7
837.282	12993.15
837.607	13069.76
837.932	12963.54
838.258	12943.2
838.583	12987.05
838.908	13000.38
839.233	12911.12
839.558	12865.24
839.883	12856.65
840.208	12781.63
840.533	12790.67
840.858	12772.14
841.182	12782.76
841.507	12765.58
841.832	12626.83
842.156	12714.74
842.481	12663.66
842.805	12585.7
843.13	12626.15
843.454	12459.6
843.778	12517.68
844.103	12510.45
844.427	12478.81
844.751	12513.84
845.075	12434.29
845.399	12359.04
845.723	12339.38
846.047	12262.32
846.371	12268.87
846.695	12253.73
847.019	12171.25
847.343	12010.12
847.666	12010.35
847.99	11994.53
848.313	11908.88
848.637	11911.14
848.96	11873.18
849.284	11752.5
849.607	11757.47
849.931	11739.17
850.254	11665.5
850.577	11539.17
850.9	11526.52
851.223	11536.69
851.546	11380.08
851.869	11363.36
852.192	11406.75
852.515	11284.04
852.838	11237.49
853.161	11244.04
853.483	11201.1
853.806	11183.03
854.129	11128.34
854.451	11064.16
854.774	11023.48
855.096	10976.7
855.419	11013.31
855.741	10931.28
856.063	10910.49
856.385	10854.22
856.708	10801.79
857.03	10798.85
857.352	10737.39
857.674	10710.04
857.996	10756.82
858.318	10639.08
858.64	10638.63
858.961	10638.63
859.283	10617.16
859.605	10552.99
859.926	10597.28
860.248	10437.96
860.57	10467.56
860.891	10540.78
861.212	10444.29
861.534	10419.88
861.855	10424.85
862.176	10398.41
862.498	10380.79
862.819	10374.68
863.14	10295.36
863.461	10255.37
863.782	10310.28
864.103	10190.73
864.424	10201.81
864.745	10216.5
865.065	10154.58
865.386	10244.74
865.707	10181.7
866.027	10232.09
866.348	10037.29
866.668	10073.45
866.989	10066.22
867.309	10056.73
867.63	10006.33
867.95	10018.54
868.27	9964.75
868.59	9939.22
868.91	9928.82
869.23	9971.31
869.55	9926.11
869.87	9965.2
870.19	9971.08
870.51	9935.6
870.83	9922.95
871.15	9873.23
871.469	9809.95
871.789	9915.26
872.109	9823.29
872.428	9804.3
872.748	9893.79
873.067	9780.12
873.386	9807.02
873.706	9775.6
874.025	9752.78
874.344	9695.38
874.663	9710.52
874.982	9614.7
875.301	9621.94
875.62	9641.37
875.939	9621.94
876.258	9559.11
876.577	9561.15
876.896	9561.37
877.214	9499
877.533	9507.36
877.852	9528.83
878.17	9487.25
878.489	9525.89
878.807	9439.12
879.125	9477.76
879.444	9526.57
879.762	9442.96
880.08	9463.3
880.398	9340.14
880.716	9374.26
881.034	9341.27
881.352	9303.98
881.67	9261.49
881.988	9317.76
882.306	9268.05
882.624	9275.96
882.941	9256.07
883.259	9162.51
883.577	9156.86
883.894	9076.19
884.212	9188.28
884.529	9188.28
884.846	9104.21
885.164	9030.99
885.481	9027.83
885.798	9042.06
886.115	8937.43
886.432	8981.5
886.75	8931.33
887.067	8923.88
887.383	8915.97
887.7	8980.82
888.017	8884.1
888.334	8869.64
888.651	8900.15
888.967	8837.1
889.284	8725.24
889.6	8773.82
889.917	8690.44
890.233	8691.79
890.55	8665.58
890.866	8690.66
891.182	8617.89
891.498	8649.76
891.815	8561.4
892.131	8571.34
892.447	8532.47
892.763	8447.28
893.079	8441.18
893.395	8419.26
893.71	8445.7
894.026	8442.53
894.342	8398.24
894.657	8342.87
894.973	8309.2
895.289	8327.96
895.604	8398.47
895.92	8335.42
896.235	8188.3
896.55	8205.48
896.865	8204.57
897.181	8155.53
897.496	8133.16
897.811	8130.45
898.126	8097.91
898.441	8050.23
898.756	8050.23
899.071	8025.37
899.386	8017.01
899.7	7932.94
900.015	7925.94
900.33	7877.8
900.644	7852.49
900.959	7819.27
901.273	7798.71
901.588	7782.89
901.902	7740.18
902.216	7684.81
902.531	7701.76
902.845	7706.73
903.159	7663.34
903.473	7610.01
903.787	7527.98
904.101	7486.4
904.415	7474.42
904.729	7478.04
905.042	7439.85
905.356	7440.3
905.67	7416.34
905.984	7419.51
906.297	7367.98
906.611	7325.05
906.924	7261.09
907.237	7280.08
907.551	7175.67
907.864	7243.02
908.177	7224.94
908.491	7208.21
908.804	7140.42
909.117	7098.39
909.43	7068.78
909.743	7036.47
910.056	7040.31
910.368	6990.82
910.681	6952.63
910.994	6913.76
911.307	6914.44
911.619	6813.87
911.932	6844.38
912.244	6817.94
912.557	6777.72
912.869	6744.5
913.181	6732.29
913.494	6694.33
913.806	6686.87
914.118	6659.3
914.43	6648
914.742	6603.94
915.054	6605.74
915.366	6565.52
915.678	6508.12
915.99	6488.69
916.302	6452.3
916.613	6379.31
916.925	6441.45
917.236	6367.78
917.548	6446.88
917.859	6310.16
918.171	6322.81
918.482	6230.16
918.794	6256.15
919.105	6225.42
919.416	6171.86
919.727	6259.54
920.038	6148.13
920.349	6162.14
920.66	6053.22
920.971	6065.42
921.282	6025.19
921.593	6044.18
921.903	6006.66
922.214	5974.57
922.525	5939.1
922.835	5921.92
923.146	5859.78
923.456	5904.75
923.767	5838.08
924.077	5856.39
924.387	5820
924.697	5789.72
925.008	5781.59
925.318	5706.11
925.628	5726.9
925.938	5660.46
926.248	5644.87
926.558	5581.36
926.867	5574.81
927.177	5607.13
927.487	5594.02
927.796	5541.37
928.106	5490.75
928.416	5449.16
928.725	5485.32
929.034	5428.37
929.344	5405.55
929.653	5448.03
929.962	5389.96
930.271	5302.28
930.581	5345.44
930.89	5316.51
931.199	5244.2
931.508	5244.42
931.817	5251.88
932.125	5228.61
932.434	5221.37
932.743	5163.97
933.051	5136.63
933.36	5133.69
933.669	5081.04
933.977	5083.3
934.286	5081.72
934.594	5053.24
934.902	5020.02
935.21	4998.78
935.519	5034.26
935.827	4989.97
936.135	4961.27
936.443	4892.12
936.751	4882.4
937.059	4891.21
937.367	4869.29
937.674	4829.29
937.982	4835.17
938.29	4763.31
938.597	4796.53
938.905	4765.11
939.213	4753.14
939.52	4690.99
939.827	4666.59
940.135	4720.6
940.442	4668.85
940.749	4679.92
941.056	4677.21
941.363	4573.03
941.67	4601.28
941.977	4556.31
942.284	4537.1
942.591	4522.86
942.898	4454.84
943.205	4491.68
943.511	4468.4
943.818	4442.19
944.125	4405.35
944.431	4400.38
944.738	4408.29
945.044	4371
945.35	4354.28
945.657	4356.76
945.963	4311.34
946.269	4314.51
946.575	4298.46
946.881	4264.56
947.187	4278.57
947.493	4221.4
947.799	4205.36
948.105	4210.78
948.41	4161.97
948.716	4185.24
949.022	4147.73
949.327	4135.98
949.633	4084.91
949.938	4108.86
950.244	4048.3
950.549	4031.35
950.854	4022.31
951.16	4040.61
951.465	4032.7
951.77	3996.55
952.075	3967.17
952.38	3959.94
952.685	3907.06
952.99	3919.71
953.294	3879.94
953.599	3854.86
953.904	3852.6
954.209	3827.74
954.513	3868.19
954.818	3827.96
955.122	3769.89
955.426	3767.63
955.731	3769.43
956.035	3731.92
956.339	3765.14
956.643	3692.37
956.948	3701.87
957.252	3715.2
957.556	3691.7
957.86	3636.33
958.163	3645.82
958.467	3632.72
958.771	3600.85
959.075	3575.32
959.378	3569.44
959.682	3559.04
959.985	3563.11
960.289	3519.95
960.592	3507.75
960.896	3506.39
961.199	3497.35
961.502	3496
961.805	3490.35
962.108	3420.52
962.411	3429.56
962.714	3365.15
963.017	3420.97
963.32	3372.61
963.623	3336.45
963.926	3363.57
964.228	3303.01
964.531	3299.62
964.833	3305.27
965.136	3289.9
965.438	3261.88
965.741	3206.06
966.043	3249
966.345	3222.56
966.648	3203.8
966.95	3213.97
967.252	3202.22
967.554	3179.17
967.856	3174.87
968.158	3108.44
968.46	3134.42
968.761	3115.67
969.063	3111.6
969.365	3117.47
969.666	3070.02
969.968	3071.83
970.269	3041.77
970.571	3018.04
970.872	3056.01
971.174	3008.32
971.475	2994.09
971.776	2992.28
972.077	2959.51
972.378	2955.9
972.679	2943.24
972.98	2918.16
973.281	2904.6
973.582	2918.38
973.883	2920.42
974.183	2887.2
974.484	2884.49
974.785	2862.34
975.085	2825.96
975.386	2817.82
975.686	2803.81
975.986	2768.78
976.287	2792.06
976.587	2760.87
976.887	2747.54
977.187	2779.4
977.487	2773.53
977.787	2736.92
978.087	2707.54
978.387	2706.19
978.687	2705.28
978.987	2674.32
979.286	2689.69
979.586	2700.08
979.885	2652.63
980.185	2630.26
980.484	2617.15
980.784	2633.19
981.083	2635.68
981.382	2606.53
981.682	2589.35
981.981	2574.44
982.28	2588
982.579	2529.24
982.878	2553.87
983.177	2523.59
983.475	2522.69
983.774	2507.32
984.073	2479.3
984.372	2462.8
984.67	2478.85
984.969	2507.32
985.267	2491.95
985.566	2460.54
985.864	2446.98
986.162	2451.05
986.461	2446.76
986.759	2388.23
987.057	2401.34
987.355	2401.11
987.653	2392.97
987.951	2356.59
988.249	2371.73
988.547	2324.95
988.844	2322.92
989.142	2331.05
989.44	2312.3
989.737	2313.2
990.035	2316.37
990.332	2312.07
990.63	2296.71
990.927	2247.67
991.224	2254.22
991.521	2208.57
991.819	2201.57
992.116	2201.11
992.413	2229.59
992.71	2201.57
993.006	2168.57
993.303	2155.24
993.6	2161.57
993.897	2160.66
994.193	2142.36
994.49	2123.15
994.787	2144.84
995.083	2109.37
995.379	2108.91
995.676	2099.2
995.972	2140.33
996.268	2085.41
996.565	2100.33
996.861	2057.39
997.157	2035.24
997.453	2039.08
997.749	2038.18
998.044	2010.16
998.34	1984.4
998.636	1984.17
998.932	1967
999.227	1967.22
999.523	1943.72
999.818	1936.26
1000.114	1927.68
1000.409	1923.16
1000.704	1948.47
1001	1920.22
1001.295	1920.22
1001.59	1891.29
1001.885	1895.59
1002.18	1880.44
1002.475	1887.9
1002.77	1866.43
1003.065	1833.21
1003.359	1838.19
1003.654	1837.06
1003.949	1834.12
1004.243	1835.47
1004.538	1798.87
1004.832	1802.25
1005.127	1782.14
1005.421	1730.17
1005.715	1776.49
1006.009	1763.16
1006.304	1729.49
1006.598	1753.67
1006.892	1741.47
1007.186	1705.08
1007.48	1731.52
1007.773	1690.85
1008.067	1680.45
1008.361	1663.73
1008.655	1670.73
1008.948	1635.25
1009.242	1669.6
1009.535	1627.57
1009.829	1626.89
1010.122	1640.45
1010.415	1612.43
1010.708	1590.28
1011.001	1599.55
1011.295	1590.96
1011.588	1598.87
1011.881	1584.86
1012.173	1547.8
1012.466	1555.48
1012.759	1559.78
1013.052	1532.66
1013.344	1543.73
1013.637	1543.28
1013.93	1491.75
1014.222	1503.51
1014.514	1496.5
1014.807	1505.31
1015.099	1481.59
1015.391	1477.74
1015.683	1439.78
1015.976	1445.43
1016.268	1440
1016.56	1418.31
1016.851	1453.56
1017.143	1420.8
1017.435	1432.32
1017.727	1389.84
1018.018	1372.44
1018.31	1388.93
1018.602	1369.05
1018.893	1353.45
1019.185	1356.84
1019.476	1362.72
1019.767	1338.54
1020.058	1335.6
1020.35	1307.13
1020.641	1320.01
1020.932	1313
1021.223	1305.09
1021.514	1278.65
1021.804	1266.45
1022.095	1268.48
1022.386	1272.1
1022.677	1266.9
1022.967	1275.49
1023.258	1235.49
1023.548	1217.64
1023.839	1243.17
1024.129	1222.84
1024.419	1225.55
1024.709	1209.73
1025	1207.47
1025.29	1209.73
1025.58	1161.82
1025.87	1150.52
1026.16	1167.24
1026.449	1186.23
1026.739	1155.49
1027.029	1160.01
1027.319	1139.67
1027.608	1128.15
1027.898	1128.15
1028.187	1120.69
1028.477	1113.46
1028.766	1091.99
1029.055	1098.54
1029.344	1087.02
1029.634	1056.51
1029.923	1085.89
1030.212	1068.49
1030.501	1079.11
1030.79	1056.74
1031.078	1028.94
1031.367	1021.26
1031.656	1025.33
1031.945	1034.82
1032.233	1009.06
1032.522	1026.68
1032.81	1021.26
1033.099	1004.99
1033.387	1004.54
1033.675	990.52
1033.963	981.26
1034.251	970.86
1034.54	967.93
1034.828	970.86
1035.116	964.76
1035.403	935.84
1035.691	955.5
1035.979	946.46
1036.267	940.36
1036.554	934.48
1036.842	934.93
1037.129	904.88
1037.417	926.12
1037.704	913.69
1037.992	891.77
1038.279	900.58
1038.566	914.59
1038.853	914.59
1039.14	914.59
