Data from hue_190_FLMS001491_00060.txt Node
Date: Tue Feb 07 16:45:29 GMT 2017
User: dcchb
Spectrometer: FLMS00149
Trigger mode: 0
Integration Time (sec): 2.000000E-2
Scans to average: 10
Electric dark correction enabled: true
Nonlinearity correction enabled: false
Boxcar width: 0
XAxis mode: Wavelengths
Number of Pixels in Spectrum: 2048
>>>>>Begin Spectral Data<<<<<
341.393	7.73
341.776	7.73
342.16	7.73
342.543	-59.62
342.927	-63.68
343.31	-31.82
343.693	-58.49
344.077	-81.09
344.46	-51.26
344.843	-65.94
345.226	-50.35
345.61	-30.69
345.993	-21.2
346.376	12.25
346.759	-8.77
347.142	34.17
347.525	62.64
347.908	46.82
348.291	63.32
348.674	82.3
349.057	98.12
349.44	113.03
349.823	129.98
350.206	168.4
350.588	206.14
350.971	208.85
351.354	200.26
351.737	228.96
352.119	257.44
352.502	256.53
352.884	255.4
353.267	273.71
353.65	297.44
354.032	299.02
354.414	310.09
354.797	303.99
355.179	303.09
355.562	322.07
355.944	330.66
356.326	340.37
356.709	328.4
357.091	328.4
357.473	320.71
357.855	342.18
358.238	318.45
358.62	356.42
359.002	333.14
359.384	326.14
359.766	334.72
360.148	332.91
360.53	323.88
360.912	323.88
361.294	334.27
361.676	328.17
362.057	326.14
362.439	334.27
362.821	313.48
363.203	318
363.584	334.04
363.966	318
364.348	313.71
364.729	296.76
365.111	306.47
365.493	306.47
365.874	305.35
366.256	318
366.637	325.91
367.019	306.02
367.4	308.28
367.781	311.45
368.163	309.64
368.544	300.37
368.925	305.57
369.306	316.87
369.688	322.29
370.069	317.1
370.45	294.27
370.831	296.53
371.212	299.02
371.593	314.61
371.974	301.28
372.355	310.54
372.736	302.63
373.117	311.22
373.498	332.46
373.879	311.9
374.26	316.87
374.641	295.4
375.021	327.27
375.402	320.71
375.783	320.71
376.163	326.81
376.544	306.47
376.925	321.16
377.305	328.62
377.686	337.66
378.066	312.12
378.447	310.77
378.827	322.29
379.208	326.81
379.588	316.42
379.968	313.25
380.349	340.6
380.729	301.28
381.109	330.66
381.489	325.46
381.87	328.4
382.25	340.6
382.63	330.2
383.01	318.68
383.39	318.68
383.77	328.85
384.15	331.79
384.53	376.08
384.91	350.54
385.29	335.85
385.67	339.02
386.049	358.45
386.429	333.14
386.809	342.41
387.189	357.55
387.568	363.2
387.948	357.32
388.328	368.39
388.707	350.99
389.087	353.25
389.466	364.1
389.846	354.61
390.225	357.1
390.605	367.94
390.984	348.73
391.363	369.07
391.743	365.46
392.122	379.24
392.501	350.77
392.881	365.23
393.26	395.96
393.639	353.48
394.018	358
394.397	398.9
394.776	380.15
395.155	385.34
395.534	381.5
395.913	381.28
396.292	361.16
396.671	394.16
397.05	408.17
397.429	362.52
397.808	384.44
398.186	401.84
398.565	399.81
398.944	382.18
399.323	387.38
399.701	399.35
400.08	393.48
400.458	417.43
400.837	407.94
401.215	402.52
401.594	408.17
401.972	414.95
402.351	420.37
402.729	412.01
403.107	409.52
403.486	423.31
403.864	452.23
404.242	434.61
404.62	435.06
404.999	446.13
405.377	437.32
405.755	453.36
406.133	456.75
406.511	456.53
406.889	448.62
407.267	472.8
407.645	454.72
408.023	475.96
408.401	499.46
408.779	477.54
409.156	493.14
409.534	484.1
409.912	486.58
410.29	493.81
410.667	512.8
411.045	528.16
411.422	532.91
411.8	548.5
412.178	556.41
412.555	547.6
412.933	575.39
413.31	573.81
413.687	582.17
414.065	553.47
414.442	590.08
414.819	593.7
415.197	597.77
415.574	619.01
415.951	620.59
416.328	623.53
416.705	636.86
417.082	652
417.46	630.53
417.837	649.52
418.214	683.87
418.591	656.07
418.967	697.2
419.344	705.56
419.721	707.59
420.098	677.09
420.475	707.59
420.852	718.44
421.228	745.11
421.605	751.44
421.982	771.77
422.358	780.36
422.735	775.62
423.111	775.39
423.488	811.77
423.864	829.4
424.241	841.83
424.617	841.6
424.994	863.97
425.37	886.12
425.746	868.04
426.123	875.05
426.499	895.16
426.875	937.19
427.251	934.48
427.627	949.17
428.003	961.82
428.379	968.38
428.756	980.13
429.132	981.26
429.507	1023.97
429.883	1010.19
430.259	1022.84
430.635	1040.92
431.011	1020.35
431.387	1092.89
431.763	1081.82
432.138	1084.76
432.514	1102.39
432.89	1112.33
433.265	1162.27
433.641	1164.76
434.016	1172.21
434.392	1238.2
434.767	1228.03
435.143	1260.12
435.518	1280.23
435.894	1295.15
436.269	1315.04
436.644	1310.29
437.02	1374.7
437.395	1400.23
437.77	1427.35
438.145	1414.02
438.52	1467.12
438.895	1457.41
439.271	1469.61
439.646	1543.96
440.021	1529.72
440.395	1551.87
440.77	1569.72
441.145	1585.31
441.52	1582.6
441.895	1604.52
442.27	1651.75
442.645	1623.5
443.019	1654.69
443.394	1691.98
443.769	1708.47
444.143	1738.98
444.518	1740.34
444.892	1721.81
445.267	1763.16
445.641	1808.58
446.016	1787.11
446.39	1823.72
446.764	1834.57
447.139	1864.63
447.513	1835.93
447.887	1849.49
448.262	1887
448.636	1896.04
449.01	1943.49
449.384	1944.85
449.758	1954.34
450.132	1978.75
450.506	2010.84
450.88	2018.29
451.254	2028.92
451.628	2028.46
452.002	2091.29
452.376	2102.36
452.75	2085.86
453.123	2136.71
453.497	2153.88
453.871	2203.37
454.244	2221.68
454.618	2247.21
454.992	2265.97
455.365	2293.99
455.739	2334.9
456.112	2362.47
456.486	2364.95
456.859	2385.97
457.232	2432.97
457.606	2422.58
457.979	2485.85
458.352	2554.1
458.725	2548.22
459.099	2560.2
459.472	2599.75
459.845	2650.82
460.218	2640.65
460.591	2668.22
460.964	2685.62
461.337	2761.78
461.71	2773.3
462.083	2876.35
462.456	2902.56
462.829	2844.04
463.201	2940.3
463.574	2947.31
463.947	3017.36
464.32	3099.85
464.692	3065.27
465.065	3087.42
465.438	3147.98
465.81	3233.63
466.183	3215.78
466.555	3291.26
466.928	3330.58
467.3	3323.57
467.672	3397.47
468.045	3501.42
468.417	3492.83
468.789	3507.97
469.161	3569.67
469.534	3651.47
469.906	3721.3
470.278	3756.33
470.65	3771.47
471.022	3839.72
471.394	3943.22
471.766	3952.48
472.138	3994.29
472.51	4100.73
472.882	4146.83
473.253	4228.18
473.625	4230.21
473.997	4355.86
474.369	4383.2
474.74	4428.85
475.112	4531.22
475.484	4624.78
475.855	4700.48
476.227	4733.03
476.598	4838.56
476.97	4903.64
477.341	5010.98
477.713	5102.73
478.084	5119.91
478.455	5249.62
478.827	5325.78
479.198	5513.12
479.569	5512.89
479.94	5662.94
480.311	5708.37
480.682	5834.69
481.053	5935.71
481.424	6066.55
481.795	6085.98
482.166	6277.17
482.537	6313.1
482.908	6416.37
483.279	6557.16
483.65	6639.19
484.021	6718.06
484.391	6818.62
484.762	6860.88
485.133	6989.46
485.503	7095
485.874	7228.1
486.244	7304.94
486.615	7453.41
486.985	7499.73
487.356	7730.46
487.726	7741.99
488.097	7837.58
488.467	7899.5
488.837	8062.2
489.207	8138.81
489.578	8310.11
489.948	8400.27
490.318	8464.68
490.688	8479.59
491.058	8535.41
491.428	8655.86
491.798	8805.91
492.168	9020.14
492.538	9010.2
492.908	9087.94
493.278	9176.52
493.648	9212.68
494.017	9356.86
494.387	9404.54
494.757	9483.18
495.126	9598.43
495.496	9612.22
495.866	9590.07
496.235	9729.28
496.605	9863.74
496.974	9891.53
497.344	9938.99
497.713	10011.3
498.082	10077.07
498.452	10099.21
498.821	10147.12
499.19	10149.38
499.559	10206.33
499.928	10305.31
500.298	10338.53
500.667	10469.37
501.036	10425.53
501.405	10510.5
501.774	10448.13
502.143	10568.8
502.512	10534.23
502.88	10625.07
503.249	10623.27
503.618	10646.77
503.987	10815.35
504.356	10796.82
504.724	10815.8
505.093	10816.48
505.462	10864.84
505.83	10878.63
506.199	10894.9
506.567	11069.81
506.936	10936.03
507.304	11197.94
507.672	11118.39
508.041	11151.39
508.409	11222.12
508.777	11243.59
509.145	11326.3
509.514	11242.46
509.882	11347.09
510.25	11317.26
510.618	11305.28
510.986	11293.53
511.354	11483.36
511.722	11454.2
512.09	11476.8
512.458	11435.22
512.826	11592.51
513.193	11503.69
513.561	11582.79
513.929	11592.51
514.297	11598.61
514.664	11653.3
515.032	11709.11
515.4	11695.78
515.767	11688.1
516.135	11723.8
516.502	11648.32
516.869	11774.2
517.237	11734.42
517.604	11656.23
517.972	11745.27
518.339	11767.87
518.706	11758.38
519.073	11765.83
519.44	11849
519.808	11852.16
520.175	11770.35
520.542	11920.86
520.909	11934.64
521.276	11834.53
521.643	11815.55
522.009	11947.3
522.376	11921.08
522.743	11955.89
523.11	11990.24
523.477	12071.59
523.843	12063.45
524.21	12057.35
524.577	12098.71
524.943	12080.4
525.31	12109.33
525.676	12178.48
526.043	12128.99
526.409	12136.67
526.776	12147.97
527.142	12061.87
527.508	12160.85
527.874	12092.15
528.241	12058.03
528.607	12067.97
528.973	12103
529.339	12005.6
529.705	12020.52
530.071	12091.48
530.437	12064.13
530.803	11972.83
531.169	12101.42
531.535	11911.59
531.901	11964.02
532.267	11990.91
532.632	11971.25
532.998	11897.36
533.364	11931.48
533.73	11790.69
534.095	11887.41
534.461	11845.38
534.826	11825.49
535.192	11789.79
535.557	11768.55
535.923	11693.52
536.288	11623.01
536.653	11613.97
537.019	11515.67
537.384	11479.06
537.749	11499.4
538.114	11425.5
538.479	11431.83
538.845	11337.82
539.21	11263.02
539.575	11295.34
539.94	11213.98
540.305	11242.91
540.67	11106.19
541.034	11099.19
541.399	11044.5
541.764	11071.16
542.129	10950.26
542.494	10911.17
542.858	10900.55
543.223	10784.84
543.587	10861.23
543.952	10705.75
544.316	10718.86
544.681	10714.79
545.045	10574.45
545.41	10604.28
545.774	10593.89
546.138	10497.17
546.503	10484.96
546.867	10380.11
547.231	10400.9
547.595	10347.34
547.959	10354.57
548.324	10277.96
548.688	10208.81
549.052	10153.45
549.416	10052.21
549.779	10089.04
550.143	9983.28
550.507	10021.47
550.871	9981.02
551.235	9836.62
551.599	9850.4
551.962	9801.37
552.326	9799.11
552.689	9808.15
553.053	9656.06
553.417	9644.76
553.78	9723.85
554.143	9595.72
554.507	9519.79
554.87	9548.72
555.234	9603.41
555.597	9466.69
555.96	9381.26
556.323	9477.76
556.686	9382.62
557.05	9353.92
557.413	9288.16
557.776	9255.39
558.139	9292.23
558.502	9238.22
558.865	9189.41
559.228	9254.71
559.59	9162.51
559.953	9173.36
560.316	9245.45
560.679	9149.41
561.041	9202.74
561.404	9205.9
561.767	9088.39
562.129	9097.88
562.492	9111.89
562.854	9096.07
563.217	9047.94
563.579	9047.26
563.941	9041.84
564.304	9104.89
564.666	9070.54
565.028	9076.64
565.39	9016.08
565.753	9041.39
566.115	9079.35
566.477	9056.3
566.839	9029.86
567.201	9073.25
567.563	8968.62
567.925	9049.52
568.287	9075.28
568.648	9080.48
569.01	9034.38
569.372	9090.2
569.734	8991.44
570.095	9036.19
570.457	9049.75
570.819	9020.37
571.18	9013.82
571.542	9033.48
571.903	9000.48
572.265	9042.97
572.626	9066.24
572.987	9007.26
573.349	9010.2
573.71	9055.4
574.071	8984.66
574.432	9026.25
574.794	9044.55
575.155	8944.67
575.516	9005
575.877	9072.12
576.238	8960.48
576.599	9029.18
576.96	8961.84
577.32	8980.6
577.681	9005.46
578.042	9039.8
578.403	9006.13
578.763	9009.07
579.124	8969.98
579.485	8963.87
579.845	9005.91
580.206	8956.42
580.566	8972.24
580.927	8964.78
581.287	8958.22
581.648	8912.8
582.008	8955.74
582.368	8929.75
582.728	8958.45
583.089	8945.57
583.449	8955.29
583.809	8897.89
584.169	8934.5
584.529	8913.93
584.889	8944.89
585.249	8778.34
585.609	8845.69
585.969	8853.82
586.329	8872.35
586.688	8847.27
587.048	8809.08
587.408	8814.5
587.768	8794.39
588.127	8838.68
588.487	8751.68
588.846	8819.25
589.206	8714.84
589.565	8768.85
589.925	8761.39
590.284	8710.77
590.643	8788.06
591.003	8753.03
591.362	8766.59
591.721	8709.42
592.08	8778.79
592.44	8714.62
592.799	8718.91
593.158	8685.69
593.517	8647.5
593.876	8659.93
594.235	8692.24
594.593	8624.67
594.952	8662.87
595.311	8637.1
595.67	8594.62
596.029	8682.07
596.387	8651.11
596.746	8665.58
597.104	8623.09
597.463	8599.14
597.822	8644.33
598.18	8588.29
598.538	8559.59
598.897	8616.99
599.255	8540.61
599.613	8621.28
599.972	8609.99
600.33	8635.3
600.688	8564.34
601.046	8623.09
601.404	8602.98
601.762	8611.57
602.12	8578.12
602.478	8625.58
602.836	8615.18
603.194	8611.79
603.552	8540.61
603.91	8533.38
604.268	8614.96
604.625	8533.6
604.983	8582.64
605.341	8548.07
605.698	8548.07
606.056	8600.04
606.413	8566.82
606.771	8598.01
607.128	8584
607.485	8578.12
607.843	8549.2
608.2	8594.39
608.557	8656.54
608.914	8559.82
609.272	8607.05
609.629	8617.89
609.986	8607.95
610.343	8606.82
610.7	8680.04
611.057	8643.66
611.414	8641.62
611.771	8674.16
612.127	8645.69
612.484	8631.45
612.841	8638.91
613.198	8645.69
613.554	8609.08
613.911	8637.33
614.267	8631
614.624	8625.58
614.98	8668.06
615.337	8705.35
615.693	8673.26
616.05	8620.83
616.406	8713.26
616.762	8601.17
617.118	8693.6
617.475	8715.07
617.831	8702.41
618.187	8724.11
618.543	8726.37
618.899	8691.79
619.255	8682.3
619.611	8694.5
619.967	8748.06
620.323	8809.98
620.678	8722.07
621.034	8708.06
621.39	8675.75
621.746	8683.43
622.101	8788.74
622.457	8700.15
622.812	8699.47
623.168	8748.06
623.523	8754.84
623.879	8691.11
624.234	8706.93
624.589	8811.34
624.945	8748.74
625.3	8727.95
625.655	8724.33
626.01	8712.81
626.365	8777.66
626.72	8695.63
627.075	8721.85
627.43	8691.57
627.785	8679.36
628.14	8669.87
628.495	8654.28
628.85	8672.58
629.205	8648.85
629.559	8640.49
629.914	8658.57
630.269	8710.32
630.623	8596.65
630.978	8652.47
631.332	8628.97
631.687	8636.43
632.041	8611.79
632.396	8631.68
632.75	8616.54
633.104	8586.26
633.459	8564.11
633.813	8480.95
634.167	8523.66
634.521	8511.23
634.875	8564.79
635.229	8470.55
635.583	8501.06
635.937	8487.5
636.291	8470.55
636.645	8492.47
636.999	8480.5
637.352	8456.54
637.706	8409.76
638.06	8399.82
638.413	8405.25
638.767	8364.34
639.121	8433.27
639.474	8326.6
639.828	8349.65
640.181	8385.81
640.534	8371.8
640.888	8349.43
641.241	8383.32
641.594	8327.96
641.947	8343.55
642.301	8263.33
642.654	8355.75
643.007	8344.91
643.36	8335.42
643.713	8285.47
644.066	8305.81
644.419	8335.19
644.771	8221.97
645.124	8225.36
645.477	8157.12
645.83	8129.77
646.182	8076.44
646.535	8095.87
646.888	8058.14
647.24	8026.5
647.593	8042.09
647.945	8000.28
648.298	8023.79
648.65	7946.73
649.002	7960.29
649.355	8001.19
649.707	7993.05
650.059	8066.95
650.411	8096.33
650.763	8130.9
651.115	8271.69
651.467	8167.74
651.819	8203.89
652.171	8225.14
652.523	8163.67
652.875	8193.73
653.227	8103.33
653.578	8217.68
653.93	8200.73
654.282	8155.08
654.633	8151.47
654.985	8188.53
655.337	8225.36
655.688	8167.51
656.039	8220.39
656.391	8162.99
656.742	8163.22
657.094	8152.14
657.445	8195.31
657.796	8179.26
658.147	8155.99
658.498	8188.75
658.849	8139.49
659.2	8212.26
659.551	8201.18
659.902	8251.12
660.253	8189.21
660.604	8271.69
660.955	8207.06
661.306	8263.1
661.656	8200.28
662.007	8244.12
662.358	8272.59
662.708	8262.88
663.059	8277.11
663.409	8258.13
663.76	8218.36
664.11	8242.09
664.461	8266.27
664.811	8232.59
665.161	8286.6
665.511	8215.19
665.862	8225.59
666.212	8363.89
666.562	8300.39
666.912	8267.62
667.262	8251.8
667.612	8239.83
667.962	8264.23
668.312	8216.78
668.662	8277.56
669.011	8314.17
669.361	8279.15
669.711	8298.13
670.06	8191.92
670.41	8250.45
670.76	8265.59
671.109	8274.63
671.459	8263.55
671.808	8153.73
672.157	8274.18
672.507	8165.48
672.856	8176.32
673.205	8181.52
673.554	8240.5
673.904	8144.01
674.253	8203.44
674.602	8200.96
674.951	8087.06
675.3	7962.77
675.649	8136.1
675.998	8104.91
676.346	8151.01
676.695	8169.09
677.044	8105.14
677.393	8102.65
677.741	8114.86
678.09	8113.5
678.438	8114.18
678.787	8083.45
679.135	8051.81
679.484	7995.54
679.832	7964.58
680.181	7998.02
680.529	7965.93
680.877	7956.44
681.225	7999.83
681.573	8001.87
681.922	7961.64
682.27	7902.89
682.618	7937.91
682.966	7940.4
683.314	7934.97
683.661	7910.57
684.009	7857.69
684.357	7809.1
684.705	7811.59
685.053	7775.66
685.4	7781.08
685.748	7713.06
686.095	7760.97
686.443	7737.01
686.79	7629.45
687.138	7707.18
687.485	7654.53
687.832	7709.22
688.18	7676
688.527	7666.28
688.874	7588.09
689.221	7610.01
689.568	7544.93
689.915	7556.68
690.262	7539.05
690.609	7534.76
690.956	7507.19
691.303	7500.64
691.65	7406.4
691.997	7424.71
692.344	7402.79
692.69	7360.98
693.037	7378.38
693.383	7240.98
693.73	7293.64
694.077	7247.54
694.423	7236.01
694.769	7165.5
695.116	7170.25
695.462	7158.05
695.808	7144.26
696.155	7097.71
696.501	7076.01
696.847	7025.85
697.193	6975
697.539	7014.77
697.885	6962.57
698.231	6913.53
698.577	6938.39
698.923	6931.39
699.269	6839.64
699.614	6818.62
699.96	6839.86
700.306	6852.97
700.651	6718.74
700.997	6757.38
701.342	6728.9
701.688	6732.29
702.033	6721.22
702.379	6698.85
702.724	6682.35
703.069	6651.84
703.415	6562.58
703.76	6558.29
704.105	6556.03
704.45	6555.35
704.795	6508.57
705.14	6511.28
705.485	6456.82
705.83	6404.39
706.175	6399.42
706.52	6335.24
706.865	6383.83
707.209	6396.71
707.554	6347.67
707.899	6354.9
708.243	6322.59
708.588	6299.31
708.932	6201.24
709.277	6240.33
709.621	6244.85
709.966	6212.99
710.31	6202.14
710.654	6241.01
710.998	6162.82
711.342	6201.24
711.687	6097.06
712.031	6107
712.375	6125.98
712.719	6085.31
713.063	6103.84
713.407	6114.46
713.75	6054.8
714.094	6023.39
714.438	5999.66
714.782	6068.58
715.125	6026.78
715.469	6028.81
715.812	6028.36
716.156	5998.53
716.499	5955.59
716.843	6003.5
717.186	5940.9
717.53	5965.54
717.873	5958.08
718.216	5916.95
718.559	5913.56
718.902	5882.37
719.246	5874.46
719.589	5889.83
719.932	5864.07
720.275	5910.4
720.617	5903.62
720.96	5925.54
721.303	5822.94
721.646	5883.28
721.989	5847.12
722.331	5917.85
722.674	5849.61
723.016	5907.46
723.359	5863.84
723.701	5839.66
724.044	5845.31
724.386	5782.49
724.729	5858.65
725.071	5838.53
725.413	5776.84
725.755	5802.38
726.097	5791.53
726.439	5706.33
726.782	5763.51
727.124	5783.17
727.465	5721.25
727.807	5785.88
728.149	5782.26
728.491	5796.05
728.833	5756.95
729.175	5751.3
729.516	5773.22
729.858	5773
730.199	5808.03
730.541	5725.32
730.882	5777.29
731.224	5754.92
731.565	5737.97
731.906	5738.65
732.248	5764.86
732.589	5766.67
732.93	5733
733.271	5759.66
733.612	5746.33
733.953	5772.09
734.294	5757.18
734.635	5818.42
734.976	5793.79
735.317	5739.33
735.658	5772.09
735.999	5765.09
736.339	5771.64
736.68	5756.95
737.021	5801.25
737.361	5795.82
737.702	5850.51
738.042	5811.41
738.383	5808.03
738.723	5850.06
739.063	5820
739.404	5852.32
739.744	5859.78
740.084	5840.57
740.424	5885.31
740.764	5864.52
741.104	5913.11
741.444	5917.4
741.784	5869.94
742.124	5915.59
742.464	5953.78
742.804	5900.23
743.143	5972.09
743.483	5989.72
743.823	5971.18
744.162	6024.52
744.502	6050.96
744.841	6067.91
745.181	6108.81
745.52	6154.23
745.86	6138.19
746.199	6190.61
746.538	6217.28
746.877	6336.6
747.216	6300.22
747.556	6308.35
747.895	6433.32
748.234	6452.53
748.573	6486.43
748.911	6535.92
749.25	6663.82
749.589	6639.64
749.928	6665.86
750.267	6830.15
750.605	6823.37
750.944	6877.83
751.283	6993.3
751.621	7076.92
751.96	7172.06
752.298	7226.07
752.636	7363.69
752.975	7349.68
753.313	7497.02
753.651	7617.47
753.989	7733.85
754.327	7755.77
754.666	7965.71
755.004	8094.07
755.342	8165.7
755.679	8308.52
756.017	8406.6
756.355	8576.54
756.693	8654.5
757.031	8801.62
757.368	8954.61
757.706	9080.03
758.044	9285.45
758.381	9496.29
758.719	9561.82
759.056	9722.72
759.394	9912.1
759.731	10023.28
760.068	10201.13
760.405	10363.61
760.743	10414.46
761.08	10750.72
761.417	10823.26
761.754	11003.82
762.091	11199.97
762.428	11402.23
762.765	11467.76
763.102	11737.36
763.438	11879.73
763.775	12020.97
764.112	12210.12
764.449	12384.8
764.785	12506.15
765.122	12639.94
765.458	12803.55
765.795	13003.77
766.131	13233.14
766.467	13288.05
766.804	13462.74
767.14	13625.9
767.476	13767.59
767.812	13910.64
768.148	14072.67
768.485	14203.06
768.821	14332.32
769.157	14402.38
769.492	14626.55
769.828	14754.46
770.164	14813.89
770.5	14938.41
770.836	15167.33
771.171	15199.64
771.507	15250.71
771.842	15358.51
772.178	15513.08
772.513	15643.92
772.849	15824.49
773.184	15764.6
773.519	15974.99
773.855	15946.74
774.19	16106.51
774.525	16071.03
774.86	16277.58
775.195	16348.54
775.53	16368.65
775.865	16391.7
776.2	16405.49
776.535	16411.14
776.87	16579.95
777.205	16665.82
777.539	16655.65
777.874	16794.63
778.209	16725.7
778.543	16725.7
778.878	16777.91
779.212	16902.65
779.547	16849.54
779.881	16965.47
780.215	16941.07
780.55	16975.64
780.884	16935.87
781.218	17103.1
781.552	17012.7
781.886	17149.65
782.22	17047.28
782.554	17094.96
782.888	16966.15
783.222	17053.83
783.556	16976.77
783.889	17015.19
784.223	16974.74
784.557	16914.85
784.89	17087.5
785.224	16997.56
785.557	17034.85
785.891	16965.92
786.224	17009.31
786.558	17034.85
786.891	16994.4
787.224	16955.08
787.557	16951.46
787.891	16994.85
788.224	16920.95
788.557	16967.05
788.89	16988.97
789.223	16991.23
789.556	16929.09
789.888	16927.96
790.221	16894.06
790.554	16754.63
790.887	16755.99
791.219	16715.31
791.552	16813.16
791.884	16696.55
792.217	16706.5
792.549	16666.95
792.882	16600.06
793.214	16575.88
793.546	16595.31
793.879	16566.84
794.211	16517.57
794.543	16670.79
794.875	16550.79
795.207	16574.52
795.539	16492.49
795.871	16442.77
796.203	16385.15
796.535	16357.8
796.867	16338.6
797.198	16259.95
797.53	16353.51
797.862	16163.23
798.193	16260.63
798.525	16132.73
798.856	16136.34
799.188	16007.98
799.519	15956.46
799.85	15921.21
800.182	15998.04
800.513	16005.95
800.844	15817.25
801.175	15860.19
801.506	15918.27
801.837	15837.37
802.168	15791.04
802.499	15780.42
802.83	15725.05
803.161	15627.2
803.491	15643.02
803.822	15609.12
804.153	15576.81
804.483	15535.45
804.814	15522.12
805.145	15463.14
805.475	15432.63
805.805	15341.33
806.136	15440.31
806.466	15392.18
806.796	15364.61
807.126	15301.33
807.457	15223.14
807.787	15236.93
808.117	15128.23
808.447	15104.28
808.777	15149.93
809.107	15043.49
809.436	15088.91
809.766	14985.41
810.096	14941.34
810.426	14982.93
810.755	14961.46
811.085	14929.14
811.414	14880.78
811.744	14834.91
812.073	14930.95
812.403	14862.25
812.732	14783.61
813.061	14730.05
813.39	14676.04
813.719	14647.11
814.049	14795.81
814.378	14697.74
814.707	14631.97
815.036	14632.2
815.365	14495.93
815.693	14463.39
816.022	14545.42
816.351	14410.28
816.68	14345.88
817.008	14479.21
817.337	14278.09
817.665	14285.54
817.994	14289.38
818.322	14325.99
818.651	14250.52
818.979	14108.6
819.307	14282.15
819.636	14151.08
819.964	14160.8
820.292	14257.97
820.62	14220.23
820.948	14207.58
821.276	14293.68
821.604	14152.89
821.932	14144.08
822.259	14186.79
822.587	14112.89
822.915	14045.32
823.243	14116.28
823.57	14038.32
823.898	14108.6
824.225	14070.41
824.553	14030.63
824.88	14127.81
825.207	14066.11
825.535	14167.81
825.862	14138.65
826.189	14107.24
826.516	14175.94
826.843	14245.09
827.17	14160.35
827.497	14144.08
827.824	14178.2
828.151	14167.13
828.478	14238.76
828.805	14283.06
829.131	14235.83
829.458	14170.29
829.785	14033.35
830.111	14095.26
830.438	14161.93
830.764	14120.8
831.09	14176.84
831.417	14089.84
831.743	14194.92
832.069	14103.4
832.395	14096.17
832.722	14121.93
833.048	14109.05
833.374	14168.71
833.7	14003.29
834.026	14062.27
834.351	14110.18
834.677	14054.59
835.003	14147.92
835.329	14091.88
835.654	13990.86
835.98	13943.63
836.306	13963.07
836.631	13942.95
836.956	13927.59
837.282	13958.55
837.607	13942.05
837.932	13876.97
838.258	13902.73
838.583	13866.12
838.908	13752.45
839.233	13862.5
839.558	13834.25
839.883	13754.93
840.208	13790.19
840.533	13697.08
840.858	13674.49
841.182	13679.91
841.507	13684.88
841.832	13567.82
842.156	13576.86
842.481	13558.33
842.805	13506.58
843.13	13473.59
843.454	13468.16
843.778	13370.09
844.103	13388.84
844.427	13286.02
844.751	13406.7
845.075	13340.71
845.399	13337.77
845.723	13253.03
846.047	13159.7
846.371	13130.09
846.695	13134.39
847.019	13007.38
847.343	12981.85
847.666	12907.05
847.99	12849.42
848.313	12853.94
848.637	12808.29
848.96	12728.75
849.284	12659.14
849.607	12586.38
849.931	12550.9
850.254	12500.28
850.577	12516.1
850.9	12386.16
851.223	12422.09
851.546	12299.83
851.869	12212.6
852.192	12328.98
852.515	12197.91
852.838	12119.05
853.161	12116.11
853.483	12079.95
853.806	11954.76
854.129	12007.86
854.451	11965.38
854.774	11898.03
855.096	11890.13
855.419	11850.13
855.741	11750.92
856.063	11730.36
856.385	11717.25
856.708	11726.29
857.03	11626.18
857.352	11659.62
857.674	11552.51
857.996	11531.26
858.318	11495.33
858.64	11510.02
858.961	11471.38
859.283	11384.15
859.605	11395.22
859.926	11333.08
860.248	11274.77
860.57	11331.72
860.891	11292.63
861.212	11189.13
861.534	11221.22
861.855	11212.18
862.176	11205.85
862.498	11148.22
862.819	11168.34
863.14	11116.81
863.461	11077.27
863.782	11098.73
864.103	11050.37
864.424	10990.26
864.745	11070.71
865.065	10948
865.386	10888.12
865.707	10935.8
866.027	10890.38
866.348	10925.4
866.668	10857.16
866.989	10874.33
867.309	10785.3
867.63	10827.55
867.95	10867.78
868.27	10752.53
868.59	10792.3
868.91	10736.94
869.23	10759.53
869.55	10692.87
869.87	10724.73
870.19	10702.13
870.51	10811.96
870.83	10709.82
871.15	10633.44
871.469	10582.14
871.789	10667.33
872.109	10606.54
872.428	10538.07
872.748	10568.13
873.067	10516.15
873.386	10541.91
873.706	10543.95
874.025	10479.09
874.344	10477.96
874.663	10471.41
874.982	10480.9
875.301	10398.19
875.62	10388.02
875.939	10334.46
876.258	10379.2
876.577	10376.27
876.896	10367.68
877.214	10272.31
877.533	10311.41
877.852	10290.85
878.17	10253.33
878.489	10263.5
878.807	10305.31
879.125	10221.92
879.444	10182.15
879.762	10155.48
880.08	10243.39
880.398	10184.41
880.716	10197.97
881.034	10073.45
881.352	10120.23
881.67	10074.58
881.988	10101.47
882.306	10014.92
882.624	10012.66
882.941	10013.79
883.259	9992.1
883.577	9930.18
883.894	9914.58
884.212	9905.54
884.529	9805.66
884.846	9909.39
885.164	9825.77
885.481	9802.27
885.798	9760.24
886.115	9708.04
886.432	9818.09
886.75	9649.28
887.067	9699
887.383	9665.78
887.7	9708.71
888.017	9602.95
888.334	9673.01
888.651	9549.17
888.967	9521.6
889.284	9548.27
889.6	9484.09
889.917	9430.3
890.233	9407.03
890.55	9332
890.866	9415.16
891.182	9400.7
891.498	9286.35
891.815	9285.9
892.131	9305.33
892.447	9258.33
892.763	9246.35
893.079	9223.08
893.395	9179.91
893.71	9098.79
894.026	9176.75
894.342	9105.34
894.657	9059.92
894.973	9060.82
895.289	9047.04
895.604	8970.2
895.92	8942.18
896.235	8876.65
896.55	8886.59
896.865	8854.95
897.181	8847.04
897.496	8811.34
897.811	8770.66
898.126	8744.22
898.441	8761.39
898.756	8658.8
899.071	8618.57
899.386	8589.65
899.7	8616.99
900.015	8521.85
900.33	8468.75
900.644	8498.58
900.959	8473.27
901.273	8444.57
901.588	8351.46
901.902	8324.57
902.216	8330.22
902.531	8267.17
902.845	8314.17
903.159	8219.04
903.473	8148.08
903.787	8171.13
904.101	8103.11
904.415	8142.88
904.729	8001.87
905.042	7991.47
905.356	8018.14
905.67	7954.41
905.984	7928.42
906.297	7927.07
906.611	7877.58
906.924	7860.63
907.237	7891.13
907.551	7848.42
907.864	7773.17
908.177	7687.3
908.491	7681.87
908.804	7621.08
909.117	7660.41
909.43	7535.44
909.743	7502.22
910.056	7526.17
910.368	7481.65
910.681	7459.96
910.994	7411.6
911.307	7408.44
911.619	7407.53
911.932	7342.22
912.244	7240.98
912.557	7281.21
912.869	7287.76
913.181	7239.85
913.494	7155.11
913.806	7191.27
914.118	7127.31
914.43	7084.83
914.742	7145.84
915.054	7083.7
915.366	6987.2
915.678	7015.68
915.99	6966.86
916.302	6961.22
916.613	6958.05
916.925	6881.22
917.236	6897.49
917.548	6799.19
917.859	6834.44
918.171	6797.6
918.482	6746.98
918.794	6747.66
919.105	6714.22
919.416	6646.87
919.727	6639.19
920.038	6634.67
920.349	6570.72
920.66	6581.34
920.971	6576.14
921.282	6491.4
921.593	6469.25
921.903	6415.47
922.214	6454.11
922.525	6404.85
922.835	6388.35
923.146	6381.57
923.456	6309.71
923.767	6334.57
924.077	6325.3
924.387	6287.56
924.697	6186.32
925.008	6172.08
925.318	6162.82
925.628	6207.79
925.938	6163.72
926.248	6109.94
926.558	6065.87
926.867	6051.86
927.177	6053.44
927.487	6015.7
927.796	5956.27
928.106	5963.5
928.416	5932.54
928.725	5883.96
929.034	5865.42
929.344	5933.22
929.653	5867.01
929.962	5863.17
930.271	5764.64
930.581	5759.89
930.89	5737.07
931.199	5733.68
931.508	5682.15
931.817	5675.37
932.125	5668.59
932.434	5716.28
932.743	5596.96
933.051	5568.26
933.36	5574.13
933.669	5515.6
933.977	5508.15
934.286	5513.12
934.594	5507.92
934.902	5463.4
935.21	5360.81
935.519	5373.46
935.827	5419.56
936.135	5378.21
936.443	5321.71
936.751	5307.02
937.059	5283.07
937.367	5245.55
937.674	5297.98
937.982	5239.9
938.29	5166.01
938.597	5210.98
938.905	5150.64
939.213	5114.26
939.52	5076.75
939.827	5146.12
940.135	5074.03
940.442	5024.99
940.749	5040.36
941.056	5032.68
941.363	4977.99
941.67	4964.43
941.977	4952.68
942.284	4900.48
942.591	4898.9
942.898	4878.78
943.205	4839.92
943.511	4799.01
943.818	4821.38
944.125	4791.55
944.431	4798.56
944.738	4791.1
945.044	4705
945.35	4706.13
945.657	4667.72
945.963	4654.61
946.269	4660.71
946.575	4637.21
946.881	4609.19
947.187	4588.62
947.493	4522.41
947.799	4547.95
948.105	4499.36
948.41	4505.69
948.716	4462.3
949.022	4453.03
949.327	4457.78
949.633	4414.16
949.938	4391.79
950.244	4433.82
950.549	4402.19
950.854	4365.58
951.16	4341.17
951.465	4335.75
951.77	4321.51
952.075	4314.73
952.38	4238.12
952.685	4256.43
952.99	4246.48
953.294	4227.95
953.599	4175.07
953.904	4149.31
954.209	4110.22
954.513	4181.85
954.818	4149.76
955.122	4144.11
955.426	4104.12
955.731	4053.5
956.035	4088.97
956.339	4036.77
956.643	4045.36
956.948	4013.5
957.252	3986.6
957.556	3961.52
957.86	3982.31
958.163	3924.01
958.467	3895.31
958.771	3921.07
959.075	3897.34
959.378	3815.99
959.682	3849.88
959.985	3829.77
960.289	3836.33
960.592	3802.43
960.896	3786.38
961.199	3774.41
961.502	3798.36
961.805	3747.29
962.108	3707.52
962.411	3699.38
962.714	3683.11
963.017	3722.88
963.32	3647.86
963.623	3641.08
963.926	3651.02
964.228	3591.59
964.531	3619.38
964.833	3576.67
965.136	3578.93
965.438	3600.17
965.741	3542.55
966.043	3531.47
966.345	3524.24
966.648	3496.67
966.95	3480.63
967.252	3459.84
967.554	3414.64
967.856	3432.72
968.158	3422.33
968.46	3397.69
968.761	3411.03
969.063	3383.46
969.365	3365.38
969.666	3370.8
969.968	3326.96
970.269	3356.34
970.571	3329.22
970.872	3301.88
971.174	3276.34
971.475	3258.94
971.776	3265.49
972.077	3233.63
972.378	3220.07
972.679	3223.01
972.98	3189.56
973.281	3154.54
973.582	3190.69
973.883	3144.14
974.183	3126.97
974.484	3143.01
974.785	3114.54
975.085	3096.23
975.386	3085.61
975.686	3073.41
975.986	3036.12
976.287	3070.24
976.587	3040.41
976.887	3010.58
977.187	3007.87
977.487	2978.72
977.787	2960.42
978.087	2938.5
978.387	2926.75
978.687	2924.03
978.987	2919.29
979.286	2918.38
979.586	2893.75
979.885	2904.82
980.185	2814.66
980.484	2852.17
980.784	2887.2
981.083	2863.02
981.382	2858.95
981.682	2756.13
981.981	2746.18
982.28	2771.49
982.579	2796.8
982.878	2761.55
983.177	2733.08
983.475	2708.9
983.774	2709.58
984.073	2708.45
984.372	2648.56
984.67	2740.54
984.969	2670.25
985.267	2646.53
985.566	2643.81
985.864	2662.35
986.162	2659.41
986.461	2592.52
986.759	2601.78
987.057	2599.75
987.355	2583.03
987.653	2578.96
987.951	2568.11
988.249	2584.38
988.547	2521.33
988.844	2542.57
989.142	2529.69
989.44	2487.66
989.737	2463.25
990.035	2487.43
990.332	2481.33
990.63	2454.89
990.927	2472.52
991.224	2443.59
991.521	2420.54
991.819	2394.33
992.116	2393.2
992.413	2379.87
992.71	2356.82
993.006	2331.96
993.303	2376.48
993.6	2332.18
993.897	2335.35
994.193	2343.26
994.49	2277.5
994.787	2307.78
995.083	2296.25
995.379	2233.88
995.676	2259.87
995.972	2245.63
996.268	2228.91
996.565	2234.33
996.861	2212.87
997.157	2211.28
997.453	2198.4
997.749	2148.91
998.044	2178.52
998.34	2198.85
998.636	2150.72
998.932	2145.97
999.227	2136.94
999.523	2115.92
999.818	2097.39
1000.114	2091.96
1000.409	2091.96
1000.704	2072.53
1001	2058.29
1001.295	2067.33
1001.59	2051.06
1001.885	2013.32
1002.18	1980.56
1002.475	2019.42
1002.77	2025.75
1003.065	1992.08
1003.359	1972.65
1003.654	1987.79
1003.949	1949.6
1004.243	1951.86
1004.538	1941.46
1004.832	1921.8
1005.127	1915.47
1005.421	1917.28
1005.715	1893.33
1006.009	1881.57
1006.304	1885.42
1006.598	1859.65
1006.892	1846.77
1007.186	1836.83
1007.48	1829.82
1007.773	1814.46
1008.067	1819.43
1008.361	1795.93
1008.655	1755.48
1008.948	1767.23
1009.242	1776.49
1009.535	1762.93
1009.829	1743.05
1010.122	1712.99
1010.415	1742.82
1010.708	1715.25
1011.001	1688.81
1011.295	1716.38
1011.588	1672.99
1011.881	1688.36
1012.173	1642.49
1012.466	1661.92
1012.759	1676.61
1013.052	1650.85
1013.344	1641.13
1013.637	1628.7
1013.93	1623.95
1014.222	1629.15
1014.514	1602.94
1014.807	1583.28
1015.099	1584.86
1015.391	1564.07
1015.683	1575.14
1015.976	1536.05
1016.268	1563.17
1016.56	1526.1
1016.851	1505.77
1017.143	1493.11
1017.435	1498.08
1017.727	1495.37
1018.018	1476.39
1018.31	1479.33
1018.602	1444.75
1018.893	1465.54
1019.185	1443.17
1019.476	1461.92
1019.767	1419.21
1020.058	1412.43
1020.35	1399.55
1020.641	1392.77
1020.932	1406.56
1021.223	1402.04
1021.514	1382.15
1021.804	1387.58
1022.095	1331.08
1022.386	1355.94
1022.677	1346
1022.967	1332.66
1023.258	1341.02
1023.548	1297.64
1023.839	1296.73
1024.129	1290.4
1024.419	1301.25
1024.709	1292.44
1025	1269.16
1025.29	1245.66
1025.58	1269.16
1025.87	1233
1026.16	1229.16
1026.449	1235.26
1026.739	1226.22
1027.029	1228.26
1027.319	1203.63
1027.608	1216.96
1027.898	1172.67
1028.187	1200.46
1028.477	1161.59
1028.766	1196.4
1029.055	1159.33
1029.344	1155.04
1029.634	1152.55
1029.923	1132.67
1030.212	1145.55
1030.501	1165.66
1030.79	1116.85
1031.078	1109.84
1031.367	1102.84
1031.656	1079.34
1031.945	1075.95
1032.233	1101.48
1032.522	1077.75
1032.81	1070.75
1033.099	1038.21
1033.387	1075.72
1033.675	1031.43
1033.963	1035.72
1034.251	1031.43
1034.54	1017.87
1034.828	1013.58
1035.116	1001.82
1035.403	1001.15
1035.691	986.46
1035.979	1007.02
1036.267	958.21
1036.554	979
1036.842	963.63
1037.129	948.72
1037.417	958.21
1037.704	948.72
1037.992	964.99
1038.279	948.27
1038.566	947.36
1038.853	947.36
1039.14	947.36
