Data from hue_160_FLMS001491_00069.txt Node
Date: Tue Feb 07 16:51:32 GMT 2017
User: dcchb
Spectrometer: FLMS00149
Trigger mode: 0
Integration Time (sec): 2.000000E-2
Scans to average: 10
Electric dark correction enabled: true
Nonlinearity correction enabled: false
Boxcar width: 0
XAxis mode: Wavelengths
Number of Pixels in Spectrum: 2048
>>>>>Begin Spectral Data<<<<<
341.393	-0.89
341.776	-0.89
342.16	-0.89
342.543	-39.76
342.927	-61.45
343.31	-71.62
343.693	-63.04
344.077	-75.46
344.46	-60.32
344.843	-66.88
345.226	-49.7
345.61	-34.11
345.993	-11.51
346.376	-4.28
346.759	23.06
347.142	18.32
347.525	48.15
347.908	61.93
348.291	81.37
348.674	96.96
349.057	107.13
349.44	109.39
349.823	138.54
350.206	164.3
350.588	184.19
350.971	207.47
351.354	235.71
351.737	238.43
352.119	249.73
352.502	250.4
352.884	293.34
353.267	303.96
353.65	287.92
354.032	282.04
354.414	311.19
354.797	298.09
355.179	308.93
355.562	328.14
355.944	310.97
356.326	330.85
356.709	356.39
357.091	334.47
357.473	318.65
357.855	346.67
358.238	340.34
358.62	354.13
359.002	345.09
359.384	364.52
359.766	362.04
360.148	335.37
360.53	343.73
360.912	341.02
361.294	321.59
361.676	328.59
362.057	321.81
362.439	325.88
362.821	307.8
363.203	334.69
363.584	348.25
363.966	313.9
364.348	313.45
364.729	315.71
365.111	299.89
365.493	307.35
365.874	329.5
366.256	300.8
366.637	326.79
367.019	316.16
367.4	292.66
367.781	315.26
368.163	326.56
368.544	317.07
368.925	297.41
369.306	309.84
369.688	321.14
370.069	316.62
370.45	315.71
370.831	322.04
371.212	323.62
371.593	320.23
371.974	308.93
372.355	305.32
372.736	308.25
373.117	310.06
373.498	304.64
373.879	311.19
374.26	329.27
374.641	337.18
375.021	324.07
375.402	317.52
375.783	320.01
376.163	331.53
376.544	333.11
376.925	339.44
377.305	331.08
377.686	322.27
378.066	321.36
378.447	314.81
378.827	322.27
379.208	343.06
379.588	333.34
379.968	348.93
380.349	329.5
380.729	327.46
381.109	318.42
381.489	341.47
381.87	338.76
382.25	349.16
382.63	331.53
383.01	357.97
383.39	363.17
383.77	343.96
384.15	324.53
384.53	358.2
384.91	348.71
385.29	335.82
385.67	353.9
386.049	363.39
386.429	358.87
386.809	345.32
387.189	354.81
387.568	366.56
387.948	337.63
388.328	353.45
388.707	336.28
389.087	330.4
389.466	345.99
389.846	351.42
390.225	357.97
390.605	375.6
390.984	360.68
391.363	383.05
391.743	374.69
392.122	368.14
392.501	387.8
392.881	353.9
393.26	381.7
393.639	392.32
394.018	368.59
394.397	365.43
394.776	391.87
395.155	400
395.534	373.34
395.913	376.95
396.292	390.51
396.671	402.26
397.05	392.77
397.429	382.38
397.808	372.66
398.186	395.71
398.565	413.56
398.944	387.12
399.323	395.26
399.701	419.21
400.08	385.99
400.458	398.87
400.837	424.18
401.215	397.29
401.594	398.65
401.972	401.81
402.351	406.56
402.729	407.69
403.107	416.73
403.486	412.88
403.864	415.6
404.242	425.77
404.62	425.31
404.999	412.66
405.377	428.48
405.755	440.68
406.133	421.47
406.511	442.26
406.889	447.01
407.267	435.26
407.645	455.6
408.023	440.45
408.401	428.25
408.779	452.43
409.156	453.34
409.534	454.24
409.912	440
410.29	460.34
410.667	473.9
411.045	485.43
411.422	464.63
411.8	479.1
412.178	472.09
412.555	480.91
412.933	485.2
413.31	482.04
413.687	484.97
414.065	500.79
414.442	503.73
414.819	499.21
415.197	505.31
415.574	510.06
415.951	520.9
416.328	510.06
416.705	520
417.082	508.93
417.46	523.62
417.837	540.34
418.214	534.01
418.591	536.72
418.967	529.94
419.344	551.19
419.721	531.75
420.098	538.98
420.475	560.23
420.852	561.36
421.228	565.65
421.605	552.77
421.982	557.74
422.358	588.7
422.735	578.08
423.111	589.6
423.488	590.73
423.864	585.76
424.241	586.21
424.617	583.73
424.994	596.16
425.37	600
425.746	620.11
426.123	627.79
426.499	614.91
426.875	626.44
427.251	601.58
427.627	612.88
428.003	617.4
428.379	646.32
428.756	634.12
429.132	654.69
429.507	688.36
429.883	668.7
430.259	647.23
430.635	658.98
431.011	664.86
431.387	678.19
431.763	679.09
432.138	717.28
432.514	705.76
432.89	707.57
433.265	707.34
433.641	729.26
434.016	731.52
434.392	736.27
434.767	707.34
435.143	751.63
435.518	764.74
435.894	759.54
436.269	765.19
436.644	794.57
437.02	774.68
437.395	795.25
437.77	800.45
438.145	808.81
438.52	814.23
438.895	842.93
439.271	819.2
439.646	837.73
440.021	845.87
440.395	833.89
440.77	844.29
441.145	838.41
441.52	908.01
441.895	879.09
442.27	890.39
442.645	883.15
443.019	874.34
443.394	890.16
443.769	888.58
444.143	912.31
444.518	902.59
444.892	921.57
445.267	927.22
445.641	926.77
446.016	952.76
446.39	940.33
446.764	936.03
447.139	960.89
447.513	950.5
447.887	953.66
448.262	945.3
448.636	960.67
449.01	1003.15
449.384	1012.19
449.758	1002.47
450.132	994.79
450.506	1010.16
450.88	1021.46
451.254	1025.75
451.628	1024.39
452.002	1044.05
452.376	1058.07
452.75	1077.27
453.123	1085.64
453.497	1091.96
453.871	1095.8
454.244	1123.15
454.618	1099.65
454.992	1130.61
455.365	1140.32
455.739	1159.98
456.112	1178.74
456.486	1177.16
456.859	1181.68
457.232	1204.73
457.606	1247.89
457.979	1224.16
458.352	1251.28
458.725	1281.56
459.099	1267.33
459.472	1292.86
459.845	1322.69
460.218	1332.86
460.591	1329.02
460.964	1328.79
461.337	1358.17
461.71	1396.14
462.083	1435.46
462.456	1430.48
462.829	1426.87
463.201	1460.31
463.574	1461.22
463.947	1478.62
464.32	1523.36
464.692	1535.12
465.065	1554.78
465.438	1589.35
465.81	1593.42
466.183	1619.41
466.555	1668.22
466.928	1663.47
467.3	1682
467.672	1731.49
468.045	1736.92
468.417	1778.05
468.789	1789.8
469.161	1838.38
469.534	1849.01
469.906	1907.53
470.278	1918.16
470.65	1977.82
471.022	2019.85
471.394	2057.36
471.766	2081.32
472.138	2073.86
472.51	2136.23
472.882	2190.47
473.253	2223.01
473.625	2283.8
473.997	2348.43
474.369	2368.77
474.74	2430.46
475.112	2448.31
475.484	2522.21
475.855	2624.13
476.227	2633.39
476.598	2702.54
476.97	2776.44
477.341	2862.09
477.713	2908.41
478.084	2939.82
478.455	3065.02
478.827	3125.36
479.198	3206.94
479.569	3242.87
479.94	3381.17
480.311	3440.6
480.682	3549.53
481.053	3636.75
481.424	3732.35
481.795	3834.72
482.166	3936.41
482.537	3991.1
482.908	4110.87
483.279	4139.11
483.65	4305.66
484.021	4440.8
484.391	4529.84
484.762	4611.87
485.133	4706.78
485.503	4790.85
485.874	4961.01
486.244	5065.42
486.615	5216.6
486.985	5290.27
487.356	5448.01
487.726	5553.54
488.097	5733.65
488.467	5707.43
488.837	5949.01
489.207	6033.98
489.578	6185.39
489.948	6348.77
490.318	6471.26
490.688	6519.84
491.058	6725.26
491.428	6854.3
491.798	6885.26
492.168	7176.77
492.538	7265.59
492.908	7382.64
493.278	7479.82
493.648	7562.08
494.017	7694.05
494.387	7893.82
494.757	8005.68
495.126	8142.4
495.496	8156.41
495.866	8288.84
496.235	8423.3
496.605	8499.68
496.974	8588.26
497.344	8738.09
497.713	8876.84
498.082	8954.58
498.452	9085.2
498.821	9159.55
499.19	9254.01
499.559	9387.56
499.928	9432.31
500.298	9588.01
500.667	9744.39
501.036	9656.48
501.405	9806.54
501.774	9826.65
502.143	9927.44
502.512	10037.72
502.88	10205.17
503.249	10218.5
503.618	10264.15
503.987	10369.68
504.356	10330.36
504.724	10525.16
505.093	10564.03
505.462	10566.74
505.83	10689.68
506.199	10768.77
506.567	10880.63
506.936	10872.27
507.304	11041.76
507.672	11122.89
508.041	11096.45
508.409	11170.79
508.777	11236.55
509.145	11389.55
509.514	11357.23
509.882	11440.17
510.25	11387.06
510.618	11523.1
510.986	11561.97
511.354	11642.65
511.722	11741.63
512.09	11819.36
512.458	11785.69
512.826	11844.45
513.193	11953.15
513.561	11993.82
513.929	12011
514.297	12047.15
514.664	12122.86
515.032	12132.58
515.4	12239.24
515.767	12223.42
516.135	12317.43
516.502	12142.29
516.869	12356.98
517.237	12303.65
517.604	12328.96
517.972	12399.01
518.339	12448.73
518.706	12448.05
519.073	12521.94
519.44	12532.34
519.808	12531.89
520.175	12521.94
520.542	12611.43
520.909	12707.7
521.276	12633.81
521.643	12775.95
522.009	12772.79
522.376	12800.58
522.743	12852.33
523.11	12853.46
523.477	12962.39
523.843	13018.2
524.21	13053.68
524.577	13075.6
524.943	13071.53
525.31	13066.56
525.676	13208.25
526.043	13130.06
526.409	13199.67
526.776	13222.49
527.142	13271.08
527.508	13245.32
527.874	13310.62
528.241	13297.74
528.607	13354.24
528.973	13355.14
529.339	13236.05
529.705	13355.14
530.071	13384.52
530.437	13452.32
530.803	13339.78
531.169	13413.22
531.535	13392.2
531.901	13403.05
532.267	13370.06
532.632	13429.04
532.998	13357.85
533.364	13356.27
533.73	13371.64
534.095	13325.99
534.461	13298.87
534.826	13316.5
535.192	13267.91
535.557	13327.12
535.923	13217.29
536.288	13235.37
536.653	13235.37
537.019	13228.82
537.384	13125.32
537.749	13151.76
538.114	13198.76
538.479	13057.98
538.845	13115.15
539.21	13038.54
539.575	13042.84
539.94	13036.96
540.305	13069.73
540.67	12965.32
541.034	12953.35
541.399	12927.36
541.764	12934.82
542.129	12855.04
542.494	12885.1
542.858	12841.26
543.223	12777.76
543.587	12772.33
543.952	12749.74
544.316	12809.17
544.681	12607.14
545.045	12693.69
545.41	12663.86
545.774	12637.42
546.138	12544.09
546.503	12541.61
546.867	12475.62
547.231	12551.77
547.595	12481.72
547.959	12457.99
548.324	12345.9
548.688	12365.56
549.052	12329.18
549.416	12315.17
549.779	12236.3
550.143	12312.68
550.507	12192.46
550.871	12190.88
551.235	12147.49
551.599	12274.27
551.962	12158.11
552.326	12116.53
552.689	12132.8
553.053	12076.98
553.417	11986.82
553.78	12206.25
554.143	12111.33
554.507	11963.32
554.87	11968.51
555.234	12101.39
555.597	12005.35
555.96	11993.82
556.323	12022.97
556.686	11915.18
557.05	11992.02
557.413	11884.45
557.776	11932.81
558.139	11905.01
558.502	11801.06
558.865	11815.52
559.228	11870.66
559.59	11907.05
559.953	11853.94
560.316	11918.12
560.679	11902.07
561.041	11889.65
561.404	11884
561.767	11973.71
562.129	11927.38
562.492	11968.96
562.854	11888.52
563.217	11946.82
563.579	11885.8
563.941	11973.48
564.304	12003.09
564.666	12037.44
565.028	12040.38
565.39	12060.94
565.753	12100.03
566.115	12049.64
566.477	12109.3
566.839	12133.71
567.201	12139.36
567.563	12164.44
567.925	12209.41
568.287	12160.6
568.648	12149.75
569.01	12131.67
569.372	12211.44
569.734	12126.93
570.095	12254.83
570.457	12216.19
570.819	12289.18
571.18	12286.7
571.542	12319.24
571.903	12205.79
572.265	12282.4
572.626	12265.68
572.987	12331.44
573.349	12394.72
573.71	12350.2
574.071	12346.58
574.432	12390.65
574.794	12443.3
575.155	12377.32
575.516	12357.2
575.877	12384.55
576.238	12401.95
576.599	12436.98
576.96	12412.8
577.32	12434.72
577.681	12406.69
578.042	12430.65
578.403	12460.03
578.763	12427.26
579.124	12476.3
579.485	12443.98
579.845	12469.97
580.206	12453.25
580.566	12400.37
580.927	12398.33
581.287	12450.99
581.648	12405.11
582.008	12378.22
582.368	12474.26
582.728	12420.93
583.089	12371.67
583.449	12422.29
583.809	12436.3
584.169	12470.42
584.529	12398.11
584.889	12385
585.249	12342.97
585.609	12277.21
585.969	12404.43
586.329	12350.42
586.688	12409.41
587.048	12264.55
587.408	12350.65
587.768	12305.91
588.127	12316.07
588.487	12223.2
588.846	12315.4
589.206	12286.7
589.565	12276.53
589.925	12390.42
590.284	12285.57
590.643	12331.44
591.003	12306.81
591.362	12321.05
591.721	12276.3
592.08	12293.25
592.44	12318.11
592.799	12268.39
593.158	12282.18
593.517	12253.03
593.876	12274.95
594.235	12250.77
594.593	12271.1
594.952	12227.26
595.311	12155.4
595.67	12211.22
596.029	12265.45
596.387	12274.95
596.746	12257.32
597.104	12209.86
597.463	12249.64
597.822	12161.5
598.18	12146.36
598.538	12160.37
598.897	12192.69
599.255	12157.66
599.613	12229.75
599.972	12194.5
600.33	12182.52
600.688	12166.25
601.046	12197.43
601.404	12221.16
601.762	12220.03
602.12	12229.52
602.478	12227.04
602.836	12180.71
603.194	12153.82
603.552	12236.75
603.91	12164.44
604.268	12165.34
604.625	12161.5
604.983	12231.1
605.341	12168.28
605.698	12154.72
606.056	12150.43
606.413	12168.96
606.771	12229.3
607.128	12304.78
607.485	12213.7
607.843	12208.96
608.2	12316.98
608.557	12348.84
608.914	12245.34
609.272	12342.51
609.629	12298
609.986	12407.37
610.343	12310.2
610.7	12436.75
611.057	12430.2
611.414	12364.66
611.771	12346.81
612.127	12386.36
612.484	12396.75
612.841	12429.74
613.198	12335.28
613.554	12420.03
613.911	12433.36
614.267	12450.99
614.624	12341.38
614.98	12356.07
615.337	12448.95
615.693	12431.78
616.05	12443.53
616.406	12504.54
616.762	12487.6
617.118	12496.18
617.475	12530.98
617.831	12535.05
618.187	12596.97
618.543	12575.5
618.899	12589.74
619.255	12543.64
619.611	12573.69
619.967	12545.22
620.323	12584.54
620.678	12465.45
621.034	12534.83
621.39	12517.43
621.746	12507.71
622.101	12636.52
622.457	12492.79
622.812	12577.31
623.168	12620.93
623.523	12614.37
623.879	12613.24
624.234	12513.13
624.589	12606.91
624.945	12595.16
625.3	12565.79
625.655	12576.86
626.01	12575.95
626.365	12651.21
626.72	12556.52
627.075	12574.15
627.43	12553.81
627.785	12596.97
628.14	12587.48
628.495	12612.34
628.85	12623.41
629.205	12594.26
629.559	12653.92
629.914	12562.4
630.269	12549.97
630.623	12501.83
630.978	12440.59
631.332	12506.35
631.687	12487.6
632.041	12470.87
632.396	12527.37
632.75	12423.64
633.104	12442.85
633.459	12325.34
633.813	12389.97
634.167	12387.49
634.521	12323.31
634.875	12288.5
635.229	12368.28
635.583	12328.96
635.937	12311.78
636.291	12310.88
636.645	12327.6
636.999	12340.48
637.352	12327.37
637.706	12219.35
638.06	12338.67
638.413	12228.62
638.767	12163.08
639.121	12161.28
639.474	12196.98
639.828	12144.78
640.181	12134.16
640.534	12174.38
640.888	12094.16
641.241	12023.2
641.594	12125.12
641.947	12093.93
642.301	12078.11
642.654	12028.4
643.007	12058.68
643.36	12091.22
643.713	11969.64
644.066	12110.43
644.419	11999.7
644.771	11984.11
645.124	11842.19
645.477	11834.05
645.83	11714.51
646.182	11676.77
646.535	11660.05
646.888	11674.06
647.24	11727.62
647.593	11627.05
647.945	11653.49
648.298	11580.27
648.65	11582.99
649.002	11533.5
649.355	11605.58
649.707	11602.19
650.059	11603.1
650.411	11858.69
650.763	11812.13
651.115	11906.14
651.467	11823.43
651.819	11889.19
652.171	11870.66
652.523	11831.12
652.875	11825.47
653.227	11810.1
653.578	11818.23
653.93	11839.25
654.282	11794.51
654.633	11806.48
654.985	11809.65
655.337	11826.6
655.688	11829.08
656.039	11935.97
656.391	11817.33
656.742	11891.9
657.094	11739.37
657.445	11855.3
657.796	11746.15
658.147	11845.58
658.498	11909.53
658.849	11853.04
659.2	11781.4
659.551	11866.14
659.902	11887.39
660.253	11855.07
660.604	11915.18
660.955	11802.19
661.306	11881.96
661.656	11826.82
662.007	11790.66
662.358	11872.7
662.708	11873.83
663.059	11850.55
663.409	11899.81
663.76	11885.13
664.11	11858.91
664.461	11907.5
664.811	11861.4
665.161	11908.4
665.511	11902.75
665.862	11899.36
666.212	11970.32
666.562	11940.72
666.912	11927.38
667.262	11823.88
667.612	11913.83
667.962	11898.46
668.312	11825.01
668.662	11897.33
669.011	11791.57
669.361	11787.5
669.711	11832.7
670.06	11806.48
670.41	11844.67
670.76	11751.8
671.109	11779.59
671.459	11817.1
671.808	11809.65
672.157	11849.19
672.507	11683.55
672.856	11776.65
673.205	11796.54
673.554	11767.84
673.904	11691.46
674.253	11798.57
674.602	11771.91
674.951	11587.96
675.3	11529.88
675.649	11725.36
675.998	11757.22
676.346	11680.38
676.695	11736.43
677.044	11684.68
677.393	11650.33
677.741	11663.44
678.09	11605.81
678.438	11624.12
678.787	11743.66
679.135	11669.76
679.484	11534.63
679.832	11643.1
680.181	11490.56
680.529	11564.46
680.877	11558.35
681.225	11541.18
681.573	11493.72
681.922	11484.68
682.27	11385.48
682.618	11403.56
682.966	11414.18
683.314	11394.97
683.661	11387.96
684.009	11274.75
684.357	11304.8
684.705	11305.25
685.053	11327.85
685.4	11239.27
685.748	11204.92
686.095	11227.74
686.443	11133.96
686.79	11114.98
687.138	11175.77
687.485	11172.83
687.832	11092.83
688.18	11166.27
688.527	11034.98
688.874	11045.15
689.221	10919.73
689.568	10982.32
689.915	10898.48
690.262	10958.14
690.609	10859.84
690.956	10827.75
691.303	10762.44
691.65	10794.08
691.997	10653.97
692.344	10634.31
692.69	10758.38
693.037	10674.54
693.383	10620.75
693.73	10613.75
694.077	10517.7
694.423	10572.84
694.769	10444.49
695.116	10388.44
695.462	10430.47
695.808	10356.8
696.155	10406.07
696.501	10294.66
696.847	10277.03
697.193	10162.68
697.539	10230.93
697.885	10120.43
698.231	10158.84
698.577	10083.59
698.923	10131.73
699.269	9999.53
699.614	9958.4
699.96	9941.67
700.306	9981.22
700.651	9828.68
700.997	9901.67
701.342	9832.98
701.688	9817.16
702.033	9827.55
702.379	9779.87
702.724	9707.78
703.069	9765.63
703.415	9574
703.76	9576.26
704.105	9557.95
704.45	9599.08
704.795	9468.92
705.14	9484.96
705.485	9394.8
705.83	9484.74
706.175	9413.1
706.52	9384.17
706.865	9350.5
707.209	9354.8
707.554	9252.88
707.899	9332.42
708.243	9280.67
708.588	9148.93
708.932	9209.72
709.277	9185.54
709.621	9146.89
709.966	9085.65
710.31	9119.32
710.654	8987.35
710.998	9095.14
711.342	9092.2
711.687	9014.24
712.031	8983.51
712.375	8945.54
712.719	8970.4
713.063	8941.25
713.407	9023.05
713.75	8893.34
714.094	8904.41
714.438	8837.3
714.782	8889.27
715.125	8850.63
715.469	8868.93
715.812	8845.43
716.156	8755.94
716.499	8724.08
716.843	8839.78
717.186	8731.76
717.53	8779.22
717.873	8709.16
718.216	8775.38
718.559	8749.61
718.902	8628.49
719.246	8646.79
719.589	8685.44
719.932	8583.07
720.275	8567.92
720.617	8581.71
720.96	8602.95
721.303	8598.43
721.646	8640.46
721.989	8511.43
722.331	8568.83
722.674	8533.58
723.016	8548.49
723.359	8465.33
723.701	8549.17
724.044	8545.55
724.386	8448.83
724.729	8479.57
725.071	8461.71
725.413	8437.31
725.755	8468.27
726.097	8434.82
726.439	8389.62
726.782	8460.13
727.124	8458.1
727.465	8462.39
727.807	8405.44
728.149	8396.4
728.491	8393.47
728.833	8431.2
729.175	8325.67
729.516	8360.7
729.858	8313.24
730.199	8366.57
730.541	8383.07
730.882	8355.5
731.224	8374.71
731.565	8319.57
731.906	8343.07
732.248	8394.82
732.589	8254.94
732.93	8277.08
733.271	8331.55
733.612	8285.67
733.953	8353.01
734.294	8281.38
734.635	8351.66
734.976	8348.27
735.317	8336.97
735.658	8307.82
735.999	8369.74
736.339	8355.05
736.68	8338.1
737.021	8298.78
737.361	8274.15
737.702	8335.84
738.042	8344.88
738.383	8282.96
738.723	8317.54
739.063	8364.77
739.404	8361.15
739.744	8403.63
740.084	8340.13
740.424	8377.65
740.764	8353.24
741.104	8440.92
741.444	8342.85
741.784	8382.62
742.124	8471.66
742.464	8429.85
742.804	8422.39
743.143	8447.7
743.483	8497.64
743.823	8441.37
744.162	8495.16
744.502	8609.05
744.841	8551.65
745.181	8631.65
745.52	8588.71
745.86	8626.45
746.199	8687.92
746.538	8636.17
746.877	8753.68
747.216	8778.31
747.556	8766.56
747.895	8860.57
748.234	8895.83
748.573	8960.23
748.911	8970.17
749.25	9032.54
749.589	9028.93
749.928	9199.09
750.267	9235.48
750.605	9223.73
750.944	9274.8
751.283	9336.72
751.621	9488.13
751.96	9514.57
752.298	9665.75
752.636	9710.95
752.975	9803.6
753.313	9875.23
753.651	10078.17
753.989	10040.43
754.327	10175.79
754.666	10298.5
755.004	10480.87
755.342	10545.05
755.679	10604.03
756.017	10621.88
756.355	10884.93
756.693	10896.68
757.031	11089.44
757.368	11211.24
757.706	11365.14
758.044	11451.46
758.381	11650.56
758.719	11771.46
759.056	11935.97
759.394	12135.06
759.731	12177.32
760.068	12339.58
760.405	12436.52
760.743	12526.46
761.08	12803.07
761.417	12966.9
761.754	13097.52
762.091	13227.01
762.428	13400.11
762.765	13406.22
763.102	13755.13
763.438	13844.17
763.775	13884.39
764.112	14153.54
764.449	14353.76
764.785	14370.71
765.122	14513.76
765.458	14621.55
765.795	14795.11
766.131	14949.23
766.467	15068.54
766.804	15159.39
767.14	15323
767.476	15500.62
767.812	15592.82
768.148	15827.62
768.485	15841.18
768.821	15928.41
769.157	16057.67
769.492	16273.03
769.828	16314.39
770.164	16428.96
770.5	16555.74
770.836	16666.47
771.171	16732.23
771.507	16845.9
771.842	16805.22
772.178	16929.29
772.513	17017.42
772.849	17109.39
773.184	17217.19
773.519	17305.55
773.855	17421.48
774.19	17436.39
774.525	17478.42
774.86	17634.35
775.195	17668.7
775.53	17644.07
775.865	17728.59
776.2	17701.47
776.535	17601.81
776.87	17872.31
777.205	17752.77
777.539	17787.34
777.874	17945.08
778.209	17858.08
778.543	17898.3
778.878	17932.65
779.212	17980.56
779.547	17861.24
779.881	18106.88
780.215	17976.49
780.55	18054.68
780.884	17983.95
781.218	18032.31
781.552	18081.35
781.886	18026.88
782.22	17979.2
782.554	18039.31
782.888	17882.26
783.222	18046.32
783.556	17909.83
783.889	17860.11
784.223	17895.14
784.557	17863.27
784.89	17880
785.224	17915.02
785.557	17838.64
785.891	17819.88
786.224	17806.33
786.558	17851.75
786.891	17680.45
787.224	17747.12
787.557	17677.74
787.891	17800.22
788.224	17717.06
788.557	17751.64
788.89	17713.45
789.223	17722.49
789.556	17710.51
789.888	17670.51
790.221	17593.68
790.554	17489.95
790.887	17460.57
791.219	17520.91
791.552	17419.9
791.884	17356.85
792.217	17389.39
792.549	17357.3
792.882	17246.79
793.214	17269.62
793.546	17329.05
793.879	17225.32
794.211	17163.18
794.543	17268.71
794.875	17043.63
795.207	17176.51
795.539	17085.44
795.871	17161.37
796.203	16904.88
796.535	16870.98
796.867	16913.92
797.198	16847.03
797.53	16918.44
797.862	16753.47
798.193	16760.03
798.525	16667.6
798.856	16666.69
799.188	16572.46
799.519	16598.45
799.85	16441.39
800.182	16472.58
800.513	16564.1
800.844	16319.81
801.175	16462.63
801.506	16469.41
801.837	16313.03
802.168	16297.89
802.499	16323.88
802.83	16171.57
803.161	16156.2
803.491	16115.75
803.822	16150.78
804.153	16143.54
804.483	15948.07
804.814	16001.4
805.145	15889.31
805.475	15943.32
805.805	15966.6
806.136	15879.82
806.466	15892.48
806.796	15845.93
807.126	15758.02
807.457	15636.21
807.787	15763.22
808.117	15606.38
808.447	15595.08
808.777	15587.17
809.107	15602.77
809.436	15520.28
809.766	15389.44
810.096	15412.94
810.426	15454.75
810.755	15378.37
811.085	15362.32
811.414	15290.01
811.744	15171.14
812.073	15227.86
812.403	15249.1
812.732	15197.58
813.061	15143.12
813.39	15087.53
813.719	15052.5
814.049	15173.85
814.378	15116.23
814.707	14974.54
815.036	14913.97
815.365	14893.41
815.693	14786.07
816.022	14734.77
816.351	14725.95
816.68	14720.31
817.008	14844.6
817.337	14723.24
817.665	14649.12
817.994	14644.83
818.322	14747.2
818.651	14617.71
818.979	14568.44
819.307	14625.39
819.636	14636.69
819.964	14536.36
820.292	14601.89
820.62	14510.59
820.948	14492.74
821.276	14534.77
821.604	14450.93
821.932	14570.7
822.259	14475.57
822.587	14454.32
822.915	14443.93
823.243	14519.63
823.57	14445.96
823.898	14477.15
824.225	14472.85
824.553	14439.41
824.88	14458.62
825.207	14537.94
825.535	14499.52
825.862	14552.63
826.189	14429.92
826.516	14520.54
826.843	14495
827.17	14473.76
827.497	14556.47
827.824	14537.94
828.151	14562.12
828.478	14469.01
828.805	14617.93
829.131	14441.44
829.458	14436.7
829.785	14444.61
830.111	14483.48
830.438	14599.63
830.764	14489.8
831.09	14468.56
831.417	14432.85
831.743	14516.47
832.069	14479.63
832.395	14387.43
832.722	14429.01
833.048	14311.05
833.374	14412.74
833.7	14314.44
834.026	14417.49
834.351	14409.13
834.677	14354.21
835.003	14414.55
835.329	14306.76
835.654	14384.95
835.98	14289.36
836.306	14336.36
836.631	14286.42
836.956	14262.92
837.282	14272.63
837.607	14238.51
837.932	14186.31
838.258	14180.88
838.583	14146.53
838.908	14036.71
839.233	14119.64
839.558	14143.6
839.883	13995.35
840.208	14003.26
840.533	14054.33
840.858	14000.78
841.182	13937.05
841.507	14019.08
841.832	13937.27
842.156	13851.18
842.481	13881.01
842.805	13875.81
843.13	13841.01
843.454	13754.91
843.778	13745.19
844.103	13659.99
844.427	13675.59
844.751	13669.26
845.075	13593.56
845.399	13595.14
845.723	13532.54
846.047	13567.57
846.371	13421.81
846.695	13424.97
847.019	13329.61
847.343	13273.56
847.666	13155.6
847.99	13166.67
848.313	13176.39
848.637	13004.42
848.96	13048.48
849.284	13032.89
849.607	12842.39
849.931	12881.03
850.254	12813.91
850.577	12730.07
850.9	12685.33
851.223	12670.19
851.546	12634.94
851.869	12453.92
852.192	12559.68
852.515	12469.29
852.838	12432
853.161	12364.66
853.483	12287.37
853.806	12267.26
854.129	12253.48
854.451	12176.42
854.774	12119.47
855.096	12167.6
855.419	12089.19
855.741	12076.76
856.063	12051
856.385	11934.39
856.708	11866.59
857.03	11843.54
857.352	11870.66
857.674	11820.49
857.996	11777.78
858.318	11715.41
858.64	11731.01
858.961	11694.62
859.283	11599.03
859.605	11631.12
859.926	11573.27
860.248	11557.9
860.57	11544.34
860.891	11519.03
861.212	11480.84
861.534	11454.4
861.855	11408.53
862.176	11354.29
862.498	11390.45
862.819	11346.38
863.14	11263.45
863.461	11309.77
863.782	11269.32
864.103	11285.14
864.424	11201.98
864.745	11278.81
865.065	11194.52
865.386	11168.76
865.707	11150.46
866.027	11145.03
866.348	11096.45
866.668	11072.72
866.989	11107.74
867.309	11029.33
867.63	11043.79
867.95	11018.93
868.27	11032.27
868.59	11001.76
868.91	10995.21
869.23	11013.96
869.55	10902.55
869.87	10957.69
870.19	10896.9
870.51	10928.77
870.83	10931.03
871.15	10955.66
871.469	10862.33
871.789	10865.72
872.109	10844.7
872.428	10775.55
872.748	10873.85
873.067	10716.34
873.386	10718.83
873.706	10707.98
874.025	10597.02
874.344	10630.47
874.663	10685.38
874.982	10690.13
875.301	10614.2
875.62	10566.06
875.939	10603.35
876.258	10596.12
876.577	10492.62
876.896	10610.36
877.214	10533.52
877.533	10499.63
877.852	10484.26
878.17	10550.7
878.489	10471.6
878.807	10465.95
879.125	10401.77
879.444	10425.5
879.762	10396.58
880.08	10438.61
880.398	10316.81
880.716	10409.68
881.034	10322.91
881.352	10386.41
881.67	10225.73
881.988	10240.2
882.306	10314.32
882.624	10201.78
882.941	10146.64
883.259	10101.9
883.577	10117.94
883.894	10175.79
884.212	10109.35
884.529	10072.74
884.846	10077.49
885.164	10030.94
885.481	9964.95
885.798	10026.19
886.115	9870.72
886.432	9926.98
886.75	9880.21
887.067	9921.79
887.383	9919.08
887.7	9812.19
888.017	9814.45
888.334	9802.69
888.651	9778.74
888.967	9702.81
889.284	9626.2
889.6	9718.18
889.917	9632.3
890.233	9645.86
890.55	9599.08
890.866	9555.7
891.182	9554.34
891.498	9545.98
891.815	9510.5
892.131	9486.54
892.447	9413.78
892.763	9418.3
893.079	9387.11
893.395	9410.84
893.71	9322.25
894.026	9312.31
894.342	9305.31
894.657	9213.56
894.973	9225.76
895.289	9197.29
895.604	9150.96
895.92	9102.15
896.235	8975.82
896.55	9036.16
896.865	9025.77
897.181	9022.38
897.496	8952.32
897.811	8965.43
898.126	8837.97
898.441	8873.68
898.756	8853.11
899.071	8794.81
899.386	8853.79
899.7	8738.77
900.015	8660.58
900.33	8682.95
900.644	8653.57
900.959	8630.52
901.273	8576.74
901.588	8510.3
901.902	8483.63
902.216	8419.23
902.531	8478.66
902.845	8421.71
903.159	8373.13
903.473	8332.9
903.787	8334.26
904.101	8335.16
904.415	8268.95
904.729	8193.92
905.042	8116.86
905.356	8156.18
905.67	8145.56
905.984	8111.67
906.297	8042.74
906.611	8034.61
906.924	8050.88
907.237	7991.22
907.551	7906.02
907.864	7890.65
908.177	7899.47
908.491	7888.17
908.804	7805.91
909.117	7775.4
909.43	7708.74
909.743	7671.68
910.056	7717.33
910.368	7647.95
910.681	7567.5
910.994	7547.84
911.307	7581.51
911.619	7496.99
911.932	7498.12
912.244	7419.71
912.557	7418.58
912.869	7397.56
913.181	7358.01
913.494	7383.55
913.806	7326.15
914.118	7332.7
914.43	7208.64
914.742	7285.47
915.054	7202.08
915.366	7195.08
915.678	7116.89
915.99	7100.62
916.302	7071.92
916.613	7047.06
916.925	7024.69
917.236	6996.21
917.548	6936.55
917.859	6983.79
918.171	6952.6
918.482	6893.84
918.794	6831.92
919.105	6819.27
919.416	6812.72
919.727	6733.17
920.038	6770.68
920.349	6718.71
920.66	6691.82
920.971	6685.94
921.282	6687.75
921.593	6593.74
921.903	6542.21
922.214	6566.17
922.525	6527.75
922.835	6557.81
923.146	6531.59
923.456	6460.18
923.767	6369.11
924.077	6412.27
924.387	6413.18
924.697	6282.11
925.008	6308.77
925.318	6271.71
925.628	6269.68
925.938	6262.9
926.248	6213.86
926.558	6171.83
926.867	6133.86
927.177	6120.08
927.487	6078.27
927.796	6008.22
928.106	5996.92
928.416	5957.37
928.725	6007.54
929.034	5933.42
929.344	5967.77
929.653	5952.17
929.962	5937.26
930.271	5894.77
930.581	5894.32
930.89	5860.2
931.199	5771.61
931.508	5826.98
931.817	5778.85
932.125	5768
932.434	5788.11
932.743	5721.67
933.051	5642.35
933.36	5646.19
933.669	5652.07
933.977	5585.18
934.286	5627.89
934.594	5561.9
934.902	5521
935.21	5453.66
935.519	5482.58
935.827	5492.07
936.135	5448.01
936.443	5373.66
936.751	5398.06
937.059	5373.66
937.367	5369.36
937.674	5438.29
937.982	5330.27
938.29	5277.16
938.597	5311.96
938.905	5233.77
939.213	5184.06
939.52	5165.75
939.827	5170.95
940.135	5148.35
940.442	5094.57
940.749	5124.17
941.056	5142.25
941.363	5055.47
941.67	5064.29
941.977	5027
942.284	4975.02
942.591	5033.1
942.898	4981.35
943.205	4939.09
943.511	4955.82
943.818	4946.55
944.125	4884.18
944.431	4854.58
944.738	4885.76
945.044	4785.43
945.35	4805.09
945.657	4787.91
945.963	4706.33
946.269	4690.74
946.575	4738.87
946.881	4720.79
947.187	4693.45
947.493	4698.42
947.799	4668.14
948.105	4590.85
948.41	4584.98
948.716	4599.67
949.022	4571.19
949.327	4571.65
949.633	4501.59
949.938	4504.08
950.244	4485.77
950.549	4463.63
950.854	4475.6
951.16	4446.9
951.465	4411.42
951.77	4413.23
952.075	4352.22
952.38	4331.43
952.685	4332.56
952.99	4291.43
953.294	4269.05
953.599	4293.23
953.904	4263.86
954.209	4225.67
954.513	4242.84
954.818	4187.47
955.122	4178.44
955.426	4149.74
955.731	4153.8
956.035	4108.15
956.339	4116.97
956.643	4114.48
956.948	4090.75
957.252	4062.28
957.556	4055.5
957.86	4006.24
958.163	3993.36
958.467	3965.11
958.771	3944.09
959.075	3966.01
959.378	3961.72
959.682	3922.4
959.985	3935.73
960.289	3890.99
960.592	3914.49
960.896	3826.35
961.199	3862.29
961.502	3810.99
961.805	3819.35
962.108	3790.65
962.411	3766.47
962.714	3794.94
963.017	3698.22
963.32	3710.2
963.623	3714.04
963.926	3701.16
964.228	3648.96
964.531	3651.9
964.833	3677.88
965.136	3615.29
965.438	3625
965.741	3594.27
966.043	3557.21
966.345	3583.65
966.648	3563.76
966.95	3551.33
967.252	3483.54
967.554	3514.95
967.856	3501.17
968.158	3486.02
968.46	3475.4
968.761	3448.29
969.063	3473.14
969.365	3434.5
969.666	3406.25
969.968	3365.58
970.269	3350.43
970.571	3326.71
970.872	3367.38
971.174	3333.94
971.475	3331.68
971.776	3283.77
972.077	3277.44
972.378	3271.79
972.679	3246.26
972.98	3231.34
973.281	3234.51
973.582	3233.38
973.883	3196.54
974.183	3204.45
974.484	3156.54
974.785	3097.56
975.085	3145.02
975.386	3171.46
975.686	3112.93
975.986	3117.45
976.287	3113.6
976.587	3068.86
976.887	3021.86
977.187	3086.03
977.487	3029.99
977.787	3053.72
978.087	3027.73
978.387	2964
978.687	2973.04
978.987	2934.85
979.286	2942.76
979.586	2935.53
979.885	2919.94
980.185	2930.78
980.484	2898.92
980.784	2883.78
981.083	2874.97
981.382	2866.38
981.682	2817.79
981.981	2832.48
982.28	2833.84
982.579	2786.38
982.878	2791.81
983.177	2811.01
983.475	2772.6
983.774	2754.74
984.073	2713.16
984.372	2721.52
984.67	2685.59
984.969	2720.85
985.267	2715.65
985.566	2678.14
985.864	2696.44
986.162	2681.98
986.461	2634.52
986.759	2606.27
987.057	2606.95
987.355	2627.74
987.653	2617.57
987.951	2582.09
988.249	2584.35
988.547	2560.4
988.844	2562.66
989.142	2568.31
989.44	2553.17
989.737	2523.56
990.035	2529.44
990.332	2488.08
990.63	2474.3
990.927	2488.99
991.224	2460.06
991.521	2461.87
991.819	2438.82
992.116	2446.73
992.413	2416.67
992.71	2437.24
993.006	2421.42
993.303	2370.35
993.6	2386.84
993.897	2369.67
994.193	2338.03
994.49	2351.59
994.787	2352.04
995.083	2319.73
995.379	2318.15
995.676	2298.48
995.972	2274.76
996.268	2301.65
996.565	2249.9
996.861	2251.71
997.157	2248.54
997.453	2234.76
997.749	2230.46
998.044	2202.22
998.34	2205.15
998.636	2191.82
998.932	2177.13
999.227	2149.79
999.523	2168.54
999.818	2127.19
1000.114	2132.61
1000.409	2112.27
1000.704	2078.83
1001	2095.33
1001.295	2074.54
1001.59	2085.16
1001.885	2075.89
1002.18	2053.97
1002.475	2044.48
1002.77	2024.14
1003.065	2009.68
1003.359	2025.72
1003.654	1987.08
1003.949	1981.66
1004.243	1992.73
1004.538	1950.02
1004.832	1932.84
1005.127	1931.49
1005.421	1962.67
1005.715	1906.63
1006.009	1937.82
1006.304	1896.24
1006.598	1877.93
1006.892	1850.59
1007.186	1872.96
1007.48	1863.69
1007.773	1860.08
1008.067	1825.5
1008.361	1827.76
1008.655	1817.14
1008.948	1816.46
1009.242	1789.57
1009.535	1795.67
1009.829	1770.59
1010.122	1751.38
1010.415	1728.33
1010.708	1740.08
1011.001	1737.37
1011.295	1724.71
1011.588	1720.87
1011.881	1717.48
1012.173	1665.96
1012.466	1679.52
1012.759	1667.31
1013.052	1660.31
1013.344	1642.91
1013.637	1663.02
1013.93	1656.69
1014.222	1632.51
1014.514	1622.57
1014.807	1578.5
1015.099	1586.41
1015.391	1570.59
1015.683	1571.27
1015.976	1601.55
1016.268	1582.12
1016.56	1563.59
1016.851	1557.94
1017.143	1544.15
1017.435	1532.18
1017.727	1515
1018.018	1488.56
1018.31	1482.91
1018.602	1463.03
1018.893	1460.99
1019.185	1470.71
1019.476	1465.51
1019.767	1457.6
1020.058	1409.92
1020.35	1429.13
1020.641	1428.68
1020.932	1413.54
1021.223	1395.23
1021.514	1396.59
1021.804	1358.62
1022.095	1399.3
1022.386	1374.22
1022.677	1362.01
1022.967	1369.02
1023.258	1330.37
1023.548	1345.52
1023.839	1330.83
1024.129	1298.96
1024.419	1322.01
1024.709	1308.91
1025	1290.83
1025.29	1275.91
1025.58	1268.23
1025.87	1268.46
1026.16	1255.8
1026.449	1243.6
1026.739	1234.56
1027.029	1239.76
1027.319	1221.68
1027.608	1215.35
1027.898	1216.25
1028.187	1186.2
1028.477	1195.91
1028.766	1215.12
1029.055	1164.5
1029.344	1168.34
1029.634	1191.85
1029.923	1168.12
1030.212	1157.27
1030.501	1132.87
1030.79	1129.02
1031.078	1098.97
1031.367	1098.29
1031.656	1138.52
1031.945	1108.69
1032.233	1117.05
1032.522	1086.31
1032.81	1095.8
1033.099	1101
1033.387	1071.85
1033.675	1050.16
1033.963	1057.39
1034.251	1053.55
1034.54	1037.05
1034.828	1018.29
1035.116	1027.56
1035.403	1037.73
1035.691	1002.93
1035.979	1004.96
1036.267	1011.96
1036.554	981.91
1036.842	991.4
1037.129	980.55
1037.417	970.38
1037.704	962.02
1037.992	972.19
1038.279	938.07
1038.566	934.45
1038.853	934.45
1039.14	934.45
