Data from hue_70_FLMS001491_53.txt Node
Date: Mon Feb 06 15:21:07 GMT 2017
User: dcchb
Spectrometer: FLMS00149
Trigger mode: 0
Integration Time (sec): 2.000000E-2
Scans to average: 10
Electric dark correction enabled: true
Nonlinearity correction enabled: false
Boxcar width: 0
XAxis mode: Wavelengths
Number of Pixels in Spectrum: 2048
>>>>>Begin Spectral Data<<<<<
341.393	-6.34
341.776	-6.34
342.16	-6.34
342.543	-65.55
342.927	-63.52
343.31	-80.92
343.693	-66.91
344.077	-70.07
344.46	-60.8
344.843	-40.92
345.226	-56.51
345.61	-19.22
345.993	-22.16
346.376	-15.61
346.759	23.26
347.142	26.88
347.525	51.06
347.908	50.38
348.291	75.69
348.674	87.67
349.057	118.17
349.44	122.69
349.823	150.94
350.206	155.01
350.588	188.46
350.971	206.76
351.354	207.44
351.737	205.63
352.119	245.18
352.502	261.22
352.884	286.53
353.267	283.82
353.65	305.29
354.032	290.83
354.414	295.12
354.797	311.84
355.179	331.05
355.562	329.47
355.944	310.49
356.326	311.62
356.709	333.76
357.091	311.62
357.473	329.69
357.855	359.98
358.238	348.23
358.62	334.89
359.002	340.32
359.384	352.07
359.766	350.49
360.148	343.25
360.53	344.16
360.912	316.59
361.294	336.93
361.676	321.33
362.057	324.95
362.439	331.28
362.821	335.12
363.203	323.14
363.584	326.08
363.966	314.33
364.348	334.67
364.729	301.67
365.111	343.48
365.493	322.69
365.874	303.93
366.256	303.03
366.637	303.48
367.019	328.11
367.4	303.25
367.781	315.91
368.163	315.46
368.544	302.8
368.925	320.43
369.306	309.81
369.688	303.03
370.069	305.51
370.45	332.18
370.831	307.77
371.212	300.54
371.593	321.56
371.974	308.23
372.355	311.62
372.736	308.23
373.117	312.07
373.498	327.66
373.879	314.55
374.26	299.86
374.641	320.43
375.021	326.3
375.402	325.85
375.783	335.34
376.163	318.62
376.544	311.16
376.925	327.89
377.305	314.78
377.686	310.49
378.066	320.88
378.447	335.57
378.827	323.14
379.208	325.4
379.588	327.89
379.968	334.44
380.349	317.04
380.729	312.29
381.109	343.03
381.489	332.63
381.87	320.88
382.25	342.8
382.63	304.38
383.01	336.47
383.39	321.11
383.77	315.91
384.15	328.34
384.53	324.27
384.91	333.08
385.29	348
385.67	352.07
386.049	349.81
386.429	328.56
386.809	335.12
387.189	338.28
387.568	346.87
387.948	351.84
388.328	331.95
388.707	350.71
389.087	340.32
389.466	321.11
389.846	357.04
390.225	330.15
390.605	347.55
390.984	357.04
391.363	354.33
391.743	353.2
392.122	361.11
392.501	344.16
392.881	363.14
393.26	394.33
393.639	348
394.018	351.62
394.397	377.6
394.776	361.78
395.155	377.83
395.534	375.57
395.913	354.78
396.292	369.92
396.671	342.8
397.05	358.85
397.429	346.19
397.808	366.3
398.186	389.81
398.565	401.78
398.944	380.09
399.323	383.93
399.701	378.73
400.08	377.38
400.458	380.77
400.837	413.53
401.215	392.07
401.594	369.69
401.972	368.79
402.351	374.67
402.729	406.53
403.107	391.39
403.486	382.12
403.864	399.98
404.242	399.52
404.62	399.98
404.999	383.7
405.377	385.29
405.755	386.87
406.133	385.29
406.511	409.01
406.889	387.09
407.267	385.06
407.645	397.94
408.023	407.88
408.401	405.17
408.779	426.42
409.156	408.34
409.534	430.26
409.912	425.29
410.29	420.09
410.667	412.63
411.045	424.38
411.422	416.92
411.8	424.83
412.178	438.84
412.555	457.15
412.933	437.04
413.31	437.71
413.687	437.94
414.065	455.79
414.442	443.82
414.819	467.32
415.197	443.82
415.574	454.66
415.951	464.61
416.328	439.97
416.705	441.1
417.082	472.52
417.46	480.2
417.837	470.93
418.214	475.45
418.591	490.59
418.967	477.94
419.344	467.54
419.721	468
420.098	482.91
420.475	485.62
420.852	502.8
421.228	498.73
421.605	502.12
421.982	479.52
422.358	502.12
422.735	498.96
423.111	482.91
423.488	498.96
423.864	519.07
424.241	502.8
424.617	495.34
424.994	514.1
425.37	483.59
425.746	503.7
426.123	498.73
426.499	519.75
426.875	527.2
427.251	540.54
427.627	551.84
428.003	568.78
428.379	531.72
428.756	565.62
429.132	566.07
429.507	552.97
429.883	570.82
430.259	556.81
430.635	560.88
431.011	576.92
431.387	563.13
431.763	573.3
432.138	585.28
432.514	592.29
432.89	588.67
433.265	574.21
433.641	607.88
434.016	611.04
434.392	608.56
434.767	618.95
435.143	632.96
435.518	615.11
435.894	651.95
436.269	630.25
436.644	612.85
437.02	635.9
437.395	613.53
437.77	668.67
438.145	668.44
438.52	651.72
438.895	681.1
439.271	667.54
439.646	662.34
440.021	693.75
440.395	685.17
440.77	656.69
441.145	658.73
441.52	696.01
441.895	683.81
442.27	690.14
442.645	693.07
443.019	709.57
443.394	707.76
443.769	739.85
444.143	718.84
444.518	721.1
444.892	729.23
445.267	724.03
445.641	725.16
446.016	698.27
446.39	722.9
446.764	743.47
447.139	738.05
447.513	762.68
447.887	766.52
448.262	757.71
448.636	745.95
449.01	758.38
449.384	783.69
449.758	768.1
450.132	762.68
450.506	759.74
450.88	795.45
451.254	785.28
451.628	786.63
452.002	790.47
452.376	813.52
452.75	825.27
453.123	803.13
453.497	829.79
453.871	824.14
454.244	853.3
454.618	867.31
454.992	866.86
455.365	865.73
455.739	863.92
456.112	880.19
456.486	889
456.859	904.59
457.232	904.14
457.606	922.45
457.979	915.89
458.352	923.35
458.725	949.34
459.099	929.68
459.472	979.17
459.845	997.47
460.218	1002.67
460.591	950.92
460.964	993.41
461.337	1018.94
461.71	1049.68
462.083	1032.73
462.456	1024.82
462.829	1045.16
463.201	1070.69
463.574	1067.53
463.947	1066.17
464.32	1101.43
464.692	1138.49
465.065	1137.81
465.438	1145.94
465.81	1139.62
466.183	1166.28
466.555	1194.08
466.928	1202.21
467.3	1204.93
467.672	1204.02
468.045	1246.05
468.417	1283.12
468.789	1303.45
469.161	1301.42
469.534	1325.83
469.906	1350.46
470.278	1367.41
470.65	1376.45
471.022	1413.51
471.394	1448.76
471.766	1446.28
472.138	1478.82
472.51	1531.47
472.882	1564.46
473.253	1594.52
473.625	1619.83
473.997	1683.11
474.369	1705.03
474.74	1740.05
475.112	1771.24
475.484	1813.27
475.855	1900.27
476.227	1901.63
476.598	1923.33
476.97	1975.75
477.341	2055.53
477.713	2107.05
478.084	2111.79
478.455	2193.15
478.827	2265.46
479.198	2332.58
479.569	2378
479.94	2481.73
480.311	2502.97
480.682	2573.25
481.053	2644.89
481.424	2787.03
481.795	2823.87
482.166	2910.64
482.537	2955.84
482.908	3065.89
483.279	3115.61
483.65	3225.21
484.021	3329.62
484.391	3456.17
484.762	3490.97
485.133	3581.13
485.503	3685.31
485.874	3771.19
486.244	3902.48
486.615	4024.29
486.985	4147.22
487.356	4249.37
487.726	4339.98
488.097	4504.73
488.467	4545.18
488.837	4735.91
489.207	4876.47
489.578	4987.88
489.948	5090.93
490.318	5259.28
490.688	5331.37
491.058	5493.63
491.428	5620.63
491.798	5777.69
492.168	5938.81
492.538	6043.67
492.908	6182.2
493.278	6347.84
493.648	6464.22
494.017	6602.98
494.387	6769.3
494.757	6908.5
495.126	6961.84
495.496	7069.63
495.866	7239.12
496.235	7356.4
496.605	7513.01
496.974	7666.9
497.344	7820.8
497.713	7875.49
498.082	8147.12
498.452	8269.37
498.821	8326.77
499.19	8466.43
499.559	8591.4
499.928	8690.83
500.298	8854.22
500.667	8936.93
501.036	9030.48
501.405	9201.33
501.774	9286.97
502.143	9439.96
502.512	9571.71
502.88	9691.26
503.249	9778.03
503.618	9928.76
503.987	9990.68
504.356	10128.31
504.724	10257.57
505.093	10369.43
505.462	10435.87
505.83	10596.09
506.199	10672.7
506.567	10881.51
506.936	11012.58
507.304	11107.94
507.672	11180.26
508.041	11314.04
508.409	11376.64
508.777	11473.58
509.145	11622.28
509.514	11656.85
509.882	11837.41
510.25	11860.24
510.618	12038.09
510.986	12075.15
511.354	12183.39
511.722	12362.82
512.09	12502.26
512.458	12418.87
512.826	12611.18
513.193	12704.96
513.561	12756.71
513.929	12903.83
514.297	13082.35
514.664	13091.39
515.032	13215.91
515.4	13361.22
515.767	13322.8
516.135	13461.55
516.502	13486.64
516.869	13666.75
517.237	13753.97
517.604	13750.36
517.972	13860.19
518.339	14019.5
518.706	14000.07
519.073	14065.83
519.44	14192.38
519.808	14317.8
520.175	14350.12
520.542	14614.06
520.909	14692.93
521.276	14669.88
521.643	14772.03
522.009	14850.22
522.376	14899.26
522.743	15011.57
523.11	15185.58
523.477	15357.55
523.843	15421.28
524.21	15419.69
524.577	15595.96
524.943	15672.57
525.31	15725
525.676	15902.39
526.043	15901.71
526.409	16040.69
526.776	16153.23
527.142	16214.02
527.508	16286.56
527.874	16320.69
528.241	16427.8
528.607	16461.7
528.973	16665.99
529.339	16634.58
529.705	16673.45
530.071	16807
530.437	16852.42
530.803	16921.35
531.169	17058.29
531.535	17064.62
531.901	17048.13
532.267	17108.01
532.632	17225.3
532.998	17218.29
533.364	17275.92
533.73	17249.93
534.095	17438.85
534.461	17482.01
534.826	17434.33
535.192	17484.5
535.557	17646.3
535.923	17638.84
536.288	17661.67
536.653	17772.63
537.019	17669.8
537.384	17799.74
537.749	17873.87
538.114	17721.33
538.479	17838.84
538.845	17872.06
539.21	17835.68
539.575	17923.58
539.94	17938.95
540.305	18032.73
540.67	17953.86
541.034	17968.33
541.399	18020.75
541.764	18001.77
542.129	17979.4
542.494	18154.76
542.858	18230.69
543.223	18183.69
543.587	18090.81
543.952	18236.79
544.316	18289.9
544.681	18185.27
545.045	18267.08
545.41	18249
545.774	18299.84
546.138	18270.92
546.503	18272.05
546.867	18298.04
547.231	18399.73
547.595	18352.5
547.959	18398.37
548.324	18516.79
548.688	18397.47
549.052	18517.69
549.416	18519.27
549.779	18517.69
550.143	18465.49
550.507	18637.69
550.871	18561.31
551.235	18605.82
551.599	18618.25
551.962	18713.62
552.326	18733.73
552.689	18841.3
553.053	18736.89
553.417	18732.15
553.78	18902.54
554.143	18903.9
554.507	18838.59
554.87	18856.67
555.234	19084.46
555.597	18916.78
555.96	18973.27
556.323	19125.13
556.686	18980.28
557.05	19151.35
557.413	19190.89
557.776	19216.88
558.139	19281.29
558.502	19310.44
558.865	19332.81
559.228	19370.32
559.59	19387.27
559.953	19508.85
560.316	19573.48
560.679	19586.82
561.041	19698
561.404	19709.75
561.767	19789.75
562.129	19724.66
562.492	19931.21
562.854	19965.56
563.217	19980.48
563.579	19978.44
563.941	20049.4
564.304	20224.31
564.666	20242.17
565.028	20353.12
565.39	20290.07
565.753	20313.12
566.115	20421.14
566.477	20514.25
566.839	20563.51
567.201	20613
567.563	20681.25
567.925	20781.81
568.287	20662.49
568.648	20787.24
569.01	20878.53
569.372	20971.19
569.734	20879.21
570.095	20982.26
570.457	21027.91
570.819	21171.63
571.18	21039.66
571.542	21272.65
571.903	21286.66
572.265	21230.16
572.626	21360.33
572.987	21359.65
573.349	21387.45
573.71	21445.98
574.071	21537.05
574.432	21512.41
574.794	21750.15
575.155	21656.37
575.516	21602.58
575.877	21674.67
576.238	21817.72
576.599	21840.77
576.96	21780.88
577.32	21807.1
577.681	21862.46
578.042	21901.33
578.403	21888.68
578.763	21949.92
579.124	21997.83
579.485	21972.29
579.845	22099.74
580.206	22047.77
580.566	22040.76
580.927	22076.69
581.287	22153.75
581.648	22057.26
582.008	22139.97
582.368	22125.05
582.728	22095
583.089	22090.03
583.449	22018.84
583.809	22134.32
584.169	22104.04
584.529	21952.63
584.889	22219.29
585.249	22057.26
585.609	22161.89
585.969	22181.1
586.329	22128.67
586.688	22202.34
587.048	22234.43
587.408	22111.27
587.768	22203.7
588.127	22118.73
588.487	22109.24
588.846	22181.32
589.206	22110.59
589.565	21999.86
589.925	22159.18
590.284	22052.74
590.643	22099.29
591.003	22144.94
591.362	22132.96
591.721	22141.1
592.08	22169.57
592.44	22285.5
592.799	22171.83
593.158	22081.21
593.517	22242.79
593.876	22244.82
594.235	22161.44
594.593	22265.16
594.952	22296.57
595.311	22200.53
595.67	22153.75
596.029	22393.3
596.387	22215.45
596.746	22307.65
597.104	22245.5
597.463	22285.73
597.822	22437.14
598.18	22226.07
598.538	22273.52
598.897	22299.96
599.255	22140.87
599.613	22511.03
599.972	22307.65
600.33	22245.73
600.688	22375.22
601.046	22424.71
601.404	22466.74
601.762	22421.09
602.12	22487.53
602.478	22557.58
602.836	22577.47
603.194	22374.54
603.552	22517.81
603.91	22356.69
604.268	22497.7
604.625	22455.89
604.983	22597.58
605.341	22386.29
605.698	22589.22
606.056	22698.82
606.413	22548.77
606.771	22699.05
607.128	22631.71
607.485	22569.34
607.843	22630.13
608.2	22813.17
608.557	22864.92
608.914	22720.97
609.272	22842.55
609.629	22901.08
609.986	22973.17
610.343	22906.73
610.7	23014.3
611.057	22978.14
611.414	22986.27
611.771	22995.99
612.127	23084.58
612.484	23074.41
612.841	23092.94
613.198	23068.31
613.554	23125.48
613.911	23189.21
614.267	23268.53
614.624	23193.27
614.98	23282.99
615.337	23455.64
615.693	23384.68
616.05	23287.06
616.406	23513.72
616.762	23360.95
617.118	23362.76
617.475	23391.24
617.831	23471.69
618.187	23567.05
618.543	23575.41
618.899	23645.24
619.255	23626.71
619.611	23687.05
619.967	23622.87
620.323	23672.81
620.678	23712.36
621.034	23548.07
621.39	23562.98
621.746	23485.24
622.101	23804.78
622.457	23629.87
622.812	23768.4
623.168	23771.34
623.523	23874.16
623.879	23887.49
624.234	23579.48
624.589	23781.96
624.945	23926.14
625.3	23850.88
625.655	23807.95
626.01	23882.07
626.365	23841.62
626.72	23855.4
627.075	23783.99
627.43	23702.64
627.785	23796.87
628.14	23758.23
628.495	23807.95
628.85	23701.06
629.205	23743.77
629.559	23863.77
629.914	23707.16
630.269	23769.98
630.623	23781.06
630.978	23615.86
631.332	23801.85
631.687	23889.98
632.041	23692.02
632.396	23779.02
632.75	23670.32
633.104	23697.89
633.459	23584
633.813	23634.62
634.167	23565.47
634.521	23579.25
634.875	23627.61
635.229	23640.49
635.583	23339.49
635.937	23440.05
636.291	23460.39
636.645	23449.09
636.999	23381.74
637.352	23529.31
637.706	23311.92
638.06	23481.63
638.413	23408.86
638.767	23322.99
639.121	23243.67
639.474	23199.6
639.828	23384.23
640.181	23244.12
640.534	23260.62
640.888	23183.78
641.241	23128.87
641.594	23297.68
641.947	23273.72
642.301	23159.15
642.654	23154.63
643.007	23150.34
643.36	23153.73
643.713	23167.51
644.066	23215.65
644.419	23031.24
644.771	22900.4
645.124	22708.09
645.477	22649.33
645.83	22548.77
646.182	22365.95
646.535	22323.92
646.888	22329.79
647.24	22173.64
647.593	22320.75
647.945	22306.97
648.298	22269.46
648.65	22271.94
649.002	22245.95
649.355	22252.28
649.707	22202.57
650.059	22351.26
650.411	22685.04
650.763	22689.33
651.115	22827.63
651.467	22779.05
651.819	22740.63
652.171	22723.68
652.523	22733.63
652.875	22760.74
653.227	22565.04
653.578	22754.42
653.93	22767.97
654.282	22578.6
654.633	22564.82
654.985	22524.14
655.337	22798.26
655.688	22676.9
656.039	22680.29
656.391	22511.26
656.742	22566.4
657.094	22665.83
657.445	22683.23
657.796	22597.58
658.147	22605.04
658.498	22664.93
658.849	22745.38
659.2	22513.97
659.551	22598.26
659.902	22729.11
660.253	22666.51
660.604	22617.24
660.955	22555.1
661.306	22620.63
661.656	22654.98
662.007	22619.73
662.358	22686.85
662.708	22659.28
663.059	22539.28
663.409	22453.41
663.76	22603.69
664.11	22621.54
664.461	22650.69
664.811	22590.35
665.161	22614.98
665.511	22570.01
665.862	22550.35
666.212	22652.05
666.562	22572.27
666.912	22611.37
667.262	22692.27
667.612	22638.71
667.962	22620.41
668.312	22594.87
668.662	22673.97
669.011	22624.93
669.361	22511.48
669.711	22494.08
670.06	22466.74
670.41	22447.31
670.76	22457.02
671.109	22606.4
671.459	22524.82
671.808	22471.94
672.157	22536.79
672.507	22329.34
672.856	22319.85
673.205	22549.45
673.554	22516.46
673.904	22359.85
674.253	22444.37
674.602	22430.81
674.951	22166.41
675.3	22064.72
675.649	22254.09
675.998	22310.36
676.346	22286.18
676.695	22424.03
677.044	22206.86
677.393	22284.37
677.741	22234.66
678.09	22227.88
678.438	22197.14
678.787	22176.8
679.135	22149.91
679.484	22107.2
679.832	22227.88
680.181	21965.96
680.529	22069.91
680.877	21977.94
681.225	22039.41
681.573	22100.2
681.922	21798.28
682.27	21820.43
682.618	21781.79
682.966	21771.84
683.314	21769.58
683.661	21764.39
684.009	21696.82
684.357	21583.83
684.705	21624.05
685.053	21596.03
685.4	21601.45
685.748	21489.59
686.095	21479.42
686.443	21351.06
686.79	21301.57
687.138	21403.04
687.485	21555.35
687.832	21176.6
688.18	21202.59
688.527	21109.26
688.874	21136.15
689.221	21073.56
689.568	20968.93
689.915	20982.03
690.262	20979.32
690.609	20749.72
690.956	20785.88
691.303	20736.16
691.65	20720.12
691.997	20692.55
692.344	20561.25
692.69	20482.39
693.037	20534.36
693.383	20348.38
693.73	20486.9
694.077	20302.05
694.423	20198.55
694.769	20225.67
695.116	20119
695.462	20097.08
695.808	20086.24
696.155	20109.06
696.501	19986.35
696.847	20030.65
697.193	19817.32
697.539	19768.73
697.885	19624.78
698.231	19576.65
698.577	19554.95
698.923	19667.49
699.269	19428.63
699.614	19364
699.96	19297.33
700.306	19342.53
700.651	19209.2
700.997	19111.12
701.342	19184.34
701.688	19092.59
702.033	18950
702.379	19056.89
702.724	18831.36
703.069	18928.75
703.415	18729.89
703.76	18705.26
704.105	18705.26
704.45	18638.37
704.795	18423.46
705.14	18549.55
705.485	18485.15
705.83	18333.97
706.175	18467.07
706.52	18346.62
706.865	18248.55
707.209	18171.26
707.554	18083.35
707.899	18286.06
708.243	18099.85
708.588	18159.28
708.932	18021.43
709.277	17899.4
709.621	17910.93
709.966	17850.14
710.31	17920.64
710.654	17624.61
710.998	17699.41
711.342	17723.14
711.687	17674.55
712.031	17619.41
712.375	17512.75
712.719	17611.73
713.063	17470.49
713.407	17539.19
713.75	17397.04
714.094	17408.79
714.438	17353.88
714.782	17421.45
715.125	17326.54
715.469	17318.63
715.812	17160.44
716.156	17134.68
716.499	17092.42
716.843	17180.1
717.186	17052.64
717.53	17062.81
717.873	17094.9
718.216	17024.62
718.559	16968.58
718.902	16860.79
719.246	16939.2
719.589	16904.63
719.932	16794.12
720.275	16858.07
720.617	16774.69
720.96	16756.16
721.303	16708.47
721.646	16761.58
721.989	16616.72
722.331	16695.37
722.674	16590.06
723.016	16609.49
723.359	16651.75
723.701	16629.61
724.044	16585.31
724.386	16391.42
724.729	16549.16
725.071	16395.49
725.413	16407.69
725.755	16475.71
726.097	16362.04
726.439	16294.02
726.782	16295.38
727.124	16375.15
727.465	16269.84
727.807	16303.29
728.149	16297.41
728.491	16299.9
728.833	16268.26
729.175	16241.59
729.516	16279.78
729.858	16191.88
730.199	16204.31
730.541	16132.22
730.882	16177.19
731.224	16258.99
731.565	16051.99
731.906	16139.9
732.248	16124.53
732.589	16127.25
732.93	16059.45
733.271	16011.77
733.612	16059.45
733.953	16045.67
734.294	16049.51
734.635	16009.73
734.976	16014.93
735.317	15903.3
735.658	15889.06
735.999	16004.08
736.339	15958.44
736.68	15939.45
737.021	15923.18
737.361	15813.58
737.702	15986.91
738.042	15916.86
738.383	15891.55
738.723	15955.95
739.063	15857.65
739.404	15931.32
739.744	15933.58
740.084	15815.16
740.424	15917.08
740.764	15806.12
741.104	15946.91
741.444	15809.29
741.784	15765
742.124	15860.13
742.464	15780.14
742.804	15907.82
743.143	15884.99
743.483	15849.29
743.823	15790.53
744.162	15840.47
744.502	15884.99
744.841	15856.74
745.181	15911.21
745.52	15848.83
745.86	15911.43
746.199	15964.31
746.538	15927.48
746.877	16098.32
747.216	16077.76
747.556	16016.51
747.895	16086.79
748.234	16066.23
748.573	16056.06
748.911	16004.08
749.25	16116.85
749.589	16157.53
749.928	16217.41
750.267	16297.64
750.605	16273.68
750.944	16357.3
751.283	16342.16
751.621	16437.97
751.96	16344.19
752.298	16517.52
752.636	16607.46
752.975	16600
753.313	16557.52
753.651	16732.65
753.989	16711.64
754.327	16865.53
754.666	16917.28
755.004	16929.94
755.342	17022.82
755.679	17152.08
756.017	17105.07
756.355	17232.3
756.693	17191.17
757.031	17258.74
757.368	17269.36
757.706	17368.79
758.044	17388.23
758.381	17568.34
758.719	17558.85
759.056	17632.52
759.394	17692.4
759.731	17737.15
760.068	17689.24
760.405	17811.72
760.743	17881.55
761.08	18034.99
761.417	17930.59
761.754	18032.96
762.091	18030.7
762.428	18098.72
762.765	17990.7
763.102	18181.65
763.438	18071.38
763.775	18248.55
764.112	18301.43
764.449	18404.7
764.785	18347.3
765.122	18356.79
765.458	18350.69
765.795	18430.69
766.131	18542.78
766.467	18367.86
766.804	18416.68
767.14	18416.22
767.476	18545.49
767.812	18496.45
768.148	18522.89
768.485	18468.88
768.821	18509.1
769.157	18531.25
769.492	18501.19
769.828	18561.53
770.164	18336.23
770.5	18444.47
770.836	18456.45
771.171	18354.76
771.507	18502.78
771.842	18372.38
772.178	18398.6
772.513	18390.01
772.849	18422.1
773.184	18344.36
773.519	18433.85
773.855	18299.84
774.19	18282.67
774.525	18331.48
774.86	18190.92
775.195	18308.21
775.53	18216.68
775.865	18097.14
776.2	18072.96
776.535	17987.31
776.87	17986.86
777.205	17922
777.539	17836.81
777.874	17966.07
778.209	17805.62
778.543	17768.78
778.878	17641.33
779.212	17699.18
779.547	17591.61
779.881	17642.01
780.215	17572.18
780.55	17572.18
780.884	17540.99
781.218	17557.49
781.552	17489.7
781.886	17435.46
782.22	17265.29
782.554	17277.27
782.888	17126.54
783.222	17139.87
783.556	17074.34
783.889	17030.05
784.223	16957.51
784.557	16909.15
784.89	16954.79
785.224	16832.31
785.557	16719.55
785.891	16731.3
786.224	16692.43
786.558	16693.33
786.891	16503.28
787.224	16546.44
787.557	16543.96
787.891	16487.46
788.224	16346.67
788.557	16486.33
788.89	16365.21
789.223	16400.01
789.556	16182.61
789.888	16169.73
790.221	16188.03
790.554	16092.22
790.887	16071.65
791.219	16072.78
791.552	15944.43
791.884	15936.74
792.217	15887.03
792.549	15818.55
792.882	15744.66
793.214	15598.22
793.546	15691.32
793.879	15503.53
794.211	15407.94
794.543	15482.74
794.875	15525
795.207	15503.98
795.539	15339.92
795.871	15349.64
796.203	15176.99
796.535	15237.78
796.867	15130.66
797.198	15061.74
797.53	15127.5
797.862	14975.19
798.193	15077.33
798.525	14931.34
798.856	15047.5
799.188	14780.16
799.519	14752.37
799.85	14785.13
800.182	14643.44
800.513	14669.66
800.844	14585.82
801.175	14746.26
801.506	14559.38
801.837	14539.72
802.168	14512.6
802.499	14436.22
802.83	14327.97
803.161	14328.87
803.491	14328.2
803.822	14381.3
804.153	14154.64
804.483	14142.66
804.814	14096.56
805.145	14137.69
805.475	14105.83
805.805	14031.93
806.136	14028.77
806.466	13963.46
806.796	13904.03
807.126	13753.3
807.457	13823.8
807.787	13840.75
808.117	13786.52
808.447	13709
808.777	13750.81
809.107	13663.13
809.436	13653.19
809.766	13577.93
810.096	13612.74
810.426	13467.65
810.755	13501.33
811.085	13471.5
811.414	13507.43
811.744	13324.38
812.073	13341.78
812.403	13348.34
812.732	13231.28
813.061	13255.46
813.39	13213.88
813.719	13165.52
814.049	13181.33
814.378	13229.02
814.707	13075.57
815.036	13137.49
815.365	13044.61
815.693	12934.11
816.022	12942.24
816.351	12879.42
816.68	12849.37
817.008	12836.26
817.337	12785.64
817.665	12811.4
817.994	12770.27
818.322	12754.9
818.651	12695.02
818.979	12664.96
819.307	12671.07
819.636	12655.7
819.964	12568.92
820.292	12624.51
820.62	12601.69
820.948	12562.37
821.276	12556.27
821.604	12500
821.932	12535.93
822.259	12515.14
822.587	12486.21
822.915	12525.08
823.243	12487.57
823.57	12473.78
823.898	12533.89
824.225	12487.79
824.553	12430.39
824.88	12378.64
825.207	12561.69
825.535	12483.5
825.862	12427.68
826.189	12434.69
826.516	12487.34
826.843	12559.88
827.17	12496.83
827.497	12513.78
827.824	12508.58
828.151	12530.28
828.478	12458.64
828.805	12576.6
829.131	12382.03
829.458	12475.82
829.785	12405.08
830.111	12468.58
830.438	12483.95
830.764	12463.39
831.09	12458.87
831.417	12363.95
831.743	12442.37
832.069	12474.69
832.395	12316.95
832.722	12408.25
833.048	12275.82
833.374	12318.08
833.7	12206.67
834.026	12344.97
834.351	12402.37
834.677	12256.39
835.003	12344.07
835.329	12251.64
835.654	12230.4
835.98	12295.71
836.306	12290.51
836.631	12202.38
836.956	12294.8
837.282	12185.43
837.607	12145.88
837.932	12120.12
838.258	12150.17
838.583	12204.41
838.908	12019.56
839.233	12135.03
839.558	12075.83
839.883	11975.26
840.208	11953.34
840.533	11980.24
840.858	12019.33
841.182	11956.96
841.507	11912.44
841.832	11914.93
842.156	11863.4
842.481	11875.38
842.805	11846
843.13	11744.08
843.454	11819.11
843.778	11720.13
844.103	11700.24
844.427	11662.05
844.751	11729.62
845.075	11627.7
845.399	11640.58
845.723	11538.67
846.047	11552.68
846.371	11408.5
846.695	11493.02
847.019	11300.71
847.343	11358.11
847.666	11164.44
847.99	11229.07
848.313	11171.44
848.637	11148.85
848.96	11109.98
849.284	11114.95
849.607	10953.14
849.931	11009.87
850.254	10899.36
850.577	10911.34
850.9	10757.22
851.223	10853.71
851.546	10716.99
851.869	10606.03
852.192	10740.95
852.515	10607.62
852.838	10605.36
853.161	10565.81
853.483	10548.86
853.806	10459.15
854.129	10441.29
854.451	10407.85
854.774	10365.59
855.096	10298.47
855.419	10282.43
855.741	10263.67
856.063	10221.19
856.385	10233.16
856.708	10093.05
857.03	10081.98
857.352	10172.15
857.674	10072.49
857.996	10047.41
858.318	9987.29
858.64	10030.68
858.961	9997.01
859.283	9950.46
859.605	9866.17
859.926	9882.21
860.248	9804.93
860.57	9846.73
860.891	9859.61
861.212	9752.05
861.534	9824.13
861.855	9680.41
862.176	9778.49
862.498	9745.72
862.819	9730.8
863.14	9667.3
863.461	9633.86
863.782	9621.43
864.103	9584.14
864.424	9602.22
864.745	9615.1
865.065	9503.01
865.386	9523.13
865.707	9523.8
866.027	9498.95
866.348	9410.81
866.668	9496.46
866.989	9460.75
867.309	9383.92
867.63	9359.51
867.95	9419.17
868.27	9369.91
868.59	9331.49
868.91	9318.61
869.23	9350.7
869.55	9343.02
869.87	9301.44
870.19	9309.8
870.51	9353.86
870.83	9337.37
871.15	9231.16
871.469	9234.77
871.789	9262.34
872.109	9274.77
872.428	9166.98
872.748	9244.26
873.067	9125.4
873.386	9158.62
873.706	9135.11
874.025	9077.26
874.344	9116.13
874.663	9109.58
874.982	9064.83
875.301	9081.1
875.62	9066.64
875.939	9039.75
876.258	8987.77
876.577	9002.69
876.896	8988
877.214	8886.08
877.533	8929.24
877.852	8946.19
878.17	8908.9
878.489	8931.28
878.807	8905.29
879.125	8867.55
879.444	8891.73
879.762	8870.49
880.08	8890.15
880.398	8764.5
880.716	8852.18
881.034	8834.1
881.352	8750.72
881.67	8741.45
881.988	8767.21
882.306	8716.14
882.624	8750.26
882.941	8674.11
883.259	8597.27
883.577	8597.73
883.894	8565.18
884.212	8591.62
884.529	8586.43
884.846	8512.3
885.164	8505.52
885.481	8470.72
885.798	8539.42
886.115	8492.87
886.432	8410.16
886.75	8413.1
887.067	8447.45
887.383	8425.53
887.7	8365.42
888.017	8367.9
888.334	8298.98
888.651	8364.29
888.967	8267.57
889.284	8306.66
889.6	8223.95
889.917	8206.1
890.233	8191.63
890.55	8131.3
890.866	8192.09
891.182	8165.19
891.498	8108.02
891.815	8129.26
892.131	8077.51
892.447	8037.06
892.763	8001.81
893.079	8021.24
893.395	7963.84
893.71	7908.48
894.026	7933.79
894.342	7863.96
894.657	7876.39
894.973	7869.38
895.289	7774.02
895.604	7859.21
895.92	7741.93
896.235	7721.59
896.55	7717.75
896.865	7658.32
897.181	7659.45
897.496	7697.64
897.811	7634.36
898.126	7620.58
898.441	7542.39
898.756	7537.19
899.071	7503.29
899.386	7469.85
899.7	7459.45
900.015	7404.99
900.33	7390.75
900.644	7374.71
900.959	7395.5
901.273	7266.91
901.588	7303.52
901.902	7244.09
902.216	7224.88
902.531	7210.42
902.845	7209.51
903.159	7135.39
903.473	7130.87
903.787	7071.21
904.101	7072.79
904.415	7057.43
904.729	7035.51
905.042	6978.56
905.356	6937.66
905.67	6910.76
905.984	6931.78
906.297	6911.89
906.611	6902.18
906.924	6847.72
907.237	6877.32
907.551	6816.98
907.864	6797.77
908.177	6774.27
908.491	6730.2
908.804	6721.39
909.117	6650.43
909.43	6645.01
909.743	6586.03
910.056	6574.05
910.368	6560.04
910.681	6524.33
910.994	6502.41
911.307	6441.85
911.619	6454.73
911.932	6437.78
912.244	6467.39
912.557	6426.71
912.869	6353.72
913.181	6300.61
913.494	6329.99
913.806	6237.79
914.118	6294.51
914.43	6177
914.742	6175.19
915.054	6116.66
915.366	6145.59
915.678	6063.78
915.99	6122.08
916.302	6042.76
916.613	6000.28
916.925	5986.04
917.236	5948.98
917.548	5971.35
917.859	5934.75
918.171	5916.67
918.482	5901.07
918.794	5903.79
919.105	5843.9
919.416	5828.31
919.727	5813.39
920.038	5755.09
920.349	5797.57
920.66	5676.67
920.971	5719.16
921.282	5652.27
921.593	5643.68
921.903	5629.67
922.214	5634.19
922.525	5581.76
922.835	5531.82
923.146	5579.95
923.456	5530.69
923.767	5483.91
924.077	5465.15
924.387	5462.67
924.697	5423.12
925.008	5433.97
925.318	5406.85
925.628	5405.95
925.938	5351.48
926.248	5325.72
926.558	5340.64
926.867	5269
927.177	5249.79
927.487	5220.19
927.796	5181.77
928.106	5200.75
928.416	5182.9
928.725	5149.91
929.034	5103.35
929.344	5153.52
929.653	5130.25
929.962	5040.53
930.271	5025.16
930.581	5018.84
930.89	5001.66
931.199	4977.03
931.508	4939.52
931.817	4956.47
932.125	4904.72
932.434	4942
932.743	4878.05
933.051	4842.8
933.36	4839.18
933.669	4790.82
933.977	4804.61
934.286	4808.45
934.594	4817.71
934.902	4723.03
935.21	4773.65
935.519	4709.01
935.827	4724.83
936.135	4655.91
936.443	4611.84
936.751	4586.76
937.059	4609.81
937.367	4597.83
937.674	4584.95
937.982	4546.76
938.29	4485.74
938.597	4548.34
938.905	4500.88
939.213	4431.96
939.52	4431.96
939.827	4452.07
940.135	4378.63
940.442	4356.71
940.749	4340.66
941.056	4335.01
941.363	4305.41
941.67	4329.36
941.977	4325.52
942.284	4261.57
942.591	4220.21
942.898	4263.83
943.205	4245.52
943.511	4217.73
943.818	4207.56
944.125	4170.95
944.431	4134.79
944.738	4116.49
945.044	4109.48
945.35	4092.76
945.657	4111.52
945.963	4039.88
946.269	4028.35
946.575	3990.16
946.881	4038.07
947.187	3986.32
947.493	4019.77
947.799	3956.94
948.105	3971.41
948.41	3889.83
948.716	3916.95
949.022	3922.37
949.327	3902.26
949.633	3849.83
949.938	3831.75
950.244	3822.71
950.549	3792.43
950.854	3789.49
951.16	3763.95
951.465	3761.24
951.77	3728.93
952.075	3753.79
952.38	3716.72
952.685	3690.96
952.99	3658.19
953.294	3708.36
953.599	3637.18
953.904	3655.26
954.209	3639.66
954.513	3633.79
954.818	3567.58
955.122	3582.26
955.426	3581.81
955.731	3538.42
956.035	3510.4
956.339	3458.43
956.643	3501.36
956.948	3462.27
957.252	3444.19
957.556	3450.29
957.86	3437.86
958.163	3420.23
958.467	3435.15
958.771	3408.26
959.075	3437.64
959.378	3362.38
959.682	3363.06
959.985	3348.15
960.289	3294.14
960.592	3274.02
960.896	3321.25
961.199	3288.04
961.502	3272.44
961.805	3273.35
962.108	3256.62
962.411	3249.17
962.714	3198.32
963.017	3235.83
963.32	3202.39
963.623	3183.63
963.926	3168.72
964.228	3140.92
964.531	3126.91
964.833	3158.09
965.136	3091.43
965.438	3081.03
965.741	3109.96
966.043	3081.71
966.345	3052.79
966.648	3038.32
966.95	3072.22
967.252	3000.81
967.554	3003.3
967.856	3019.57
968.158	2937.31
968.46	2981.38
968.761	2924.65
969.063	2952.22
969.365	2919.91
969.666	2938.44
969.968	2897.99
970.269	2878.1
970.571	2897.54
970.872	2885.56
971.174	2887.14
971.475	2860.02
971.776	2834.26
972.077	2816.63
972.378	2793.13
972.679	2801.72
972.98	2817.54
973.281	2744.77
973.582	2777.54
973.883	2752.23
974.183	2714.49
974.484	2751.1
974.785	2724.43
975.085	2705
975.386	2718.33
975.686	2676.3
975.986	2677.2
976.287	2624.1
976.587	2620.71
976.887	2643.08
977.187	2652.12
977.487	2634.04
977.787	2576.42
978.087	2588.17
978.387	2568.51
978.687	2557.88
978.987	2563.76
979.286	2511.78
979.586	2542.97
979.885	2500.94
980.185	2490.77
980.484	2509.75
980.784	2479.24
981.083	2478.11
981.382	2446.48
981.682	2440.83
981.981	2466.36
982.28	2416.19
982.579	2373.71
982.878	2425.23
983.177	2378.91
983.475	2416.65
983.774	2415.97
984.073	2382.75
984.372	2334.84
984.67	2359.25
984.969	2359.02
985.267	2349.08
985.566	2310.21
985.864	2301.85
986.162	2310.66
986.461	2275.41
986.759	2279.25
987.057	2266.14
987.355	2242.86
987.653	2259.59
987.951	2236.09
988.249	2231.11
988.547	2242.86
988.844	2214.39
989.142	2210.55
989.44	2211.23
989.737	2165.35
990.035	2183.21
990.332	2176.65
990.63	2158.57
990.927	2126.26
991.224	2162.64
991.521	2117.44
991.819	2097.56
992.116	2106.6
992.413	2100.27
992.71	2061.17
993.006	2075.64
993.303	2041.29
993.6	2074.06
993.897	2042.64
994.193	2027.05
994.49	2002.19
994.787	2034.51
995.083	2001.52
995.379	2008.75
995.676	2018.92
995.972	2005.13
996.268	1940.27
996.565	1944.34
996.861	1962.87
997.157	1970.78
997.453	1936.43
997.749	1935.08
998.044	1892.59
998.34	1925.36
998.636	1934.62
998.932	1866.38
999.227	1884.23
999.523	1853.5
999.818	1864.34
1000.114	1844.91
1000.409	1828.41
1000.704	1833.16
1001	1813.5
1001.295	1796.77
1001.59	1815.53
1001.885	1806.94
1002.18	1788.87
1002.475	1767.85
1002.77	1777.11
1003.065	1753.84
1003.359	1722.88
1003.654	1739.6
1003.949	1723.78
1004.243	1701.64
1004.538	1731.24
1004.832	1697.12
1005.127	1683.33
1005.421	1674.74
1005.715	1685.14
1006.009	1665.93
1006.304	1666.83
1006.598	1650.34
1006.892	1644.24
1007.186	1607.4
1007.48	1609.44
1007.773	1614.18
1008.067	1605.59
1008.361	1569.21
1008.655	1581.41
1008.948	1552.49
1009.242	1546.39
1009.535	1520.85
1009.829	1560.17
1010.122	1528.76
1010.415	1554.3
1010.708	1521.53
1011.001	1515.43
1011.295	1504.35
1011.588	1481.53
1011.881	1490.79
1012.173	1499.61
1012.466	1492.38
1012.759	1465.71
1013.052	1450.57
1013.344	1468.65
1013.637	1468.87
1013.93	1451.7
1014.222	1425.49
1014.514	1434.75
1014.807	1403.56
1015.099	1408.31
1015.391	1401.98
1015.683	1387.52
1015.976	1378.25
1016.268	1361.53
1016.56	1366.96
1016.851	1324.02
1017.143	1359.05
1017.435	1331.02
1017.727	1332.83
1018.018	1308.88
1018.31	1293.96
1018.602	1316.56
1018.893	1305.04
1019.185	1318.82
1019.476	1273.17
1019.767	1279.95
1020.058	1258.03
1020.35	1287.18
1020.641	1257.35
1020.932	1267.3
1021.223	1247.41
1021.514	1244.02
1021.804	1212.61
1022.095	1211.25
1022.386	1210.35
1022.677	1199.95
1022.967	1204.47
1023.258	1173.97
1023.548	1172.84
1023.839	1180.52
1024.129	1171.03
1024.419	1160.86
1024.709	1168.99
1025	1154.98
1025.29	1139.84
1025.58	1150.46
1025.87	1134.19
1026.16	1126.28
1026.449	1101.88
1026.739	1085.83
1027.029	1098.49
1027.319	1077.92
1027.608	1091.71
1027.898	1077.92
1028.187	1062.78
1028.477	1026.17
1028.766	1066.17
1029.055	1027.98
1029.344	1036.12
1029.634	1039.05
1029.923	1023.46
1030.212	1010.35
1030.501	1026.4
1030.79	1009.68
1031.078	997.47
1031.367	1008.77
1031.656	986.63
1031.945	1000.41
1032.233	989.56
1032.522	974.65
1032.81	957.25
1033.099	964.25
1033.387	947.31
1033.675	972.84
1033.963	959.73
1034.251	940.98
1034.54	931.49
1034.828	916.35
1035.116	920.41
1035.403	920.87
1035.691	916.35
1035.979	906.85
1036.267	900.53
1036.554	899.62
1036.842	889.23
1037.129	877.25
1037.417	903.46
1037.704	870.7
1037.992	863.92
1038.279	850.58
1038.566	855.56
1038.853	855.56
1039.14	855.56
