Data from hue_26_FLMS001491_00098.txt Node
Date: Tue Feb 07 17:14:51 GMT 2017
User: dcchb
Spectrometer: FLMS00149
Trigger mode: 0
Integration Time (sec): 2.000000E-2
Scans to average: 10
Electric dark correction enabled: true
Nonlinearity correction enabled: false
Boxcar width: 0
XAxis mode: Wavelengths
Number of Pixels in Spectrum: 2048
>>>>>Begin Spectral Data<<<<<
341.393	-3.36
341.776	-3.36
342.16	-3.36
342.543	-60.54
342.927	-61.89
343.31	-72.74
343.693	-70.03
344.077	-81.1
344.46	-45.39
344.843	-44.72
345.226	-39.29
345.61	-39.97
345.993	-4.94
346.376	12.68
346.759	-3.81
347.142	32.57
347.525	47.71
347.908	50.87
348.291	80.25
348.674	80.03
349.057	97.88
349.44	120.93
349.823	146.69
350.206	176.97
350.588	212.68
350.971	200.93
351.354	249.06
351.737	258.78
352.119	277.54
352.502	273.69
352.884	258.33
353.267	312.34
353.65	314.37
354.032	324.09
354.414	336.74
354.797	321.38
355.179	322.73
355.562	358.44
355.944	324.31
356.326	340.36
356.709	353.69
357.091	354.6
357.473	351.66
357.855	346.23
358.238	345.56
358.62	339.45
359.002	359.79
359.384	351.66
359.766	360.47
360.148	348.95
360.53	376.74
360.912	360.47
361.294	336.74
361.676	357.53
362.057	348.04
362.439	345.56
362.821	357.53
363.203	331.09
363.584	342.62
363.966	342.62
364.348	334.26
364.729	346.23
365.111	331.54
365.493	338.1
365.874	338.55
366.256	332
366.637	332.22
367.019	317.31
367.4	321.38
367.781	328.38
368.163	327.48
368.544	357.08
368.925	362.28
369.306	363.86
369.688	346.69
370.069	348.72
370.45	349.17
370.831	359.57
371.212	338.55
371.593	351.88
371.974	334.71
372.355	332.67
372.736	353.47
373.117	361.15
373.498	319.34
373.879	342.84
374.26	334.93
374.641	341.71
375.021	348.95
375.402	361.6
375.783	345.1
376.163	372.22
376.544	368.61
376.925	352.11
377.305	363.41
377.686	355.05
378.066	368.83
378.447	349.4
378.827	360.02
379.208	351.88
379.588	364.09
379.968	347.59
380.349	370.64
380.729	361.15
381.109	378.1
381.489	373.58
381.87	382.17
382.25	373.13
382.63	376.06
383.01	358.21
383.39	396.18
383.77	385.1
384.15	383.52
384.53	364.09
384.91	393.01
385.29	388.49
385.67	382.17
386.049	384.2
386.429	400.92
386.809	416.74
387.189	398.21
387.568	404.76
387.948	391.66
388.328	406.12
388.707	418.77
389.087	425.55
389.466	418.77
389.846	384.88
390.225	407.48
390.605	438.43
390.984	398.89
391.363	431.2
391.743	431.66
392.122	420.36
392.501	425.33
392.881	440.69
393.26	423.75
393.639	415.84
394.018	427.14
394.397	423.75
394.776	440.92
395.155	429.62
395.534	449.28
395.913	449.51
396.292	458.55
396.671	449.51
397.05	433.46
397.429	450.19
397.808	443.41
398.186	444.31
398.565	459.23
398.944	466.68
399.323	470.98
399.701	473.46
400.08	461.94
400.458	469.39
400.837	480.47
401.215	463.74
401.594	479.34
401.972	468.72
402.351	490.86
402.729	507.59
403.107	477.98
403.486	471.2
403.864	493.35
404.242	503.07
404.62	496.74
404.999	521.37
405.377	524.53
405.755	508.26
406.133	505.1
406.511	520.69
406.889	502.16
407.267	515.49
407.645	538.77
408.023	521.37
408.401	510.98
408.779	554.82
409.156	535.38
409.534	527.92
409.912	534.7
410.29	546.45
410.667	547.36
411.045	553.91
411.422	579.22
411.8	556.62
412.178	573.8
412.555	581.93
412.933	587.81
413.31	611.09
413.687	592.33
414.065	606.79
414.442	595.27
414.819	601.37
415.197	619
415.574	597.98
415.951	621.03
416.328	647.02
416.705	631.42
417.082	653.34
417.46	639.56
417.837	639.79
418.214	637.53
418.591	671.42
418.967	658.99
419.344	647.92
419.721	656.51
420.098	688.15
420.475	665.32
420.852	676.62
421.228	660.35
421.605	675.04
421.982	663.97
422.358	712.33
422.735	690.63
423.111	696.96
423.488	708.26
423.864	719.11
424.241	721.14
424.617	714.13
424.994	742.16
425.37	718.43
425.746	750.97
426.123	746.45
426.499	764.75
426.875	752.78
427.251	770.86
427.627	772.44
428.003	783.74
428.379	764.08
428.756	787.58
429.132	796.62
429.507	816.96
429.883	806.56
430.259	807.24
430.635	823.51
431.011	833.23
431.387	845.66
431.763	865.09
432.138	877.29
432.514	881.59
432.89	879.55
433.265	885.43
433.641	895.82
434.016	899.67
434.392	934.47
434.767	933.11
435.143	960.91
435.518	941.47
435.894	945.99
436.269	956.61
436.644	973.56
437.02	962.94
437.395	976.05
437.77	985.77
438.145	974.47
438.52	1005.43
438.895	1026.67
439.271	1027.35
439.646	1065.76
440.021	1044.52
440.395	1071.86
440.77	1061.02
441.145	1040.9
441.52	1049.04
441.895	1057.85
442.27	1082.26
442.645	1073.22
443.019	1120.68
443.394	1103.95
443.769	1132.88
444.143	1113.9
444.518	1117.51
444.892	1115.93
445.267	1123.84
445.641	1163.84
446.016	1150.28
446.39	1149.6
446.764	1168.81
447.139	1155.48
447.513	1161.13
447.887	1188.92
448.262	1164.52
448.636	1186.21
449.01	1186.21
449.384	1218.98
449.758	1211.07
450.132	1233.89
450.506	1226.44
450.88	1249.49
451.254	1255.14
451.628	1261.92
452.002	1282.25
452.376	1262.82
452.75	1296.72
453.123	1306.89
453.497	1327
453.871	1339.88
454.244	1367.22
454.618	1378.52
454.992	1369.48
455.365	1383.72
455.739	1406.77
456.112	1414
456.486	1445.87
456.859	1463.27
457.232	1458.97
457.606	1487.22
457.979	1496.03
458.352	1525.64
458.725	1539.2
459.099	1526.77
459.472	1587.33
459.845	1578.07
460.218	1620.55
460.591	1621.68
460.964	1632.08
461.337	1642.24
461.71	1687.22
462.083	1713.66
462.456	1707.78
462.829	1689.48
463.201	1727.67
463.574	1758.85
463.947	1759.76
464.32	1813.09
464.692	1835.69
465.065	1848.57
465.438	1869.58
465.81	1892.18
466.183	1899.41
466.555	1950.49
466.928	1979.19
467.3	1964.27
467.672	1993.87
468.045	2039.3
468.417	2079.75
468.789	2065.06
469.161	2106.41
469.534	2115.68
469.906	2192.51
470.278	2177.82
470.65	2243.13
471.022	2270.7
471.394	2329.01
471.766	2351.15
472.138	2373.07
472.51	2426.63
472.882	2476.35
473.253	2491.04
473.625	2524.26
473.997	2606.51
474.369	2596.8
474.74	2644.03
475.112	2681.77
475.484	2721.99
475.855	2755.66
476.227	2779.62
476.598	2920.4
476.97	2910.91
477.341	3031.59
477.713	3043.34
478.084	3092.38
478.455	3186.39
478.827	3229.32
479.198	3298.02
479.569	3291.92
479.94	3411.01
480.311	3484.46
480.682	3542.08
481.053	3580.95
481.424	3667.28
481.795	3742.75
482.166	3794.28
482.537	3866.14
482.908	3929.87
483.279	3981.17
483.65	3992.69
484.021	4130.99
484.391	4203.53
484.762	4234.49
485.133	4307.49
485.503	4386.58
485.874	4485.33
486.244	4559.68
486.615	4657.31
486.985	4751.77
487.356	4808.49
487.726	4860.69
488.097	4965.32
488.467	5022.5
488.837	5190.63
489.207	5177.29
489.578	5253.45
489.948	5334.58
490.318	5415.03
490.688	5480.56
491.058	5550.62
491.428	5650.28
491.798	5716.94
492.168	5808.24
492.538	5867.44
492.908	5898.18
493.278	6027.67
493.648	6065.41
494.017	6092.07
494.387	6219.53
494.757	6274.67
495.126	6358.96
495.496	6334.55
495.866	6444.15
496.235	6515.34
496.605	6570.02
496.974	6582
497.344	6708.1
497.713	6766.86
498.082	6773.86
498.452	6884.82
498.821	6910.36
499.19	6967.53
499.559	7040.07
499.928	7037.13
500.298	7156.45
500.667	7194.64
501.036	7186.73
501.405	7281.87
501.774	7293.4
502.143	7319.61
502.512	7428.31
502.88	7415.43
503.249	7470.34
503.618	7492.49
503.987	7579.04
504.356	7612.48
504.724	7692.48
505.093	7764.8
505.462	7751.91
505.83	7833.72
506.199	7849.54
506.567	7963.66
506.936	7965.69
507.304	8019.03
507.672	8076.43
508.041	8122.98
508.409	8145.8
508.777	8291.79
509.145	8280.49
509.514	8289.75
509.882	8344.44
510.25	8415.63
510.618	8424.67
510.986	8462.18
511.354	8593.93
511.722	8655.17
512.09	8666.47
512.458	8676.64
512.826	8748.5
513.193	8802.96
513.561	8718.22
513.929	8885.9
514.297	8978.55
514.664	8940.58
515.032	8966.57
515.4	9049.73
515.767	9078.89
516.135	9155.49
516.502	9092.9
516.869	9226.23
517.237	9223.51
517.604	9273.23
517.972	9332.89
518.339	9405.43
518.706	9405.2
519.073	9449.05
519.44	9474.36
519.808	9608.82
520.175	9589.38
520.542	9700.11
520.909	9766.78
521.276	9749.38
521.643	9816.27
522.009	9840.67
522.376	9900.11
522.743	9938.3
523.11	9976.49
523.477	10122.02
523.843	10152.98
524.21	10285.86
524.577	10324.95
524.943	10344.16
525.31	10408.12
525.676	10432.3
526.043	10504.61
526.409	10605.17
526.776	10650.6
527.142	10609.47
527.508	10821.66
527.874	10823.02
528.241	10838.39
528.607	10855.11
528.973	11065.27
529.339	11060.08
529.705	11046.07
530.071	11254.2
530.437	11152.05
530.803	11329
531.169	11444.93
531.535	11441.08
531.901	11395.89
532.267	11475.21
532.632	11541.42
532.998	11654.86
533.364	11743.22
533.73	11716.56
534.095	11757.46
534.461	11889.89
534.826	11824.8
535.192	11899.83
535.557	12020.05
535.923	12021.63
536.288	12046.94
536.653	12162.42
537.019	12114.96
537.384	12144.12
537.749	12265.69
538.114	12319.7
538.479	12432.92
538.845	12433.6
539.21	12343.21
539.575	12520.15
539.94	12545.24
540.305	12654.16
540.67	12665.01
541.034	12655.51
541.399	12751.33
541.764	12749.75
542.129	12763.08
542.494	12861.84
542.858	12971.21
543.223	12983.19
543.587	13052.34
543.952	13032.68
544.316	13147.48
544.681	13156.29
545.045	13222.51
545.41	13314.03
545.774	13264.54
546.138	13350.64
546.503	13409.39
546.867	13399.22
547.231	13545.43
547.595	13634.92
547.959	13665.21
548.324	13652.1
548.688	13630.63
549.052	13754.24
549.416	13878.99
549.779	13892.32
550.143	13798.54
550.507	14012.99
550.871	13991.07
551.235	13992.43
551.599	14060.9
551.962	14143.84
552.326	14235.81
552.689	14243.27
553.053	14243.72
553.417	14206.43
553.78	14520.55
554.143	14414.79
554.507	14557.39
554.87	14480.55
555.234	14675.8
555.597	14561.91
555.96	14764.16
556.323	14740.88
556.686	14795.35
557.05	14784.27
557.413	14871.95
557.776	14987.2
558.139	15040.99
558.502	14986.07
558.865	15132.51
559.228	15161.21
559.59	15248.89
559.953	15299.06
560.316	15424.93
560.679	15325.05
561.041	15460.86
561.404	15530.92
561.767	15608.43
562.129	15537.02
562.492	15684.81
562.854	15624.25
563.217	15778.37
563.579	15751.48
563.941	15874.19
564.304	15942.66
564.666	16084.35
565.028	16000.74
565.39	16084.58
565.753	16229.43
566.115	16235.99
566.477	16399.37
566.839	16392.14
567.201	16460.16
567.563	16389.43
567.925	16488.41
568.287	16568.86
568.648	16654.73
569.01	16837.1
569.372	16784.9
569.734	16772.47
570.095	16919.58
570.457	17028.06
570.819	17007.94
571.18	17130.88
571.542	17187.6
571.903	17224.43
572.265	17408.61
572.626	17401.38
572.987	17541.26
573.349	17641.6
573.71	17684.99
574.071	17691.09
574.432	17880.46
574.794	18013.57
575.155	18046.56
575.516	18163.17
575.877	18126.11
576.238	18298.08
576.599	18419.43
576.96	18442.71
577.32	18627.79
577.681	18739.2
578.042	18948.91
578.403	18978.06
578.763	19175.57
579.124	19305.96
579.485	19415.56
579.845	19598.61
580.206	19681.54
580.566	19803.35
580.927	19919.5
581.287	20335.99
581.648	20335.09
582.008	20562.43
582.368	20858.01
582.728	20997.89
583.089	21225.46
583.449	21312.69
583.809	21587.71
584.169	22043.06
584.529	22097.53
584.889	22476.5
585.249	22518.08
585.609	22724.63
585.969	23057.95
586.329	23330.04
586.688	23609.12
587.048	23758.95
587.408	24103.8
587.768	24390.35
588.127	24705.82
588.487	24985.13
588.846	25572.24
589.206	25636.87
589.565	25890.65
589.925	26387.81
590.284	26590.52
590.643	27068.02
591.003	27503.03
591.362	27832.97
591.721	28023.25
592.08	28472.05
592.44	28924.69
592.799	29263.67
593.158	29547.27
593.517	29993.14
593.876	30468.61
594.235	30605.1
594.593	31035.14
594.952	31534.11
595.311	31765.97
595.67	32128.22
596.029	32706.96
596.387	33082.55
596.746	33523.67
597.104	33765.47
597.463	34120.49
597.822	34465.79
598.18	34918.88
598.538	35212.66
598.897	35801.8
599.255	35839.54
599.613	36633.42
599.972	36757.93
600.33	37197.47
600.688	37512.49
601.046	37856.21
601.404	38421.62
601.762	38707.26
602.12	39117.87
602.478	39539.1
602.836	39868.58
603.194	40031.29
603.552	40437.61
603.91	40612.75
604.268	40900.65
604.625	41238.04
604.983	41695.2
605.341	41850
605.698	42284.79
606.056	42695.4
606.413	42832.12
606.771	43283.86
607.128	43720.91
607.485	43823.28
607.843	44099.89
608.2	44592.08
608.557	44874.78
608.914	44928.56
609.272	45374.43
609.629	45592.73
609.986	45946.62
610.343	45898.71
610.7	46403.55
611.057	46663.66
611.414	46726.48
611.771	47116.3
612.127	47344.55
612.484	47365.11
612.841	47683.75
613.198	47810.52
613.554	47970.29
613.911	48315.59
614.267	48529.83
614.624	48564.4
614.98	48856.14
615.337	49175.23
615.693	49173.65
616.05	49316.47
616.406	49578.16
616.762	49644.6
617.118	49716.69
617.475	49945.61
617.831	50058.15
618.187	50198.03
618.543	50419.04
618.899	50624.91
619.255	50674.18
619.611	50605.7
619.967	50932.7
620.323	51052.7
620.678	50983.77
621.034	51069.42
621.39	51205.01
621.746	51185.58
622.101	51627.82
622.457	51411.78
622.812	51630.31
623.168	51686.35
623.523	51805.67
623.879	51962.73
624.234	51761.15
624.589	51926.8
624.945	51964.99
625.3	52164.53
625.655	52202.95
626.01	52238.2
626.365	52269.61
626.72	52336.73
627.075	52382.61
627.43	52397.75
627.785	52428.03
628.14	52526.33
628.495	52670.96
628.85	52636.16
629.205	52552.32
629.559	52792.99
629.914	52605.42
630.269	52717.96
630.623	52725.87
630.978	52609.04
631.332	52761.8
631.687	52878.86
632.041	52753.67
632.396	52869.6
632.75	52725.42
633.104	52837.73
633.459	52746.21
633.813	52826.89
634.167	52851.29
634.521	52786.89
634.875	52922.25
635.229	52721.58
635.583	52713.22
635.937	52702.37
636.291	52752.31
636.645	52852.65
636.999	52756.83
637.352	52766.55
637.706	52619.66
638.06	52819.2
638.413	52840.45
638.767	52618.76
639.121	52696.95
639.474	52673.22
639.828	52686.1
640.181	52825.53
640.534	52807.45
640.888	52652.66
641.241	52538.76
641.594	52654.69
641.947	52766.55
642.301	52623.73
642.654	52730.39
643.007	52601.58
643.36	52689.26
643.713	52598.65
644.066	52817.62
644.419	52501.02
644.771	52286.79
645.124	51997.53
645.477	51990.3
645.83	51693.58
646.182	51686.13
646.535	51650.65
646.888	51764.32
647.24	51462.18
647.593	51732.45
647.945	51648.16
648.298	51491.56
648.65	51416.53
649.002	51456.98
649.355	51529.97
649.707	51563.42
650.059	51689.06
650.411	52029.17
650.763	52032.11
651.115	52384.19
651.467	52269.61
651.819	52147.36
652.171	52208.15
652.523	52197.98
652.875	52159.33
653.227	52045.21
653.578	52243.4
653.93	52050.19
654.282	52039.56
654.633	51974.48
654.985	52061.71
655.337	52047.47
655.688	52103.97
656.039	52215.15
656.391	51930.41
656.742	51970.64
657.094	51968.83
657.445	52010.86
657.796	52011.99
658.147	51955.95
658.498	51965.22
658.849	52014.93
659.2	51956.63
659.551	51813.81
659.902	51981.26
660.253	51899.45
660.604	51955.5
660.955	51811.77
661.306	51921.15
661.656	51851.09
662.007	51920.24
662.358	51923.18
662.708	51927.02
663.059	51864.65
663.409	51685.67
663.76	51954.59
664.11	51990.07
664.461	51978.32
664.811	51967.02
665.161	51949.85
665.511	51802.73
665.862	51883.18
666.212	51975.61
666.562	51943.75
666.912	51825.78
667.262	51827.37
667.612	51706.01
667.962	51821.72
668.312	51678.44
668.662	51968.83
669.011	51802.51
669.361	51710.31
669.711	51707.6
670.06	51724.09
670.41	51706.69
670.76	51580.14
671.109	51713.7
671.459	51612.23
671.808	51593.93
672.157	51702.4
672.507	51462.4
672.856	51486.13
673.205	51514.38
673.554	51583.08
673.904	51553.93
674.253	51667.37
674.602	51561.61
674.951	51160.26
675.3	51016.09
675.649	51529.07
675.998	51522.97
676.346	51515.28
676.695	51574.94
677.044	51287.49
677.393	51397.55
677.741	51518.45
678.09	51390.32
678.438	51198.68
678.787	51333.82
679.135	51322.52
679.484	51070.1
679.832	51247.49
680.181	50934.06
680.529	51152.81
680.877	51068.52
681.225	50963.21
681.573	51169.76
681.922	50943.1
682.27	50848.63
682.618	50835.3
682.966	50756.66
683.314	50823.1
683.661	50718.02
684.009	50488.42
684.357	50453.16
684.705	50447.06
685.053	50500.62
685.4	50409.55
685.748	50341.08
686.095	50316.45
686.443	50172.49
686.79	50105.38
687.138	50221.31
687.485	50209.33
687.832	49976.34
688.18	50003.23
688.527	49854.08
688.874	49762.56
689.221	49791.04
689.568	49749.91
689.915	49601.66
690.262	49544.49
690.609	49561.44
690.956	49383.36
691.303	49208.45
691.65	49118.06
691.997	49183.59
692.344	48937.27
692.69	48826.77
693.037	48879.87
693.383	48587.9
693.73	48833.32
694.077	48646.21
694.423	48516.49
694.769	48429.26
695.116	48421.13
695.462	48276.5
695.808	48191.98
696.155	48126.67
696.501	47900.69
696.847	47923.51
697.193	47643.75
697.539	47669.74
697.885	47499.12
698.231	47378.67
698.577	47592.9
698.923	47383.87
699.269	47240.82
699.614	46951.56
699.96	46821.4
700.306	46896.2
700.651	46722.42
700.997	46702.08
701.342	46625.02
701.688	46414.18
702.033	46404.68
702.379	46437.68
702.724	46281.3
703.069	46449.43
703.415	45916.56
703.76	46012.15
704.105	45900.97
704.45	45886.73
704.795	45593.63
705.14	45526.51
705.485	45581.65
705.83	45367.65
706.175	45450.58
706.52	45105.73
706.865	45124.27
707.209	45145.06
707.554	45075.68
707.899	45013.31
708.243	44789.36
708.588	44709.36
708.932	44547.56
709.277	44265.98
709.621	44499.65
709.966	44215.14
710.31	44264.18
710.654	44062.6
710.998	44032.77
711.342	44071.41
711.687	43929.49
712.031	43711.42
712.375	43593.91
712.719	43560.24
713.063	43612.44
713.407	43611.54
713.75	43400.92
714.094	43319.57
714.438	43089.74
714.782	43135.17
715.125	43095.17
715.469	43052.23
715.812	42871.67
716.156	42804.55
716.499	42904.44
716.843	42746.47
717.186	42533.6
717.53	42785.57
717.873	42714.39
718.216	42480.27
718.559	42475.07
718.902	42174.51
719.246	42127.06
719.589	42140.39
719.932	41912.82
720.275	42079.83
720.617	41909.89
720.96	41803.67
721.303	41793.51
721.646	41849.78
721.989	41592.83
722.331	41802.77
722.674	41603.23
723.016	41651.81
723.359	41519.84
723.701	41485.49
724.044	41137.03
724.386	41222
724.729	41287.76
725.071	41058.84
725.413	40936.8
725.755	41011.38
726.097	40782.23
726.439	40593.54
726.782	40703.36
727.124	40868.78
727.465	40572.52
727.807	40469.25
728.149	40530.04
728.491	40439.42
728.833	40466.99
729.175	40251.17
729.516	40310.15
729.858	40284.39
730.199	40199.42
730.541	40113.55
730.882	40075.81
731.224	40166.88
731.565	39966.44
731.906	39946.55
732.248	39931.86
732.589	39704.3
732.93	39620.23
733.271	39673.79
733.612	39664.07
733.953	39724.41
734.294	39558.54
734.635	39464.08
734.976	39515.15
735.317	39340.91
735.658	39398.09
735.999	39321.25
736.339	39320.12
736.68	39288.49
737.021	39124.42
737.361	39066.12
737.702	39267.02
738.042	39001.94
738.383	38872
738.723	39010.53
739.063	38732.8
739.404	38910.64
739.744	38595.17
740.084	38583.42
740.424	38674.27
740.764	38524.67
741.104	38698.67
741.444	38459.36
741.784	38256.65
742.124	38476.53
742.464	38271.11
742.804	38129.87
743.143	38130.55
743.483	38174.39
743.823	38043.32
744.162	37941.4
744.502	38134.84
744.841	37928.97
745.181	37975.75
745.52	37761.3
745.86	37807.62
746.199	37700.51
746.538	37771.46
746.877	37664.35
747.216	37570.11
747.556	37493.51
747.895	37625.25
748.234	37496.44
748.573	37412.38
748.911	37349.78
749.25	37385.26
749.589	37176.68
749.928	37168.99
750.267	37154.53
750.605	37148.2
750.944	36899.4
751.283	36867.99
751.621	36975.1
751.96	36685.39
752.298	36689.23
752.636	36863.69
752.975	36636.13
753.313	36465.28
753.651	36571.72
753.989	36420.09
754.327	36340.32
754.666	36327.89
755.004	36262.58
755.342	36294.44
755.679	36108.46
756.017	35972.64
756.355	35888.12
756.693	35835.92
757.031	35924.28
757.368	35779.43
757.706	35680.67
758.044	35527.68
758.381	35525.65
758.719	35392.54
759.056	35368.14
759.394	35337.63
759.731	35154.13
760.068	35162.72
760.405	35005.21
760.743	34826.01
761.08	34796.85
761.417	34652.68
761.754	34662.85
762.091	34478.9
762.428	34519.12
762.765	34200.94
763.102	34470.76
763.438	34044.1
763.775	34055.63
764.112	34159.58
764.449	34122.97
764.785	33869.19
765.122	33645.02
765.458	33527.51
765.795	33498.58
766.131	33436.21
766.467	33428.3
766.804	33206.84
767.14	32991.03
767.476	33010.01
767.812	32769.11
768.148	32922.1
768.485	32748.77
768.821	32447.54
769.157	32435.79
769.492	32426.52
769.828	32277.82
770.164	32010.49
770.5	32054.78
770.836	31930.94
771.171	31788.8
771.507	31660.89
771.842	31565.98
772.178	31468.81
772.513	31396.49
772.849	31282.14
773.184	31141.36
773.519	31162.15
773.855	30939.55
774.19	30824.75
774.525	30731.42
774.86	30637.19
775.195	30633.57
775.53	30631.31
775.865	30335.05
776.2	30323.07
776.535	30018.67
776.87	30042.18
777.205	29837.21
777.539	29880.82
777.874	29850.32
778.209	29524.9
778.543	29538.01
778.878	29429.99
779.212	29350.44
779.547	29201.97
779.881	29162.2
780.215	28915.43
780.55	29053.95
780.884	28794.98
781.218	28746.39
781.552	28792.72
781.886	28544.81
782.22	28369.9
782.554	28275.89
782.888	28098.5
783.222	28033.42
783.556	27922.91
783.889	27752.29
784.223	27729.47
784.557	27552.3
784.89	27622.8
785.224	27385.75
785.557	27195.7
785.891	27188.24
786.224	27166.32
786.558	27079.99
786.891	26855.59
787.224	26776.05
787.557	26752.55
787.891	26656.28
788.224	26757.52
788.557	26636.62
788.89	26577.41
789.223	26499.44
789.556	26277.76
789.888	26231.43
790.221	26116.63
790.554	25940.82
790.887	25866.47
791.219	25796.41
791.552	25649.3
791.884	25659.47
792.217	25590.99
792.549	25411.56
792.882	25308.74
793.214	25171.12
793.546	25274.62
793.879	25147.39
794.211	24924.12
794.543	24965.47
794.875	24914.4
795.207	24837.79
795.539	24731.58
795.871	24767.96
796.203	24468.31
796.535	24436.45
796.867	24325.26
797.198	24330.46
797.53	24184.25
797.862	24122.11
798.193	24189.9
798.525	24037.59
798.856	23967.31
799.188	23706.07
799.519	23731.16
799.85	23551.95
800.182	23590.82
800.513	23555.57
800.844	23405.51
801.175	23582.69
801.506	23470.37
801.837	23315.12
802.168	23215.91
802.499	23146.99
802.83	23078.97
803.161	22969.37
803.491	22958.75
803.822	22957.62
804.153	22791.07
804.483	22676.49
804.814	22564.86
805.145	22559.21
805.475	22560.34
805.805	22426.33
806.136	22433.11
806.466	22374.36
806.796	22324.41
807.126	22180.24
807.457	22145.89
807.787	22125.77
808.117	21934.82
808.447	21990.41
808.777	21901.6
809.107	21738.21
809.436	21681.49
809.766	21704.09
810.096	21612.79
810.426	21650.31
810.755	21559.91
811.085	21431.56
811.414	21478.11
811.744	21332.12
812.073	21236.98
812.403	21249.64
812.732	21097.33
813.061	21220.49
813.39	21052.13
813.719	20942.98
814.049	21066.82
814.378	20862.98
814.707	20975.52
815.036	20834.06
815.365	20681.97
815.693	20525.59
816.022	20619.6
816.351	20563.1
816.68	20410.11
817.008	20491.69
817.337	20265.94
817.665	20223.68
817.994	20186.62
818.322	20171.7
818.651	20163.57
818.979	20047.86
819.307	20095.55
819.636	20102.32
819.964	19972.61
820.292	20049.44
820.62	19977.81
820.948	19921.54
821.276	19952.05
821.604	19819.39
821.932	19959.28
822.259	19898.71
822.587	19879.05
822.915	19763.35
823.243	19856.91
823.57	19820.52
823.898	19840.64
824.225	19839.96
824.553	19811.71
824.88	19799.96
825.207	19892.39
825.535	19769.68
825.862	19825.5
826.189	19697.59
826.516	19818.49
826.843	19911.6
827.17	19821.65
827.497	19856.23
827.824	19761.54
828.151	19784.37
828.478	19755.22
828.805	19823.01
829.131	19736.68
829.458	19714.31
829.785	19649.68
830.111	19729.45
830.438	19775.55
830.764	19723.58
831.09	19825.04
831.417	19653.07
831.743	19742.56
832.069	19767.64
832.395	19666.4
832.722	19736.91
833.048	19533.3
833.374	19665.95
833.7	19539.4
834.026	19569.46
834.351	19546.41
834.677	19550.93
835.003	19500.53
835.329	19564.94
835.654	19470.02
835.98	19365.39
836.306	19360.2
836.631	19235
836.956	19429.35
837.282	19434.09
837.607	19274.32
837.932	19164.95
838.258	19224.61
838.583	19260.99
838.908	19151.62
839.233	19153.87
839.558	19101.22
839.883	19036.59
840.208	19036.59
840.533	18922.92
840.858	18992.98
841.182	19005.18
841.507	18997.72
841.832	18858.06
842.156	18767.22
842.481	18780.55
842.805	18774.68
843.13	18715.02
843.454	18707.33
843.778	18637.73
844.103	18555.25
844.427	18549.37
844.751	18468.7
845.075	18444.74
845.399	18363.61
845.723	18412.88
846.047	18247.01
846.371	18150.74
846.695	18174.24
847.019	17951.87
847.343	17956.39
847.666	17861.93
847.99	17682.95
848.313	17656.74
848.637	17577.19
848.96	17643.63
849.284	17524.31
849.607	17376.97
849.931	17374.71
850.254	17313.25
850.577	17170.65
850.9	17100.6
851.223	17073.7
851.546	16929.07
851.869	16810.89
852.192	17037.55
852.515	16796.42
852.838	16698.12
853.161	16765.01
853.483	16605.69
853.806	16508.52
854.129	16465.13
854.451	16432.59
854.774	16436.66
855.096	16334.51
855.419	16277.11
855.741	16166.83
856.063	16108.53
856.385	16183.11
856.708	16052.49
857.03	16028.08
857.352	16000.96
857.674	15960.96
857.996	15932.94
858.318	15804.36
858.64	15770.24
858.961	15800.74
859.283	15773.17
859.605	15702.44
859.926	15677.13
860.248	15625.38
860.57	15621.31
860.891	15599.39
861.212	15512.61
861.534	15476.68
861.855	15341.09
862.176	15461.77
862.498	15314.88
862.819	15380.41
863.14	15329.34
863.461	15290.93
863.782	15209.57
864.103	15280.98
864.424	15151.27
864.745	15234.66
865.065	15101.78
865.386	14974.1
865.707	14968.67
866.027	15000.09
866.348	15011.61
866.668	14957.38
866.989	14972.52
867.309	14804.16
867.63	14828.34
867.95	14863.37
868.27	14758.28
868.59	14728.68
868.91	14729.81
869.23	14613.66
869.55	14602.58
869.87	14650.04
870.19	14629.7
870.51	14651.85
870.83	14664.5
871.15	14554.67
871.469	14499.08
871.789	14536.37
872.109	14502.92
872.428	14454.34
872.748	14469.48
873.067	14542.92
873.386	14415.47
873.706	14432.19
874.025	14437.61
874.344	14330.05
874.663	14340.67
874.982	14263.83
875.301	14283.72
875.62	14147.68
875.939	14142.26
876.258	14200.78
876.577	14099.09
876.896	14136.38
877.214	14121.92
877.533	14186.32
877.852	14053.9
878.17	14057.96
878.489	14051.18
878.807	14077.17
879.125	13967.8
879.444	14029.94
879.762	13910.62
880.08	13942.94
880.398	13825.2
880.716	13853.9
881.034	13838.76
881.352	13801.7
881.67	13789.27
881.988	13802.83
882.306	13740.91
882.624	13638.54
882.941	13675.6
883.259	13567.36
883.577	13598.54
883.894	13563.06
884.212	13543.4
884.529	13563.51
884.846	13520.35
885.164	13483.29
885.481	13337.53
885.798	13488.71
886.115	13297.98
886.432	13255.27
886.75	13316.51
887.067	13241.71
887.383	13201.49
887.7	13199.91
888.017	13186.35
888.334	13140.93
888.651	13137.76
888.967	13053.47
889.284	13034.94
889.6	12959.01
889.917	12913.81
890.233	12930.31
890.55	12889.41
890.866	12843.53
891.182	12773.03
891.498	12747.04
891.815	12698.23
892.131	12666.36
892.447	12577.32
892.763	12509.08
893.079	12562.41
893.395	12480.15
893.71	12510.89
894.026	12476.76
894.342	12343.66
894.657	12358.12
894.973	12289.2
895.289	12354.05
895.604	12319.93
895.92	12156.09
896.235	12015.31
896.55	12142.76
896.865	12049.43
897.181	12023.89
897.496	12024.57
897.811	11994.52
898.126	11926.04
898.441	11904.35
898.756	11909.09
899.071	11764.69
899.386	11781.64
899.7	11613.06
900.015	11644.92
900.33	11541.87
900.644	11512.49
900.959	11502.32
901.273	11488.09
901.588	11463.68
901.902	11429.33
902.216	11361.99
902.531	11333.74
902.845	11323.8
903.159	11236.57
903.473	11156.35
903.787	11136.01
904.101	11059.17
904.415	11139.4
904.729	11000.64
905.042	10915.22
905.356	10901.89
905.67	10939.4
905.984	10905.5
906.297	10849.69
906.611	10757.71
906.924	10775.34
907.237	10791.38
907.551	10750.71
907.864	10650.37
908.177	10613.99
908.491	10554.78
908.804	10548.23
909.117	10507.32
909.43	10364.28
909.743	10384.61
910.056	10366.54
910.368	10285.18
910.681	10212.87
910.994	10253.09
911.307	10232.3
911.619	10112.08
911.932	10119.31
912.244	10032.53
912.557	10073.21
912.869	9989.6
913.181	9893.33
913.494	9898.07
913.806	9797.28
914.118	9800.45
914.43	9722.94
914.742	9722.48
915.054	9765.87
915.366	9594.13
915.678	9593.45
915.99	9580.34
916.302	9478.42
916.613	9396.84
916.925	9448.59
917.236	9417.63
917.548	9335.38
917.859	9385.09
918.171	9271.2
918.482	9248.15
918.794	9192.1
919.105	9163.63
919.416	9052.45
919.727	9064.65
920.038	9060.13
920.349	9001.15
920.66	8925.67
920.971	8939.68
921.282	8890.87
921.593	8807.71
921.903	8799.12
922.214	8738.78
922.525	8754.83
922.835	8691.55
923.146	8637.09
923.456	8614.94
923.767	8609.29
924.077	8583.08
924.387	8551.67
924.697	8455.17
925.008	8391.67
925.318	8460.37
925.628	8372.69
925.938	8322.07
926.248	8262.86
926.558	8245.69
926.867	8256.08
927.177	8171.34
927.487	8154.16
927.796	8198
928.106	8096.99
928.416	8020.61
928.725	8033.72
929.034	7946.71
929.344	8022.42
929.653	7887.28
929.962	7895.41
930.271	7862.19
930.581	7812.7
930.89	7798.47
931.199	7740.39
931.508	7659.49
931.817	7658.36
932.125	7611.58
932.434	7623.56
932.743	7525.71
933.051	7494.97
933.36	7503.11
933.669	7503.11
933.977	7405.71
934.286	7379.04
934.594	7369.55
934.902	7347.86
935.21	7252.94
935.519	7257.46
935.827	7256.56
936.135	7245.94
936.443	7136.11
936.751	7085.72
937.059	7099.73
937.367	7085.04
937.674	7094.76
937.982	6981.31
938.29	7001.43
938.597	7041.2
938.905	6951.26
939.213	6925.27
939.52	6834.42
939.827	6853.18
940.135	6776.57
940.442	6778.61
940.749	6719.17
941.056	6778.83
941.363	6596.69
941.67	6631.27
941.977	6624.49
942.284	6606.41
942.591	6547.65
942.898	6546.97
943.205	6556.92
943.511	6470.82
943.818	6466.52
944.125	6431.5
944.431	6391.72
944.738	6390.82
945.044	6411.61
945.35	6317.38
945.657	6277.6
945.963	6258.17
946.269	6231.95
946.575	6177.94
946.881	6193.31
947.187	6145.18
947.493	6113.99
947.799	6128.68
948.105	6041.68
948.41	6052.98
948.716	6102.24
949.022	5993.77
949.327	6001.68
949.633	5897.95
949.938	5910.16
950.244	5918.97
950.549	5877.84
950.854	5848.24
951.16	5793.32
951.465	5791.74
951.77	5727.34
952.075	5740.22
952.38	5717.17
952.685	5725.75
952.99	5627.45
953.294	5589.26
953.599	5544.97
953.904	5562.37
954.209	5521.01
954.513	5530.73
954.818	5514.46
955.122	5489.6
955.426	5455.03
955.731	5418.64
956.035	5368.7
956.339	5373.9
956.643	5351.75
956.948	5265.43
957.252	5316.27
957.556	5307.91
957.86	5249.61
958.163	5238.99
958.467	5213.68
958.771	5170.74
959.075	5168.25
959.378	5112.44
959.682	5106.56
959.985	5147.01
960.289	5042.61
960.592	5051.65
960.896	5042.16
961.199	4982.72
961.502	4991.08
961.805	4957.86
962.108	4882.39
962.411	4904.76
962.714	4896.85
963.017	4881.48
963.32	4891.2
963.623	4832.22
963.926	4817.75
964.228	4802.16
964.531	4817.08
964.833	4776.4
965.136	4683.52
965.438	4711.54
965.741	4664.54
966.043	4688.72
966.345	4621.38
966.648	4656.63
966.95	4625.67
967.252	4551.1
967.554	4556.29
967.856	4546.12
968.158	4515.16
968.46	4558.78
968.761	4474.94
969.063	4469.06
969.365	4404.43
969.666	4403.08
969.968	4443.75
970.269	4359.24
970.571	4399.46
970.872	4301.84
971.174	4304.77
971.475	4330.54
971.776	4310.2
972.077	4288.96
972.378	4255.51
972.679	4211.22
972.98	4160.6
973.281	4223.87
973.582	4182.29
973.883	4174.61
974.183	4116.08
974.484	4119.69
974.785	4076.53
975.085	4071.56
975.386	4105.01
975.686	4030.66
975.986	3994.27
976.287	4015.74
976.587	3982.3
976.887	3965.57
977.187	3947.95
977.487	3942.52
977.787	3912.47
978.087	3883.54
978.387	3858.23
978.687	3867.95
978.987	3833.6
979.286	3830.89
979.586	3837.22
979.885	3775.75
980.185	3752.7
980.484	3698.91
980.784	3703.66
981.083	3684.23
981.382	3693.49
981.682	3702.76
981.981	3700.95
982.28	3652.59
982.579	3648.29
982.878	3597.9
983.177	3608.52
983.475	3591.57
983.774	3601.74
984.073	3580.5
984.372	3514.74
984.67	3515.64
984.969	3509.77
985.267	3501.63
985.566	3468.19
985.864	3448.3
986.162	3467.96
986.461	3436.77
986.759	3434.51
987.057	3371.69
987.355	3371.01
987.653	3364.23
987.951	3325.59
988.249	3340.51
988.547	3342.77
988.844	3339.38
989.142	3296.44
989.44	3275.87
989.737	3279.72
990.035	3230.9
990.332	3232.71
990.63	3206.27
990.927	3222.09
991.224	3184.35
991.521	3160.85
991.819	3169.21
992.116	3137.57
992.413	3126.73
992.71	3085.82
993.006	3103.45
993.303	3106.16
993.6	3048.99
993.897	3009.89
994.193	3008.99
994.49	2974.87
994.787	2976.45
995.083	2983.68
995.379	3006.73
995.676	2943.91
995.972	2890.8
996.268	2931.48
996.565	2917.47
996.861	2941.19
997.157	2899.16
997.453	2905.04
997.749	2879.5
998.044	2833.17
998.34	2790.92
998.636	2769.9
998.932	2746.85
999.227	2760.41
999.523	2797.02
999.818	2752.72
1000.114	2738.26
1000.409	2674.76
1000.704	2700.07
1001	2710.01
1001.295	2658.49
1001.59	2658.49
1001.885	2657.81
1002.18	2634.08
1002.475	2599.06
1002.77	2580.98
1003.065	2590.02
1003.359	2574.2
1003.654	2541.2
1003.949	2508.66
1004.243	2511.83
1004.538	2487.19
1004.832	2502.79
1005.127	2481.54
1005.421	2470.02
1005.715	2449.46
1006.009	2439.74
1006.304	2409.46
1006.598	2388.67
1006.892	2387.99
1007.186	2381.21
1007.48	2405.61
1007.773	2326.75
1008.067	2349.35
1008.361	2338.72
1008.655	2320.42
1008.948	2308.89
1009.242	2300.98
1009.535	2302.57
1009.829	2264.83
1010.122	2272.96
1010.415	2250.36
1010.708	2202.46
1011.001	2173.76
1011.295	2173.98
1011.588	2210.59
1011.881	2166.3
1012.173	2188.45
1012.466	2158.84
1012.759	2126.07
1013.052	2124.49
1013.344	2127.66
1013.637	2108.22
1013.93	2074.32
1014.222	2072.97
1014.514	2042.23
1014.807	2043.36
1015.099	2048.34
1015.391	2044.04
1015.683	2020.99
1015.976	1995.68
1016.268	1994.33
1016.56	1953.42
1016.851	1966.76
1017.143	1948.9
1017.435	1931.5
1017.727	1901.9
1018.018	1909.13
1018.31	1931.05
1018.602	1878.85
1018.893	1862.35
1019.185	1853.99
1019.476	1859.19
1019.767	1834.56
1020.058	1800.43
1020.35	1788.46
1020.641	1780.77
1020.932	1782.58
1021.223	1749.36
1021.514	1745.29
1021.804	1717.05
1022.095	1723.6
1022.386	1719.98
1022.677	1704.84
1022.967	1684.73
1023.258	1683.6
1023.548	1701
1023.839	1669.36
1024.129	1646.76
1024.419	1656.48
1024.709	1631.62
1025	1623.49
1025.29	1606.99
1025.58	1577.61
1025.87	1593.88
1026.16	1574.9
1026.449	1569.48
1026.739	1543.72
1027.029	1554.79
1027.319	1536.94
1027.608	1538.74
1027.898	1499.88
1028.187	1492.87
1028.477	1489.25
1028.766	1482.93
1029.055	1467.11
1029.344	1474.79
1029.634	1456.49
1029.923	1442.02
1030.212	1445.41
1030.501	1417.62
1030.79	1406.32
1031.078	1386.88
1031.367	1404.96
1031.656	1416.71
1031.945	1383.27
1032.233	1348.92
1032.522	1357.73
1032.81	1329.26
1033.099	1345.98
1033.387	1354.79
1033.675	1306.66
1033.963	1311.63
1034.251	1302.82
1034.54	1314.57
1034.828	1284.74
1035.116	1274.8
1035.403	1264.18
1035.691	1269.6
1035.979	1260.33
1036.267	1258.98
1036.554	1214.91
1036.842	1205.42
1037.129	1197.28
1037.417	1231.41
1037.704	1203.16
1037.992	1195.48
1038.279	1164.29
1038.566	1182.82
1038.853	1182.82
1039.14	1182.82
