Data from hue_280_FLMS001491_00013.txt Node
Date: Tue Feb 07 15:54:54 GMT 2017
User: dcchb
Spectrometer: FLMS00149
Trigger mode: 0
Integration Time (sec): 2.000000E-2
Scans to average: 10
Electric dark correction enabled: true
Nonlinearity correction enabled: false
Boxcar width: 0
XAxis mode: Wavelengths
Number of Pixels in Spectrum: 2048
>>>>>Begin Spectral Data<<<<<
341.393	-14.05
341.776	-14.05
342.16	-14.05
342.543	-58.57
342.927	-71.23
343.31	-80.04
343.693	-82.3
344.077	-51.34
344.46	-62.19
344.843	-66.48
345.226	-44.79
345.61	-29.87
345.993	-12.02
346.376	-2.08
346.759	19.62
347.142	26.17
347.525	56.91
347.908	47.41
348.291	75.89
348.674	105.04
349.057	100.07
349.44	133.51
349.823	137.58
350.206	149.56
350.588	195.66
350.971	210.8
351.354	218.48
351.737	247.86
352.119	259.61
352.502	248.99
352.884	270.91
353.267	257.58
353.65	274.53
354.032	282.66
354.414	298.48
354.797	282.66
355.179	307.52
355.562	308.42
355.944	317.46
356.326	317.01
356.709	318.14
357.091	322.89
357.473	321.53
357.855	336.45
358.238	310.01
358.62	320.18
359.002	332.83
359.384	321.76
359.766	327.86
360.148	353.62
360.53	327.63
360.912	317.46
361.294	327.63
361.676	339.61
362.057	314.3
362.439	336.22
362.821	318.37
363.203	321.76
363.584	335.77
363.966	331.25
364.348	314.53
364.729	328.08
365.111	312.04
365.493	296.9
365.874	320.4
366.256	311.14
366.637	306.62
367.019	300.51
367.4	296.45
367.781	317.69
368.163	291.93
368.544	332.6
368.925	326.28
369.306	317.24
369.688	314.75
370.069	293.51
370.45	316.33
370.831	317.24
371.212	319.95
371.593	319.72
371.974	307.75
372.355	321.53
372.736	319.5
373.117	330.8
373.498	319.27
373.879	318.59
374.26	296.9
374.641	297.35
375.021	306.16
375.402	307.29
375.783	335.99
376.163	325.6
376.544	323.56
376.925	323.56
377.305	324.02
377.686	328.99
378.066	328.31
378.447	328.31
378.827	312.72
379.208	325.6
379.588	327.86
379.968	324.24
380.349	334.41
380.729	340.51
381.109	331.93
381.489	329.89
381.87	333.96
382.25	324.02
382.63	346.16
383.01	319.72
383.39	338.71
383.77	351.13
384.15	330.12
384.53	327.63
384.91	365.6
385.29	369.44
385.67	355.88
386.049	366.5
386.429	346.39
386.809	358.59
387.189	360.17
387.568	347.52
387.948	364.69
388.328	367.18
388.707	365.37
389.087	358.82
389.466	360.63
389.846	358.37
390.225	354.98
390.605	382.55
390.984	363.34
391.363	353.62
391.743	361.76
392.122	378.7
392.501	384.13
392.881	393.39
393.26	381.42
393.639	364.24
394.018	362.21
394.397	383.68
394.776	376.9
395.155	393.62
395.534	402.21
395.913	413.73
396.292	394.3
396.671	394.75
397.05	413.28
397.429	426.61
397.808	398.37
398.186	401.53
398.565	402.43
398.944	400.17
399.323	416.22
399.701	413.05
400.08	429.78
400.458	411.7
400.837	420.96
401.215	427.07
401.594	433.84
401.972	432.49
402.351	410.34
402.729	450.12
403.107	429.32
403.486	467.06
403.864	430.68
404.242	446.73
404.62	471.13
404.999	454.41
405.377	429.32
405.755	449.44
406.133	452.38
406.511	479.04
406.889	472.49
407.267	474.07
407.645	494.18
408.023	467.52
408.401	487.4
408.779	504.8
409.156	491.92
409.534	496.67
409.912	509.32
410.29	533.5
410.667	511.13
411.045	559.94
411.422	524.24
411.8	573.28
412.178	548.64
412.555	564.24
412.933	581.19
413.31	584.12
413.687	594.52
414.065	596.55
414.442	570.11
414.819	582.54
415.197	613.27
415.574	606.04
415.951	646.04
416.328	650.34
416.705	614.86
417.082	655.99
417.46	641.3
417.837	660.51
418.214	666.61
418.591	658.02
418.967	666.15
419.344	700.05
419.721	699.37
420.098	724.68
420.475	737.11
420.852	710.67
421.228	730.56
421.605	745.02
421.982	746.6
422.358	751.58
422.735	767.85
423.111	777.56
423.488	776.89
423.864	801.97
424.241	804.68
424.617	843.78
424.994	837.68
425.37	836.55
425.746	833.38
426.123	854.62
426.499	869.31
426.875	879.48
427.251	886.94
427.627	890.78
428.003	908.18
428.379	919.93
428.756	951.35
429.132	965.81
429.507	948.63
429.883	932.14
430.259	980.04
430.635	996.32
431.011	998.12
431.387	1027.5
431.763	1028.18
432.138	1057.33
432.514	1038.12
432.89	1064.79
433.265	1101.4
433.641	1100.72
434.016	1105.47
434.392	1135.52
434.767	1143.66
435.143	1147.95
435.518	1175.75
435.894	1153.6
436.269	1199.25
436.644	1206.71
437.02	1218
437.395	1217.78
437.77	1268.4
438.145	1281.05
438.52	1243.54
438.895	1283.77
439.271	1296.65
439.646	1321.96
440.021	1322.63
440.395	1369.41
440.77	1332.13
441.145	1346.36
441.52	1385.01
441.895	1358.79
442.27	1378.9
442.645	1415.74
443.019	1423.65
443.394	1448.51
443.769	1421.39
444.143	1427.26
444.518	1440.15
444.892	1449.19
445.267	1468.62
445.641	1494.61
446.016	1488.05
446.39	1516.53
446.764	1510.88
447.139	1490.54
447.513	1507.94
447.887	1518.34
448.262	1528.51
448.636	1516.3
449.01	1554.04
449.384	1554.04
449.758	1606.47
450.132	1598.56
450.506	1615.28
450.88	1589.07
451.254	1581.61
451.628	1614.83
452.002	1643.53
452.376	1652.8
452.75	1665.68
453.123	1670.65
453.497	1695.51
453.871	1709.97
454.244	1767.59
454.618	1717.43
454.992	1775.28
455.365	1757.43
455.739	1801.49
456.112	1806.69
456.486	1798.78
456.859	1817.08
457.232	1853.47
457.606	1879.46
457.979	1860.47
458.352	1895.28
458.725	1894.82
459.099	1912
459.472	1931.88
459.845	1957.42
460.218	1940.47
460.591	1970.3
460.964	2009.62
461.337	2065.44
461.71	2034.03
462.083	2075.38
462.456	2076.06
462.829	2055.72
463.201	2101.82
463.574	2094.14
463.947	2144.08
464.32	2174.14
464.692	2214.36
465.065	2202.61
465.438	2236.51
465.81	2255.04
466.183	2239.9
466.555	2285.32
466.928	2332.55
467.3	2320.8
467.672	2328.94
468.045	2412.32
468.417	2380.91
468.789	2391.31
469.161	2408.71
469.534	2475.6
469.906	2491.64
470.278	2536.61
470.65	2532.09
471.022	2563.51
471.394	2592.21
471.766	2588.82
472.138	2637.4
472.51	2680.57
472.882	2708.14
473.253	2768.02
473.625	2745.2
473.997	2839.66
474.369	2808.7
474.74	2856.83
475.112	2914.91
475.484	2954
475.855	2998.52
476.227	2982.7
476.598	3056.15
476.97	3042.14
477.341	3097.73
477.713	3149.93
478.084	3145.64
478.455	3246.88
478.827	3255.01
479.198	3318.74
479.569	3336.37
479.94	3413.43
480.311	3419.75
480.682	3484.84
481.053	3538.4
481.424	3590.82
481.795	3624.27
482.166	3637.38
482.537	3674.44
482.908	3716.92
483.279	3699.97
483.65	3773.19
484.021	3877.14
484.391	3852.06
484.762	3927.09
485.133	3933.19
485.503	4006.41
485.874	4052.05
486.244	4061.77
486.615	4158.94
486.985	4193.52
487.356	4244.82
487.726	4255.21
488.097	4351.71
488.467	4360.75
488.837	4391.48
489.207	4432.61
489.578	4477.35
489.948	4535.21
490.318	4554.87
490.688	4552.15
491.058	4634.86
491.428	4664.02
491.798	4714.64
492.168	4810.9
492.538	4786.95
492.908	4886.83
493.278	4910.56
493.648	4932.03
494.017	4967.74
494.387	5008.41
494.757	5021.97
495.126	5062.42
495.496	5064.68
495.866	5073.27
496.235	5154.17
496.605	5187.84
496.974	5164.79
497.344	5213.38
497.713	5264.9
498.082	5259.03
498.452	5360.95
498.821	5322.08
499.19	5369.08
499.559	5397.56
499.928	5451.79
500.298	5401.62
500.667	5479.59
501.036	5428.97
501.405	5505.58
501.774	5484.56
502.143	5525.24
502.512	5583.77
502.88	5578.57
503.249	5614.95
503.618	5682.29
503.987	5648.85
504.356	5701.5
504.724	5682.29
505.093	5712.12
505.462	5657.66
505.83	5734.72
506.199	5769.07
506.567	5838.22
506.936	5838.67
507.304	5889.29
507.672	5862.4
508.041	5889.07
508.409	5914.83
508.777	5906.92
509.145	6020.36
509.514	5952.8
509.882	5979.01
510.25	5989.4
510.618	6065.79
510.986	6053.58
511.354	6122.51
511.722	6084.32
512.09	6138.33
512.458	6138.33
512.826	6192.34
513.193	6222.17
513.561	6201.38
513.929	6192.79
514.297	6281.37
514.664	6270.75
515.032	6291.77
515.4	6305.33
515.767	6331.77
516.135	6331.32
516.502	6331.77
516.869	6417.64
517.237	6418.55
517.604	6358.21
517.972	6458.32
518.339	6448.38
518.706	6438.66
519.073	6424.65
519.44	6494.02
519.808	6544.42
520.175	6586.68
520.542	6632.55
520.909	6604.53
521.276	6584.87
521.643	6655.38
522.009	6646.11
522.376	6698.54
522.743	6708.26
523.11	6787.58
523.477	6794.81
523.843	6777.18
524.21	6820.34
524.577	6919.32
524.943	6916.84
525.31	6877.97
525.676	6982.6
526.043	7004.07
526.409	7065.99
526.776	7125.65
527.142	7029.6
527.508	7065.53
527.874	7196.15
528.241	7139.43
528.607	7191.86
528.973	7227.79
529.339	7179.88
529.705	7264.63
530.071	7331.74
530.437	7293.55
530.803	7330.84
531.169	7414.45
531.535	7340.78
531.901	7399.31
532.267	7338.3
532.632	7501.46
532.998	7459.65
533.364	7525.86
533.73	7527.44
534.095	7594.79
534.461	7623.71
534.826	7588.68
535.192	7577.84
535.557	7645.41
535.923	7694.22
536.288	7719.53
536.653	7713.88
537.019	7705.07
537.384	7677.72
537.749	7740.32
538.114	7754.33
538.479	7760.43
538.845	7747.32
539.21	7794.1
539.575	7821.45
539.94	7733.77
540.305	7838.62
540.67	7801.11
541.034	7831.84
541.399	7887.21
541.764	7880.65
542.129	7871.39
542.494	7896.93
542.858	7958.39
543.223	7998.62
543.587	8016.02
543.952	7973.76
544.316	7996.81
544.681	8034.77
545.045	8043.14
545.41	8039.29
545.774	8073.19
546.138	8105.96
546.503	8137.14
546.867	8097.15
547.231	8171.49
547.595	8181.44
547.959	8177.37
548.324	8172.17
548.688	8146.18
549.052	8211.72
549.416	8224.15
549.779	8232.06
550.143	8210.59
550.507	8296.01
550.871	8284.94
551.235	8242.23
551.599	8319.96
551.962	8326.52
552.326	8381.66
552.689	8362.9
553.053	8359.74
553.417	8340.08
553.78	8454.88
554.143	8398.83
554.507	8377.82
554.87	8448.55
555.234	8521.77
555.597	8464.37
555.96	8496.68
556.323	8596.12
556.686	8542.11
557.05	8531.71
557.413	8569.22
557.776	8586.85
558.139	8649.45
558.502	8724.25
558.865	8684.93
559.228	8723.34
559.59	8697.13
559.953	8752.72
560.316	8836.56
560.679	8833.17
561.041	8848.31
561.404	8855.32
561.767	8897.58
562.129	8913.85
562.492	8961.76
562.854	9002.66
563.217	8948.87
563.579	8933.73
563.941	9111.36
564.304	9007.86
564.666	9142.77
565.028	9164.69
565.39	9115.42
565.753	9162.65
566.115	9225.7
566.477	9217.79
566.839	9237.68
567.201	9261.86
567.563	9383.67
567.925	9431.57
568.287	9399.26
568.648	9457.79
569.01	9420.05
569.372	9515.87
569.734	9410.56
570.095	9564.9
570.457	9569.65
570.819	9630.66
571.18	9633.38
571.542	9695.07
571.903	9743.2
572.265	9768.06
572.626	9850.32
572.987	9788.63
573.349	9863.2
573.71	9901.62
574.071	9933.71
574.432	9884.22
574.794	10032.69
575.155	10016.87
575.516	9997.89
575.877	10109.97
576.238	10062.07
576.599	10153.36
576.96	10112.01
577.32	10240.59
577.681	10253.47
578.042	10289.18
578.403	10355.84
578.763	10444.43
579.124	10454.6
579.485	10474.94
579.845	10474.26
580.206	10545.22
580.566	10568.04
580.927	10595.16
581.287	10656.63
581.648	10755.61
582.008	10847.13
582.368	10815.72
582.728	10933.46
583.089	10934.81
583.449	10986.56
583.809	11017.97
584.169	11097.97
584.529	11075.82
584.889	11227.01
585.249	11201.92
585.609	11251.41
585.969	11360.56
586.329	11429.26
586.688	11501.8
587.048	11610.95
587.408	11543.38
587.768	11663.38
588.127	11678.52
588.487	11825.64
588.846	11899.08
589.206	11929.81
589.565	11975.69
589.925	12088
590.284	12111.73
590.643	12180.2
591.003	12259.97
591.362	12339.07
591.721	12375.68
592.08	12468.33
592.44	12535
592.799	12593.3
593.158	12667.65
593.517	12645.73
593.876	12821.99
594.235	12834.87
594.593	12911.26
594.952	12989.45
595.311	12938.15
595.67	13051.59
596.029	13191.7
596.387	13199.38
596.746	13352.15
597.104	13365.93
597.463	13396.67
597.822	13478.47
598.18	13415.42
598.538	13537.91
598.897	13619.71
599.255	13574.29
599.613	13815.87
599.972	13719.37
600.33	13808.18
600.688	13791.46
601.046	14022.64
601.404	13976.54
601.762	14110.32
602.12	14111.68
602.478	14172.01
602.836	14283.2
603.194	14202.3
603.552	14282.29
603.91	14252.92
604.268	14333.14
604.625	14347.15
604.983	14393.03
605.341	14444.1
605.698	14482.51
606.056	14551.21
606.413	14625.34
606.771	14641.15
607.128	14682.74
607.485	14623.3
607.843	14635.28
608.2	14756.86
608.557	14839.79
608.914	14776.97
609.272	14896.97
609.629	14922.28
609.986	14980.35
610.343	15015.83
610.7	15146
611.057	15038.88
611.414	15124.08
611.771	15131.76
612.127	15153.23
612.484	15183.06
612.841	15254.7
613.198	15314.58
613.554	15300.57
613.911	15345.99
614.267	15378.54
614.624	15347.8
614.98	15372.66
615.337	15464.18
615.693	15538.08
616.05	15476.61
616.406	15583.73
616.762	15579.89
617.118	15648.81
617.475	15510.28
617.831	15668.25
618.187	15671.86
618.543	15745.53
618.899	15771.52
619.255	15588.02
619.611	15710.05
619.967	15710.28
620.323	15770.16
620.678	15735.59
621.034	15818.3
621.39	15764.06
621.746	15806.55
622.101	15952.31
622.457	15743.5
622.812	15856.72
623.168	15876.83
623.523	15935.81
623.879	16011.29
624.234	15912.99
624.589	15967.22
624.945	16063.26
625.3	16006.54
625.655	15882.25
626.01	16008.58
626.365	16042.25
626.72	16009.25
627.075	15914.34
627.43	16049.03
627.785	15911.63
628.14	15967.9
628.495	15948.69
628.85	15977.84
629.205	15894
629.559	15934.45
629.914	15922.48
630.269	15976.71
630.623	15892.42
630.978	15898.3
631.332	15959.99
631.687	15940.33
632.041	15898.3
632.396	15845.19
632.75	15824.17
633.104	15855.36
633.459	15710.28
633.813	15779.43
634.167	15780.79
634.521	15755.02
634.875	15765.64
635.229	15783.5
635.583	15722.03
635.937	15680.68
636.291	15723.84
636.645	15729.49
636.999	15669.38
637.352	15564.97
637.706	15597.97
638.06	15639.77
638.413	15605.87
638.767	15537.85
639.121	15629.83
639.474	15594.58
639.828	15507.35
640.181	15575.59
640.534	15519.55
640.888	15462.6
641.241	15431.19
641.594	15575.14
641.947	15491.53
642.301	15484.75
642.654	15485.43
643.007	15490.17
643.36	15480.23
643.713	15464.86
644.066	15475.71
644.419	15302.83
644.771	15248.37
645.124	15120.69
645.477	15138.09
645.83	14971.09
646.182	14888.38
646.535	14922.05
646.888	14951.88
647.24	14916.63
647.593	15008.15
647.945	14924.31
648.298	14837.53
648.65	14909.85
649.002	14930.41
649.355	14898.1
649.707	14907.59
650.059	14987.81
650.411	15209.73
650.763	15148.03
651.115	15420.12
651.467	15294.7
651.819	15323.4
652.171	15253.12
652.523	15299.89
652.875	15315.94
653.227	15127.02
653.578	15426.67
653.93	15294.92
654.282	15339.22
654.633	15186.22
654.985	15225.09
655.337	15297.41
655.688	15336.5
656.039	15314.81
656.391	15230.52
656.742	15317.29
657.094	15284.08
657.445	15384.86
657.796	15272.78
658.147	15221.03
658.498	15352.32
658.849	15297.41
659.2	15237.07
659.551	15204.53
659.902	15309.16
660.253	15340.8
660.604	15377.41
660.955	15244.75
661.306	15287.47
661.656	15296.05
662.007	15272.1
662.358	15274.13
662.708	15313.68
663.059	15373.34
663.409	15235.49
663.76	15337.18
664.11	15368.14
664.461	15457.86
664.811	15397.97
665.161	15387.35
665.511	15347.58
665.862	15316.84
666.212	15429.61
666.562	15308.71
666.912	15342.61
667.262	15295.83
667.612	15340.57
667.962	15388.71
668.312	15332.66
668.662	15393.23
669.011	15394.36
669.361	15337.86
669.711	15318.65
670.06	15319.55
670.41	15341.48
670.76	15292.66
671.109	15255.38
671.459	15358.2
671.808	15217.86
672.157	15275.94
672.507	15208.37
672.856	15142.84
673.205	15266.45
673.554	15269.84
673.904	15253.12
674.253	15281.36
674.602	15283.17
674.951	15039.11
675.3	14997.3
675.649	15172.89
675.998	15181.71
676.346	15182.61
676.695	15248.6
677.044	15092.22
677.393	15038.66
677.741	15014.03
678.09	15059.9
678.438	15039.79
678.787	15085.66
679.135	15120.46
679.484	14965.67
679.832	14994.59
680.181	14940.81
680.529	14918.44
680.877	14914.82
681.225	14880.47
681.573	14941.49
681.922	14870.08
682.27	14861.71
682.618	14770.87
682.966	14816.07
683.314	14768.83
683.661	14753.69
684.009	14702.4
684.357	14653.36
684.705	14644.54
685.053	14685
685.4	14593.47
685.748	14548.05
686.095	14642.96
686.443	14474.38
686.79	14400.93
687.138	14456.53
687.485	14453.14
687.832	14338.79
688.18	14444.55
688.527	14318
688.874	14243.88
689.221	14207.04
689.568	14075.97
689.915	14241.62
690.262	14108.74
690.609	14106.93
690.956	14028.29
691.303	13980.16
691.65	13949.2
691.997	13979.93
692.344	13833.49
692.69	13798.24
693.037	13756.21
693.383	13747.62
693.73	13751.01
694.077	13734.06
694.423	13617.9
694.769	13516.66
695.116	13535.42
695.462	13522.54
695.808	13426.27
696.155	13409.77
696.501	13375.88
696.847	13344.01
697.193	13256.33
697.539	13282.77
697.885	13167.3
698.231	13068.31
698.577	13090.69
698.923	13076
699.269	12962.33
699.614	12883.23
699.96	12902.9
700.306	12791.49
700.651	12791.49
700.997	12718.72
701.342	12699.96
701.688	12652.73
702.033	12639.17
702.379	12685.95
702.724	12516.46
703.069	12608.89
703.415	12426.3
703.76	12424.49
704.105	12329.8
704.45	12253.19
704.795	12285.51
705.14	12146.53
705.485	12205.29
705.83	12119.41
706.175	12198.96
706.52	12156.02
706.865	12008.46
707.209	12081
707.554	12015.91
707.899	11992.41
708.243	11871.74
708.588	11963.71
708.932	11707.9
709.277	11864.05
709.621	11794.9
709.966	11780.89
710.31	11726.43
710.654	11619.99
710.998	11641.46
711.342	11658.63
711.687	11564.17
712.031	11617.73
712.375	11496.83
712.719	11558.3
713.063	11677.39
713.407	11613.89
713.75	11485.31
714.094	11446.89
714.438	11492.31
714.782	11441.46
715.125	11396.27
715.469	11369.38
715.812	11329.38
716.156	11283.05
716.499	11284.86
716.843	11304.07
717.186	11249.61
717.53	11322.82
717.873	11251.87
718.216	11276.05
718.559	11193.56
718.902	11134.13
719.246	11081.93
719.589	11107.69
719.932	11054.58
720.275	11074.02
720.617	11110.17
720.96	11062.27
721.303	11024.98
721.646	11057.29
721.989	10911.76
722.331	11034.7
722.674	10946.56
723.016	10933.91
723.359	10975.94
723.701	10908.37
724.044	10924.42
724.386	10764.42
724.729	10849.84
725.071	10888.71
725.413	10885.32
725.755	10861.37
726.097	10793.8
726.439	10847.81
726.782	10830.18
727.124	10849.84
727.465	10729.17
727.807	10747.02
728.149	10868.6
728.491	10776.17
728.833	10792.67
729.175	10776.62
729.516	10749.96
729.858	10755.16
730.199	10754.48
730.541	10730.52
730.882	10716.06
731.224	10766.45
731.565	10684.42
731.906	10692.11
732.248	10628.6
732.589	10696.63
732.93	10668.38
733.271	10761.93
733.612	10726.91
733.953	10697.08
734.294	10697.08
734.635	10644.2
734.976	10672.9
735.317	10689.85
735.658	10687.81
735.999	10671.32
736.339	10660.47
736.68	10752.44
737.021	10679
737.361	10641.49
737.702	10773.91
738.042	10693.01
738.383	10675.61
738.723	10759.22
739.063	10702.95
739.404	10772.1
739.744	10788.83
740.084	10729.62
740.424	10730.3
740.764	10824.98
741.104	10736.4
741.444	10764.65
741.784	10792.67
742.124	10796.06
742.464	10771.88
742.804	10858.88
743.143	10864.53
743.483	10955.83
743.823	10851.2
744.162	10928.48
744.502	10931.2
744.841	10980.91
745.181	11039.44
745.52	11001.7
745.86	11104.07
746.199	11166.44
746.538	11215.03
746.877	11268.14
747.216	11293.9
747.556	11304.52
747.895	11424.97
748.234	11421.58
748.573	11409.38
748.911	11541.35
749.25	11616.15
749.589	11604.17
749.928	11818.86
750.267	11811.4
750.605	11906.31
750.944	11908.35
751.283	11975.24
751.621	12168
751.96	12156.25
752.298	12301.56
752.636	12351.95
752.975	12483.25
753.313	12479.4
753.651	12737.25
753.989	12800.98
754.327	12848.43
754.666	12965.04
755.004	13157.58
755.342	13282.77
755.679	13345.82
756.017	13464.01
756.355	13625.14
756.693	13711.91
757.031	13879.82
757.368	13940.38
757.706	14137.44
758.044	14166.59
758.381	14395.96
758.719	14472.57
759.056	14626.92
759.394	14815.61
759.731	14879.57
760.068	15027.81
760.405	15116.17
760.743	15290.18
761.08	15516.61
761.417	15534.92
761.754	15740.79
762.091	15919.99
762.428	15991.4
762.765	16166.76
763.102	16384.39
763.438	16448.79
763.775	16545.29
764.112	16710.93
764.449	16882.23
764.785	16905.95
765.122	16990.47
765.458	17057.36
765.795	17307.53
766.131	17397.69
766.467	17581.64
766.804	17648.08
767.14	17766.04
767.476	17929.88
767.812	18008.98
768.148	17964.91
768.485	18109.54
768.821	18155.19
769.157	18311.79
769.492	18352.24
769.828	18576.19
770.164	18476.08
770.5	18572.8
770.836	18699.58
771.171	18775.74
771.507	18806.47
771.842	18782.74
772.178	18917.43
772.513	19032.45
772.849	19060.93
773.184	19088.04
773.519	19179.57
773.855	19192.67
774.19	19253.46
774.525	19216.63
774.86	19187.93
775.195	19320.81
775.53	19296.17
775.865	19413.91
776.2	19278.77
776.535	19292.33
776.87	19285.33
777.205	19274.71
777.539	19319.9
777.874	19439.9
778.209	19199.45
778.543	19304.76
778.878	19267.25
779.212	19414.14
779.547	19269.28
779.881	19380.24
780.215	19351.99
780.55	19403.52
780.884	19290.07
781.218	19268.83
781.552	19279.9
781.886	19330.52
782.22	19170.75
782.554	19132.11
782.888	18990.64
783.222	19073.35
783.556	19044.43
783.889	18985
784.223	18996.75
784.557	18968.95
784.89	19058.89
785.224	19010.53
785.557	18911.32
785.891	18881.95
786.224	18923.3
786.558	18839.24
786.891	18754.49
787.224	18784.55
787.557	18650.54
787.891	18628.17
788.224	18699.35
788.557	18727.6
788.89	18614.84
789.223	18713.36
789.556	18595.17
789.888	18570.77
790.221	18484.9
790.554	18426.37
790.887	18427.95
791.219	18247.84
791.552	18251
791.884	18146.83
792.217	18194.06
792.549	18274.05
792.882	18113.61
793.214	18059.82
793.546	18051.01
793.879	17978.02
794.211	17823.67
794.543	17940.28
794.875	17909.32
795.207	17909.32
795.539	17812.6
795.871	17860.96
796.203	17706.38
796.535	17676.33
796.867	17490.57
797.198	17603.79
797.53	17539.16
797.862	17477.69
798.193	17606.73
798.525	17416.22
798.856	17358.6
799.188	17194.53
799.519	17214.87
799.85	17148.43
800.182	17189.34
800.513	17166.06
800.844	16963.35
801.175	17045.39
801.506	17070.47
801.837	16931.94
802.168	16862.34
802.499	16820.98
802.83	16749.12
803.161	16727.2
803.491	16709.57
803.822	16754.55
804.153	16633.87
804.483	16543.25
804.814	16445.85
805.145	16522.24
805.475	16469.81
805.805	16500.31
806.136	16429.58
806.466	16437.94
806.796	16355.91
807.126	16223.71
807.457	16246.99
807.787	16136.03
808.117	16016.03
808.447	16089.7
808.777	16110.49
809.107	16013.77
809.436	16019.42
809.766	15961.57
810.096	15924.74
810.426	15881.57
810.755	15884.51
811.085	15886.09
811.414	15694.23
811.744	15711.63
812.073	15688.13
812.403	15737.85
812.732	15581.69
813.061	15634.12
813.39	15561.58
813.719	15545.54
814.049	15600.23
814.378	15451.08
814.707	15348.93
815.036	15423.05
815.365	15307.35
815.693	15242.49
816.022	15264.42
816.351	15183.29
816.68	15125.21
817.008	15273.45
817.337	15111.88
817.665	15112.78
817.994	15131.99
818.322	15058.77
818.651	15036.17
818.979	14924.54
819.307	15044.99
819.636	14943.07
819.964	14917.31
820.292	14985.1
820.62	14908.94
820.948	14861.04
821.276	14949.17
821.604	14832.34
821.932	14898.1
822.259	14886.35
822.587	14883.18
822.915	14769.51
823.243	14807.7
823.57	14795.27
823.898	14812.9
824.225	14795.5
824.553	14794.14
824.88	14793.01
825.207	14816.29
825.535	14797.99
825.862	14835.5
826.189	14789.63
826.516	14850.41
826.843	14801.38
827.17	14838.44
827.497	14902.84
827.824	14838.21
828.151	14858.55
828.478	14881.15
828.805	14900.58
829.131	14786.46
829.458	14776.52
829.785	14816.52
830.111	14775.84
830.438	14869.17
830.764	14844.09
831.09	14834.37
831.417	14705.11
831.743	14831.43
832.069	14836.63
832.395	14677.99
832.722	14783.07
833.048	14828.49
833.374	14722.28
833.7	14673.47
834.026	14648.84
834.351	14657.65
834.677	14608.39
835.003	14653.36
835.329	14659.69
835.654	14602.51
835.98	14627.82
836.306	14645.22
836.631	14501.5
836.956	14605.22
837.282	14519.12
837.607	14477.77
837.932	14456.07
838.258	14463.53
838.583	14455.17
838.908	14370.65
839.233	14452.01
839.558	14303.76
839.883	14347.15
840.208	14248.62
840.533	14248.62
840.858	14313.03
841.182	14318.45
841.507	14307.38
841.832	14195.74
842.156	14211.11
842.481	14187.83
842.805	14189.42
843.13	14062.64
843.454	14062.41
843.778	14020.15
844.103	13987.84
844.427	13916.43
844.751	13968.63
845.075	13936.31
845.399	13869.42
845.723	13779.48
846.047	13847.28
846.371	13680.73
846.695	13736.09
847.019	13622.65
847.343	13492.94
847.666	13395.31
847.99	13316.44
848.313	13315.99
848.637	13243.9
848.96	13371.58
849.284	13262.66
849.607	13102.21
849.931	13108.77
850.254	13065.6
850.577	12970.69
850.9	12838.72
851.223	12858.15
851.546	12798.72
851.869	12763.92
852.192	12752.62
852.515	12667.65
852.838	12644.37
853.161	12583.13
853.483	12581.55
853.806	12477.82
854.129	12462.91
854.451	12463.13
854.774	12419.07
855.096	12317.6
855.419	12320.31
855.741	12296.58
856.063	12161.9
856.385	12182.69
856.708	12163.03
857.03	12129.13
857.352	12165.51
857.674	12015.01
857.996	12088
858.318	12019.53
858.64	11952.41
858.961	11883.26
859.283	11876.03
859.605	11803.49
859.926	11845.3
860.248	11841
860.57	11777.05
860.891	11735.47
861.212	11673.77
861.534	11617.28
861.855	11699.09
862.176	11618.41
862.498	11596.94
862.819	11633.55
863.14	11558.3
863.461	11590.84
863.782	11527.56
864.103	11447.57
864.424	11503.84
864.745	11488.24
865.065	11430.17
865.386	11376.38
865.707	11382.48
866.027	11365.53
866.348	11341.81
866.668	11277.18
866.989	11322.6
867.309	11238.31
867.63	11327.34
867.95	11234.92
868.27	11193.34
868.59	11208.02
868.91	11201.25
869.23	11183.62
869.55	11131.42
869.87	11170.29
870.19	11107.01
870.51	11137.52
870.83	11099.1
871.15	10988.6
871.469	11054.36
871.789	11045.54
872.109	11014.58
872.428	10909.5
872.748	10977.3
873.067	10995.83
873.386	10920.57
873.706	10936.62
874.025	10910.86
874.344	10864.3
874.663	10900.01
874.982	10865.66
875.301	10881.71
875.62	10799.67
875.939	10792.22
876.258	10830.63
876.577	10683.29
876.896	10789.05
877.214	10764.65
877.533	10711.77
877.852	10709.51
878.17	10668.15
878.489	10685.33
878.807	10626.8
879.125	10646.68
879.444	10575.72
879.762	10530.3
880.08	10571.66
880.398	10545.9
880.716	10540.25
881.034	10514.03
881.352	10569.4
881.67	10407.37
881.988	10459.8
882.306	10403.07
882.624	10446.24
882.941	10352.91
883.259	10335.05
883.577	10295.96
883.894	10375.28
884.212	10227.49
884.529	10228.39
884.846	10237.88
885.164	10177.09
885.481	10126.47
885.798	10181.84
886.115	10091.67
886.432	10033.37
886.75	10072.24
887.067	10053.48
887.383	10022.74
887.7	10027.72
888.017	9919.47
888.334	9952.69
888.651	9940.04
888.967	9823.43
889.284	9896.19
889.6	9784.56
889.917	9703.43
890.233	9755.86
890.55	9724.22
890.866	9748.63
891.182	9683.77
891.498	9714.73
891.815	9639.48
892.131	9660.95
892.447	9537.11
892.763	9589.76
893.079	9449.2
893.395	9486.71
893.71	9520.39
894.026	9496.43
894.342	9397
894.657	9344.12
894.973	9361.29
895.289	9377.34
895.604	9325.81
895.92	9293.5
896.235	9156.78
896.55	9223.22
896.865	9145.25
897.181	9148.42
897.496	9166.04
897.811	9068.65
898.126	8966.73
898.441	9015.31
898.756	8983
899.071	8916.11
899.386	8934.86
899.7	8872.04
900.015	8804.02
900.33	8770.57
900.644	8760.18
900.959	8738.94
901.273	8678.83
901.588	8671.37
901.902	8645.15
902.216	8649.9
902.531	8611.48
902.845	8523.12
903.159	8444.48
903.473	8532.61
903.787	8448.1
904.101	8402.67
904.415	8401.77
904.729	8329
905.042	8336.91
905.356	8282
905.67	8249.91
905.984	8314.77
906.297	8254.2
906.611	8178.95
906.924	8148.9
907.237	8152.29
907.551	8101.67
907.864	8064.83
908.177	8003.81
908.491	8040.65
908.804	7954.32
909.117	7903.03
909.43	7841.79
909.743	7837.94
910.056	7796.59
910.368	7732.86
910.681	7802.69
910.994	7750.04
911.307	7703.94
911.619	7668.23
911.932	7651.06
912.244	7573.54
912.557	7585.75
912.869	7546.43
913.181	7506.88
913.494	7495.81
913.806	7446.09
914.118	7379.88
914.43	7376.49
914.742	7377.84
915.054	7341.46
915.366	7282.93
915.678	7276.38
915.99	7211.07
916.302	7208.81
916.613	7210.39
916.925	7171.52
917.236	7098.98
917.548	7100.34
917.859	7101.24
918.171	7054.69
918.482	6986.21
918.794	6942.6
919.105	6945.54
919.416	6875.03
919.727	6918.42
920.038	6879.1
920.349	6822.38
920.66	6801.13
920.971	6771.76
921.282	6725.66
921.593	6685.88
921.903	6661.93
922.214	6586.9
922.525	6645.88
922.835	6583.06
923.146	6549.39
923.456	6529.5
923.767	6527.02
924.077	6508.71
924.387	6477.75
924.697	6372.45
925.008	6436.4
925.318	6373.35
925.628	6331.09
925.938	6329.06
926.248	6285.44
926.558	6273.92
926.867	6256.06
927.177	6230.98
927.487	6164.09
927.796	6161.83
928.106	6157.54
928.416	6141.27
928.725	6103.75
929.034	6081.15
929.344	6053.81
929.653	6089.97
929.962	5969.97
930.271	5960.25
930.581	5989.86
930.89	5961.38
931.199	5901.05
931.508	5871.44
931.817	5814.49
932.125	5839.35
932.434	5803.87
932.743	5791.22
933.051	5747.83
933.36	5699.92
933.669	5700.37
933.977	5641.17
934.286	5734.04
934.594	5649.75
934.902	5559.81
935.21	5564.33
935.519	5525.46
935.827	5536.08
936.135	5511.45
936.443	5488.85
936.751	5476.88
937.059	5472.81
937.367	5464.45
937.674	5432.58
937.982	5367.5
938.29	5374.73
938.597	5343.09
938.905	5265.13
939.213	5249.31
939.52	5251.12
939.827	5269.2
940.135	5254.06
940.442	5227.39
940.749	5163.21
941.056	5196.88
941.363	5139.71
941.67	5101.74
941.977	5078.92
942.284	5070.11
942.591	5042.76
942.898	5050.67
943.205	4989.2
943.511	4931.35
943.818	4982.65
944.125	4952.6
944.431	4930.45
944.738	4891.58
945.044	4857.46
945.35	4800.74
945.657	4778.36
945.963	4800.06
946.269	4788.31
946.575	4745.6
946.881	4747.18
947.187	4741.75
947.493	4688.87
947.799	4708.76
948.105	4617.24
948.41	4623.11
948.716	4632.15
949.022	4595.09
949.327	4601.64
949.633	4559.16
949.938	4563.45
950.244	4507.18
950.549	4561.42
950.854	4488.88
951.16	4460.86
951.465	4478.71
951.77	4490.01
952.075	4392.61
952.38	4405.94
952.685	4396.23
952.99	4311.48
953.294	4344.48
953.599	4314.42
953.904	4257.02
954.209	4241.88
954.513	4240.3
954.818	4205.72
955.122	4245.5
955.426	4206.63
955.731	4150.81
956.035	4155.55
956.339	4113.97
956.643	4137.7
956.948	4085.73
957.252	4104.26
957.556	4066.74
957.86	4061.09
958.163	4012.06
958.467	4019.96
958.771	3994.88
959.075	4019.29
959.378	3954.43
959.682	3990.14
959.985	3955.56
960.289	3931.15
960.592	3862.68
960.896	3889.57
961.199	3871.04
961.502	3826.52
961.805	3858.84
962.108	3786.75
962.411	3804.83
962.714	3739.97
963.017	3768.45
963.32	3752.18
963.623	3715.34
963.926	3738.84
964.228	3670.82
964.531	3631.73
964.833	3725.51
965.136	3644.83
965.438	3625.4
965.741	3625.17
966.043	3590.82
966.345	3611.84
966.648	3566.42
966.95	3570.26
967.252	3511.28
967.554	3508.57
967.856	3527.1
968.158	3507.66
968.46	3519.41
968.761	3478.06
969.063	3417.72
969.365	3448.91
969.666	3416.14
969.968	3407.1
970.269	3360.55
970.571	3346.54
970.872	3339.98
971.174	3334.56
971.475	3332.07
971.776	3316.71
972.077	3299.31
972.378	3255.47
972.679	3263.37
972.98	3258.18
973.281	3239.65
973.582	3226.31
973.883	3202.81
974.183	3198.97
974.484	3206.88
974.785	3181.79
975.085	3165.52
975.386	3166.65
975.686	3103.6
975.986	3109.03
976.287	3115.81
976.587	3076.71
976.887	3110.61
977.187	3037.62
977.487	3056.37
977.787	3039.2
978.087	3015.92
978.387	3029.26
978.687	2993.33
978.987	2975.47
979.286	2947.68
979.586	2945.87
979.885	2944.51
980.185	2924.17
980.484	2890.96
980.784	2930.95
981.083	2923.72
981.382	2882.37
981.682	2832.88
981.981	2874.01
982.28	2803.05
982.579	2810.73
982.878	2829.04
983.177	2817.28
983.475	2760.79
983.774	2790.39
984.073	2752.43
984.372	2752.43
984.67	2763.73
984.969	2761.92
985.267	2723.73
985.566	2706.55
985.864	2713.33
986.162	2666.1
986.461	2693.45
986.759	2649.38
987.057	2617.52
987.355	2610.51
987.653	2595.6
987.951	2604.63
988.249	2613.67
988.547	2593.34
988.844	2569.61
989.142	2540
989.44	2537.07
989.737	2542.94
990.035	2534.81
990.332	2486.45
990.63	2469.27
990.927	2478.76
991.224	2470.85
991.521	2435.15
991.819	2453.45
992.116	2440.35
992.413	2427.69
992.71	2396.05
993.006	2436.05
993.303	2408.71
993.6	2386.11
993.897	2375.71
994.193	2342.04
994.49	2363.06
994.787	2328.03
995.083	2346.56
995.379	2316.96
995.676	2331.65
995.972	2292.55
996.268	2306.79
996.565	2257.3
996.861	2231.31
997.157	2247.13
997.453	2204.65
997.749	2209.84
998.044	2245.55
998.34	2210.07
998.636	2165.1
998.932	2168.26
999.227	2166.68
999.523	2154.7
999.818	2139.11
1000.114	2134.14
1000.409	2124.87
1000.704	2118.09
1001	2077.19
1001.295	2108.6
1001.59	2112.44
1001.885	2074.03
1002.18	2049.17
1002.475	2053.46
1002.77	2044.42
1003.065	2015.5
1003.359	2020.92
1003.654	2022.5
1003.949	2012.79
1004.243	1977.08
1004.538	1969.85
1004.832	1972.34
1005.127	1939.34
1005.421	1946.57
1005.715	1941.6
1006.009	1896.86
1006.304	1895.73
1006.598	1924.88
1006.892	1876.52
1007.186	1854.6
1007.48	1864.77
1007.773	1840.81
1008.067	1818.44
1008.361	1810.98
1008.655	1803.53
1008.948	1810.76
1009.242	1799.91
1009.535	1769.18
1009.829	1761.27
1010.122	1747.48
1010.415	1744.54
1010.708	1739.12
1011.001	1712.23
1011.295	1723.98
1011.588	1724.88
1011.881	1698.67
1012.173	1708.39
1012.466	1688.95
1012.759	1685.11
1013.052	1680.37
1013.344	1648.28
1013.637	1663.19
1013.93	1638.78
1014.222	1633.81
1014.514	1613.93
1014.807	1576.87
1015.099	1589.29
1015.391	1578.67
1015.683	1565.79
1015.976	1567.83
1016.268	1558.11
1016.56	1544.32
1016.851	1533.7
1017.143	1538
1017.435	1536.64
1017.727	1483.53
1018.018	1501.61
1018.31	1486.02
1018.602	1476.3
1018.893	1454.61
1019.185	1454.83
1019.476	1448.51
1019.767	1475.63
1020.058	1437.43
1020.35	1438.56
1020.641	1430.88
1020.932	1417.32
1021.223	1387.04
1021.514	1375.51
1021.804	1392.46
1022.095	1365.57
1022.386	1345.23
1022.677	1332.58
1022.967	1335.74
1023.258	1338
1023.548	1321.28
1023.839	1297.55
1024.129	1318.79
1024.419	1342.52
1024.709	1293.48
1025	1280.38
1025.29	1250.55
1025.58	1251.45
1025.87	1245.8
1026.16	1234.05
1026.449	1249.87
1026.739	1244.67
1027.029	1211.23
1027.319	1200.6
1027.608	1201.73
1027.898	1195.63
1028.187	1180.49
1028.477	1182.07
1028.766	1209.42
1029.055	1172.13
1029.344	1159.25
1029.634	1151.11
1029.923	1132.58
1030.212	1124.22
1030.501	1131.45
1030.79	1124.9
1031.078	1117.67
1031.367	1140.72
1031.656	1113.37
1031.945	1105.47
1032.233	1102.08
1032.522	1107.95
1032.81	1079.03
1033.099	1081.29
1033.387	1053.26
1033.675	1027.73
1033.963	1058.01
1034.251	1035.18
1034.54	1040.61
1034.828	1032.47
1035.116	1051
1035.403	1013.49
1035.691	1013.04
1035.979	1020.04
1036.267	1009.42
1036.554	988.63
1036.842	984.56
1037.129	977.56
1037.417	986.37
1037.704	949.31
1037.992	945.7
1038.279	944.11
1038.566	946.15
1038.853	946.15
1039.14	946.15
