Data from hue_270_FLMS001491_00016.txt Node
Date: Tue Feb 07 15:56:50 GMT 2017
User: dcchb
Spectrometer: FLMS00149
Trigger mode: 0
Integration Time (sec): 2.000000E-2
Scans to average: 10
Electric dark correction enabled: true
Nonlinearity correction enabled: false
Boxcar width: 0
XAxis mode: Wavelengths
Number of Pixels in Spectrum: 2048
>>>>>Begin Spectral Data<<<<<
341.393	-22.3
341.776	-22.3
342.16	-22.3
342.543	-71.79
342.927	-70.89
343.31	-60.72
343.693	-67.5
344.077	-63.2
344.46	-68.18
344.843	-41.74
345.226	-52.13
345.61	-42.64
345.993	-22.75
346.376	-10.1
346.759	15.21
347.142	22.67
347.525	56.79
347.908	56.11
348.291	71.48
348.674	104.02
349.057	102.67
349.44	117.81
349.823	147.86
350.206	165.26
350.588	192.38
350.971	207.52
351.354	205.94
351.737	236.22
352.119	236.45
352.502	240.74
352.884	275.77
353.267	269.67
353.65	283
354.032	295.66
354.414	285.94
354.797	303.11
355.179	313.51
355.562	324.58
355.944	327.52
356.326	305.15
356.709	336.11
357.091	341.3
357.473	348.76
357.855	321.87
358.238	336.11
358.62	341.3
359.002	305.83
359.384	332.04
359.766	332.04
360.148	332.94
360.53	319.84
360.912	351.02
361.294	342.66
361.676	331.81
362.057	336.33
362.439	335.2
362.821	321.19
363.203	309.67
363.584	320.06
363.966	311.02
364.348	313.96
364.729	325.03
365.111	310.57
365.493	319.61
365.874	306.96
366.256	307.41
366.637	309.22
367.019	301.98
367.4	314.19
367.781	292.27
368.163	310.12
368.544	322.1
368.925	309.44
369.306	314.86
369.688	310.12
370.069	310.12
370.45	311.93
370.831	319.61
371.212	322.32
371.593	307.18
371.974	304.24
372.355	314.19
372.736	320.06
373.117	303.57
373.498	323
373.879	299.72
374.26	325.26
374.641	298.59
375.021	304.02
375.402	328.42
375.783	332.04
376.163	320.51
376.544	330.23
376.925	315.99
377.305	318.48
377.686	307.41
378.066	335.88
378.447	313.28
378.827	344.47
379.208	324.81
379.588	317.12
379.968	330.46
380.349	323.9
380.729	311.25
381.109	333.62
381.489	321.42
381.87	337.69
382.25	328.88
382.63	347.41
383.01	335.2
383.39	335.88
383.77	354.19
384.15	338.37
384.53	333.62
384.91	318.93
385.29	338.14
385.67	368.42
386.049	344.02
386.429	337.01
386.809	358.03
387.189	371.36
387.568	331.36
387.948	352.6
388.328	363.68
388.707	369.55
389.087	384.92
389.466	361.42
389.846	358.48
390.225	380.63
390.605	368.42
390.984	375.2
391.363	354.41
391.743	382.89
392.122	360.97
392.501	387.63
392.881	379.5
393.26	371.81
393.639	369.33
394.018	393.51
394.397	372.49
394.776	381.08
395.155	374.52
395.534	382.89
395.913	381.98
396.292	388.53
396.671	385.37
397.05	415.88
397.429	409.1
397.808	387.63
398.186	388.31
398.565	411.36
398.944	397.8
399.323	411.59
399.701	406.16
400.08	400.74
400.458	425.82
400.837	430.79
401.215	414.52
401.594	434.64
401.972	418.14
402.351	450
402.729	428.08
403.107	446.39
403.486	452.26
403.864	452.71
404.242	449.1
404.62	453.17
404.999	436.22
405.377	443.67
405.755	452.94
406.133	482.54
406.511	464.92
406.889	436.44
407.267	460.62
407.645	489.1
408.023	478.7
408.401	478.7
408.779	473.73
409.156	476.89
409.534	509.89
409.912	481.87
410.29	506.95
410.667	508.08
411.045	508.98
411.422	543.79
411.8	545.82
412.178	549.66
412.555	557.57
412.933	562.99
413.31	550.56
413.687	566.16
414.065	579.04
414.442	576.78
414.819	599.15
415.197	618.81
415.574	585.37
415.951	605.25
416.328	617
416.705	622.2
417.082	618.13
417.46	661.52
417.837	651.13
418.214	649.32
418.591	657.68
418.967	651.58
419.344	670.56
419.721	690.22
420.098	669.88
420.475	690.45
420.852	676.21
421.228	731.58
421.605	713.95
421.982	727.51
422.358	728.19
422.735	759.6
423.111	757.34
423.488	763.21
423.864	790.78
424.241	800.05
424.617	791.69
424.994	803.21
425.37	804.57
425.746	831.69
426.123	839.6
426.499	847.28
426.875	867.84
427.251	875.3
427.627	860.84
428.003	871.23
428.379	881.86
428.756	914.62
429.132	919.59
429.507	918.46
429.883	953.49
430.259	952.81
430.635	979.03
431.011	950.78
431.387	973.38
431.763	1000.72
432.138	1005.02
432.514	1010.67
432.89	1052.92
433.265	1025.13
433.641	1077.33
434.016	1098.35
434.392	1087.05
434.767	1126.82
435.143	1121.62
435.518	1134.73
435.894	1165.01
436.269	1170.66
436.644	1181.96
437.02	1202.52
437.395	1240.04
437.77	1224.67
438.145	1266.25
438.52	1269.64
438.895	1287.04
439.271	1310.09
439.646	1328.85
440.021	1339.92
440.395	1339.92
440.77	1359.13
441.145	1358.68
441.52	1397.55
441.895	1406.14
442.27	1405.68
442.645	1429.41
443.019	1409.75
443.394	1437.32
443.769	1459.47
444.143	1464.44
444.518	1468.51
444.892	1468.51
445.267	1489.97
445.641	1487.94
446.016	1494.72
446.39	1505.79
446.764	1560.26
447.139	1545.57
447.513	1565
447.887	1570.88
448.262	1552.35
448.636	1574.49
449.01	1568.62
449.384	1589.18
449.758	1633.47
450.132	1627.37
450.506	1603.87
450.88	1637.99
451.254	1676.18
451.628	1717.77
452.002	1679.12
452.376	1696.07
452.75	1715.05
453.123	1724.09
453.497	1722.51
453.871	1740.82
454.244	1767.48
454.618	1747.6
454.992	1810.87
455.365	1810.64
455.739	1845.67
456.112	1869.4
456.486	1861.49
456.859	1837.08
457.232	1942.84
457.606	1901.49
457.979	1946.69
458.352	1970.41
458.725	1982.84
459.099	1983.97
459.472	1988.49
459.845	2035.05
460.218	2054.48
460.591	2058.1
460.964	2060.81
461.337	2098.55
461.71	2149.62
462.083	2187.36
462.456	2150.75
462.829	2164.08
463.201	2192.78
463.574	2201.59
463.947	2233.46
464.32	2260.35
464.692	2302.38
465.065	2306.68
465.438	2316.39
465.81	2358.88
466.183	2362.49
466.555	2419.22
466.928	2415.6
467.3	2448.82
467.672	2466.67
468.045	2509.38
468.417	2497.41
468.789	2516.84
469.161	2559.33
469.534	2599.78
469.906	2620.11
470.278	2669.15
470.65	2687.01
471.022	2712.99
471.394	2748.25
471.766	2784.18
472.138	2804.52
472.51	2839.32
472.882	2894.68
473.253	2881.58
473.625	2949.37
473.997	3005.87
474.369	2994.79
474.74	3024.62
475.112	3097.84
475.484	3137.84
475.855	3188.91
476.227	3188.69
476.598	3287.67
476.97	3239.99
477.341	3269.59
477.713	3329.25
478.084	3382.58
478.455	3444.73
478.827	3449.7
479.198	3531.73
479.569	3569.92
479.94	3602.46
480.311	3634.78
480.682	3738.73
481.053	3773.08
481.424	3825.05
481.795	3877.03
482.166	3844.72
482.537	3911.83
482.908	3978.72
483.279	4001.32
483.65	4057.82
484.021	4140.53
484.391	4165.61
484.762	4198.83
485.133	4243.8
485.503	4287.19
485.874	4336.91
486.244	4374.64
486.615	4424.81
486.985	4453.29
487.356	4515.88
487.726	4550.23
488.097	4624.81
488.467	4641.08
488.837	4714.07
489.207	4788.19
489.578	4814.18
489.948	4861.64
490.318	4898.92
490.688	4874.29
491.058	4958.81
491.428	4999.26
491.798	5024.8
492.168	5140.05
492.538	5149.77
492.908	5217.79
493.278	5246.49
493.648	5256.2
494.017	5284.9
494.387	5306.6
494.757	5309.76
495.126	5442.19
495.496	5435.86
495.866	5463.43
496.235	5499.59
496.605	5531.45
496.974	5571.45
497.344	5655.97
497.713	5576.65
498.082	5641.5
498.452	5653.93
498.821	5697.32
499.19	5637.66
499.559	5756.08
499.928	5778.68
500.298	5822.97
500.667	5810.31
501.036	5831.1
501.405	5886.47
501.774	5819.58
502.143	5910.42
502.512	5853.7
502.88	5970.08
503.249	5992.46
503.618	5993.36
503.987	5978.9
504.356	6009.63
504.724	6060.93
505.093	6072.45
505.462	6020.93
505.83	6101.83
506.199	6112.23
506.567	6170.3
506.936	6176.86
507.304	6205.56
507.672	6195.84
508.041	6203.07
508.409	6240.13
508.777	6274.03
509.145	6330.53
509.514	6291.43
509.882	6390.86
510.25	6334.37
510.618	6365.1
510.986	6387.93
511.354	6400.35
511.722	6442.61
512.09	6477.19
512.458	6477.87
512.826	6486.68
513.193	6488.26
513.561	6451.65
513.929	6541.82
514.297	6550.63
514.664	6589.28
515.032	6574.59
515.4	6625.89
515.767	6610.52
516.135	6635.15
516.502	6540.01
516.869	6674.02
517.237	6699.33
517.604	6638.99
517.972	6686
518.339	6714.02
518.706	6710.18
519.073	6747.01
519.44	6706.11
519.808	6708.14
520.175	6733
520.542	6824.3
520.909	6870.85
521.276	6798.99
521.643	6874.69
522.009	6870.62
522.376	6925.31
522.743	6907.91
523.11	6930.96
523.477	7001.92
523.843	7001.24
524.21	6988.59
524.577	7032.88
524.943	7047.57
525.31	7071.75
525.676	7087.57
526.043	7083.73
526.409	7193.1
526.776	7145.19
527.142	7191.97
527.508	7180.9
527.874	7232.87
528.241	7231.29
528.607	7229.71
528.973	7316.71
529.339	7276.94
529.705	7350.39
530.071	7419.08
530.437	7317.84
530.803	7383.83
531.169	7444.39
531.535	7386.09
531.901	7368.92
532.267	7404.17
532.632	7472.42
532.998	7448.01
533.364	7521.91
533.73	7530.49
534.095	7511.06
534.461	7537.95
534.826	7543.83
535.192	7523.94
535.557	7594.67
535.923	7583.37
536.288	7554.9
536.653	7608.23
537.019	7572.3
537.384	7621.34
537.749	7621.34
538.114	7617.05
538.479	7606.65
538.845	7648.01
539.21	7566.65
539.575	7594.22
539.94	7631.28
540.305	7708.12
540.67	7679.19
541.034	7666.54
541.399	7731.39
541.764	7673.09
542.129	7735.46
542.494	7662.24
542.858	7668.57
543.223	7681.68
543.587	7751.73
543.952	7701.11
544.316	7753.99
544.681	7778.62
545.045	7776.14
545.41	7783.14
545.774	7762.35
546.138	7757.83
546.503	7820.43
546.867	7776.36
547.231	7772.52
547.595	7783.37
547.959	7811.62
548.324	7757.83
548.688	7832.86
549.052	7836.47
549.416	7801
549.779	7770.26
550.143	7789.7
550.507	7825.63
550.871	7830.6
551.235	7866.76
551.599	7864.95
551.962	7838.28
552.326	7906.98
552.689	7897.72
553.053	7880.77
553.417	7904.95
553.78	7964.83
554.143	7956.02
554.507	7948.34
554.87	7978.39
555.234	8038.28
555.597	7920.54
555.96	7960.77
556.323	7974.1
556.686	8025.17
557.05	8043.02
557.413	8055.9
557.776	8053.19
558.139	8100.65
558.502	8079.86
558.865	8134.55
559.228	8086.64
559.59	8167.31
559.953	8185.39
560.316	8172.74
560.679	8213.19
561.041	8271.27
561.404	8266.07
561.767	8278.72
562.129	8235.79
562.492	8368.89
562.854	8304.26
563.217	8327.76
563.579	8386.74
563.941	8425.39
564.304	8433.97
564.666	8545.83
565.028	8489.11
565.39	8491.37
565.753	8554.2
566.115	8561.2
566.477	8599.39
566.839	8550.58
567.201	8659.96
567.563	8592.39
567.925	8701.76
568.287	8737.92
568.648	8766.85
569.01	8746.73
569.372	8840.97
569.734	8751.7
570.095	8853.17
570.457	8902.89
570.819	8904.7
571.18	8923.23
571.542	8983.79
571.903	8964.58
572.265	9040.06
572.626	9052.71
572.987	9079.83
573.349	9014.3
573.71	9093.62
574.071	9125.71
574.432	9148.53
574.794	9240.28
575.155	9234.18
575.516	9280.73
575.877	9289.32
576.238	9317.79
576.599	9343.33
576.96	9354.85
577.32	9387.17
577.681	9475.08
578.042	9458.8
578.403	9500.16
578.763	9425.81
579.124	9511.46
579.485	9539.93
579.845	9551.46
580.206	9599.37
580.566	9569.08
580.927	9639.82
581.287	9714.39
581.648	9676.2
582.008	9814.95
582.368	9763.2
582.728	9811.34
583.089	9794.39
583.449	9833.48
583.809	9780.6
584.169	9917.32
584.529	9951.45
584.889	9959.81
585.249	9907.15
585.609	9977.21
585.969	10016.76
586.329	9972.01
586.688	10073.25
587.048	10089.75
587.408	10025.8
587.768	10062.86
588.127	10139.01
588.487	10145.79
588.846	10161.61
589.206	10178.33
589.565	10240.93
589.925	10276.41
590.284	10258.11
590.643	10278.44
591.003	10436.86
591.362	10387.59
591.721	10363.87
592.08	10359.8
592.44	10413.13
592.799	10457.2
593.158	10419.23
593.517	10491.32
593.876	10412.23
594.235	10442.28
594.593	10440.47
594.952	10462.17
595.311	10478.21
595.67	10501.72
596.029	10591.66
596.387	10580.58
596.746	10634.82
597.104	10606.12
597.463	10611.32
597.822	10626.46
598.18	10664.65
598.538	10751.2
598.897	10731.77
599.255	10623.07
599.613	10830.75
599.972	10705.33
600.33	10785.32
600.688	10769.96
601.046	10788.49
601.404	10853.34
601.762	10881.59
602.12	10867.36
602.478	10872.55
602.836	10878.43
603.194	10863.51
603.552	10882.04
603.91	10858.54
604.268	10930.4
604.625	10895.15
604.983	10936.05
605.341	10853.8
605.698	11022.15
606.056	10949.39
606.413	10956.62
606.771	10916.17
607.128	11039.55
607.485	10958.65
607.843	10974.25
608.2	11016.05
608.557	11056.05
608.914	10991.19
609.272	11116.16
609.629	11102.38
609.986	11164.52
610.343	11098.99
610.7	11171.53
611.057	11138.76
611.414	11224.41
611.771	11182.83
612.127	11208.59
612.484	11178.76
612.841	11266.22
613.198	11244.07
613.554	11271.86
613.911	11272.99
614.267	11271.19
614.624	11252.2
614.98	11296.04
615.337	11287.46
615.693	11355.25
616.05	11306.67
616.406	11360.68
616.762	11326.33
617.118	11341.24
617.475	11292.88
617.831	11290.62
618.187	11357.29
618.543	11327
618.899	11440.45
619.255	11399.54
619.611	11345.99
619.967	11389.6
620.323	11470.28
620.678	11408.13
621.034	11417.17
621.39	11377.62
621.746	11452.2
622.101	11546.66
622.457	11486.32
622.812	11390.28
623.168	11446.32
623.523	11491.07
623.879	11508.02
624.234	11437.28
624.589	11482.48
624.945	11442.03
625.3	11458.07
625.655	11471.18
626.01	11423.05
626.365	11521.12
626.72	11463.27
627.075	11468.7
627.43	11455.36
627.785	11433.44
628.14	11483.61
628.495	11414.91
628.85	11515.93
629.205	11332.43
629.559	11451.97
629.914	11405.42
630.269	11421.24
630.623	11397.51
630.978	11409.71
631.332	11442.48
631.687	11362.94
632.041	11297.63
632.396	11377.62
632.75	11313.45
633.104	11309.83
633.459	11307.57
633.813	11231.19
634.167	11229.15
634.521	11260.79
634.875	11301.24
635.229	11225.99
635.583	11199.55
635.937	11195.03
636.291	11168.59
636.645	11211.08
636.999	11127.01
637.352	11179.21
637.706	11168.14
638.06	11109.83
638.413	11088.59
638.767	11083.17
639.121	11157.97
639.474	11037.07
639.828	11109.61
640.181	11045.2
640.534	11046.56
640.888	11031.42
641.241	11038.65
641.594	11029.16
641.947	11051.53
642.301	10975.6
642.654	10984.41
643.007	10943.29
643.36	10955.71
643.713	10979.89
644.066	11085.2
644.419	10938.99
644.771	10874.36
645.124	10781.71
645.477	10678.43
645.83	10696.96
646.182	10647.93
646.535	10659
646.888	10620.36
647.24	10570.87
647.593	10670.52
647.945	10547.14
648.298	10525.67
648.65	10565.44
649.002	10510.53
649.355	10560.24
649.707	10543.97
650.059	10574.71
650.411	10694.25
650.763	10727.47
651.115	10896.73
651.467	10847.47
651.819	10825.77
652.171	10748.04
652.523	10764.99
652.875	10764.53
653.227	10764.53
653.578	10770.41
653.93	10782.39
654.282	10803.18
654.633	10744.19
654.985	10788.04
655.337	10801.14
655.688	10754.36
656.039	10781.48
656.391	10765.44
656.742	10776.06
657.094	10836.85
657.445	10793.01
657.796	10785.55
658.147	10812.44
658.498	10753.91
658.849	10797.98
659.2	10777.87
659.551	10753.69
659.902	10879.11
660.253	10769.96
660.604	10766.34
660.955	10718.88
661.306	10802.27
661.656	10764.08
662.007	10798.88
662.358	10873.68
662.708	10757.3
663.059	10770.41
663.409	10689.51
663.76	10855.83
664.11	10809.96
664.461	10740.81
664.811	10833.68
665.161	10796.4
665.511	10752.56
665.862	10776.06
666.212	10815.15
666.562	10870.75
666.912	10761.82
667.262	10749.62
667.612	10771.31
667.962	10817.87
668.312	10809.5
668.662	10847.24
669.011	10792.56
669.361	10767.02
669.711	10745.78
670.06	10758.88
670.41	10689.28
670.76	10730.86
671.109	10755.49
671.459	10712.78
671.808	10674.14
672.157	10754.14
672.507	10625.55
672.856	10659
673.205	10757.08
673.554	10713.46
673.904	10637.53
674.253	10733.35
674.602	10631.66
674.951	10515.73
675.3	10514.82
675.649	10676.63
675.998	10616.29
676.346	10628.27
676.695	10677.08
677.044	10592.11
677.393	10586.46
677.741	10542.17
678.09	10563.18
678.438	10536.06
678.787	10595.5
679.135	10563.63
679.484	10493.35
679.832	10476.41
680.181	10442.51
680.529	10493.81
680.877	10451.32
681.225	10407.48
681.573	10462.62
681.922	10424.2
682.27	10326.35
682.618	10381.72
682.966	10264.21
683.314	10405.67
683.661	10385.79
684.009	10270.31
684.357	10275.73
684.705	10176.53
685.053	10214.94
685.4	10281.38
685.748	10206.58
686.095	10251.1
686.443	10164.55
686.79	10174.49
687.138	10088.39
687.485	10086.13
687.832	10063.31
688.18	10051.11
688.527	10047.26
688.874	9932.92
689.221	9974.72
689.568	9967.94
689.915	9874.61
690.262	9933.14
690.609	9830.55
690.956	9813.6
691.303	9758.68
691.65	9735.86
691.997	9719.14
692.344	9694.96
692.69	9626.48
693.037	9711.45
693.383	9584.45
693.73	9586.94
694.077	9506.26
694.423	9472.14
694.769	9491.12
695.116	9461.52
695.462	9395.3
695.808	9382.87
696.155	9382.2
696.501	9308.3
696.847	9317.57
697.193	9221.52
697.539	9270.11
697.885	9255.65
698.231	9210
698.577	9153.95
698.923	9182.43
699.269	9162.32
699.614	9078.93
699.96	8967.29
700.306	9010.68
700.651	8982.66
700.997	8908.31
701.342	8889.33
701.688	8898.14
702.033	8826.05
702.379	8843.45
702.724	8806.84
703.069	8751.25
703.415	8731.59
703.76	8699.05
704.105	8699.05
704.45	8650.69
704.795	8676.45
705.14	8577.47
705.485	8554.2
705.83	8619.5
706.175	8552.39
706.52	8518.94
706.865	8517.36
707.209	8432.17
707.554	8414.54
707.899	8425.61
708.243	8408.21
708.588	8388.55
708.932	8341.09
709.277	8351.72
709.621	8365.73
709.966	8223.13
710.31	8294.77
710.654	8225.84
710.998	8268.78
711.342	8193.75
711.687	8212.28
712.031	8194.88
712.375	8165.51
712.719	8123.02
713.063	8172.51
713.407	8127.09
713.75	8074.89
714.094	8060.2
714.438	8053.87
714.782	8011.39
715.125	8011.84
715.469	7976.58
715.812	7964.83
716.156	7932.07
716.499	7884.38
716.843	7936.81
717.186	7870.15
717.53	8005.96
717.873	7936.36
718.216	7970.03
718.559	7864.5
718.902	7785.18
719.246	7814.33
719.589	7865.63
719.932	7767.1
720.275	7772.97
720.617	7728.23
720.96	7822.46
721.303	7763.03
721.646	7796.93
721.989	7764.61
722.331	7748.12
722.674	7755.12
723.016	7710.83
723.359	7746.53
723.701	7725.97
724.044	7701.34
724.386	7639.42
724.729	7760.09
725.071	7627.21
725.413	7668.34
725.755	7648.01
726.097	7639.42
726.439	7602.13
726.782	7641.45
727.124	7695.69
727.465	7657.5
727.807	7626.99
728.149	7636.71
728.491	7599.87
728.833	7619.98
729.175	7598.29
729.516	7504.73
729.858	7570.72
730.199	7605.75
730.541	7568.91
730.882	7548.35
731.224	7623.37
731.565	7553.09
731.906	7557.61
732.248	7638.74
732.589	7489.37
732.93	7501.12
733.271	7542.7
733.612	7520.55
733.953	7504.05
734.294	7526.2
734.635	7550.15
734.976	7547.89
735.317	7510.61
735.658	7568.69
735.999	7512.64
736.339	7538.86
736.68	7559.87
737.021	7524.84
737.361	7529.14
737.702	7550.61
738.042	7565.75
738.383	7603.03
738.723	7594.67
739.063	7507.44
739.404	7636.93
739.744	7600.1
740.084	7573.43
740.424	7589.25
740.764	7607.1
741.104	7646.65
741.444	7634.22
741.784	7602.58
742.124	7588.12
742.464	7670.15
742.804	7633.32
743.143	7726.65
743.483	7719.42
743.823	7668.57
744.162	7659.53
744.502	7722.13
744.841	7753.54
745.181	7834.44
745.52	7831.28
745.86	7827.21
746.199	7887.32
746.538	7934.55
746.877	8021.33
747.216	8026.3
747.556	8062.91
747.895	8055
748.234	8076.24
748.573	8108.11
748.911	8208.22
749.25	8190.82
749.589	8275.56
749.928	8381.77
750.267	8365.27
750.605	8411.15
750.944	8471.94
751.283	8579.51
751.621	8641.65
751.96	8695.66
752.298	8756.22
752.636	8843
752.975	8884.81
753.313	8988.99
753.651	9067.63
753.989	9098.14
754.327	9293.39
754.666	9344.01
755.004	9474.4
755.342	9654.05
755.679	9758.46
756.017	9787.61
756.355	9930.43
756.693	10102.4
757.031	10152.57
757.368	10281.16
757.706	10450.64
758.044	10583.97
758.381	10709.85
758.719	10836.62
759.056	10964.08
759.394	11068.48
759.731	11269.6
760.068	11378.75
760.405	11580.78
760.743	11615.81
761.08	11887.89
761.417	11957.04
761.754	12070.26
762.091	12237.94
762.428	12455.79
762.765	12512.51
763.102	12705.05
763.438	12838.83
763.775	12999.05
764.112	13208.08
764.449	13292.38
764.785	13540.28
765.122	13550
765.458	13667.06
765.795	13836.09
766.131	13980.49
766.467	14172.13
766.804	14259.13
767.14	14338
767.476	14518.56
767.812	14615.73
768.148	14825.22
768.485	14855.73
768.821	14989.51
769.157	15121.03
769.492	15263.4
769.828	15394.47
770.164	15483.96
770.5	15580.68
770.836	15720.34
771.171	15792.2
771.507	15822.71
771.842	15933.66
772.178	15978.86
772.513	16175.92
772.849	16138.63
773.184	16190.83
773.519	16494.1
773.855	16467.43
774.19	16531.84
774.525	16499.75
774.86	16689.35
775.195	16695
775.53	16745.62
775.865	16719.41
776.2	16750.14
776.535	16794.21
776.87	16880.76
777.205	16970.7
777.539	16830.14
777.874	17048.44
778.209	17024.93
778.543	16950.36
778.878	16993.97
779.212	17084.14
779.547	17053.86
779.881	17241.2
780.215	17144.03
780.55	17196.23
780.884	17246.4
781.218	17194.65
781.552	17235.78
781.886	17191.03
782.22	17264.02
782.554	17151.03
782.888	17051.15
783.222	17070.81
783.556	17099.51
783.889	17081.66
784.223	17086.85
784.557	17108.55
784.89	17179.73
785.224	17098.6
785.557	17115.33
785.891	17010.92
786.224	17073.52
786.558	17066.06
786.891	16954.43
787.224	17001.88
787.557	16932.51
787.891	16967.08
788.224	17099.28
788.557	17032.62
788.89	17053.63
789.223	17040.98
789.556	16849.8
789.888	16874.2
790.221	16846.63
790.554	16774.77
790.887	16768.67
791.219	16716.47
791.552	16818.61
791.884	16769.12
792.217	16658.39
792.549	16657.03
792.882	16552.18
793.214	16500.43
793.546	16518.05
793.879	16515.57
794.211	16454.1
794.543	16484.61
794.875	16477.38
795.207	16488.45
795.539	16490.03
795.871	16452.52
796.203	16271.73
796.535	16226.76
796.867	16229.25
797.198	16213.2
797.53	16229.93
797.862	16137.27
798.193	16150.15
798.525	16015.69
798.856	16119.19
799.188	15859.31
799.519	15952.19
799.85	15864.51
800.182	15862.93
800.513	15928.24
800.844	15782.25
801.175	15843.5
801.506	15833.33
801.837	15773.89
802.168	15708.58
802.499	15684.86
802.83	15683.5
803.161	15573.22
803.491	15570.73
803.822	15570.28
804.153	15523.96
804.483	15434.69
804.814	15415.94
805.145	15271.99
805.475	15301.82
805.805	15296.62
806.136	15313.34
806.466	15306.79
806.796	15227.24
807.126	15174.81
807.457	15150.63
807.787	15127.58
808.117	15119.45
808.447	14977.08
808.777	15073.35
809.107	15097.07
809.436	14983.63
809.766	15028.83
810.096	14999.22
810.426	14815.05
810.755	14878.32
811.085	14814.14
811.414	14780.47
811.744	14691.44
812.073	14748.16
812.403	14684.88
812.732	14639.01
813.061	14730.3
813.39	14607.6
813.719	14535.51
814.049	14580.48
814.378	14507.26
814.707	14478.33
815.036	14486.92
815.365	14392.91
815.693	14310.43
816.022	14405.34
816.351	14262.29
816.68	14263.65
817.008	14291.67
817.337	14135.29
817.665	14119.25
817.994	14113.82
818.322	14146.14
818.651	14092.36
818.979	14045.35
819.307	14092.58
819.636	14106.82
819.964	13997.67
820.292	14049.87
820.62	14009.42
820.948	13947.05
821.276	14018.23
821.604	13990.89
821.932	14049.87
822.259	13957.9
822.587	13945.24
822.915	13951.34
823.243	14007.39
823.57	13920.83
823.898	13940.04
824.225	13931
824.553	13941.62
824.88	13935.52
825.207	13997.44
825.535	13941.17
825.862	14040.38
826.189	13938.24
826.516	13978.01
826.843	14045.13
827.17	14072.02
827.497	13983.88
827.824	14011.45
828.151	14123.32
828.478	14029.31
828.805	14037.89
829.131	14023.66
829.458	14025.46
829.785	13928.97
830.111	14013.94
830.438	14007.84
830.764	14054.16
831.09	14022.98
831.417	14029.31
831.743	13966.03
832.069	14052.81
832.395	13944.34
832.722	14073.15
833.048	14011.68
833.374	13905.02
833.7	13836.99
834.026	13974.84
834.351	14014.84
834.677	13905.47
835.003	13983.88
835.329	13813.94
835.654	13860.5
835.98	13872.7
836.306	13858.69
836.631	13790.44
836.956	13798.8
837.282	13807.62
837.607	13786.15
837.932	13757.22
838.258	13805.58
838.583	13775.08
838.908	13693.95
839.233	13740.5
839.558	13575.53
839.883	13650.11
840.208	13492.37
840.533	13502.77
840.858	13576.21
841.182	13571.24
841.507	13544.35
841.832	13401.75
842.156	13469.77
842.481	13394.97
842.805	13395.42
843.13	13377.12
843.454	13394.75
843.778	13323.79
844.103	13234.52
844.427	13231.59
844.751	13205.15
845.075	13252.38
845.399	13123.79
845.723	13118.37
846.047	13095.09
846.371	12964.02
846.695	12982.33
847.019	12835.67
847.343	12845.16
847.666	12713.63
847.99	12786.63
848.313	12666.4
848.637	12633.18
848.96	12587.08
849.284	12539.4
849.607	12469.35
849.931	12435.22
850.254	12380.54
850.577	12261.9
850.9	12228.45
851.223	12208.11
851.546	12228.68
851.869	12095.12
852.192	12147.1
852.515	12059.41
852.838	11948.46
853.161	12002.24
853.483	11916.59
853.806	11868.91
854.129	11843.15
854.451	11812.42
854.774	11796.37
855.096	11793.21
855.419	11668.01
855.741	11732.42
856.063	11685.19
856.385	11576.49
856.708	11475.93
857.03	11528.13
857.352	11533.33
857.674	11405.19
857.996	11404.97
858.318	11383.27
858.64	11410.84
858.961	11268.25
859.283	11336.5
859.605	11223.28
859.926	11208.82
860.248	11208.82
860.57	11245.2
860.891	11182.83
861.212	11068.93
861.534	11054.24
861.855	11113
862.176	11120.68
862.498	11038.42
862.819	11081.36
863.14	11040.46
863.461	10982.38
863.782	10933.57
864.103	10971.08
864.424	10887.92
864.745	10945.32
865.065	10861.71
865.386	10811.76
865.707	10847.24
866.027	10783.52
866.348	10835.94
866.668	10795.04
866.989	10738.77
867.309	10668.26
867.63	10727.47
867.95	10736.51
868.27	10647.93
868.59	10647.93
868.91	10604.99
869.23	10642.5
869.55	10579
869.87	10680.24
870.19	10617.19
870.51	10619.23
870.83	10607.48
871.15	10542.17
871.469	10503.07
871.789	10611.54
872.109	10494.03
872.428	10368.61
872.748	10515.27
873.067	10501.26
873.386	10521.83
873.706	10460.81
874.025	10367.48
874.344	10312.79
874.663	10357.31
874.982	10312.79
875.301	10305.56
875.62	10353.02
875.939	10277.09
876.258	10221.95
876.577	10224.89
876.896	10263.76
877.214	10236.86
877.533	10220.59
877.852	10235.06
878.17	10174.94
878.489	10191.67
878.807	10110.31
879.125	10089.3
879.444	10151.22
879.762	10031.67
880.08	10011.78
880.398	9995.06
880.716	10022.86
881.034	9969.3
881.352	9982.63
881.67	9943.09
881.988	9953.48
882.306	9881.17
882.624	9875.07
882.941	9868.96
883.259	9799.36
883.577	9838
883.894	9776.08
884.212	9830.55
884.529	9814.95
884.846	9763.43
885.164	9701.74
885.481	9671.45
885.798	9710.32
886.115	9627.39
886.432	9621.06
886.75	9606.37
887.067	9576.77
887.383	9553.72
887.7	9580.38
888.017	9487.5
888.334	9494.06
888.651	9449.31
888.967	9440.5
889.284	9407.28
889.6	9359.82
889.917	9324.35
890.233	9343.33
890.55	9309.88
890.866	9262.2
891.182	9297.68
891.498	9209.09
891.815	9149.89
892.131	9114.63
892.447	9114.86
892.763	9096.33
893.079	9091.36
893.395	9019.04
893.71	9033.73
894.026	8977.69
894.342	8978.59
894.657	8993.73
894.973	8915.54
895.289	8878.71
895.604	8870.57
895.92	8784.25
896.235	8721.42
896.55	8724.59
896.865	8686.17
897.181	8627.19
897.496	8678.71
897.811	8654.76
898.126	8669.45
898.441	8542.9
898.756	8539.51
899.071	8486.4
899.386	8516
899.7	8425.16
900.015	8423.8
900.33	8347.2
900.644	8293.64
900.959	8377.7
901.273	8351.49
901.588	8280.98
901.902	8181.55
902.216	8143.81
902.531	8116.92
902.845	8201.44
903.159	8099.97
903.473	8107.65
903.787	8020.88
904.101	7940.65
904.415	8049.12
904.729	7971.39
905.042	7906.3
905.356	7899.98
905.67	7935
905.984	7885.74
906.297	7787.44
906.611	7773.65
906.924	7734.1
907.237	7756.25
907.551	7659.76
907.864	7633.54
908.177	7633.77
908.491	7596.93
908.804	7522.81
909.117	7494.11
909.43	7450.04
909.743	7422.47
910.056	7494.34
910.368	7427.22
910.681	7408.24
910.994	7292.53
911.307	7371.18
911.619	7283.04
911.932	7302.25
912.244	7223.16
912.557	7198.98
912.869	7147.45
913.181	7191.52
913.494	7100.67
913.806	7059.32
914.118	7034.69
914.43	7031.98
914.742	7001.47
915.054	6974.12
915.366	6934.8
915.678	6893.22
915.99	6872.88
916.302	6855.71
916.613	6809.16
916.925	6806.22
917.236	6743.85
917.548	6738.42
917.859	6718.54
918.171	6720.57
918.482	6601.7
918.794	6644.87
919.105	6617.3
919.416	6626.56
919.727	6532.33
920.038	6538.88
920.349	6502.95
920.66	6457.53
920.971	6454.82
921.282	6443.97
921.593	6387.47
921.903	6377.98
922.214	6319.23
922.525	6306.8
922.835	6278.1
923.146	6264.09
923.456	6239.23
923.767	6244.43
924.077	6208.27
924.387	6181.6
924.697	6137.54
925.008	6116.52
925.318	6095.73
925.628	6063.41
925.938	6083.53
926.248	5970.31
926.558	5957.2
926.867	5977.77
927.177	5896.41
927.487	5899.58
927.796	5873.14
928.106	5887.37
928.416	5854.15
928.725	5869.07
929.034	5773.25
929.344	5787.94
929.653	5739.81
929.962	5714.95
930.271	5659.13
930.581	5683.09
930.89	5659.58
931.199	5596.76
931.508	5638.34
931.817	5570.32
932.125	5597.44
932.434	5577.55
932.743	5535.97
933.051	5480.15
933.36	5500.72
933.669	5431.57
933.977	5412.36
934.286	5387.95
934.594	5388.4
934.902	5339.37
935.21	5328.74
935.519	5319.48
935.827	5292.59
936.135	5287.16
936.443	5241.29
936.751	5206.94
937.059	5175.3
937.367	5179.6
937.674	5145.7
937.982	5165.81
938.29	5143.21
938.597	5104.12
938.905	5056.21
939.213	5053.5
939.52	5035.19
939.827	5051.69
940.135	5000.84
940.442	4989.54
940.749	4947.06
941.056	4925.59
941.363	4854.18
941.67	4930.11
941.977	4839.04
942.284	4830.68
942.591	4816.22
942.898	4803.79
943.205	4808.31
943.511	4728.08
943.818	4755.65
944.125	4719.49
944.431	4761.98
944.738	4702.55
945.044	4707.74
945.35	4625.26
945.657	4611.93
945.963	4620.51
946.269	4584.81
946.575	4605.83
946.881	4550.91
947.187	4557.46
947.493	4540.97
947.799	4476.79
948.105	4396.34
948.41	4468.65
948.716	4409.9
949.022	4379.39
949.327	4417.36
949.633	4337.81
949.938	4339.39
950.244	4395.21
950.549	4335.78
950.854	4280.64
951.16	4271.82
951.465	4243.57
951.77	4263.69
952.075	4212.84
952.38	4187.98
952.685	4187.31
952.99	4161.77
953.294	4158.15
953.599	4116.35
953.904	4092.62
954.209	4036.57
954.513	4071.6
954.818	4013.52
955.122	4086.52
955.426	4020.53
955.731	4020.3
956.035	4018.95
956.339	4007.65
956.643	3919.06
956.948	3919.74
957.252	3919.97
957.556	3895.79
957.86	3859.18
958.163	3888.56
958.467	3898.27
958.771	3836.81
959.075	3801.33
959.378	3790.93
959.682	3802.68
959.985	3785.06
960.289	3762.91
960.592	3725.4
960.896	3739.86
961.199	3741.67
961.502	3691.95
961.805	3642.46
962.108	3663.48
962.411	3647.66
962.714	3678.62
963.017	3622.57
963.32	3649.92
963.623	3586.87
963.926	3597.94
964.228	3564.72
964.531	3542.8
964.833	3507.32
965.136	3496.93
965.438	3472.97
965.741	3446.53
966.043	3481.11
966.345	3448.12
966.648	3423.48
966.95	3394.11
967.252	3413.09
967.554	3376.03
967.856	3406.76
968.158	3341.68
968.46	3364.05
968.761	3335.8
969.063	3321.34
969.365	3315.92
969.666	3306.2
969.968	3325.86
970.269	3285.18
970.571	3236.14
970.872	3255.58
971.174	3202.7
971.475	3171.06
971.776	3194.34
972.077	3175.13
972.378	3174.22
972.679	3188.46
972.98	3145.52
973.281	3112.53
973.582	3120.89
973.883	3092.87
974.183	3084.51
974.484	3051.06
974.785	3087.67
975.085	3036.83
975.386	3030.73
975.686	3027.11
975.986	2986.21
976.287	2991.63
976.587	2978.3
976.887	2980.11
977.187	2933.55
977.487	2953.67
977.787	2907.11
978.087	2935.81
978.387	2918.86
978.687	2892.88
978.987	2845.42
979.286	2847.23
979.586	2861.46
979.885	2854.68
980.185	2799.09
980.484	2820.34
980.784	2795.25
981.083	2770.17
981.382	2733.56
981.682	2784.63
981.981	2750.96
982.28	2738.76
982.579	2728.81
982.878	2705.08
983.177	2704.86
983.475	2677.06
983.774	2716.38
984.073	2665.31
984.372	2654.92
984.67	2650.62
984.969	2647.46
985.267	2606.56
985.566	2660.11
985.864	2578.08
986.162	2605.2
986.461	2563.17
986.759	2567.69
987.057	2517.74
987.355	2526.11
987.653	2520.91
987.951	2527.24
988.249	2538.76
988.547	2468.25
988.844	2490.4
989.142	2438.88
989.44	2441.59
989.737	2402.49
990.035	2453.34
990.332	2447.69
990.63	2403.62
990.927	2427.8
991.224	2380.57
991.521	2369.73
991.819	2345.55
992.116	2349.16
992.413	2306.9
992.71	2341.03
993.006	2279.78
993.303	2290.41
993.6	2289.73
993.897	2300.35
994.193	2283.4
994.49	2260.58
994.787	2270.07
995.083	2234.14
995.379	2240.01
995.676	2194.14
995.972	2220.35
996.268	2203.4
996.565	2188.26
996.861	2207.02
997.157	2197.07
997.453	2158.66
997.749	2164.99
998.044	2148.04
998.34	2109.62
998.636	2120.24
998.932	2123.18
999.227	2085.21
999.523	2099.9
999.818	2041.6
1000.114	2057.87
1000.409	2061.49
1000.704	2057.42
1001	2014.93
1001.295	2012
1001.59	2015.61
1001.885	1995.05
1002.18	1995.72
1002.475	1981.04
1002.77	1966.35
1003.065	1955.95
1003.359	1943.52
1003.654	1942.39
1003.949	1910.08
1004.243	1929.29
1004.538	1886.12
1004.832	1875.28
1005.127	1842.06
1005.421	1845.22
1005.715	1845.22
1006.009	1846.58
1006.304	1834.6
1006.598	1812.9
1006.892	1784.2
1007.186	1795.96
1007.48	1838.44
1007.773	1756.41
1008.067	1821.49
1008.361	1747.6
1008.655	1740.36
1008.948	1753.7
1009.242	1745.11
1009.535	1733.13
1009.829	1719.12
1010.122	1707.37
1010.415	1691.33
1010.708	1666.92
1011.001	1672.79
1011.295	1663.98
1011.588	1639.58
1011.881	1600.48
1012.173	1647.48
1012.466	1616.98
1012.759	1602.29
1013.052	1644.77
1013.344	1588.5
1013.637	1596.41
1013.93	1571.1
1014.222	1600.03
1014.514	1569.29
1014.807	1554.61
1015.099	1550.76
1015.391	1546.47
1015.683	1526.36
1015.976	1529.3
1016.268	1508.73
1016.56	1527.71
1016.851	1489.75
1017.143	1478.9
1017.435	1480.26
1017.727	1441.39
1018.018	1452.24
1018.31	1417.21
1018.602	1417.89
1018.893	1391.45
1019.185	1411.78
1019.476	1412.69
1019.767	1396.87
1020.058	1366.14
1020.35	1376.98
1020.641	1374.05
1020.932	1355.29
1021.223	1339.24
1021.514	1347.61
1021.804	1345.57
1022.095	1342.86
1022.386	1318
1022.677	1300.38
1022.967	1312.35
1023.258	1286.82
1023.548	1292.92
1023.839	1275.74
1024.129	1286.59
1024.419	1273.03
1024.709	1268.29
1025	1260.83
1025.29	1242.98
1025.58	1212.47
1025.87	1219.02
1026.16	1222.86
1026.449	1199.81
1026.739	1188.51
1027.029	1164.33
1027.319	1179.93
1027.608	1177.89
1027.898	1153.94
1028.187	1144
1028.477	1161.4
1028.766	1161.17
1029.055	1125.69
1029.344	1125.92
1029.634	1134.28
1029.923	1102.41
1030.212	1125.24
1030.501	1106.93
1030.79	1095.86
1031.078	1096.54
1031.367	1066.03
1031.656	1059.48
1031.945	1083.88
1032.233	1053.15
1032.522	1064.45
1032.81	1056.99
1033.099	1054.51
1033.387	1012.47
1033.675	1024.9
1033.963	1031
1034.251	999.14
1034.54	1010.67
1034.828	1010.67
1035.116	986.49
1035.403	977.22
1035.691	979.48
1035.979	985.36
1036.267	993.04
1036.554	966.37
1036.842	983.55
1037.129	951.91
1037.417	951.46
1037.704	940.61
1037.992	924.79
1038.279	927.73
1038.566	951.46
1038.853	951.46
1039.14	951.46
