Data from hue_270_FLMS001491_00014.txt Node
Date: Tue Feb 07 15:56:50 GMT 2017
User: dcchb
Spectrometer: FLMS00149
Trigger mode: 0
Integration Time (sec): 2.000000E-2
Scans to average: 10
Electric dark correction enabled: true
Nonlinearity correction enabled: false
Boxcar width: 0
XAxis mode: Wavelengths
Number of Pixels in Spectrum: 2048
>>>>>Begin Spectral Data<<<<<
341.393	-14.89
341.776	-14.89
342.16	-14.89
342.543	-67.77
342.927	-54.66
343.31	-76.35
343.693	-74.55
344.077	-60.08
344.46	-65.05
344.843	-62.12
345.226	-48.33
345.61	-30.48
345.993	-12.4
346.376	-8.79
346.759	24.66
347.142	33.7
347.525	54.04
347.908	53.36
348.291	77.99
348.674	106.92
349.057	87.48
349.44	130.87
349.823	125.9
350.206	174.49
350.588	204.77
350.971	193.47
351.354	216.29
351.737	234.82
352.119	235.95
352.502	231.43
352.884	262.62
353.267	260.59
353.65	279.34
354.032	287.7
354.414	276.18
354.797	331.54
355.179	320.92
355.562	312.34
355.944	323.18
356.326	318.89
356.709	309.62
357.091	333.58
357.473	328.38
357.855	337.65
358.238	325.9
358.62	331.54
359.002	344.2
359.384	337.42
359.766	332.9
360.148	321.6
360.53	339
360.912	337.42
361.294	339.68
361.676	328.38
362.057	332.22
362.439	327.03
362.821	315.73
363.203	332
363.584	328.38
363.966	303.75
364.348	314.82
364.729	311.21
365.111	290.64
365.493	297.42
365.874	301.04
366.256	311.88
366.637	293.35
367.019	299.23
367.4	291.32
367.781	297.2
368.163	309.62
368.544	296.97
368.925	313.92
369.306	305.56
369.688	313.69
370.069	296.29
370.45	312.56
370.831	332.22
371.212	313.24
371.593	314.82
371.974	295.16
372.355	313.92
372.736	301.49
373.117	310.53
373.498	308.72
373.879	299.91
374.26	296.74
374.641	331.77
375.021	326.8
375.402	333.58
375.783	313.92
376.163	306.69
376.544	315.5
376.925	309.4
377.305	320.92
377.686	320.02
378.066	310.53
378.447	323.64
378.827	300.36
379.208	335.84
379.588	322.51
379.968	335.39
380.349	317.76
380.729	336.97
381.109	341.04
381.489	324.54
381.87	332.9
382.25	338.78
382.63	356.4
383.01	339
383.39	333.35
383.77	340.13
384.15	331.54
384.53	327.03
384.91	338.55
385.29	325.44
385.67	347.36
386.049	347.59
386.429	355.05
386.809	343.52
387.189	367.25
387.568	366.12
387.948	360.02
388.328	362.73
388.707	351.21
389.087	369.28
389.466	361.83
389.846	372.45
390.225	362.05
390.605	359.79
390.984	355.95
391.363	364.99
391.743	375.16
392.122	376.06
392.501	369.06
392.881	356.63
393.26	382.62
393.639	366.8
394.018	381.04
394.397	378.78
394.776	372.67
395.155	385.33
395.534	376.74
395.913	386.23
396.292	369.96
396.671	390.07
397.05	395.05
397.429	394.82
397.808	390.98
398.186	406.35
398.565	420.36
398.944	393.01
399.323	400.7
399.701	411.54
400.08	408.61
400.458	400.24
400.837	396.85
401.215	436.17
401.594	419.23
401.972	423.97
402.351	434.37
402.729	427.81
403.107	429.85
403.486	440.02
403.864	413.8
404.242	404.09
404.62	460.58
404.999	436.85
405.377	463.07
405.755	452.9
406.133	461.94
406.511	458.77
406.889	471.2
407.267	473.91
407.645	451.77
408.023	494.7
408.401	482.05
408.779	480.47
409.156	500.58
409.534	494.93
409.912	498.55
410.29	522.95
410.667	516.17
411.045	517.98
411.422	542.39
411.8	529.51
412.178	531.99
412.555	559.11
412.933	548.94
413.31	544.65
413.687	577.87
414.065	554.59
414.442	590.52
414.819	585.55
415.197	604.98
415.574	624.42
415.951	610.86
416.328	628.71
416.705	639.11
417.082	619
417.46	622.84
417.837	623.97
418.214	639.11
418.591	632.1
418.967	661.71
419.344	672.55
419.721	655.38
420.098	670.97
420.475	697.41
420.852	690.18
421.228	723.17
421.605	719.56
421.982	732.44
422.358	739.67
422.735	741.93
423.111	742.61
423.488	758.65
423.864	803.62
424.241	789.61
424.617	803.4
424.994	806.56
425.37	787.8
425.746	826.22
426.123	816.96
426.499	834.58
426.875	849.05
427.251	868.48
427.627	866.45
428.003	895.6
428.379	905.99
428.756	922.49
429.132	945.09
429.507	920.91
429.883	922.94
430.259	931.3
430.635	948.03
431.011	936.73
431.387	978.31
431.763	997.97
432.138	1009.49
432.514	1028.7
432.89	1032.77
433.265	1069.6
433.641	1086.55
434.016	1085.42
434.392	1127.23
434.767	1111.64
435.143	1104.41
435.518	1173.33
435.894	1176.72
436.269	1169.26
436.644	1193.22
437.02	1221.24
437.395	1216.49
437.77	1240.22
438.145	1261.46
438.52	1249.49
438.895	1275.93
439.271	1291.52
439.646	1305.3
440.021	1332.2
440.395	1354.12
440.77	1347.56
441.145	1363.61
441.52	1375.36
441.895	1412.42
442.27	1427.11
442.645	1426.21
443.019	1388.69
443.394	1453.55
443.769	1452.65
444.143	1457.17
444.518	1466.88
444.892	1470.27
445.267	1479.09
445.641	1468.24
446.016	1506.88
446.39	1534.9
446.764	1528.58
447.139	1559.76
447.513	1539.2
447.887	1578.52
448.262	1576.71
448.636	1540.55
449.01	1605.18
449.384	1578.07
449.758	1610.83
450.132	1648.57
450.506	1630.49
450.88	1644.96
451.254	1638.63
451.628	1647.22
452.002	1645.41
452.376	1686.99
452.75	1716.82
453.123	1716.14
453.497	1720.89
453.871	1723.37
454.244	1764.95
454.618	1785.52
454.992	1807.21
455.365	1812.41
455.739	1847.89
456.112	1824.84
456.486	1870.04
456.859	1877.49
457.232	1927.21
457.606	1883.37
457.979	1903.93
458.352	1937.6
458.725	1978.73
459.099	1972.18
459.472	2019.41
459.845	2022.12
460.218	2065.96
460.591	2094.89
460.964	2061.44
461.337	2117.71
461.71	2140.54
462.083	2166.07
462.456	2149.12
462.829	2183.47
463.201	2226.18
463.574	2226.41
463.947	2236.35
464.32	2288.33
464.692	2301.21
465.065	2306.18
465.438	2334.66
465.81	2348.67
466.183	2359.51
466.555	2409.46
466.928	2413.98
467.3	2405.84
467.672	2468.66
468.045	2500.75
468.417	2515.89
468.789	2542.79
469.161	2566.29
469.534	2559.73
469.906	2643.12
470.278	2666.85
470.65	2661.88
471.022	2701.43
471.394	2733.97
471.766	2785.49
472.138	2797.69
472.51	2814.64
472.882	2876.11
473.253	2898.71
473.625	2925.38
473.997	2964.47
474.369	2974.87
474.74	3000.85
475.112	3056.45
475.484	3147.74
475.855	3132.6
476.227	3194.97
476.598	3229.55
476.97	3265.93
477.341	3305.25
477.713	3332.82
478.084	3339.6
478.455	3438.36
478.827	3444.91
479.198	3556.54
479.569	3545.47
479.94	3617.79
480.311	3633.83
480.682	3686.94
481.053	3745.69
481.424	3818.46
481.795	3841.74
482.166	3854.62
482.537	3919.25
482.908	3992.24
483.279	3977.55
483.65	4058.45
484.021	4114.5
484.391	4136.64
484.762	4201.95
485.133	4206.02
485.503	4300.03
485.874	4310.2
486.244	4399.46
486.615	4455.28
486.985	4471.32
487.356	4516.52
487.726	4537.76
488.097	4669.06
488.467	4674.26
488.837	4701.37
489.207	4756.06
489.578	4813.24
489.948	4877.87
490.318	4901.59
490.688	4929.16
491.058	4969.84
491.428	5020.01
491.798	5057.07
492.168	5199.21
492.538	5162.38
492.908	5157.63
493.278	5238.99
493.648	5227.24
494.017	5270.62
494.387	5313.33
494.757	5368.7
495.126	5389.49
495.496	5400.56
495.866	5375.48
496.235	5512.88
496.605	5523.5
496.974	5530.28
497.344	5567.11
497.713	5617.28
498.082	5624.97
498.452	5714.23
498.821	5701.8
499.19	5705.41
499.559	5745.87
499.928	5754
500.298	5760.1
500.667	5787.9
501.036	5767.33
501.405	5884.62
501.774	5841.46
502.143	5837.61
502.512	5959.87
502.88	5930.27
503.249	5949.7
503.618	5974.56
503.987	6028.8
504.356	6014.79
504.724	6008.46
505.093	6071.51
505.462	6075.8
505.83	6099.08
506.199	6109.47
506.567	6222.01
506.936	6244.38
507.304	6218.17
507.672	6248.45
508.041	6208
508.409	6237.6
508.777	6308.11
509.145	6348.56
509.514	6321.9
509.882	6348.11
510.25	6317.83
510.618	6356.25
510.986	6351.27
511.354	6374.1
511.722	6457.49
512.09	6496.13
512.458	6436.92
512.826	6503.36
513.193	6446.19
513.561	6510.14
513.929	6520.31
514.297	6528.22
514.664	6569.57
515.032	6605.73
515.4	6589.46
515.767	6634.2
516.135	6659.51
516.502	6559.86
516.869	6649.8
517.237	6655.67
517.604	6608.44
517.972	6683.92
518.339	6724.37
518.706	6710.36
519.073	6667.88
519.44	6715.11
519.808	6745.61
520.175	6775.67
520.542	6806.63
520.909	6771.15
521.276	6803.24
521.643	6843.69
522.009	6828.55
522.376	6889.56
522.743	6900.86
523.11	6917.36
523.477	6966.85
523.843	6972.5
524.21	7023.57
524.577	7023.8
524.943	6990.8
525.31	7062.22
525.676	7090.69
526.043	7107.41
526.409	7113.97
526.776	7173.4
527.142	7183.79
527.508	7214.53
527.874	7245.49
528.241	7265.15
528.607	7244.81
528.973	7327.97
529.339	7301.08
529.705	7338.59
530.071	7382.88
530.437	7376.56
530.803	7414.75
531.169	7426.05
531.535	7408.2
531.901	7350.12
532.267	7457.91
532.632	7479.61
532.998	7453.62
533.364	7483
533.73	7522.09
534.095	7516.67
534.461	7528.19
534.826	7562.77
535.192	7543.33
535.557	7585.59
535.923	7579.26
536.288	7527.51
536.653	7571.81
537.019	7545.37
537.384	7614.97
537.749	7614.52
538.114	7646.61
538.479	7641.41
538.845	7623.1
539.21	7630.34
539.575	7608.87
539.94	7718.7
540.305	7677.34
540.67	7624.69
541.034	7667.62
541.399	7703.55
541.764	7628.75
542.129	7681.41
542.494	7683.44
542.858	7733.61
543.223	7633.73
543.587	7711.01
543.952	7706.27
544.316	7762.08
544.681	7732.93
545.045	7763.44
545.41	7779.48
545.774	7729.77
546.138	7751.69
546.503	7750.56
546.867	7752.14
547.231	7780.61
547.595	7829.43
547.959	7822.42
548.324	7788.75
548.688	7761.18
549.052	7795.53
549.416	7835.75
549.779	7842.99
550.143	7808.41
550.507	7840.5
550.871	7788.3
551.235	7817.9
551.599	7866.04
551.962	7944
552.326	7872.36
552.689	7977.45
553.053	7865.36
553.417	7871.23
553.78	7931.12
554.143	7952.36
554.507	7949.65
554.87	7965.69
555.234	7980.38
555.597	7956.66
555.96	7967.5
556.323	7948.29
556.686	8052.7
557.05	8037.11
557.413	8061.29
557.776	8052.7
558.139	8050.66
558.502	8092.7
558.865	8099.25
559.228	8109.19
559.59	8127.5
559.953	8140.15
560.316	8234.61
560.679	8213.82
561.041	8262.41
561.404	8284.33
561.767	8335.4
562.129	8292.47
562.492	8370.66
562.854	8311
563.217	8361.39
563.579	8353.48
563.941	8443.2
564.304	8463.99
564.666	8491.78
565.028	8502.4
565.39	8505.12
565.753	8506.92
566.115	8565.23
566.477	8554.15
566.839	8568.39
567.201	8679.8
567.563	8660.14
567.925	8685.22
568.287	8742.62
568.648	8734.71
569.01	8801.38
569.372	8827.37
569.734	8795.28
570.095	8882.28
570.457	8935.84
570.819	8886.12
571.18	8939.23
571.542	8946.23
571.903	8993.01
572.265	8980.58
572.626	9000.47
572.987	9041.6
573.349	9071.43
573.71	9105.55
574.071	9182.61
574.432	9197.75
574.794	9188.04
575.155	9262.84
575.516	9156.17
575.877	9239.33
576.238	9297.86
576.599	9400.91
576.96	9382.38
577.32	9438.2
577.681	9395.04
578.042	9497.63
578.403	9452.89
578.763	9414.02
579.124	9526.56
579.485	9571.75
579.845	9545.77
580.206	9604.52
580.566	9615.59
580.927	9655.59
581.287	9684.29
581.648	9652.88
582.008	9726.33
582.368	9750.96
582.728	9758.19
583.089	9797.06
583.449	9883.16
583.809	9881.12
584.169	9889.26
584.529	9907.79
584.889	10007.67
585.249	9879.77
585.609	9907.56
585.969	9953.66
586.329	10006.32
586.688	10089.25
587.048	10101.46
587.408	10109.14
587.768	10077.28
588.127	10082.25
588.487	10093.77
588.846	10148.91
589.206	10151.4
589.565	10215.58
589.925	10266.65
590.284	10256.71
590.643	10347.33
591.003	10308.68
591.362	10372.86
591.721	10386.65
592.08	10369.02
592.44	10411.28
592.799	10395.69
593.158	10453.54
593.517	10436.59
593.876	10399.08
594.235	10486.98
594.593	10479.3
594.952	10496.93
595.311	10549.13
595.67	10493.09
596.029	10545.97
596.387	10628
596.746	10612.4
597.104	10574.67
597.463	10655.34
597.822	10683.82
598.18	10646.53
598.538	10705.51
598.897	10773.53
599.255	10664.61
599.613	10799.29
599.972	10813.98
600.33	10804.26
600.688	10739.63
601.046	10783.93
601.404	10903.24
601.762	10862.34
602.12	10929.91
602.478	10893.98
602.836	10945.05
603.194	10795.9
603.552	10842
603.91	10858.27
604.268	10934.66
604.625	10801.55
604.983	10885.84
605.341	10901.21
605.698	11066.86
606.056	10884.71
606.413	10947.54
606.771	10952.28
607.128	10976.91
607.485	10935.11
607.843	11034.54
608.2	11061.43
608.557	11064.14
608.914	10992.51
609.272	10981.89
609.629	11060.75
609.986	11161.32
610.343	11080.19
610.7	11164.03
611.057	11141.66
611.414	11205.16
611.771	11174.42
612.127	11169.9
612.484	11223.91
612.841	11274.76
613.198	11161.77
613.554	11147.31
613.911	11265.04
614.267	11204.93
614.624	11243.35
614.98	11300.52
615.337	11353.63
615.693	11338.04
616.05	11305.04
616.406	11367.19
616.762	11230.02
617.118	11364.25
617.475	11279.96
617.831	11363.12
618.187	11409.67
618.543	11354.08
618.899	11417.36
619.255	11350.46
619.611	11392.27
619.967	11452.61
620.323	11429.11
620.678	11473.62
621.034	11352.05
621.39	11359.5
621.746	11308.43
622.101	11565.6
622.457	11348.2
622.812	11445.38
623.168	11418.94
623.523	11456.68
623.879	11470.46
624.234	11404.02
624.589	11422.55
624.945	11467.3
625.3	11501.65
625.655	11515.88
626.01	11471.59
626.365	11406.28
626.72	11448.31
627.075	11430.69
627.43	11438.6
627.785	11451.48
628.14	11451.48
628.495	11500.29
628.85	11429.11
629.205	11436.11
629.559	11442.21
629.914	11382.55
630.269	11333.52
630.623	11394.53
630.978	11291.71
631.332	11366.96
631.687	11437.69
632.041	11367.86
632.396	11332.84
632.75	11290.58
633.104	11244.03
633.459	11259.17
633.813	11254.2
634.167	11242.67
634.521	11252.39
634.875	11224.82
635.229	11195.89
635.583	11154.99
635.937	11184.82
636.291	11142.56
636.645	11218.94
636.999	11177.59
637.352	11146.63
637.706	11142.79
638.06	11174.88
638.413	11118.61
638.767	11121.09
639.121	11127.42
639.474	11055.78
639.828	11034.99
640.181	11039.96
640.534	11042.22
640.888	10978.27
641.241	10952.51
641.594	11014.2
641.947	11065.5
642.301	10997.71
642.654	11011.72
643.007	10916.58
643.36	10979.4
643.713	10940.08
644.066	10993.64
644.419	10827.99
644.771	10920.87
645.124	10745.51
645.477	10761.55
645.83	10680.43
646.182	10604.95
646.535	10597.72
646.888	10613.99
647.24	10573.31
647.593	10540.99
647.945	10589.81
648.298	10586.87
648.65	10549.13
649.002	10500.32
649.355	10618.96
649.707	10512.75
650.059	10645.17
650.411	10691.05
650.763	10773.3
651.115	10827.54
651.467	10771.95
651.819	10792.29
652.171	10841.78
652.523	10721.78
652.875	10785.73
653.227	10756.81
653.578	10839.52
653.93	10769.46
654.282	10646.3
654.633	10708
654.985	10780.31
655.337	10768.78
655.688	10731.27
656.039	10764.04
656.391	10699.41
656.742	10764.94
657.094	10690.37
657.445	10822.57
657.796	10816.69
658.147	10724.94
658.498	10751.61
658.849	10801.33
659.2	10792.51
659.551	10752.29
659.902	10844.26
660.253	10780.76
660.604	10764.72
660.955	10688.11
661.306	10753.42
661.656	10781.21
662.007	10774.66
662.358	10799.29
662.708	10778.5
663.059	10808.33
663.409	10741.67
663.76	10805.62
664.11	10766.52
664.461	10784.6
664.811	10724.27
665.161	10856.01
665.511	10697.37
665.862	10779.18
666.212	10863.02
666.562	10744.6
666.912	10781.89
667.262	10783.25
667.612	10758.16
667.962	10779.86
668.312	10766.52
668.662	10881.78
669.011	10789.12
669.361	10744.83
669.711	10774.66
670.06	10719.07
670.41	10765.39
670.76	10721.78
671.109	10798.16
671.459	10734.21
671.808	10656.7
672.157	10796.58
672.507	10610.37
672.856	10653.31
673.205	10686.3
673.554	10745.73
673.904	10654.89
674.253	10729.46
674.602	10691.72
674.951	10493.09
675.3	10474.33
675.649	10587.09
675.998	10632.97
676.346	10611.5
676.695	10673.87
677.044	10570.15
677.393	10568.79
677.741	10548.45
678.09	10557.26
678.438	10540.32
678.787	10614.89
679.135	10567.43
679.484	10503.25
679.832	10559.52
680.181	10452.63
680.529	10472.3
680.877	10413.31
681.225	10515.23
681.573	10460.09
681.922	10368.8
682.27	10327.67
682.618	10378.06
682.966	10335.8
683.314	10375.57
683.661	10301
684.009	10242.7
684.357	10232.98
684.705	10200.44
685.053	10243.15
685.4	10158.18
685.748	10168.57
686.095	10189.59
686.443	10102.81
686.79	10125.19
687.138	10083.38
687.485	10140.55
687.832	10065.3
688.18	10021.69
688.527	9994.12
688.874	10021.23
689.221	10002.03
689.568	9964.74
689.915	9902.14
690.262	9884.74
690.609	9896.27
690.956	9809.04
691.303	9841.8
691.65	9704.63
691.997	9795.25
692.344	9674.58
692.69	9687.46
693.037	9663.28
693.383	9643.39
693.73	9589.15
694.077	9553
694.423	9478.2
694.769	9559.55
695.116	9434.13
695.462	9483.85
695.808	9396.17
696.155	9372.44
696.501	9355.49
696.847	9289.5
697.193	9280.24
697.539	9298.09
697.885	9156.62
698.231	9165.66
698.577	9154.59
698.923	9220.12
699.269	9094.48
699.614	9039.56
699.96	8976.97
700.306	8993.69
700.651	8976.52
700.997	8903.75
701.342	8899.91
701.688	8927.7
702.033	8837.99
702.379	8845.22
702.724	8852.22
703.069	8809.06
703.415	8735.84
703.76	8733.13
704.105	8657.43
704.45	8654.72
704.795	8624.43
705.14	8515.96
705.485	8563.42
705.83	8584.44
706.175	8606.58
706.52	8548.28
706.865	8418.56
707.209	8425.34
707.554	8459.01
707.899	8484.32
708.243	8366.59
708.588	8468.05
708.932	8265.8
709.277	8299.47
709.621	8329.98
709.966	8197.78
710.31	8316.65
710.654	8241.17
710.998	8225.35
711.342	8175.86
711.687	8131.11
712.031	8189.42
712.375	8164.56
712.719	8162.98
713.063	8139.02
713.407	8069.65
713.75	8090.89
714.094	8054.73
714.438	8034.17
714.782	8036.88
715.125	8066.03
715.469	8008.63
715.812	7993.94
716.156	7951.91
716.499	7990.55
716.843	7910.1
717.186	7932.7
717.53	7998.24
717.873	7952.81
718.216	7939.03
718.559	7886.83
718.902	7868.97
719.246	7818.35
719.589	7801.18
719.932	7770.22
720.275	7763.67
720.617	7760.5
720.96	7753.04
721.303	7774.97
721.646	7777.22
721.989	7729.77
722.331	7718.47
722.674	7727.73
723.016	7771.35
723.359	7682.99
723.701	7724.34
724.044	7687.96
724.386	7676.44
724.729	7685.93
725.071	7696.55
725.413	7662.43
725.755	7680.28
726.097	7651.58
726.439	7603.22
726.782	7631.92
727.124	7623.56
727.465	7583.78
727.807	7564.58
728.149	7628.3
728.491	7603.9
728.833	7586.72
729.175	7574.97
729.516	7567.51
729.858	7573.16
730.199	7580.62
730.541	7502.66
730.882	7501.98
731.224	7616.78
731.565	7511.47
731.906	7580.62
732.248	7607.06
732.589	7560.96
732.93	7511.7
733.271	7571.58
733.612	7622.65
733.953	7584.91
734.294	7561.41
734.635	7449.78
734.976	7562.32
735.317	7565.48
735.658	7551.69
735.999	7492.03
736.339	7521.19
736.68	7618.81
737.021	7580.62
737.361	7554.63
737.702	7545.37
738.042	7556.21
738.383	7585.14
738.723	7543.33
739.063	7510.57
739.404	7566.83
739.744	7549.89
740.084	7543.56
740.424	7624.01
740.764	7579.72
741.104	7649.77
741.444	7606.61
741.784	7624.01
742.124	7646.15
742.464	7693.84
742.804	7667.17
743.143	7753.72
743.483	7694.06
743.823	7628.75
744.162	7709.88
744.502	7737.23
744.841	7738.13
745.181	7830.1
745.52	7800.5
745.86	7881.63
746.199	7938.58
746.538	7910.33
746.877	7934.96
747.216	7978.35
747.556	8008.86
747.895	8048.4
748.234	8111
748.573	8085.24
748.911	8139.7
749.25	8212.24
749.589	8265.57
749.928	8326.59
750.267	8397.77
750.605	8451.78
750.944	8532.01
751.283	8551.67
751.621	8604.1
751.96	8663.53
752.298	8790.31
752.636	8836.86
752.975	8869.85
753.313	8923.86
753.651	9166.34
753.989	9200.69
754.327	9269.84
754.666	9343.51
755.004	9529.72
755.342	9611.07
755.679	9744.18
756.017	9813.56
756.355	9922.93
756.693	10033.66
757.031	10216.71
757.368	10252.19
757.706	10404.95
758.044	10580.09
758.381	10729.01
758.719	10862.34
759.056	10965.62
759.394	11127.42
759.731	11193.41
760.068	11458.26
760.405	11537.58
760.743	11599.95
761.08	11882.65
761.417	11966.72
761.754	12130.1
762.091	12307.5
762.428	12347.73
762.765	12484.67
763.102	12731.67
763.438	12790.65
763.775	12970.99
764.112	13232.9
764.449	13333.46
764.785	13449.39
765.122	13572.33
765.458	13622.72
765.795	13881.7
766.131	13999.66
766.467	14172.76
766.804	14295.02
767.14	14388.58
767.476	14626.54
767.812	14654.33
768.148	14768.68
768.485	14838.51
768.821	14915.12
769.157	15081.21
769.492	15314.43
769.828	15443.69
770.164	15414.09
770.5	15516.23
770.836	15658.83
771.171	15724.81
771.507	15868.54
771.842	15913.73
772.178	16059.94
772.513	16131.58
772.849	16231.47
773.184	16175.2
773.519	16358.69
773.855	16434.85
774.19	16486.6
774.525	16553.94
774.86	16645.92
775.195	16703.32
775.53	16710.1
775.865	16795.52
776.2	16796.87
776.535	16752.81
776.87	16899.92
777.205	16878
777.539	16929.98
777.874	16983.76
778.209	16885.46
778.543	17031.22
778.878	17018.56
779.212	17100.14
779.547	16998.68
779.881	17165.23
780.215	17177.88
780.55	17266.92
780.884	17187.15
781.218	17252.91
781.552	17258.33
781.886	17240.7
782.22	17179.69
782.554	17227.82
782.888	17112.12
783.222	17156.64
783.556	17058.11
783.889	17174.49
784.223	17105.57
784.557	17080.03
784.89	17125.91
785.224	17041.16
785.557	17094.95
785.891	17131.33
786.224	17058.11
786.558	17029.64
786.891	17003.42
787.224	17032.12
787.557	16900.37
787.891	17031.67
788.224	17007.26
788.557	17060.37
788.89	17001.62
789.223	17000.94
789.556	16913.93
789.888	16931.79
790.221	16854.5
790.554	16727.72
790.887	16812.02
791.219	16767.5
791.552	16785.58
791.884	16799.81
792.217	16716.2
792.549	16675.52
792.882	16698.35
793.214	16466.94
793.546	16677.33
793.879	16397.11
794.211	16462.87
794.543	16590.1
794.875	16467.39
795.207	16468.97
795.539	16368.86
795.871	16347.62
796.203	16263.78
796.535	16254.06
796.867	16236.89
797.198	16195.08
797.53	16186.27
797.862	16071.92
798.193	16100.4
798.525	16079.38
798.856	16066.95
799.188	15971.13
799.519	15943.34
799.85	15911.25
800.182	15909.89
800.513	15873.28
800.844	15830.57
801.175	15835.77
801.506	15829.22
801.837	15714.87
802.168	15691.59
802.499	15746.28
802.83	15636
803.161	15604.14
803.491	15575.66
803.822	15611.37
804.153	15490.69
804.483	15479.85
804.814	15365.05
805.145	15478.94
805.475	15384.71
805.805	15336.8
806.136	15374.54
806.466	15364.14
806.796	15259.29
807.126	15201.21
807.457	15104.49
807.787	15191.04
808.117	15185.84
808.447	15005.28
808.777	15038.95
809.107	14963.7
809.436	14993.53
809.766	14954.89
810.096	14869.02
810.426	14882.57
810.755	14831.95
811.085	14844.16
811.414	14817.72
811.744	14725.06
812.073	14688.46
812.403	14646.42
812.732	14634.9
813.061	14643.49
813.39	14530.27
813.719	14590.61
814.049	14602.81
814.378	14566.65
814.707	14529.59
815.036	14450.27
815.365	14434
815.693	14313.55
816.022	14366.88
816.351	14316.71
816.68	14211.18
817.008	14269.48
817.337	14149.49
817.665	14097.51
817.994	14176.83
818.322	14228.81
818.651	14095.7
818.979	14068.58
819.307	14158.53
819.636	14127.57
819.964	13970.06
820.292	14054.12
820.62	13970.73
820.948	13994.69
821.276	14041.69
821.604	13974.12
821.932	13981.58
822.259	14005.31
822.587	13937.06
822.915	13934.58
823.243	14003.5
823.57	13924.41
823.898	13950.62
824.225	13948.81
824.553	13950.85
824.88	13940.23
825.207	14008.25
825.535	13956.5
825.862	14022.71
826.189	13914.01
826.516	14062.71
826.843	14061.81
827.17	14011.86
827.497	14056.61
827.824	14005.54
828.151	13985.88
828.478	14101.58
828.805	14150.39
829.131	14032.2
829.458	13952.43
829.785	13968.47
830.111	13973.45
830.438	13996.95
830.764	14101.35
831.09	14083.95
831.417	13939.55
831.743	13979.1
832.069	14001.47
832.395	14010.28
832.722	13993.56
833.048	13894.58
833.374	13994.01
833.7	13904.75
834.026	13906.78
834.351	14070.39
834.677	13894.13
835.003	13884.18
835.329	13905.88
835.654	13874.24
835.98	13800.57
836.306	13834.92
836.631	13733.45
836.956	13782.49
837.282	13860.91
837.607	13755.37
837.932	13683.74
838.258	13834.92
838.583	13704.98
838.908	13641.03
839.233	13641.93
839.558	13580.46
839.883	13585.66
840.208	13546.11
840.533	13648.03
840.858	13480.13
841.182	13509.73
841.507	13563.06
841.832	13463.4
842.156	13514.25
842.481	13443.29
842.805	13405.33
843.13	13379.56
843.454	13304.09
843.778	13301.15
844.103	13250.3
844.427	13171.89
844.751	13215.27
845.075	13190.87
845.399	13122.17
845.723	13050.31
846.047	13082.4
846.371	13043.3
846.695	12940.03
847.019	12885.79
847.343	12862.51
847.666	12740.71
847.99	12735.74
848.313	12688.73
848.637	12615.74
848.96	12617.1
849.284	12486.48
849.607	12375.3
849.931	12520.6
850.254	12329.2
850.577	12344.56
850.9	12248.52
851.223	12203.1
851.546	12181.18
851.869	12082.42
852.192	12149.99
852.515	12077
852.838	12033.16
853.161	11954.06
853.483	11871.13
853.806	11837.01
854.129	11900.28
854.451	11863.67
854.774	11825.25
855.096	11695.54
855.419	11649.21
855.741	11645.15
856.063	11614.86
856.385	11573.28
856.708	11515.21
857.03	11411.03
857.352	11454.64
857.674	11413.97
857.996	11465.49
858.318	11302.33
858.64	11346.4
858.961	11325.15
859.283	11262.33
859.605	11252.39
859.926	11216
860.248	11205.38
860.57	11200.41
860.891	11149.57
861.212	11118.83
861.534	11070.25
861.855	11007.65
862.176	11117.48
862.498	11059.4
862.819	10983.92
863.14	11044.94
863.461	11019.85
863.782	11002.9
864.103	10926.29
864.424	10922.9
864.745	10906.41
865.065	10898.05
865.386	10824.6
865.707	10801.78
866.027	10913.41
866.348	10830.7
866.668	10758.62
866.989	10714.1
867.309	10745.51
867.63	10747.32
867.95	10691.72
868.27	10642.23
868.59	10642.46
868.91	10695.79
869.23	10665.96
869.55	10591.84
869.87	10637.26
870.19	10646.75
870.51	10607.88
870.83	10618.96
871.15	10545.06
871.469	10503.03
871.789	10534.67
872.109	10517.04
872.428	10401.79
872.748	10436.14
873.067	10420.55
873.386	10458.74
873.706	10462.35
874.025	10400.66
874.344	10325.86
874.663	10335.58
874.982	10299.64
875.301	10362.92
875.62	10267.78
875.939	10256.48
876.258	10282.02
876.577	10192.3
876.896	10202.02
877.214	10166.77
877.533	10170.83
877.852	10138.29
878.17	10154.79
878.489	10130.84
878.807	10141
879.125	10063.94
879.444	10012.87
879.762	10144.39
880.08	10069.14
880.398	9985.3
880.716	10065.75
881.034	9985.3
881.352	9996.15
881.67	9948.02
881.988	9977.39
882.306	9942.37
882.624	9864.18
882.941	9840
883.259	9778.3
883.577	9785.99
883.894	9746.89
884.212	9728.13
884.529	9775.82
884.846	9701.92
885.164	9689.94
885.481	9660.11
885.798	9752.54
886.115	9553.68
886.432	9627.8
886.75	9591.41
887.067	9567.46
887.383	9548.25
887.7	9549.16
888.017	9516.39
888.334	9493.11
888.651	9453.56
888.967	9502.83
889.284	9447.01
889.6	9364.53
889.917	9316.39
890.233	9342.16
890.55	9315.94
890.866	9324.98
891.182	9251.76
891.498	9226.68
891.815	9147.13
892.131	9094.25
892.447	9185.78
892.763	9050.19
893.079	9068.94
893.395	8983.97
893.71	9039.56
894.026	8997.53
894.342	8993.69
894.657	8894.94
894.973	8929.96
895.289	8885.67
895.604	8930.19
895.92	8789.85
896.235	8705.34
896.55	8754.6
896.865	8742.17
897.181	8736.07
897.496	8666.24
897.811	8643.87
898.126	8675.51
898.441	8602.97
898.756	8514.83
899.071	8531.56
899.386	8526.13
899.7	8478.68
900.015	8456.3
900.33	8365.68
900.644	8345.8
900.959	8343.76
901.273	8357.1
901.588	8274.16
901.902	8236.42
902.216	8147.16
902.531	8267.38
902.845	8128.63
903.159	8110.55
903.473	8115.75
903.787	8028.07
904.101	8011.12
904.415	7980.16
904.729	8028.07
905.042	7947.84
905.356	7896.32
905.67	7874.4
905.984	7854.51
906.297	7793.27
906.611	7753.95
906.924	7760.95
907.237	7777
907.551	7723.67
907.864	7679.37
908.177	7638.7
908.491	7599.6
908.804	7624.91
909.117	7529.55
909.43	7517.57
909.743	7445.03
910.056	7400.06
910.368	7401.64
910.681	7383.56
910.994	7321.42
911.307	7358.48
911.619	7259.95
911.932	7232.38
912.244	7227.18
912.557	7238.26
912.869	7220.4
913.181	7147.41
913.494	7040.07
913.806	7034.87
914.118	7086.85
914.43	7019.5
914.742	6989.45
915.054	6933.63
915.366	6926.17
915.678	6951.03
915.99	6880.07
916.302	6814.99
916.613	6781.77
916.925	6810.92
917.236	6806.85
917.548	6779.51
917.859	6732.05
918.171	6673.53
918.482	6666.29
918.794	6631.27
919.105	6617.48
919.416	6511.95
919.727	6583.13
920.038	6543.81
920.349	6474.21
920.66	6473.76
920.971	6468.56
921.282	6397.37
921.593	6402.35
921.903	6336.13
922.214	6349.92
922.525	6337.04
922.835	6288
923.146	6239.86
923.456	6254.1
923.767	6227.21
924.077	6223.14
924.387	6181.11
924.697	6107.66
925.008	6126.87
925.318	6047.1
925.628	6122.35
925.938	6018.4
926.248	6029.02
926.558	5998.29
926.867	5995.8
927.177	5941.34
927.487	5916.71
927.796	5874
928.106	5865.64
928.416	5835.81
928.725	5881.46
929.034	5739.54
929.344	5800.33
929.653	5779.99
929.962	5725.75
930.271	5693.66
930.581	5680.1
930.89	5626.1
931.199	5620.45
931.508	5577.96
931.817	5579.09
932.125	5564.4
932.434	5530.05
932.743	5505.42
933.051	5483.27
933.36	5476.27
933.669	5441.69
933.977	5421.81
934.286	5448.7
934.594	5450.96
934.902	5356.5
935.21	5282.6
935.519	5348.81
935.827	5278.53
936.135	5289.15
936.443	5192.89
936.751	5217.74
937.059	5172.32
937.367	5223.39
937.674	5154.92
937.982	5137.52
938.29	5135.71
938.597	5148.82
938.905	5038.54
939.213	5086
939.52	5017.75
939.827	5032.89
940.135	5001.03
940.442	4984.76
940.749	4961.25
941.056	4982.5
941.363	4873.35
941.67	4897.75
941.977	4862.05
942.284	4804.87
942.591	4778.89
942.898	4821.37
943.205	4811.2
943.511	4754.03
943.818	4788.83
944.125	4727.81
944.431	4680.13
944.738	4677.87
945.044	4662.5
945.35	4658.66
945.657	4646.23
945.963	4614.14
946.269	4577.99
946.575	4577.76
946.881	4543.19
947.187	4498.44
947.493	4529.4
947.799	4502.51
948.105	4435.39
948.41	4442.62
948.716	4418.67
949.022	4433.58
949.327	4404.88
949.633	4352
949.938	4336.64
950.244	4334.83
950.549	4300.48
950.854	4278.11
951.16	4287.15
951.465	4291.21
951.77	4268.16
952.075	4189.52
952.38	4156.76
952.685	4182.52
952.99	4171.44
953.294	4134.83
953.599	4128.73
953.904	4074.05
954.209	4088.51
954.513	4080.82
954.818	4065.68
955.122	4044.22
955.426	4015.52
955.731	4002.18
956.035	4020.94
956.339	3988.4
956.643	3980.26
956.948	3943.43
957.252	3907.72
957.556	3910.66
957.86	3931.9
958.163	3883.99
958.467	3900.94
958.771	3861.17
959.075	3834.73
959.378	3825.69
959.682	3812.81
959.985	3838.8
960.289	3779.82
960.592	3739.36
960.896	3689.2
961.199	3705.24
961.502	3683.32
961.805	3712.92
962.108	3646.71
962.411	3632.7
962.714	3640.38
963.017	3598.58
963.32	3600.61
963.623	3625.47
963.926	3562.65
964.228	3529.88
964.531	3565.81
964.833	3513.38
965.136	3457.79
965.438	3461.86
965.741	3463.89
966.043	3495.76
966.345	3467.51
966.648	3466.6
966.95	3426.15
967.252	3398.58
967.554	3377.57
967.856	3356.78
968.158	3352.26
968.46	3346.61
968.761	3300.96
969.063	3328.3
969.365	3315.87
969.666	3279.72
969.968	3249.66
970.269	3244.24
970.571	3251.24
970.872	3217.8
971.174	3234.75
971.475	3192.71
971.776	3198.36
972.077	3199.49
972.378	3193.39
972.679	3190
972.98	3128.76
973.281	3131.25
973.582	3072.49
973.883	3093.51
974.183	3126.73
974.484	3067.74
974.785	3052.83
975.085	3047.86
975.386	3009.44
975.686	2973.51
975.986	2951.36
976.287	3030.46
976.587	2948.65
976.887	2966.5
977.187	2958.59
977.487	2962.89
977.787	2920.18
978.087	2916.79
978.387	2878.6
978.687	2884.02
978.987	2868.43
979.286	2841.31
979.586	2847.19
979.885	2820.97
980.185	2814.87
980.484	2808.99
980.784	2809.45
981.083	2789.79
981.382	2787.75
981.682	2731.48
981.981	2783.68
982.28	2712.5
982.579	2713.4
982.878	2706.17
983.177	2708.66
983.475	2697.58
983.774	2655.78
984.073	2688.55
984.372	2673.63
984.67	2637.47
984.969	2630.24
985.267	2597.47
985.566	2556.8
985.864	2610.36
986.162	2590.02
986.461	2568.1
986.759	2547.98
987.057	2537.14
987.355	2523.58
987.653	2521.77
987.951	2519.74
988.249	2480.64
988.547	2474.31
988.844	2504.6
989.142	2456.46
989.44	2433.64
989.737	2418.72
990.035	2400.42
990.332	2425.5
990.63	2394.77
990.927	2381.89
991.224	2418.27
991.521	2391.38
991.819	2386.63
992.116	2374.88
992.413	2333.07
992.71	2326.97
993.006	2315.45
993.303	2278.84
993.6	2324.49
993.897	2311.15
994.193	2280.19
994.49	2258.73
994.787	2273.87
995.083	2197.94
995.379	2234.77
995.676	2198.16
995.972	2218.73
996.268	2196.13
996.565	2166.3
996.861	2195.22
997.157	2166.3
997.453	2159.97
997.749	2177.15
998.044	2157.03
998.34	2142.57
998.636	2112.52
998.932	2099.41
999.227	2093.08
999.523	2088.33
999.818	2065.51
1000.114	2063.48
1000.409	2035
1000.704	2050.14
1001	2017.83
1001.295	2012.86
1001.59	2009.01
1001.885	2015.79
1002.18	1936.93
1002.475	1948.45
1002.77	1937.38
1003.065	1939.64
1003.359	1942.12
1003.654	1915.91
1003.949	1882.01
1004.243	1916.81
1004.538	1874.1
1004.832	1874.1
1005.127	1883.37
1005.421	1862.8
1005.715	1863.71
1006.009	1840.21
1006.304	1820.09
1006.598	1822.58
1006.892	1813.31
1007.186	1821.45
1007.48	1782.58
1007.773	1771.28
1008.067	1754.56
1008.361	1743.49
1008.655	1745.07
1008.948	1741.9
1009.242	1730.38
1009.535	1718.85
1009.829	1731.96
1010.122	1682.47
1010.415	1719.08
1010.708	1690.38
1011.001	1683.83
1011.295	1680.66
1011.588	1666.43
1011.881	1638.86
1012.173	1614.45
1012.466	1618.74
1012.759	1628.69
1013.052	1611.74
1013.344	1567.22
1013.637	1594.11
1013.93	1608.8
1014.222	1540.78
1014.514	1558.86
1014.807	1543.26
1015.099	1542.59
1015.391	1550.72
1015.683	1516.37
1015.976	1528.58
1016.268	1515.92
1016.56	1507.79
1016.851	1513.43
1017.143	1522.7
1017.435	1483.38
1017.727	1439.54
1018.018	1431.4
1018.31	1479.54
1018.602	1423.04
1018.893	1432.98
1019.185	1434.34
1019.476	1399.31
1019.767	1444.51
1020.058	1384.17
1020.35	1368.81
1020.641	1351.18
1020.932	1345.53
1021.223	1324.74
1021.514	1344.17
1021.804	1342.82
1022.095	1301.91
1022.386	1278.19
1022.677	1309.37
1022.967	1285.87
1023.258	1288.36
1023.548	1286.77
1023.839	1311.63
1024.129	1284.74
1024.419	1278.64
1024.709	1273.89
1025	1242.26
1025.29	1249.94
1025.58	1225.31
1025.87	1197.96
1026.16	1192.99
1026.449	1185.99
1026.739	1195.25
1027.029	1209.71
1027.319	1164.52
1027.608	1183.5
1027.898	1171.75
1028.187	1149.83
1028.477	1159.09
1028.766	1144.4
1029.055	1131.3
1029.344	1136.5
1029.634	1109.83
1029.923	1120.45
1030.212	1104.18
1030.501	1081.58
1030.79	1069.38
1031.078	1095.82
1031.367	1073.9
1031.656	1103.95
1031.945	1066.44
1032.233	1065.76
1032.522	1030.51
1032.81	1036.39
1033.099	1038.19
1033.387	1050.4
1033.675	1019.89
1033.963	995.26
1034.251	1013.79
1034.54	1014.92
1034.828	973.11
1035.116	964.75
1035.403	993
1035.691	990.28
1035.979	967.46
1036.267	960.91
1036.554	951.19
1036.842	955.71
1037.129	972.21
1037.417	962.49
1037.704	941.92
1037.992	909.61
1038.279	911.64
1038.566	922.49
1038.853	922.49
1039.14	922.49
