Data from hue_100_FLMS001491_00079.txt Node
Date: Tue Feb 07 17:03:39 GMT 2017
User: dcchb
Spectrometer: FLMS00149
Trigger mode: 0
Integration Time (sec): 2.000000E-2
Scans to average: 10
Electric dark correction enabled: true
Nonlinearity correction enabled: false
Boxcar width: 0
XAxis mode: Wavelengths
Number of Pixels in Spectrum: 2048
>>>>>Begin Spectral Data<<<<<
341.393	-4.39
341.776	-4.39
342.16	-4.39
342.543	-63.6
342.927	-71.06
343.31	-57.5
343.693	-82.58
344.077	-84.84
344.46	-51.85
344.843	-60.44
345.226	-35.35
345.61	-33.32
345.993	-11.17
346.376	-7.1
346.759	11.2
347.142	42.16
347.525	53.69
347.908	54.36
348.291	54.81
348.674	94.14
349.057	113.8
349.44	128.94
349.823	131.65
350.206	150.18
350.588	195.15
350.971	219.33
351.354	250.97
351.737	231.08
352.119	263.17
352.502	239.89
352.884	259.33
353.267	295.71
353.65	291.42
354.032	297.07
354.414	319.21
354.797	330.29
355.179	304.98
355.562	323.28
355.944	337.97
356.326	332.55
356.709	314.24
357.091	324.41
357.473	337.52
357.855	327.35
358.238	342.72
358.62	345.65
359.002	337.97
359.384	343.17
359.766	328.25
360.148	346.56
360.53	330.97
360.912	344.3
361.294	322.15
361.676	359.89
362.057	316.5
362.439	323.06
362.821	327.35
363.203	307.92
363.584	305.88
363.966	316.05
364.348	333.68
364.729	327.35
365.111	318.31
365.493	329.61
365.874	313.79
366.256	313.34
366.637	328.48
367.019	318.31
367.4	328.48
367.781	330.51
368.163	295.49
368.544	318.31
368.925	304.75
369.306	334.36
369.688	306.11
370.069	330.06
370.45	308.14
370.831	316.5
371.212	313.79
371.593	338.2
371.974	312.89
372.355	319.67
372.736	334.58
373.117	336.16
373.498	308.37
373.879	322.38
374.26	314.24
374.641	324.64
375.021	326.67
375.402	332.32
375.783	314.47
376.163	324.86
376.544	337.97
376.925	343.85
377.305	327.35
377.686	336.39
378.066	349.95
378.447	321.47
378.827	346.33
379.208	332.77
379.588	346.78
379.968	333
380.349	346.78
380.729	337.29
381.109	344.52
381.489	333.45
381.87	336.84
382.25	332.32
382.63	336.16
383.01	352.66
383.39	331.64
383.77	339.1
384.15	348.37
384.53	330.06
384.91	358.76
385.29	362.6
385.67	375.94
386.049	350.17
386.429	371.87
386.809	336.39
387.189	371.64
387.568	340.91
387.948	367.12
388.328	380
388.707	383.39
389.087	371.64
389.466	392.66
389.846	372.32
390.225	386.11
390.605	379.33
390.984	379.78
391.363	371.19
391.743	396.73
392.122	375.94
392.501	393.11
392.881	388.59
393.26	407.12
393.639	388.59
394.018	408.48
394.397	384.75
394.776	401.25
395.155	408.03
395.534	402.15
395.913	407.57
396.292	424.97
396.671	408.03
397.05	414.58
397.429	412.77
397.808	406.44
398.186	403.05
398.565	413.68
398.944	436.95
399.323	436.05
399.701	427.69
400.08	413.9
400.458	434.69
400.837	423.84
401.215	420
401.594	431.75
401.972	415.03
402.351	433.11
402.729	417.52
403.107	426.33
403.486	418.65
403.864	425.2
404.242	433.11
404.62	457.74
404.999	439.44
405.377	450.06
405.755	451.19
406.133	442.38
406.511	451.41
406.889	459.32
407.267	461.81
407.645	456.61
408.023	458.87
408.401	466.56
408.779	489.61
409.156	483.5
409.534	493.9
409.912	477.18
410.29	493.45
410.667	501.81
411.045	515.59
411.422	506.33
411.8	496.84
412.178	509.94
412.555	524.86
412.933	545.42
413.31	531.41
413.687	517.85
414.065	513.33
414.442	536.38
414.819	547.46
415.197	544.29
415.574	551.53
415.951	529.15
416.328	548.36
416.705	569.38
417.082	561.47
417.46	543.62
417.837	537.74
418.214	551.3
418.591	591.75
418.967	574.35
419.344	570.06
419.721	586.1
420.098	570.96
420.475	588.81
420.852	603.5
421.228	609.15
421.605	596.95
421.982	608.7
422.358	594.46
422.735	641.92
423.111	630.39
423.488	619.55
423.864	634.01
424.241	632.65
424.617	640.11
424.994	649.38
425.37	626.78
425.746	638.08
426.123	644.63
426.499	654.8
426.875	658.41
427.251	674.01
427.627	657.06
428.003	678.3
428.379	711.29
428.756	672.88
429.132	694.12
429.507	681.92
429.883	718.75
430.259	725.76
430.635	708.13
431.011	736.6
431.387	735.93
431.763	737.06
432.138	748.81
432.514	769.82
432.89	742.48
433.265	773.89
433.641	776.6
434.016	788.13
434.392	801.24
434.767	794.23
435.143	805.53
435.518	803.27
435.894	805.53
436.269	818.18
436.644	811.18
437.02	825.42
437.395	865.19
437.77	857.96
438.145	850.05
438.52	908.58
438.895	865.64
439.271	862.7
439.646	902.48
440.021	914.45
440.395	913.1
440.77	904.96
441.145	915.36
441.52	940.89
441.895	918.97
442.27	952.42
442.645	924.62
443.019	966.88
443.394	962.59
443.769	953.1
444.143	961.01
444.518	975.47
444.892	964.85
445.267	993.55
445.641	1006.65
446.016	992.42
446.39	1004.17
446.764	1023.38
447.139	1019.76
447.513	1026.54
447.887	1035.81
448.262	1032.87
448.636	1039.87
449.01	1063.83
449.384	1095.24
449.758	1050.27
450.132	1098.86
450.506	1083.49
450.88	1098.4
451.254	1105.18
451.628	1092.3
452.002	1130.49
452.376	1125.07
452.75	1145.63
453.123	1135.92
453.497	1159.42
453.871	1160.32
454.244	1195.58
454.618	1190.83
454.992	1223.6
455.365	1239.64
455.739	1237.83
456.112	1247.33
456.486	1256.59
456.859	1273.54
457.232	1271.51
457.606	1288.68
457.979	1305.4
458.352	1358.96
458.725	1365.97
459.099	1348.57
459.472	1375.01
459.845	1409.13
460.218	1424.27
460.591	1434.67
460.964	1423.37
461.337	1476.7
461.71	1489.35
462.083	1495.91
462.456	1508.79
462.829	1540.2
463.201	1574.32
463.574	1583.14
463.947	1589.69
464.32	1638.73
464.692	1636.47
465.065	1669.69
465.438	1680.76
465.81	1722.12
466.183	1755.34
466.555	1739.97
466.928	1768.22
467.3	1832.62
467.672	1846.18
468.045	1878.27
468.417	1876.01
468.789	1927.31
469.161	1930.7
469.534	2005.95
469.906	2037.59
470.278	2044.14
470.65	2094.54
471.022	2128.21
471.394	2189.67
471.766	2196.45
472.138	2231.71
472.51	2314.42
472.882	2365.26
473.253	2353.06
473.625	2439.84
473.997	2471.25
474.369	2522.77
474.74	2579.04
475.112	2616.1
475.484	2700.62
475.855	2745.37
476.227	2809.77
476.598	2894.97
476.97	2962.54
477.341	3023.78
477.713	3092.25
478.084	3191.91
478.455	3266.93
478.827	3338.34
479.198	3405.01
479.569	3487.49
479.94	3611.11
480.311	3680.03
480.682	3776.3
481.053	3889.52
481.424	3988.5
481.795	4067.59
482.166	4158.44
482.537	4265.1
482.908	4345.32
483.279	4475.72
483.65	4612.66
484.021	4763.84
484.391	4906.44
484.762	4982.14
485.133	5129.26
485.503	5216.04
485.874	5347.56
486.244	5444.73
486.615	5649.24
486.985	5740.77
487.356	5902.12
487.726	5986.41
488.097	6172.85
488.467	6348.21
488.837	6519.73
489.207	6681.53
489.578	6797.01
489.948	6914.97
490.318	7040.85
490.688	7177.34
491.058	7394.51
491.428	7517.22
491.798	7674.05
492.168	7887.38
492.538	7955.62
492.908	8125.34
493.278	8340.02
493.648	8365.1
494.017	8573.24
494.387	8744.3
494.757	8844.41
495.126	8983.85
495.496	9128.47
495.866	9216.61
496.235	9378.86
496.605	9556.94
496.974	9702.47
497.344	9851.85
497.713	9951.05
498.082	10019.52
498.452	10236.69
498.821	10323.25
499.19	10410.7
499.559	10652.05
499.928	10660.64
500.298	10775.21
500.667	10954.87
501.036	10990.8
501.405	11155.31
501.774	11221.08
502.143	11296.1
502.512	11431.01
502.88	11533.16
503.249	11613.16
503.618	11765.69
503.987	11826.48
504.356	11942.41
504.724	11943.77
505.093	12103.31
505.462	12195.29
505.83	12221.27
506.199	12423.08
506.567	12641.83
506.936	12620.13
507.304	12725.89
507.672	12861.26
508.041	12884.99
508.409	13035.04
508.777	13137.41
509.145	13155.26
509.514	13191.64
509.882	13213.34
510.25	13311.64
510.618	13449.72
510.986	13458.53
511.354	13635.25
511.722	13689.48
512.09	13810.84
512.458	13783.95
512.826	13877.28
513.193	14019.42
513.561	14018.52
513.929	14105.07
514.297	14221.45
514.664	14287.66
515.032	14343.03
515.4	14351.84
515.767	14412.18
516.135	14478.84
516.502	14440.88
516.869	14788.44
517.237	14627.54
517.604	14574.89
517.972	14731.94
518.339	14864.37
518.706	14841.77
519.073	14834.31
519.44	14957.93
519.808	15092.39
520.175	14971.71
520.542	15159.95
520.909	15177.36
521.276	15230.69
521.643	15301.87
522.009	15367.86
522.376	15433.39
522.743	15441.3
523.11	15519.95
523.477	15571.02
523.843	15631.58
524.21	15786.15
524.577	15914.74
524.943	15905.02
525.31	15879.48
525.676	16029.76
526.043	15959.03
526.409	16001.06
526.776	16203.32
527.142	16173.94
527.508	16198.57
527.874	16273.37
528.241	16259.13
528.607	16256.42
528.973	16349.98
529.339	16333.71
529.705	16328.29
530.071	16494.83
530.437	16483.99
530.803	16492.57
531.169	16498
531.535	16440.6
531.901	16498.68
532.267	16497.77
532.632	16521.95
532.998	16451.67
533.364	16573.48
533.73	16490.31
534.095	16568.51
534.461	16633.81
534.826	16527.15
535.192	16606.92
535.557	16608.05
535.923	16526.25
536.288	16621.38
536.653	16566.47
537.019	16501.61
537.384	16527.15
537.749	16582.29
538.114	16444.67
538.479	16457.77
538.845	16447.38
539.21	16482.86
539.575	16463.88
539.94	16432.46
540.305	16555.4
540.67	16473.37
541.034	16410.09
541.399	16407.61
541.764	16285.8
542.129	16352.01
542.494	16260.26
542.858	16308.17
543.223	16262.75
543.587	16260.04
543.952	16239.7
544.316	16260.49
544.681	16154.73
545.045	16196.09
545.41	16207.38
545.774	16082.87
546.138	16124.9
546.503	16119.7
546.867	16044.23
547.231	16138.69
547.595	16084
547.959	15918.35
548.324	16056.43
548.688	15917.9
549.052	15970.1
549.416	15909.77
549.779	15846.94
550.143	15772.59
550.507	15957.67
550.871	15886.04
551.235	15823.21
551.599	15892.36
551.962	15793.84
552.326	15808.98
552.689	15874.06
553.053	15723.33
553.417	15672.26
553.78	15869.09
554.143	15704.35
554.507	15732.14
554.87	15725.59
555.234	15738.7
555.597	15656.66
555.96	15704.35
556.323	15649.89
556.686	15662.77
557.05	15720.62
557.413	15618.47
557.776	15678.81
558.139	15798.13
558.502	15680.17
558.865	15661.86
559.228	15708.64
559.59	15757.23
559.953	15745.25
560.316	15767.62
560.679	15718.81
561.041	15723.1
561.404	15850.78
561.767	15871.35
562.129	15804.91
562.492	15811.01
562.854	15811.01
563.217	15730.79
563.579	15796.77
563.941	15860.95
564.304	15870.67
564.666	16058.69
565.028	15937.34
565.39	16038.8
565.753	16042.87
566.115	15996.77
566.477	16048.74
566.839	16126.93
567.201	16138.01
567.563	16140.04
567.925	16145.92
568.287	16155.41
568.648	16192.24
569.01	16195.41
569.372	16241.96
569.734	16155.86
570.095	16262.3
570.457	16363.54
570.819	16315.86
571.18	16342.3
571.542	16394.05
571.903	16374.16
572.265	16411.22
572.626	16505.23
572.987	16371.22
573.349	16436.76
573.71	16458.45
574.071	16491.22
574.432	16537.09
574.794	16641.95
575.155	16597.43
575.516	16566.92
575.877	16643.31
576.238	16652.12
576.599	16546.36
576.96	16587.49
577.32	16639.92
577.681	16567.15
578.042	16646.47
578.403	16630.2
578.763	16591.78
579.124	16603.08
579.485	16640.82
579.845	16719.69
580.206	16623.64
580.566	16641.95
580.927	16614.15
581.287	16656.19
581.648	16572.57
582.008	16699.12
582.368	16635.62
582.728	16663.64
583.089	16641.05
583.449	16643.76
583.809	16743.64
584.169	16704.77
584.529	16559.01
584.889	16700.93
585.249	16572.35
585.609	16532.57
585.969	16608.73
586.329	16489.86
586.688	16596.98
587.048	16523.53
587.408	16518.79
587.768	16546.58
588.127	16479.92
588.487	16486.25
588.846	16632.68
589.206	16502.74
589.565	16470.43
589.925	16567.38
590.284	16498.9
590.643	16462.29
591.003	16437.44
591.362	16512.24
591.721	16558.79
592.08	16404.22
592.44	16517.88
592.799	16456.42
593.158	16517.21
593.517	16423.42
593.876	16483.31
594.235	16333.93
594.593	16450.54
594.952	16455.97
595.311	16293.48
595.67	16400.83
596.029	16493.93
596.387	16472.01
596.746	16547.26
597.104	16394.95
597.463	16392.92
597.822	16427.49
598.18	16352.47
598.538	16345.46
598.897	16436.98
599.255	16295.97
599.613	16561.27
599.972	16408.51
600.33	16414.38
600.688	16416.19
601.046	16472.01
601.404	16545.23
601.762	16446.02
602.12	16573.02
602.478	16526.25
602.836	16525.12
603.194	16409.41
603.552	16472.91
603.91	16375.74
604.268	16446.25
604.625	16361.73
604.983	16540.71
605.341	16424.55
605.698	16487.83
606.056	16357.21
606.413	16441.73
606.771	16471.11
607.128	16486.93
607.485	16478.56
607.843	16405.12
608.2	16613.02
608.557	16553.36
608.914	16510.2
609.272	16578
609.629	16521.27
609.986	16562.63
610.343	16577.77
610.7	16641.05
611.057	16594.04
611.414	16550.65
611.771	16604.66
612.127	16699.12
612.484	16652.34
612.841	16720.14
613.198	16716.07
613.554	16617.54
613.911	16709.29
614.267	16695.28
614.624	16763.53
614.98	16654.6
615.337	16848.72
615.693	16862.51
616.05	16858.44
616.406	16904.32
616.762	16792.68
617.118	16812.11
617.475	16850.31
617.831	16909.06
618.187	16856.41
618.543	16877.88
618.899	17021.37
619.255	16930.76
619.611	16911.09
619.967	17003.3
620.323	16949.74
620.678	16947.7
621.034	16904.32
621.39	16965.1
621.746	16877.88
622.101	17108.38
622.457	16947.93
622.812	17055.5
623.168	16989.28
623.523	16999.91
623.879	17069.06
624.234	16906.35
624.589	17019.57
624.945	16977.08
625.3	16985.22
625.655	17056.18
626.01	16955.61
626.365	16957.42
626.72	16948.16
627.075	16761.04
627.43	16917.42
627.785	16901.83
628.14	16942.96
628.495	16895.5
628.85	16837.2
629.205	16848.95
629.559	16859.57
629.914	16832
630.269	16910.42
630.623	16797.88
630.978	16715.85
631.332	16825.9
631.687	16860.7
632.041	16721.72
632.396	16817.99
632.75	16831.1
633.104	16744.77
633.459	16575.96
633.813	16646.24
634.167	16686.47
634.521	16730.53
634.875	16681.95
635.229	16625.9
635.583	16502.97
635.937	16541.39
636.291	16607.37
636.645	16503.2
636.999	16500.48
637.352	16557.21
637.706	16420.71
638.06	16557.88
638.413	16445.57
638.767	16415.06
639.121	16376.19
639.474	16311.56
639.828	16303.43
640.181	16397.66
640.534	16359.24
640.888	16314.73
641.241	16239.93
641.594	16271.79
641.947	16369.87
642.301	16305.69
642.654	16317.44
643.007	16287.16
643.36	16230.43
643.713	16215.29
644.066	16297.55
644.419	16127.84
644.771	16114.28
645.124	15926.49
645.477	16022.53
645.83	15786.83
646.182	15636.78
646.535	15835.42
646.888	15700.96
647.24	15624.8
647.593	15753.39
647.945	15637.91
648.298	15563.79
648.65	15615.99
649.002	15566.27
649.355	15627.51
649.707	15652.14
650.059	15798.81
650.411	15922.42
650.763	15967.62
651.115	15969.2
651.467	16029.54
651.819	16024.56
652.171	16019.59
652.523	15967.39
652.875	15998.35
653.227	15826.6
653.578	16099.36
653.93	15946.37
654.282	15935.08
654.633	15959.48
654.985	15866.6
655.337	15985.92
655.688	16017.56
656.039	16039.48
656.391	15926.04
656.742	15991.8
657.094	16000.16
657.445	16006.03
657.796	15949.76
658.147	15993.15
658.498	15988.41
658.849	16081.06
659.2	16028.63
659.551	15921.06
659.902	16026.15
660.253	16061.4
660.604	15979.82
660.955	15921.52
661.306	16000.61
661.656	16046.71
662.007	16085.58
662.358	16056.88
662.708	16027.5
663.059	15946.15
663.409	15998.58
663.76	16065.92
664.11	16066.37
664.461	16128.52
664.811	15994.73
665.161	16018.24
665.511	16026.82
665.862	15992.7
666.212	16070.67
666.562	16058.69
666.912	15984.57
667.262	15982.53
667.612	15979.59
667.962	16007.16
668.312	16067.95
668.662	16031.57
669.011	16050.1
669.361	15981.18
669.711	16043.1
670.06	16076.77
670.41	15886.94
670.76	15924.45
671.109	15974.4
671.459	15947.28
671.808	15893.04
672.157	15895.08
672.507	15802.42
672.856	15835.42
673.205	15951.35
673.554	15958.8
673.904	15806.72
674.253	15923.55
674.602	15871.8
674.951	15655.31
675.3	15556.33
675.649	15741.63
675.998	15735.31
676.346	15865.47
676.695	15839.26
677.044	15697.34
677.393	15803.78
677.741	15722.2
678.09	15721.07
678.438	15702.99
678.787	15682.65
679.135	15739.15
679.484	15694.4
679.832	15679.94
680.181	15506.84
680.529	15618.47
680.877	15513.17
681.225	15436.56
681.573	15566.5
681.922	15456.67
682.27	15365.37
682.618	15399.04
682.966	15312.49
683.314	15404.92
683.661	15227.75
684.009	15205.15
684.357	15153.18
684.705	15164.47
685.053	15146.17
685.4	15189.33
685.748	15057.58
686.095	15065.04
686.443	14909.34
686.79	14984.59
687.138	15042.9
687.485	14969.23
687.832	14962.9
688.18	14929.45
688.527	14780.76
688.874	14839.74
689.221	14833.18
689.568	14808.33
689.915	14786.4
690.262	14674.77
690.609	14680.42
690.956	14582.57
691.303	14578.73
691.65	14522.01
691.997	14500.99
692.344	14435.91
692.69	14330.82
693.037	14355
693.383	14230.49
693.73	14294.21
694.077	14161.34
694.423	14213.31
694.769	14110.49
695.116	14051.51
695.462	14045.41
695.808	14021.91
696.155	13942.36
696.501	13878.41
696.847	13863.72
697.193	13745.75
697.539	13858.75
697.885	13659.65
698.231	13563.16
698.577	13614.68
698.923	13577.4
699.269	13530.84
699.614	13433.22
699.96	13440.68
700.306	13390.51
700.651	13298.31
700.997	13212.66
701.342	13244.07
701.688	13188.71
702.033	13117.07
702.379	13183.28
702.724	13117.07
703.069	13044.98
703.415	13023.51
703.76	12931.54
704.105	12988.94
704.45	12845.89
704.795	12783.07
705.14	12735.84
705.485	12809.51
705.83	12638.44
706.175	12592.79
706.52	12650.64
706.865	12570.87
707.209	12560.93
707.554	12563.64
707.899	12567.25
708.243	12376.07
708.588	12467.37
708.932	12346.02
709.277	12290.65
709.621	12323.64
709.966	12266.7
710.31	12240.03
710.654	12102.18
710.998	12151.9
711.342	12120.71
711.687	12135.85
712.031	12058.57
712.375	12018.57
712.719	12064.89
713.063	12044.78
713.407	12034.16
713.75	11924.11
714.094	11876.65
714.438	11831.45
714.782	11942.64
715.125	11855.41
715.469	11844.79
715.812	11769.31
716.156	11791.91
716.499	11785.81
716.843	11757.11
717.186	11659.48
717.53	11682.31
717.873	11713.72
718.216	11665.36
718.559	11610.22
718.902	11513.95
719.246	11552.59
719.589	11538.58
719.932	11415.42
720.275	11437.11
720.617	11487.51
720.96	11456.78
721.303	11446.38
721.646	11539.71
721.989	11416.55
722.331	11495.87
722.674	11391.92
723.016	11398.47
723.359	11351.92
723.701	11375.42
724.044	11310.34
724.386	11277.57
724.729	11333.16
725.071	11330.45
725.413	11248.19
725.755	11299.72
726.097	11276.44
726.439	11239.15
726.782	11222.66
727.124	11313.95
727.465	11243.22
727.807	11164.81
728.149	11135.65
728.491	11193.28
728.833	11191.92
729.175	11108.31
729.516	11192.6
729.858	11139.5
730.199	11157.8
730.541	11173.62
730.882	11111.93
731.224	11199.61
731.565	11088.2
731.906	11153.96
732.248	11174.75
732.589	11102.43
732.93	11108.54
733.271	11113.06
733.612	11125.03
733.953	11068.31
734.294	11117.8
734.635	11059.27
734.976	11101.76
735.317	11053.4
735.658	11014.75
735.999	11062.21
736.339	11126.16
736.68	11127.29
737.021	11139.5
737.361	11087.29
737.702	11157.12
738.042	11101.76
738.383	11065.6
738.723	11092.49
739.063	11115.32
739.404	11125.26
739.744	11114.86
740.084	11156.22
740.424	11195.99
740.764	11136.33
741.104	11200.28
741.444	11179.04
741.784	11147.18
742.124	11204.58
742.464	11225.59
742.804	11196.44
743.143	11261.98
743.483	11345.59
743.823	11258.14
744.162	11353.5
744.502	11335.87
744.841	11324.58
745.181	11436.21
745.52	11398.02
745.86	11430.34
746.199	11456.55
746.538	11472.37
746.877	11522.54
747.216	11631.23
747.556	11611.35
747.895	11713.49
748.234	11695.41
748.573	11806.14
748.911	11773.6
749.25	11882.3
749.589	11919.59
749.928	12040.04
750.267	12126.81
750.605	12182.86
750.944	12246.36
751.283	12220.14
751.621	12442.51
751.96	12475.51
752.298	12534.49
752.636	12656.52
752.975	12767.48
753.313	12793.46
753.651	12980.12
753.989	13016.96
754.327	13156.84
754.666	13207.69
755.004	13345.54
755.342	13508.7
755.679	13650.39
756.017	13676.6
756.355	13865.07
756.693	13973.77
757.031	14168.34
757.368	14188.45
757.706	14363.59
758.044	14543.25
758.381	14739.4
758.719	14843.35
759.056	15063.46
759.394	15161.31
759.731	15287.63
760.068	15451.25
760.405	15627.74
760.743	15694.18
761.08	15928.75
761.417	16019.14
761.754	16138.01
762.091	16412.58
762.428	16481.05
762.765	16560.37
763.102	16876.75
763.438	16991.09
763.775	17016.85
764.112	17239.22
764.449	17488.03
764.785	17504.98
765.122	17601.7
765.458	17776.61
765.795	17953.55
766.131	18012.99
766.467	18135.7
766.804	18290.95
767.14	18378.4
767.476	18558.74
767.812	18688.45
768.148	18899.29
768.485	18836.92
768.821	18857.94
769.157	19067.2
769.492	19236.01
769.828	19243.01
770.164	19225.16
770.5	19441.42
770.836	19608.88
771.171	19497.47
771.507	19709.44
771.842	19649.1
772.178	19832.83
772.513	19989.21
772.849	19926.16
773.184	19989.88
773.519	20145.13
773.855	20074.85
774.19	20036.89
774.525	20161.63
774.86	20323.66
775.195	20355.52
775.53	20455.86
775.865	20362.76
776.2	20305.13
776.535	20306.26
776.87	20334.51
777.205	20459.25
777.539	20421.96
777.874	20494.73
778.209	20446.82
778.543	20490.66
778.878	20471.91
779.212	20436.65
779.547	20408.63
779.881	20537.89
780.215	20605.69
780.55	20462.19
780.884	20456.09
781.218	20510.32
781.552	20533.82
781.886	20454.05
782.22	20348.29
782.554	20395.07
782.888	20404.11
783.222	20375.41
783.556	20297.67
783.889	20288.86
784.223	20172.03
784.557	20217
784.89	20292.47
785.224	20353.26
785.557	20047.74
785.891	20222.42
786.224	20054.97
786.558	20222.19
786.891	20034.63
787.224	20009.54
787.557	20009.54
787.891	20013.39
788.224	20014.52
788.557	20049.77
788.89	19973.16
789.223	19955.08
789.556	19698.37
789.888	19914.63
790.221	19705.6
790.554	19641.19
790.887	19611.59
791.219	19591.02
791.552	19579.27
791.884	19450.24
792.217	19407.53
792.549	19453.17
792.882	19245.95
793.214	19300.41
793.546	19349.67
793.879	19166.18
794.211	19096.8
794.543	19104.03
794.875	19132.51
795.207	19256.12
795.539	19059.96
795.871	19099.74
796.203	18974.54
796.535	18818.84
796.867	18941.32
797.198	18756.47
797.53	18836.69
797.862	18591.05
798.193	18759.18
798.525	18556.7
798.856	18587.21
799.188	18488.68
799.519	18446.2
799.85	18351.73
800.182	18358.06
800.513	18478.29
800.844	18306.54
801.175	18371.85
801.506	18338.85
801.837	18202.81
802.168	18211.4
802.499	18144.96
802.83	18016.15
803.161	18020.22
803.491	18007.79
803.822	17993.1
804.153	17924.4
804.483	17800.56
804.814	17727.8
805.145	17682.37
805.475	17704.07
805.805	17714.69
806.136	17594.92
806.466	17676.72
806.796	17606.22
807.126	17436.5
807.457	17528.71
807.787	17422.95
808.117	17423.4
808.447	17340.46
808.777	17346.79
809.107	17257.75
809.436	17193.8
809.766	17200.13
810.096	17161.71
810.426	17016.18
810.755	17011.43
811.085	17046.01
811.414	17049.62
811.744	16956.29
812.073	16921.26
812.403	16869.97
812.732	16728.05
813.061	16881.49
813.39	16742.06
813.719	16684.21
814.049	16754.94
814.378	16669.75
814.707	16566.25
815.036	16535.96
815.365	16553.36
815.693	16410.32
816.022	16370.09
816.351	16356.99
816.68	16222.3
817.008	16318.12
817.337	16266.14
817.665	16159.7
817.994	16184.79
818.322	16205.8
818.651	16019.59
818.979	16038.12
819.307	16164.67
819.636	16035.19
819.964	16062.53
820.292	16058.91
820.62	16047.61
820.948	15921.52
821.276	16086.94
821.604	16034.96
821.932	16048.07
822.259	16027.5
822.587	15906.38
822.915	15917.9
823.243	16029.99
823.57	15958.8
823.898	16081.06
824.225	15954.96
824.553	15852.82
824.88	15908.64
825.207	15953.15
825.535	15959.26
825.862	15970.78
826.189	15914.51
826.516	16024.56
826.843	16013.94
827.17	15981.63
827.497	16010.1
827.824	15948.41
828.151	16114.51
828.478	15984.34
828.805	16054.85
829.131	16009.65
829.458	15993.6
829.785	15962.42
830.111	15927.84
830.438	16017.56
830.764	15927.39
831.09	15960.84
831.417	15915.64
831.743	15974.17
832.069	15952.02
832.395	15838.81
832.722	15908.64
833.048	15820.5
833.374	15914.96
833.7	15807.85
834.026	15859.82
834.351	15834.51
834.677	15824.8
835.003	15832.03
835.329	15821.18
835.654	15748.87
835.98	15721.97
836.306	15710.45
836.631	15627.51
836.956	15740.5
837.282	15714.97
837.607	15633.16
837.932	15601.75
838.258	15597.01
838.583	15547.06
838.908	15514.97
839.233	15537.57
839.558	15527.85
839.883	15402.66
840.208	15397.24
840.533	15430
840.858	15421.64
841.182	15363.34
841.507	15286.05
841.832	15265.94
842.156	15227.07
842.481	15283.57
842.805	15140.52
843.13	15158.82
843.454	14994.08
843.778	15088.77
844.103	15116.57
844.427	15051.93
844.751	15068.88
845.075	14998.15
845.399	14948.43
845.723	14873.63
846.047	14944.37
846.371	14728.55
846.695	14780.98
847.019	14578.05
847.343	14602.46
847.666	14458.28
847.99	14440.88
848.313	14463.93
848.637	14343.03
848.96	14279.75
849.284	14271.62
849.607	14206.53
849.931	14181.68
850.254	14082.47
850.577	14024.84
850.9	13904.62
851.223	13934.45
851.546	13889.03
851.869	13761.57
852.192	13800.89
852.515	13660.78
852.838	13655.81
853.161	13600.67
853.483	13549.83
853.806	13481.81
854.129	13525.87
854.451	13337.63
854.774	13322.71
855.096	13233.45
855.419	13295.37
855.741	13302.83
856.063	13245.65
856.385	13129.95
856.708	13150.97
857.03	13091.31
857.352	13072.1
857.674	12980.12
857.996	12995.49
858.318	12862.39
858.64	12807.25
858.961	12880.47
859.283	12843.41
859.605	12809.28
859.926	12767.7
860.248	12653.35
860.57	12619.68
860.891	12696.29
861.212	12587.14
861.534	12626.01
861.855	12532.68
862.176	12576.07
862.498	12626.01
862.819	12506.92
863.14	12490.19
863.461	12419.24
863.782	12453.13
864.103	12419.91
864.424	12417.43
864.745	12412
865.065	12238
865.386	12298.11
865.707	12305.57
866.027	12347.6
866.348	12201.84
866.668	12219.69
866.989	12183.08
867.309	12127.94
867.63	12161.84
867.95	12137.21
868.27	12080.49
868.59	12054.05
868.91	12067.61
869.23	11964.78
869.55	12031
869.87	11912.58
870.19	11980.83
870.51	12028.06
870.83	11962.3
871.15	11904.22
871.469	11980.83
871.789	11947.84
872.109	11916.88
872.428	11826.71
872.748	11834.17
873.067	11836.88
873.386	11828.06
873.706	11851.57
874.025	11733.6
874.344	11693.15
874.663	11695.64
874.982	11651.57
875.301	11632.36
875.62	11597.79
875.939	11575.87
876.258	11593.95
876.577	11574.06
876.896	11578.13
877.214	11581.07
877.533	11584.23
877.852	11506.72
878.17	11494.29
878.489	11511.91
878.807	11505.36
879.125	11430.79
879.444	11469.66
879.762	11381.3
880.08	11376.55
880.398	11429.43
880.716	11315.31
881.034	11325.25
881.352	11344.69
881.67	11266.27
881.988	11175.2
882.306	11259.27
882.624	11160.29
882.941	11114.19
883.259	11100.4
883.577	11072.15
883.894	11037.58
884.212	11070.8
884.529	11036
884.846	11003.23
885.164	11027.18
885.481	10898.82
885.798	10908.77
886.115	10880.97
886.432	10857.47
886.75	10824.93
887.067	10882.1
887.383	10774.53
887.7	10860.86
888.017	10787.41
888.334	10706.06
888.651	10683.91
888.967	10694.99
889.284	10644.37
889.6	10638.72
889.917	10562.56
890.233	10498.61
890.55	10534.09
890.866	10452.96
891.182	10550.13
891.498	10446.41
891.815	10444.6
892.131	10374.32
892.447	10273.98
892.763	10317.14
893.079	10283.02
893.395	10217.94
893.71	10161.89
894.026	10200.76
894.342	10113.99
894.657	10073.31
894.973	10068.79
895.289	10104.49
895.604	10022.24
895.92	9935.91
896.235	9909.25
896.55	9944.72
896.865	9892.75
897.181	9855.91
897.496	9837.83
897.811	9788.12
898.126	9741.34
898.441	9742.24
898.756	9711.28
899.071	9653.21
899.386	9676.93
899.7	9542.93
900.015	9500.44
900.33	9487.34
900.644	9441.01
900.959	9470.16
901.273	9414.12
901.588	9297.06
901.902	9286.21
902.216	9288.92
902.531	9217.96
902.845	9261.8
903.159	9199.89
903.473	9170.28
903.787	9037.4
904.101	9109.94
904.415	9036.05
904.729	9012.55
905.042	8917.18
905.356	8937.07
905.67	8985.65
905.984	8911.08
906.297	8901.81
906.611	8816.39
906.924	8770.07
907.237	8719.67
907.551	8743.63
907.864	8676.06
908.177	8705.89
908.491	8613.46
908.804	8606
909.117	8558.09
909.43	8455.05
909.743	8499.79
910.056	8412.11
910.368	8367.14
910.681	8321.49
910.994	8384.54
911.307	8273.36
911.619	8228.16
911.932	8250.98
912.244	8190.19
912.557	8152
912.869	8142.96
913.181	8044.21
913.494	8009.18
913.806	8035.17
914.118	8021.61
914.43	7952.91
914.742	7955.17
915.054	7866.81
915.366	7873.82
915.678	7807.83
915.99	7803.31
916.302	7741.62
916.613	7686.25
916.925	7678.57
917.236	7670.66
917.548	7639.02
917.859	7665.91
918.171	7552.24
918.482	7510.21
918.794	7528.29
919.105	7501.85
919.416	7456.88
919.727	7455.75
920.038	7414.62
920.349	7343.66
920.66	7318.58
920.971	7306.6
921.282	7258.02
921.593	7180.05
921.903	7192.93
922.214	7186.38
922.525	7148.87
922.835	7109.77
923.146	7046.04
923.456	7017.34
923.767	7048.08
924.077	6990.23
924.387	7001.3
924.697	6897.12
925.008	6866.39
925.318	6862.32
925.628	6898.25
925.938	6806.05
926.248	6781.42
926.558	6745.49
926.867	6772.38
927.177	6768.08
927.487	6692.61
927.796	6659.39
928.106	6654.19
928.416	6567.86
928.725	6599.95
929.034	6477.02
929.344	6537.81
929.653	6531.93
929.962	6438.15
930.271	6417.13
930.581	6399.73
930.89	6377.13
931.199	6358.15
931.508	6349.79
931.817	6327.19
932.125	6275.89
932.434	6268.21
932.743	6227.08
933.051	6200.19
933.36	6204.26
933.669	6129.01
933.977	6115.9
934.286	6133.3
934.594	6084.49
934.902	6059.18
935.21	5980.08
935.519	5973.08
935.827	5987.31
936.135	5963.13
936.443	5866.87
936.751	5882.46
937.059	5900.99
937.367	5873.19
937.674	5827.32
937.982	5773.31
938.29	5777.83
938.597	5744.38
938.905	5693.08
939.213	5688.34
939.52	5616.48
939.827	5683.37
940.135	5618.28
940.442	5598.62
940.749	5611.5
941.056	5595.91
941.363	5504.39
941.67	5525.18
941.977	5485.18
942.284	5435.24
942.591	5394.34
942.898	5399.99
943.205	5395.69
943.511	5388.01
943.818	5342.13
944.125	5353.66
944.431	5280.44
944.738	5296.94
945.044	5240.22
945.35	5207
945.657	5197.05
945.963	5184.62
946.269	5157.51
946.575	5101.24
946.881	5177.84
947.187	5086.77
947.493	5065.3
947.799	5057.4
948.105	5012.2
948.41	5032.76
948.716	4974.46
949.022	4952.77
949.327	4935.82
949.633	4943.95
949.938	4912.31
950.244	4918.87
950.549	4903.05
950.854	4854.24
951.16	4843.39
951.465	4813.11
951.77	4791.41
952.075	4748.25
952.38	4714.58
952.685	4661.25
952.99	4630.74
953.294	4655.37
953.599	4677.07
953.904	4618.54
954.209	4604.98
954.513	4583.74
954.818	4564.07
955.122	4575.83
955.426	4524.53
955.731	4548.03
956.035	4492.44
956.339	4496.51
956.643	4466.22
956.948	4442.27
957.252	4400.24
957.556	4383.97
957.86	4362.5
958.163	4327.7
958.467	4371.54
958.771	4305.32
959.075	4303.74
959.378	4282.5
959.682	4284.76
959.985	4226.91
960.289	4249.51
960.592	4197.98
960.896	4187.36
961.199	4186.91
961.502	4164.31
961.805	4184.65
962.108	4101.26
962.411	4115.05
962.714	4098.78
963.017	4058.78
963.32	4061.94
963.623	4038.89
963.926	3981.04
964.228	4034.37
964.531	3975.84
964.833	3966.35
965.136	3913.02
965.438	3897.65
965.741	3909.18
966.043	3901.95
966.345	3895.39
966.648	3837.77
966.95	3835.51
967.252	3822.85
967.554	3812.23
967.856	3757.09
968.158	3740.82
968.46	3787.15
968.761	3713.7
969.063	3727.03
969.365	3721.61
969.666	3699.92
969.968	3675.74
970.269	3692.01
970.571	3660.14
970.872	3664.21
971.174	3606.13
971.475	3598
971.776	3579.47
972.077	3562.52
972.378	3544.21
972.679	3523.88
972.98	3483.88
973.281	3499.7
973.582	3528.17
973.883	3481.84
974.183	3448.85
974.484	3443.88
974.785	3467.38
975.085	3423.99
975.386	3440.49
975.686	3420.38
975.986	3362.75
976.287	3348.51
976.587	3328.18
976.887	3340.38
977.187	3335.18
977.487	3280.72
977.787	3269.19
978.087	3300.15
978.387	3235.52
978.687	3269.42
978.987	3198.69
979.286	3198.69
979.586	3199.14
979.885	3153.72
980.185	3210.21
980.484	3132.93
980.784	3156.43
981.083	3089.54
981.382	3111.91
981.682	3130.89
981.981	3075.07
982.28	3040.5
982.579	3043.44
982.878	3012.25
983.177	3025.58
983.475	3013.16
983.774	2967.05
984.073	2982.65
984.372	2936.77
984.67	2920.05
984.969	2950.56
985.267	2943.55
985.566	2927.28
985.864	2925.47
986.162	2867.17
986.461	2870.79
986.759	2878.92
987.057	2809.77
987.355	2821.75
987.653	2812.26
987.951	2823.78
988.249	2817
988.547	2810
988.844	2776.55
989.142	2743.78
989.44	2753.95
989.737	2725.48
990.035	2732.26
990.332	2734.52
990.63	2706.95
990.927	2668.08
991.224	2692.94
991.521	2676.67
991.819	2648.19
992.116	2661.75
992.413	2618.59
992.71	2630.57
993.006	2561.87
993.303	2619.72
993.6	2587.18
993.897	2530
994.193	2563
994.49	2512.15
994.787	2483
995.083	2504.02
995.379	2522.32
995.676	2494.98
995.972	2469.21
996.268	2461.98
996.565	2439.16
996.861	2443.45
997.157	2408.65
997.453	2417.69
997.749	2420.85
998.044	2429.44
998.34	2377.92
998.636	2357.58
998.932	2380.4
999.227	2364.36
999.523	2352.61
999.818	2327.07
1000.114	2302.44
1000.409	2273.74
1000.704	2259.73
1001	2297.92
1001.295	2259.5
1001.59	2243.91
1001.885	2205.04
1002.18	2232.61
1002.475	2184.48
1002.77	2195.1
1003.065	2215.44
1003.359	2212.5
1003.654	2173.18
1003.949	2154.42
1004.243	2146.51
1004.538	2114.42
1004.832	2096.34
1005.127	2083.24
1005.421	2074.42
1005.715	2093.63
1006.009	2051.6
1006.304	2037.59
1006.598	2036.23
1006.892	2006.63
1007.186	2026.74
1007.48	2014.54
1007.773	1976.8
1008.067	1976.12
1008.361	1960.08
1008.655	1960.53
1008.948	1959.17
1009.242	1966.63
1009.535	1888.44
1009.829	1917.82
1010.122	1908.1
1010.415	1896.57
1010.708	1885.73
1011.001	1864.03
1011.295	1848.89
1011.588	1861.77
1011.881	1831.72
1012.173	1809.35
1012.466	1815.67
1012.759	1809.57
1013.052	1808.89
1013.344	1787.88
1013.637	1796.24
1013.93	1753.3
1014.222	1748.78
1014.514	1719.4
1014.807	1729.12
1015.099	1732.96
1015.391	1716.92
1015.683	1708.78
1015.976	1683.47
1016.268	1678.05
1016.56	1665.85
1016.851	1665.17
1017.143	1638.05
1017.435	1662.68
1017.727	1646.41
1018.018	1614.55
1018.31	1588.11
1018.602	1588.56
1018.893	1572.06
1019.185	1621.33
1019.476	1561.22
1019.767	1594.89
1020.058	1569.58
1020.35	1531.84
1020.641	1500.43
1020.932	1501.56
1021.223	1498.62
1021.514	1512.86
1021.804	1460.65
1022.095	1502.01
1022.386	1465.63
1022.677	1475.79
1022.967	1454.55
1023.258	1446.64
1023.548	1416.81
1023.839	1419.75
1024.129	1401.9
1024.419	1416.59
1024.709	1410.26
1025	1391.28
1025.29	1375.46
1025.58	1368.45
1025.87	1348.57
1026.16	1337.27
1026.449	1343.59
1026.739	1323.03
1027.029	1310.83
1027.319	1296.14
1027.608	1311.96
1027.898	1290.71
1028.187	1277.16
1028.477	1257.27
1028.766	1269.92
1029.055	1269.47
1029.344	1240.77
1029.634	1224.05
1029.923	1232.86
1030.212	1276.48
1030.501	1221.34
1030.79	1216.59
1031.078	1193.32
1031.367	1162.81
1031.656	1201.45
1031.945	1158.74
1032.233	1181.79
1032.522	1154.22
1032.81	1158.51
1033.099	1122.58
1033.387	1123.04
1033.675	1121
1033.963	1099.08
1034.251	1125.75
1034.54	1138.63
1034.828	1089.82
1035.116	1086.2
1035.403	1085.75
1035.691	1087.78
1035.979	1061.57
1036.267	1089.36
1036.554	1070.38
1036.842	1055.01
1037.129	1028.35
1037.417	1067.22
1037.704	1036.71
1037.992	1038.97
1038.279	1028.57
1038.566	1012.98
1038.853	1012.98
1039.14	1012.98
