Data from hue_170_FLMS001491_00003.txt Node
Date: Tue Feb 07 16:48:09 GMT 2017
User: dcchb
Spectrometer: FLMS00149
Trigger mode: 0
Integration Time (sec): 2.000000E-2
Scans to average: 10
Electric dark correction enabled: true
Nonlinearity correction enabled: false
Boxcar width: 0
XAxis mode: Wavelengths
Number of Pixels in Spectrum: 2048
>>>>>Begin Spectral Data<<<<<
341.393	-36.52
341.776	-36.52
342.16	-36.52
342.543	-75.85
342.927	-46.02
343.31	-61.61
343.693	-65
344.077	-86.01
344.46	-58.22
344.843	-60.03
345.226	-32.91
345.61	-24.32
345.993	4.83
346.376	5.51
346.759	11.16
347.142	4.6
347.525	31.5
347.908	51.61
348.291	74.21
348.674	85.28
349.057	119.4
349.44	121.89
349.823	143.13
350.206	159.85
350.588	205.05
350.971	212.06
351.354	232.85
351.737	254.54
352.119	239.63
352.502	286.86
352.884	268.78
353.267	275.78
353.65	295.44
354.032	300.19
354.414	302.68
354.797	311.94
355.179	314.43
355.562	323.92
355.944	329.34
356.326	327.08
356.709	320.98
357.091	324.6
357.473	346.74
357.855	331.6
358.238	346.29
358.62	349.23
359.002	341.77
359.384	345.61
359.766	344.26
360.148	351.49
360.53	347.65
360.912	346.52
361.294	339.74
361.676	366.18
362.057	323.69
362.439	339.28
362.821	334.31
363.203	317.14
363.584	332.51
363.966	339.96
364.348	332.05
364.729	325.95
365.111	328.44
365.493	317.14
365.874	334.77
366.256	308.1
366.637	312.84
367.019	309.46
367.4	310.81
367.781	310.36
368.163	316.91
368.544	305.39
368.925	318.95
369.306	318.27
369.688	317.82
370.069	316.91
370.45	313.97
370.831	330.02
371.212	310.81
371.593	322.56
371.974	309.68
372.355	318.49
372.736	308.78
373.117	325.73
373.498	300.87
373.879	317.36
374.26	324.82
374.641	311.94
375.021	323.01
375.402	321.43
375.783	340.87
376.163	337.93
376.544	351.04
376.925	325.95
377.305	340.41
377.686	330.02
378.066	339.74
378.447	325.27
378.827	348.32
379.208	339.96
379.588	359.62
379.968	315.56
380.349	344.03
380.729	306.52
381.109	338.38
381.489	344.26
381.87	338.15
382.25	349.45
382.63	349.45
383.01	379.06
383.39	335.67
383.77	347.87
384.15	345.84
384.53	348.55
384.91	358.72
385.29	361.66
385.67	362.79
386.049	355.1
386.429	363.24
386.809	351.94
387.189	356.91
387.568	354.65
387.948	372.5
388.328	361.88
388.707	369.34
389.087	358.27
389.466	354.65
389.846	373.18
390.225	363.92
390.605	389
390.984	388.1
391.363	365.95
391.743	389.91
392.122	380.41
392.501	374.54
392.881	393.97
393.26	384.71
393.639	375.22
394.018	377.7
394.397	376.12
394.776	402.56
395.155	396.01
395.534	375.67
395.913	382.9
396.292	395.78
396.671	390.13
397.05	393.07
397.429	392.62
397.808	415.44
398.186	408.89
398.565	423.8
398.944	404.59
399.323	421.77
399.701	415.67
400.08	401.88
400.458	393.29
400.837	408.21
401.215	434.88
401.594	395.78
401.972	411.15
402.351	437.59
402.729	425.84
403.107	419.73
403.486	422.9
403.864	420.41
404.242	426.51
404.62	441.43
404.999	457.47
405.377	421.09
405.755	458.38
406.133	446.17
406.511	422.22
406.889	453.41
407.267	471.03
407.645	452.28
408.023	486.4
408.401	486.4
408.779	461.54
409.156	479.85
409.534	494.08
409.912	483.91
410.29	508.77
410.667	492.73
411.045	489.79
411.422	504.03
411.8	512.84
412.178	515.78
412.555	526.17
412.933	521.2
413.31	532.95
413.687	535.21
414.065	553.52
414.442	550.13
414.819	549
415.197	554.19
415.574	558.71
415.951	580.63
416.328	571.37
416.705	569.56
417.082	591.93
417.46	584.7
417.837	597.13
418.214	583.35
418.591	591.71
418.967	598.94
419.344	620.63
419.721	601.42
420.098	603.68
420.475	609.11
420.852	614.31
421.228	650.69
421.605	645.04
421.982	653.63
422.358	655.66
422.735	654.08
423.111	645.72
423.488	656.11
423.864	693.4
424.241	670.8
424.617	711.93
424.994	703.34
425.37	714.64
425.746	710.8
426.123	730.01
426.499	757.58
426.875	750.12
427.251	754.87
427.627	754.19
428.003	770.01
428.379	774.98
428.756	763.23
429.132	773.62
429.507	776.56
429.883	788.09
430.259	815.43
430.635	814.07
431.011	814.98
431.387	850.91
431.763	837.12
432.138	851.14
432.514	866.73
432.89	875.32
433.265	871.02
433.641	913.51
434.016	892.04
434.392	924.81
434.767	921.64
435.143	944.69
435.518	949.66
435.894	977.46
436.269	979.04
436.644	990.12
437.02	1010.68
437.395	1015.2
437.77	1005.03
438.145	1037.8
438.52	1052.03
438.895	1040.51
439.271	1043.9
439.646	1071.02
440.021	1091.58
440.395	1101.07
440.77	1113.28
441.145	1097.68
441.52	1118.7
441.895	1138.36
442.27	1150.34
442.645	1154.4
443.019	1179.26
443.394	1164.57
443.769	1194.63
444.143	1160.51
444.518	1212.71
444.892	1193.95
445.267	1209.32
445.641	1249.32
446.016	1219.94
446.39	1224.01
446.764	1228.3
447.139	1255.42
447.513	1282.54
447.887	1311.24
448.262	1290.45
448.636	1286.6
449.01	1325.02
449.384	1295.64
449.758	1335.64
450.132	1341.74
450.506	1342.2
450.88	1378.13
451.254	1353.95
451.628	1367.96
452.002	1427.39
452.376	1427.62
452.75	1426.71
453.123	1419.93
453.497	1450.44
453.871	1476.66
454.244	1484.57
454.618	1500.84
454.992	1539.71
455.365	1557.33
455.739	1587.61
456.112	1561.4
456.486	1602.98
456.859	1611.34
457.232	1654.96
457.606	1634.17
457.979	1687.05
458.352	1689.98
458.725	1700.83
459.099	1732.92
459.472	1798.46
459.845	1779.92
460.218	1797.1
460.591	1828.74
460.964	1840.94
461.337	1918.45
461.71	1915.29
462.083	1888.17
462.456	1931.79
462.829	1956.42
463.201	1998.45
463.574	1981.5
463.947	2054.27
464.32	2090.43
464.692	2114.83
465.065	2110.09
465.438	2173.13
465.81	2168.16
466.183	2188.73
466.555	2259.23
466.928	2289.06
467.3	2291.78
467.672	2344.43
468.045	2415.84
468.417	2416.29
468.789	2447.48
469.161	2466.91
469.534	2531.32
469.906	2605.89
470.278	2642.95
470.65	2683.63
471.022	2713.23
471.394	2785.55
471.766	2823.06
472.138	2860.8
472.51	2933.11
472.882	2989.38
473.253	3058.76
473.625	3089.27
473.997	3185.54
474.369	3195.48
474.74	3225.99
475.112	3297.85
475.484	3400.67
475.855	3450.16
476.227	3547.34
476.598	3659.88
476.97	3709.37
477.341	3757.27
477.713	3885.86
478.084	3901.23
478.455	4036.81
478.827	4139.64
479.198	4265.96
479.569	4307.99
479.94	4424.15
480.311	4557.48
480.682	4672.73
481.053	4733.52
481.424	4829.34
481.795	4912.72
482.166	5032.72
482.537	5123.34
482.908	5242.66
483.279	5397.68
483.65	5578.24
484.021	5651.01
484.391	5752.25
484.762	5827.5
485.133	5972.58
485.503	6109.98
485.874	6262.07
486.244	6348.17
486.615	6503.64
486.985	6611.66
487.356	6818.89
487.726	6855.5
488.097	7056.4
488.467	7114.02
488.837	7280.35
489.207	7479.89
489.578	7590.17
489.948	7724.63
490.318	7913.1
490.688	7919.65
491.058	8099.76
491.428	8262.24
491.798	8358.96
492.168	8567.77
492.538	8660.87
492.908	8790.59
493.278	8944.26
493.648	9057.25
494.017	9074.87
494.387	9336.34
494.757	9346.73
495.126	9476.67
495.496	9634.41
495.866	9628.98
496.235	9855.64
496.605	9922.08
496.974	10021.06
497.344	10191.46
497.713	10251.79
498.082	10332.02
498.452	10548.28
498.821	10509.19
499.19	10605.46
499.559	10767.49
499.928	10806.58
500.298	10892.68
500.667	11019
501.036	11031.66
501.405	11174.93
501.774	11132
502.143	11263.97
502.512	11332.44
502.88	11522.27
503.249	11509.39
503.618	11571.98
503.987	11649.72
504.356	11730.62
504.724	11838.64
505.093	11787.57
505.462	11863.73
505.83	11926.32
506.199	12058.07
506.567	12169.48
506.936	12159.99
507.304	12297.16
507.672	12352.3
508.041	12430.94
508.409	12438.4
508.777	12603.82
509.145	12612.18
509.514	12652.63
509.882	12745.06
510.25	12682.69
510.618	12804.49
510.986	12801.78
511.354	12896.92
511.722	12949.35
512.09	13048.78
512.458	13000.19
512.826	13084.49
513.193	13129.23
513.561	13148.44
513.929	13266.18
514.297	13246.06
514.664	13373.52
515.032	13374.2
515.4	13404.93
515.767	13420.52
516.135	13489.67
516.502	13400.64
516.869	13619.84
517.237	13588.88
517.604	13537.36
517.972	13706.62
518.339	13633.62
518.706	13680.63
519.073	13789.33
519.44	13763.34
519.808	13838.14
520.175	13787.52
520.542	13896.44
520.909	13970.34
521.276	13776.9
521.643	14058.47
522.009	13964.92
522.376	14099.83
522.743	13991.13
523.11	14080.17
523.477	14194.29
523.843	14205.36
524.21	14251.69
524.577	14284.23
524.943	14321.97
525.31	14303.21
525.676	14413.94
526.043	14490.1
526.409	14447.61
526.776	14570.55
527.142	14444.45
527.508	14487.39
527.874	14516.99
528.241	14581.85
528.607	14535.52
528.973	14581.62
529.339	14481.29
529.705	14659.81
530.071	14692.58
530.437	14635.86
530.803	14617.55
531.169	14578.68
531.535	14537.56
531.901	14536.2
532.267	14506.14
532.632	14600.83
532.998	14495.07
533.364	14612.13
533.73	14523.54
534.095	14540.27
534.461	14532.81
534.826	14609.19
535.192	14514.96
535.557	14574.16
535.923	14505.69
536.288	14407.84
536.653	14444.22
537.019	14402.42
537.384	14346.15
537.749	14291.69
538.114	14251.24
538.479	14329.65
538.845	14264.34
539.21	14162.88
539.575	14205.59
539.94	14078.36
540.305	14156.32
540.67	14052.6
541.034	14000.17
541.399	14040.62
541.764	13965.82
542.129	13967.18
542.494	13950.68
542.858	13838.14
543.223	13747.52
543.587	13829.55
543.952	13806.28
544.316	13719.95
544.681	13700.29
545.045	13662.32
545.41	13633.85
545.774	13698.48
546.138	13605.83
546.503	13562.44
546.867	13451.26
547.231	13560.18
547.595	13435.44
547.959	13403.35
548.324	13266.85
548.688	13328.32
549.052	13289.23
549.416	13268.89
549.779	13159.06
550.143	13118.38
550.507	13173.07
550.871	13140.3
551.235	13079.51
551.599	13110.25
551.962	13011.49
552.326	12962.91
552.689	13018.95
553.053	12920.65
553.417	12909.8
553.78	12995.9
554.143	12861.67
554.507	12848.11
554.87	12811.05
555.234	12846.75
555.597	12718.85
555.96	12781.67
556.323	12737.38
556.686	12701.67
557.05	12735.8
557.413	12690.15
557.776	12646.31
558.139	12714.78
558.502	12688.11
558.865	12641.33
559.228	12660.09
559.59	12616.25
559.953	12655.12
560.316	12721.56
560.679	12667.77
561.041	12670.94
561.404	12610.6
561.767	12643.37
562.129	12646.31
562.492	12681.11
562.854	12661.9
563.217	12603.14
563.579	12568.79
563.941	12616.25
564.304	12623.93
564.666	12712.52
565.028	12658.06
565.39	12668.45
565.753	12697.83
566.115	12655.8
566.477	12686.98
566.839	12689.92
567.201	12719.3
567.563	12707.55
567.925	12723.59
568.287	12802.91
568.648	12759.52
569.01	12795.68
569.372	12800.88
569.734	12689.92
570.095	12810.82
570.457	12860.31
570.819	12863.02
571.18	12762.46
571.542	12783.7
571.903	12827.77
572.265	12875.68
572.626	12832.74
572.987	12832.52
573.349	12847.88
573.71	12810.82
574.071	12972.4
574.432	12925.85
574.794	13029.57
575.155	12914.32
575.516	12904.38
575.877	12922.46
576.238	12955.68
576.599	12952.51
576.96	12943.25
577.32	12983.92
577.681	12895.56
578.042	12909.8
578.403	12975.34
578.763	12987.77
579.124	12902.34
579.485	13008.78
579.845	12990.03
580.206	12997.03
580.566	12967.65
580.927	12917.03
581.287	13034.09
581.648	12924.72
582.008	12922
582.368	12893.08
582.728	12948.44
583.089	12931.5
583.449	12870.03
583.809	12896.92
584.169	12890.37
584.529	12823.48
584.889	12910.48
585.249	12857.83
585.609	12773.99
585.969	12846.3
586.329	12775.79
586.688	12766.3
587.048	12712.74
587.408	12712.07
587.768	12771.73
588.127	12749.81
588.487	12736.92
588.846	12802.23
589.206	12723.37
589.565	12742.8
589.925	12743.25
590.284	12720.2
590.643	12802.69
591.003	12745.51
591.362	12807.88
591.721	12823.7
592.08	12670.49
592.44	12719.75
592.799	12731.95
593.158	12684.95
593.517	12709.58
593.876	12648.34
594.235	12583.48
594.593	12569.7
594.952	12669.36
595.311	12593.2
595.67	12642.01
596.029	12687.21
596.387	12586.87
596.746	12650.83
597.104	12577.61
597.463	12551.17
597.822	12645.85
598.18	12533.54
598.538	12534.67
598.897	12684.95
599.255	12467.1
599.613	12618.74
599.972	12645.63
600.33	12606.31
600.688	12581.9
601.046	12623.48
601.404	12608.79
601.762	12597.27
602.12	12587.1
602.478	12635.01
602.836	12647.21
603.194	12580.32
603.552	12593.2
603.91	12475.01
604.268	12566.53
604.625	12525.18
604.983	12592.07
605.341	12525.41
605.698	12570.6
606.056	12567.21
606.413	12543.26
606.771	12619.64
607.128	12632.07
607.485	12539.87
607.843	12607.21
608.2	12624.84
608.557	12675.68
608.914	12581
609.272	12753.87
609.629	12692.63
609.986	12682.46
610.343	12659.64
610.7	12808.11
611.057	12733.76
611.414	12701.45
611.771	12647.89
612.127	12757.94
612.484	12717.72
612.841	12737.38
613.198	12708.9
613.554	12753.87
613.911	12754.1
614.267	12757.94
614.624	12712.74
614.98	12710.49
615.337	12837.04
615.693	12716.81
616.05	12755.46
616.406	12810.37
616.762	12745.06
617.118	12765.17
617.475	12750.71
617.831	12808.56
618.187	12865.51
618.543	12860.54
618.899	12936.02
619.255	12790.93
619.611	12871.84
619.967	12866.87
620.323	12915.45
620.678	12830.93
621.034	12873.64
621.39	12826.87
621.746	12868.45
622.101	12946.41
622.457	12851.72
622.812	12903.93
623.168	12913.64
623.523	12932.17
623.879	13013.3
624.234	12796.58
624.589	12910.71
624.945	12912.51
625.3	12864.38
625.655	12871.84
626.01	12924.94
626.365	12851.27
626.72	12866.64
627.075	12825.06
627.43	12764.04
627.785	12821.89
628.14	12891.27
628.495	12952.29
628.85	12831.84
629.205	12783.93
629.559	12843.14
629.914	12734.67
630.269	12786.19
630.623	12772.86
630.978	12796.81
631.332	12870.71
631.687	12808.79
632.041	12759.98
632.396	12695.12
632.75	12723.82
633.104	12697.15
633.459	12668.68
633.813	12621.45
634.167	12594.1
634.521	12715.91
634.875	12624.84
635.229	12620.77
635.583	12559.3
635.937	12562.69
636.291	12597.95
636.645	12547.1
636.999	12565.4
637.352	12610.6
637.706	12539.42
638.06	12588.23
638.413	12492.64
638.767	12498.51
639.121	12512.3
639.474	12439.31
639.828	12434.79
640.181	12461.9
640.534	12477.95
640.888	12425.07
641.241	12334
641.594	12337.16
641.947	12324.73
642.301	12363.38
642.654	12419.42
643.007	12308.46
643.36	12390.95
643.713	12325.86
644.066	12313.21
644.419	12298.52
644.771	12176.04
645.124	12069.37
645.477	12055.36
645.83	12011.75
646.182	11969.04
646.535	11951.18
646.888	11910.73
647.24	11850.17
647.593	11982.14
647.945	11895.59
648.298	11874.8
648.65	11874.8
649.002	11835.71
649.355	11955.25
649.707	11882.71
650.059	12029.6
650.411	12166.09
650.763	12152.99
651.115	12171.52
651.467	12252.42
651.819	12190.72
652.171	12191.18
652.523	12150.5
652.875	12088.58
653.227	12122.7
653.578	12161.8
653.93	12177.84
654.282	12071.41
654.633	12082.7
654.985	12138.07
655.337	12150.5
655.688	12113.44
656.039	12170.39
656.391	12077.28
656.742	12090.39
657.094	12175.58
657.445	12202.02
657.796	12236.15
658.147	12139.65
658.498	12186.43
658.849	12224.85
659.2	12176.49
659.551	12210.16
659.902	12234.11
660.253	12183.04
660.604	12236.6
660.955	12191.63
661.306	12221.68
661.656	12141.91
662.007	12198.41
662.358	12202.25
662.708	12192.76
663.059	12240.21
663.409	12171.06
663.76	12225.07
664.11	12237.5
664.461	12254.68
664.811	12222.36
665.161	12230.27
665.511	12140.56
665.862	12218.75
666.212	12291.06
666.562	12184.17
666.912	12202.48
667.262	12241.8
667.612	12220.55
667.962	12234.11
668.312	12222.36
668.662	12212.64
669.011	12274.34
669.361	12212.87
669.711	12262.36
670.06	12168.35
670.41	12286.54
670.76	12216.49
671.109	12247.9
671.459	12232.31
671.808	12165.19
672.157	12242.47
672.507	12092.42
672.856	12177.84
673.205	12141.91
673.554	12173.32
673.904	12084.51
674.253	12159.99
674.602	12094.23
674.951	12021.92
675.3	11929.04
675.649	12147.56
675.998	12131.29
676.346	12067.79
676.695	12129.48
677.044	11988.92
677.393	12021.92
677.741	12032.99
678.09	11971.3
678.438	11949.38
678.787	11906.66
679.135	11955.48
679.484	11862.15
679.832	11933.78
680.181	11843.62
680.529	11896.27
680.877	11835.93
681.225	11868.7
681.573	11863.95
681.922	11739.89
682.27	11765.65
682.618	11749.15
682.966	11677.97
683.314	11746.22
683.661	11643.17
684.009	11638.65
684.357	11612.89
684.705	11608.82
685.053	11561.59
685.4	11589.16
685.748	11467.35
686.095	11428.71
686.443	11431.42
686.79	11422.16
687.138	11441.14
687.485	11459.22
687.832	11367.7
688.18	11346
688.527	11279.56
688.874	11285.89
689.221	11254.25
689.568	11235.72
689.915	11175.38
690.262	11188.04
690.609	11136.06
690.956	11095.84
691.303	11085.67
691.65	10955.28
691.997	11082.28
692.344	10941.27
692.69	10908.05
693.037	10933.81
693.383	10776.3
693.73	10805.68
694.077	10772.68
694.423	10808.39
694.769	10738.56
695.116	10720.48
695.462	10637.77
695.808	10580.37
696.155	10645
696.501	10553.48
696.847	10529.53
697.193	10431
697.539	10441.62
697.885	10391
698.231	10334.5
698.577	10275.52
698.923	10249.98
699.269	10197.78
699.614	10266.03
699.96	10188.52
700.306	10146.94
700.651	10031.69
700.997	10031.91
701.342	10099.03
701.688	9947.62
702.033	10005.25
702.379	10001.4
702.724	9911.46
703.069	9854.06
703.415	9764.35
703.76	9865.59
704.105	9779.04
704.45	9743.78
704.795	9804.8
705.14	9636.67
705.485	9624.01
705.83	9615.43
706.175	9621.3
706.52	9531.13
706.865	9584.24
707.209	9574.97
707.554	9493.17
707.899	9494.75
708.243	9423.79
708.588	9427.86
708.932	9304.7
709.277	9361.19
709.621	9320.52
709.966	9250.91
710.31	9283.91
710.654	9210.92
710.998	9180.63
711.342	9184.25
711.687	9131.6
712.031	9142.67
712.375	9069.45
712.719	9103.57
713.063	9141.09
713.407	9077.81
713.75	9019.51
714.094	9058.15
714.438	9033.97
714.782	8990.36
715.125	8926.86
715.469	9017.25
715.812	8919.85
716.156	8894.99
716.499	8855.67
716.843	8865.61
717.186	8883.69
717.53	8922.34
717.873	8899.29
718.216	8826.29
718.559	8845.73
718.902	8798.27
719.246	8784.26
719.589	8774.09
719.932	8820.19
720.275	8696.35
720.617	8687.99
720.96	8655.45
721.303	8676.01
721.646	8672.17
721.989	8683.7
722.331	8634.66
722.674	8640.54
723.016	8641.21
723.359	8612.29
723.701	8600.76
724.044	8591.72
724.386	8583.36
724.729	8685.51
725.071	8582.68
725.413	8592.63
725.755	8563.48
726.097	8572.29
726.439	8544.27
726.782	8509.24
727.124	8606.19
727.465	8556.92
727.807	8524.83
728.149	8510.82
728.491	8468.34
728.833	8552.18
729.175	8593.76
729.516	8542.91
729.858	8514.89
730.199	8509.24
730.541	8489.81
730.882	8475.57
731.224	8510.14
731.565	8468.79
731.906	8469.92
732.248	8454.33
732.589	8455.91
732.93	8446.64
733.271	8420.2
733.612	8485.74
733.953	8503.36
734.294	8423.82
734.635	8482.57
734.976	8513.31
735.317	8381.11
735.658	8487.09
735.999	8433.31
736.339	8472.86
736.68	8514.89
737.021	8547.2
737.361	8504.49
737.702	8535.45
738.042	8475.12
738.383	8494.78
738.723	8524.15
739.063	8462.91
739.404	8522.12
739.744	8605.28
740.084	8573.64
740.424	8568.22
740.764	8600.31
741.104	8596.92
741.444	8619.29
741.784	8596.02
742.124	8613.64
742.464	8603.7
742.804	8680.31
743.143	8730.7
743.483	8689.12
743.823	8719.4
744.162	8763.02
744.502	8807.08
744.841	8812.96
745.181	8867.87
745.52	8898.61
745.86	8899.51
746.199	8936.8
746.538	8943.13
746.877	9087.53
747.216	9054.54
747.556	9127.53
747.895	9159.17
748.234	9217.02
748.573	9265.15
748.911	9310.12
749.25	9448.65
749.589	9482.32
749.928	9576.56
750.267	9630.79
750.605	9664.01
750.944	9762.54
751.283	9792.6
751.621	9937.68
751.96	10008.86
752.298	10059.03
752.636	10170.21
752.975	10256.31
753.313	10317.33
753.651	10605.68
753.989	10560.03
754.327	10699.01
754.666	10794.15
755.004	10902.4
755.342	11082.05
755.679	11190.07
756.017	11331.99
756.355	11506.67
756.693	11616.73
757.031	11766.33
757.368	11891.07
757.706	12024.18
758.044	12106.43
758.381	12473.66
758.719	12475.69
759.056	12719.98
759.394	12896.02
759.731	13044.94
760.068	13151.6
760.405	13329.68
760.743	13401.54
761.08	13645.15
761.417	13837.01
761.754	13946.16
762.091	14130.33
762.428	14302.76
762.765	14415.3
763.102	14776.19
763.438	14896.64
763.775	15033.14
764.112	15141.38
764.449	15431.09
764.785	15479.23
765.122	15641.48
765.458	15823.17
765.795	15989.27
766.131	16116.27
766.467	16253.44
766.804	16389.03
767.14	16536.37
767.476	16786.08
767.812	16820.66
768.148	17012.52
768.485	17061.78
768.821	17137.94
769.157	17311.27
769.492	17387.88
769.828	17586.29
770.164	17646.63
770.5	17756.91
770.836	17884.81
771.171	17981.98
771.507	18097.69
771.842	18139.04
772.178	18272.15
772.513	18362.77
772.849	18454.06
773.184	18515.08
773.519	18553.5
773.855	18622.42
774.19	18728.86
774.525	18796.65
774.86	18907.38
775.195	18993.48
775.53	18974.73
775.865	18919.36
776.2	18910.77
776.535	18918.91
776.87	19003.65
777.205	19054.5
777.539	19052.69
777.874	19192.57
778.209	19141.05
778.543	19264.21
778.878	19131.79
779.212	19316.41
779.547	19260.6
779.881	19445.68
780.215	19398.9
780.55	19424.88
780.884	19273.25
781.218	19380.14
781.552	19442.29
781.886	19345.56
782.22	19354.83
782.554	19288.39
782.888	19240.71
783.222	19241.39
783.556	19299.46
783.889	19299.69
784.223	19170.43
784.557	19215.4
784.89	19227.6
785.224	19156.19
785.557	19188.51
785.891	19246.58
786.224	19124.78
786.558	19245.23
786.891	19059.92
787.224	19015.86
787.557	19141.5
787.891	19101.28
788.224	19095.4
788.557	18953.94
788.89	19073.26
789.223	19046.36
789.556	18922.53
789.888	18892.92
790.221	18889.53
790.554	18827.61
790.887	18807.95
791.219	18868.52
791.552	18756.65
791.884	18683.44
792.217	18624
792.549	18710.33
792.882	18594.62
793.214	18481.86
793.546	18547.17
793.879	18480.73
794.211	18362.54
794.543	18493.61
794.875	18421.97
795.207	18442.31
795.539	18433.95
795.871	18370.68
796.203	18179.95
796.535	18219.49
796.867	18187.86
797.198	18114.86
797.53	18075.99
797.862	17976.11
798.193	18051.59
798.525	17943.34
798.856	18049.33
799.188	17733.63
799.519	17807.07
799.85	17661.77
800.182	17725.49
800.513	17695.66
800.844	17630.81
801.175	17715.33
801.506	17634.42
801.837	17617.02
802.168	17575.22
802.499	17444.82
802.83	17388.55
803.161	17386.97
803.491	17452.06
803.822	17427.2
804.153	17330.93
804.483	17154.44
804.814	17136.58
805.145	17140.65
805.475	17104.27
805.805	17045.29
806.136	17062.69
806.466	17033.54
806.796	17024.95
807.126	16874.9
807.457	16865.63
807.787	16883.03
808.117	16765.52
808.447	16660.66
808.777	16701.79
809.107	16644.84
809.436	16626.09
809.766	16711.28
810.096	16577.95
810.426	16525.53
810.755	16541.57
811.085	16536.83
811.414	16518.52
811.744	16366.89
812.073	16292.99
812.403	16344.97
812.732	16345.87
813.061	16287.11
813.39	16135.93
813.719	16161.24
814.049	16221.13
814.378	16085.31
814.707	16106.1
815.036	16068.36
815.365	16015.93
815.693	15847.13
816.022	15926.45
816.351	15935.03
816.68	15855.71
817.008	15885.32
817.337	15739.78
817.665	15722.38
817.994	15747.69
818.322	15737.98
818.651	15704.76
818.979	15616.62
819.307	15716.06
819.636	15662.5
819.964	15567.81
820.292	15641.71
820.62	15515.38
820.948	15527.13
821.276	15580.69
821.604	15513.35
821.932	15649.84
822.259	15540.02
822.587	15469.28
822.915	15515.16
823.243	15510.64
823.57	15481.71
823.898	15517.87
824.225	15468.15
824.553	15569.39
824.88	15526
825.207	15550.18
825.535	15496.17
825.862	15531.43
826.189	15479
826.516	15548.83
826.843	15571.88
827.17	15585.21
827.497	15613.01
827.824	15594.48
828.151	15609.62
828.478	15488.94
828.805	15571.43
829.131	15479.23
829.458	15492.56
829.785	15358.1
830.111	15521.48
830.438	15565.33
830.764	15537.53
831.09	15557.19
831.417	15443.75
831.743	15601.03
832.069	15512.9
832.395	15352.68
832.722	15579.34
833.048	15507.93
833.374	15449.4
833.7	15422.28
834.026	15424.99
834.351	15497.98
834.677	15379.12
835.003	15406.23
835.329	15394.93
835.654	15302.51
835.98	15384.99
836.306	15332.34
836.631	15318.55
836.956	15373.24
837.282	15236.07
837.607	15248.05
837.932	15123.75
838.258	15253.92
838.583	15180.25
838.908	15013.25
839.233	15150.87
839.558	15083.3
839.883	15095.28
840.208	14972.35
840.533	15049.63
840.858	14996.98
841.182	14990.65
841.507	14996.07
841.832	14959.92
842.156	14837.89
842.481	14899.58
842.805	14838.34
843.13	14843.54
843.454	14798.57
843.778	14712.24
844.103	14709.75
844.427	14641.51
844.751	14641.06
845.075	14711.56
845.399	14634.05
845.723	14415.98
846.047	14452.81
846.371	14326.04
846.695	14375.07
847.019	14308.18
847.343	14171.01
847.666	14191.12
847.99	14181.18
848.313	14027.96
848.637	14033.84
848.96	13982.09
849.284	13840.17
849.607	13898.7
849.931	13861.87
850.254	13650.57
850.577	13608.99
850.9	13513.85
851.223	13551.37
851.546	13492.84
851.869	13355.89
852.192	13496.68
852.515	13303.92
852.838	13309.57
853.161	13270.92
853.483	13232.96
853.806	13095.56
854.129	13173.07
854.451	13052.85
854.774	13029.35
855.096	12952.51
855.419	13024.6
855.741	12890.59
856.063	12852.85
856.385	12887.2
856.708	12795.68
857.03	12759.52
857.352	12740.77
857.674	12709.81
857.996	12617.15
858.318	12656.7
858.64	12537.61
858.961	12524.73
859.283	12505.97
859.605	12478.4
859.926	12385.07
860.248	12373.77
860.57	12406.54
860.891	12403.6
861.212	12314.56
861.534	12329.48
861.855	12268.91
862.176	12316.6
862.498	12225.53
862.819	12233.89
863.14	12090.39
863.461	12143.95
863.782	12077.96
864.103	12074.12
864.424	12025.53
864.745	12149.82
865.065	11988.47
865.386	11934.69
865.707	11948.7
866.027	11952.54
866.348	11945.76
866.668	11902.14
866.989	11926.55
867.309	11816.5
867.63	11860.56
867.95	11874.12
868.27	11751.64
868.59	11797.97
868.91	11732.66
869.23	11699.89
869.55	11674.35
869.87	11747.35
870.19	11648.82
870.51	11740.57
870.83	11706.9
871.15	11654.92
871.469	11602.94
871.789	11630.51
872.109	11628.03
872.428	11562.72
872.748	11543.74
873.067	11506.9
873.386	11529.05
873.706	11418.99
874.025	11432.33
874.344	11404.08
874.663	11360.24
874.982	11356.62
875.301	11373.12
875.62	11309.84
875.939	11318.21
876.258	11365.89
876.577	11365.44
876.896	11341.93
877.214	11255.83
877.533	11228.94
877.852	11225.33
878.17	11205.89
878.489	11118.66
878.807	11244.53
879.125	11165.67
879.444	11123.41
879.762	11124.76
880.08	11116.18
880.398	11069.4
880.716	11082.28
881.034	10964.32
881.352	11079.79
881.67	11096.29
881.988	10998.44
882.306	10900.82
882.624	10886.8
882.941	10782.63
883.259	10844.09
883.577	10899.23
883.894	10846.58
884.212	10841.16
884.529	10800.7
884.846	10745.56
885.164	10792.34
885.481	10655.17
885.798	10744.44
886.115	10583.31
886.432	10637.32
886.75	10545.34
887.067	10571.33
887.383	10560.49
887.7	10513.25
888.017	10533.14
888.334	10507.38
888.651	10470.77
888.967	10394.16
889.284	10364.56
889.6	10247.27
889.917	10288.85
890.233	10197.56
890.55	10224.67
890.866	10198.46
891.182	10172.7
891.498	10162.98
891.815	10176.77
892.131	10149.42
892.447	10179.7
892.763	10072.81
893.079	10019.03
893.395	10009.54
893.71	9968.86
894.026	9937.68
894.342	9912.14
894.657	9921.63
894.973	9846.38
895.289	9822.88
895.604	9767.51
895.92	9708.53
896.235	9692.49
896.55	9704.91
896.865	9649.55
897.181	9641.19
897.496	9614.75
897.811	9579.49
898.126	9524.81
898.441	9515.09
898.756	9479.61
899.071	9435.54
899.386	9367.52
899.7	9249.11
900.015	9281.87
900.33	9205.04
900.644	9206.62
900.959	9231.93
901.273	9253.85
901.588	9155.32
901.902	9066.06
902.216	9113.29
902.531	9010.02
902.845	9038.94
903.159	8951.49
903.473	8870.59
903.787	8919.85
904.101	8858.83
904.415	8866.97
904.729	8761.44
905.042	8793.75
905.356	8765.73
905.67	8744.26
905.984	8698.84
906.297	8637.37
906.611	8601.44
906.924	8605.06
907.237	8582.68
907.551	8519.18
907.864	8476.47
908.177	8446.42
908.491	8398.73
908.804	8322.13
909.117	8362.8
909.43	8295.69
909.743	8275.12
910.056	8240.77
910.368	8156.48
910.681	8114
910.994	8123.26
911.307	8089.82
911.619	8063.38
911.932	8045.52
912.244	8009.82
912.557	7992.64
912.869	8002.59
913.181	7899.54
913.494	7877.39
913.806	7798.07
914.118	7771.63
914.43	7763.95
914.742	7759.2
915.054	7711.29
915.366	7683.27
915.678	7603.73
915.99	7616.61
916.302	7497.29
916.613	7520.34
916.925	7520.34
917.236	7478.76
917.548	7455.93
917.859	7416.39
918.171	7427.01
918.482	7356.73
918.794	7317.41
919.105	7352.21
919.416	7268.82
919.727	7256.39
920.038	7227.47
920.349	7136.62
920.66	7164.87
920.971	7150.63
921.282	7133.91
921.593	7086.9
921.903	7036.06
922.214	7024.76
922.525	7012.33
922.835	6958.32
923.146	6919.45
923.456	6880.58
923.767	6844.65
924.077	6878.1
924.387	6853.01
924.697	6743.41
925.008	6733.24
925.318	6710.19
925.628	6682.39
925.938	6655.5
926.248	6598.1
926.558	6621.83
926.867	6579.35
927.177	6574.15
927.487	6574.6
927.796	6454.6
928.106	6520.14
928.416	6453.02
928.725	6381.61
929.034	6344.55
929.344	6380.48
929.653	6342.06
929.962	6316.75
930.271	6304.78
930.581	6262.29
930.89	6253.25
931.199	6106.59
931.508	6177.55
931.817	6179.13
932.125	6105.69
932.434	6128.74
932.743	6064.11
933.051	6040.6
933.36	5994.05
933.669	5982.98
933.977	5980.49
934.286	5963.54
934.594	5907.73
934.902	5914.28
935.21	5853.94
935.519	5893.04
935.827	5863.66
936.135	5835.19
936.443	5761.97
936.751	5713.61
937.059	5750.67
937.367	5718.58
937.674	5732.14
937.982	5676.55
938.29	5648.98
938.597	5619.37
938.905	5547.51
939.213	5542.54
939.52	5572.59
939.827	5559.71
940.135	5483.78
940.442	5464.12
940.749	5489.21
941.056	5493.05
941.363	5354.29
941.67	5425.25
941.977	5333.96
942.284	5305.93
942.591	5277.23
942.898	5251.7
943.205	5229.78
943.511	5247.86
943.818	5293.5
944.125	5192.72
944.431	5208.08
944.738	5167.86
945.044	5125.37
945.35	5105.71
945.657	5054.19
945.963	5020.29
946.269	5030.23
946.575	5046.28
946.881	4984.36
947.187	4973.06
947.493	4968.99
947.799	4950.69
948.105	4900.75
948.41	4853.52
948.716	4883.57
949.022	4849.67
949.327	4829.56
949.633	4743.01
949.938	4830.01
950.244	4806.29
950.549	4745.04
950.854	4744.37
951.16	4709.57
951.465	4658.95
951.77	4669.79
952.075	4590.92
952.38	4667.31
952.685	4588.21
952.99	4624.14
953.294	4588.66
953.599	4517.25
953.904	4515.45
954.209	4472.28
954.513	4486.52
954.818	4462.79
955.122	4476.13
955.426	4402.91
955.731	4476.8
956.035	4422.12
956.339	4380.99
956.643	4373.98
956.948	4362.68
957.252	4313.87
957.556	4323.36
957.86	4255.79
958.163	4242.91
958.467	4202.01
958.771	4240.2
959.075	4237.04
959.378	4212.18
959.682	4172.86
959.985	4147.32
960.289	4133.31
960.592	4119.98
960.896	4136.25
961.199	4116.59
961.502	4037.72
961.805	4021.9
962.108	4033.43
962.411	3972.86
962.714	3950.49
963.017	3973.09
963.32	3983.48
963.623	3969.47
963.926	3962.69
964.228	3920.89
964.531	3844.73
964.833	3868.91
965.136	3828.91
965.438	3807.22
965.741	3842.7
966.043	3795.47
966.345	3774.9
966.648	3770.16
966.95	3752.08
967.252	3718.86
967.554	3769.25
967.856	3719.76
968.158	3705.75
968.46	3695.81
968.761	3670.04
969.063	3625.98
969.365	3645.19
969.666	3611.52
969.968	3599.31
970.269	3585.98
970.571	3601.8
970.872	3559.99
971.174	3542.14
971.475	3547.34
971.776	3484.06
972.077	3484.74
972.378	3485.64
972.679	3461.69
972.98	3429.83
973.281	3434.34
973.582	3416.04
973.883	3417.4
974.183	3406.1
974.484	3395.93
974.785	3347.79
975.085	3369.26
975.386	3355.02
975.686	3297.4
975.986	3298.53
976.287	3305.53
976.587	3240.23
976.887	3237.06
977.187	3251.3
977.487	3230.28
977.787	3182.37
978.087	3209.72
978.387	3203.16
978.687	3202.71
978.987	3174.46
979.286	3153.67
979.586	3127.91
979.885	3102.6
980.185	3045.88
980.484	3054.69
980.784	3040.68
981.083	3068.7
981.382	3046.78
981.682	2981.48
981.981	3013.56
982.28	2969.72
982.579	2962.04
982.878	2976.96
983.177	2942.15
983.475	2942.83
983.774	2864.19
984.073	2930.63
984.372	2880.01
984.67	2893.57
984.969	2889.95
985.267	2870.52
985.566	2887.24
985.864	2885.21
986.162	2829.16
986.461	2848.37
986.759	2770.41
987.057	2806.34
987.355	2786
987.653	2774.02
987.951	2774.93
988.249	2775.15
988.547	2758.88
988.844	2694.03
989.142	2710.07
989.44	2682.05
989.737	2691.54
990.035	2656.06
990.332	2630.3
990.63	2628.94
990.927	2623.74
991.224	2622.39
991.521	2609.28
991.819	2636.4
992.116	2626
992.413	2597.76
992.71	2547.14
993.006	2543.29
993.303	2541.03
993.6	2511.43
993.897	2529.74
994.193	2497.65
994.49	2500.13
994.787	2494.48
995.083	2478.89
995.379	2466.46
995.676	2432.56
995.972	2422.17
996.268	2401.15
996.565	2413.81
996.861	2388.95
997.157	2383.98
997.453	2366.8
997.749	2365.9
998.044	2359.57
998.34	2343.53
998.636	2310.98
998.932	2317.09
999.227	2310.31
999.523	2272.12
999.818	2251.55
1000.114	2276.18
1000.409	2257.2
1000.704	2261.27
1001	2229.18
1001.295	2232.79
1001.59	2229.4
1001.885	2154.83
1002.18	2175.39
1002.475	2139.92
1002.77	2170.2
1003.065	2125
1003.359	2129.07
1003.654	2127.94
1003.949	2101.27
1004.243	2091.33
1004.538	2091.33
1004.832	2082.52
1005.127	2074.38
1005.421	2051.56
1005.715	2037.32
1006.009	2031.22
1006.304	2023.08
1006.598	2011.56
1006.892	1967.49
1007.186	1951.45
1007.48	1953.93
1007.773	1944.44
1008.067	1915.74
1008.361	1932.46
1008.655	1897.89
1008.948	1856.76
1009.242	1910.54
1009.535	1861.96
1009.829	1884.33
1010.122	1852.01
1010.415	1872.8
1010.708	1863.31
1011.001	1849.98
1011.295	1830.32
1011.588	1805.46
1011.881	1796.2
1012.173	1782.64
1012.466	1777.44
1012.759	1770.43
1013.052	1764.56
1013.344	1763.2
1013.637	1759.36
1013.93	1734.95
1014.222	1753.71
1014.514	1699.93
1014.807	1705.12
1015.099	1685.46
1015.391	1663.09
1015.683	1674.84
1015.976	1662.64
1016.268	1658.35
1016.56	1629.19
1016.851	1616.77
1017.143	1579.93
1017.435	1622.41
1017.727	1625.8
1018.018	1623.54
1018.31	1578.8
1018.602	1593.49
1018.893	1570.21
1019.185	1564.34
1019.476	1543.55
1019.767	1522.53
1020.058	1546.48
1020.35	1494.06
1020.641	1515.07
1020.932	1483.66
1021.223	1464
1021.514	1480.27
1021.804	1469.65
1022.095	1457.67
1022.386	1438.01
1022.677	1414.51
1022.967	1424.23
1023.258	1408.64
1023.548	1403.21
1023.839	1390.78
1024.129	1368.64
1024.419	1372.93
1024.709	1381.07
1025	1367.05
1025.29	1351.01
1025.58	1319.37
1025.87	1329.99
1026.16	1303.33
1026.449	1318.69
1026.739	1299.26
1027.029	1273.5
1027.319	1299.03
1027.608	1273.95
1027.898	1257.9
1028.187	1255.64
1028.477	1256.1
1028.766	1247.28
1029.055	1263.78
1029.344	1248.87
1029.634	1212.71
1029.923	1203.67
1030.212	1194.18
1030.501	1198.02
1030.79	1188.3
1031.078	1187.17
1031.367	1152.37
1031.656	1154.63
1031.945	1166.38
1032.233	1149.43
1032.522	1140.62
1032.81	1120.73
1033.099	1159.38
1033.387	1107.4
1033.675	1095.88
1033.963	1127.74
1034.251	1107.17
1034.54	1090.23
1034.828	1092.71
1035.116	1079.15
1035.403	1087.97
1035.691	1052.71
1035.979	1056.55
1036.267	1059.49
1036.554	1034.18
1036.842	1017.69
1037.129	1026.5
1037.417	1026.72
1037.704	1026.05
1037.992	1015.43
1038.279	980.85
1038.566	991.92
1038.853	991.92
1039.14	991.92
