Data from hue_340_FLMS001491_35.txt Node
Date: Mon Feb 06 15:43:02 GMT 2017
User: dcchb
Spectrometer: FLMS00149
Trigger mode: 0
Integration Time (sec): 2.000000E-2
Scans to average: 10
Electric dark correction enabled: true
Nonlinearity correction enabled: false
Boxcar width: 0
XAxis mode: Wavelengths
Number of Pixels in Spectrum: 2048
>>>>>Begin Spectral Data<<<<<
341.393	-14.1
341.776	-14.1
342.16	-14.1
342.543	-47.09
342.927	-52.96
343.31	-77.14
343.693	-64.26
344.077	-69.01
344.46	-63.59
344.843	-48.67
345.226	-41.21
345.61	-37.82
345.993	-16.36
346.376	-5.51
346.759	14.15
347.142	31.33
347.525	40.82
347.908	57.54
348.291	57.99
348.674	106.35
349.057	115.39
349.44	141.15
349.823	136.18
350.206	155.17
350.588	194.71
350.971	218.89
351.354	217.54
351.737	241.72
352.119	236.52
352.502	276.07
352.884	282.17
353.267	270.64
353.65	302.73
354.032	308.83
354.414	274.26
354.797	318.32
355.179	321.94
355.562	328.04
355.944	314.48
356.326	315.61
356.709	322.84
357.091	331.43
357.473	316.52
357.855	340.47
358.238	360.36
358.62	351.77
359.002	328.95
359.384	347.7
359.766	315.16
360.148	322.39
360.53	325.56
360.912	328.04
361.294	299.57
361.676	320.36
362.057	348.15
362.439	341.38
362.821	315.16
363.203	315.84
363.584	325.56
363.966	318.32
364.348	308.16
364.729	302.51
365.111	341.6
365.493	297.31
365.874	306.12
366.256	299.79
366.637	294.37
367.019	312
367.4	294.14
367.781	308.83
368.163	324.2
368.544	308.16
368.925	289.4
369.306	316.74
369.688	309.51
370.069	306.35
370.45	309.06
370.831	271.55
371.212	296.4
371.593	326.69
371.974	305.67
372.355	297.53
372.736	316.07
373.117	303.41
373.498	306.35
373.879	295.73
374.26	319.23
374.641	306.35
375.021	290.08
375.402	322.39
375.783	337.53
376.163	304.31
376.544	324.65
376.925	285.78
377.305	302.51
377.686	304.09
378.066	305.22
378.447	331.66
378.827	321.04
379.208	309.74
379.588	335.95
379.968	312.9
380.349	331.21
380.729	318.55
381.109	322.62
381.489	301.15
381.87	318.1
382.25	338.21
382.63	327.36
383.01	314.71
383.39	334.37
383.77	335.05
384.15	345.44
384.53	337.08
384.91	347.7
385.29	331.66
385.67	335.95
386.049	331.66
386.429	346.8
386.809	343.41
387.189	347.02
387.568	343.18
387.948	347.02
388.328	348.15
388.707	351.09
389.087	361.49
389.466	329.4
389.846	335.73
390.225	334.14
390.605	349.74
390.984	352.67
391.363	352.45
391.743	366.46
392.122	359
392.501	354.93
392.881	372.11
393.26	354.03
393.639	357.87
394.018	363.3
394.397	338.44
394.776	362.84
395.155	364.2
395.534	368.04
395.913	367.14
396.292	403.29
396.671	379.11
397.05	373.24
397.429	374.37
397.808	365.1
398.186	368.49
398.565	370.53
398.944	394.26
399.323	362.84
399.701	393.58
400.08	378.44
400.458	368.49
400.837	381.83
401.215	392.22
401.594	404.2
401.972	394.48
402.351	379.11
402.729	365.1
403.107	377.53
403.486	415.5
403.864	375.95
404.242	388.15
404.62	396.74
404.999	392.67
405.377	393.13
405.755	416.4
406.133	399.23
406.511	410.3
406.889	410.3
407.267	415.72
407.645	422.5
408.023	414.59
408.401	400.13
408.779	424.76
409.156	431.77
409.534	422.95
409.912	450.3
410.29	453.91
410.667	438.1
411.045	440.58
411.422	465.44
411.8	448.72
412.178	469.28
412.555	469.96
412.933	496.63
413.31	463.86
413.687	470.19
414.065	460.92
414.442	486.23
414.819	495.95
415.197	480.81
415.574	492.56
415.951	495.95
416.328	513.35
416.705	495.72
417.082	514.03
417.46	529.84
417.837	507.92
418.214	495.27
418.591	518.55
418.967	521.03
419.344	534.14
419.721	524.65
420.098	548.15
420.475	535.49
420.852	565.1
421.228	561.93
421.605	566.91
421.982	568.49
422.358	543.4
422.735	576.17
423.111	570.07
423.488	562.39
423.864	588.6
424.241	582.72
424.617	619.33
424.994	603.97
425.37	611.2
425.746	607.81
426.123	609.39
426.499	612.78
426.875	594.48
427.251	638.32
427.627	638.77
428.003	625.44
428.379	648.71
428.756	635.6
429.132	636.28
429.507	638.54
429.883	648.49
430.259	665.21
430.635	672.21
431.011	669.73
431.387	694.13
431.763	684.87
432.138	685.09
432.514	684.42
432.89	684.87
433.265	697.52
433.641	751.31
434.016	717.18
434.392	714.25
434.767	749.73
435.143	736.17
435.518	740.91
435.894	750.18
436.269	766.45
436.644	780.23
437.02	781.59
437.395	775.26
437.77	793.11
438.145	779.56
438.52	796.5
438.895	815.71
439.271	814.13
439.646	791.08
440.021	819.55
440.395	839.89
440.77	819.78
441.145	824.53
441.52	857.29
441.895	828.59
442.27	857.29
442.645	850.29
443.019	853.23
443.394	858.42
443.769	853.9
444.143	849.84
444.518	887.35
444.892	864.75
445.267	867.24
445.641	883.51
446.016	886.67
446.39	894.36
446.764	869.72
447.139	868.37
447.513	899.33
447.887	914.47
448.262	908.82
448.636	885.54
449.01	896.16
449.384	923.05
449.758	928.7
450.132	932.77
450.506	917.86
450.88	944.07
451.254	911.98
451.628	946.78
452.002	941.13
452.376	977.06
452.75	956.5
453.123	951.53
453.497	987.46
453.871	963.96
454.244	1005.09
454.618	969.16
454.992	999.21
455.365	1019.1
455.739	1035.14
456.112	1036.5
456.486	1046.22
456.859	1034.46
457.232	1034.92
457.606	1021.36
457.979	1045.76
458.352	1062.71
458.725	1094.58
459.099	1111.98
459.472	1119.21
459.845	1119.66
460.218	1126.67
460.591	1114.69
460.964	1132.99
461.337	1158.08
461.71	1154.91
462.083	1172.77
462.456	1181.35
462.829	1174.57
463.201	1197.4
463.574	1201.47
463.947	1217.74
464.32	1222.03
464.692	1243.5
465.065	1243.27
465.438	1258.64
465.81	1268.81
466.183	1304.97
466.555	1277.17
466.928	1323.95
467.3	1278.53
467.672	1346.09
468.045	1337.73
468.417	1365.76
468.789	1341.57
469.161	1346.77
469.534	1386.55
469.906	1417.51
470.278	1428.35
470.65	1428.13
471.022	1444.4
471.394	1469.26
471.766	1489.59
472.138	1525.3
472.51	1511.29
472.882	1526.43
473.253	1549.71
473.625	1572.08
473.997	1608.69
474.369	1619.76
474.74	1633.09
475.112	1639.42
475.484	1650.49
475.855	1698.4
476.227	1714.67
476.598	1734.33
476.97	1772.75
477.341	1794.9
477.713	1817.95
478.084	1837.38
478.455	1882.35
478.827	1901.56
479.198	1920.32
479.569	1930.71
479.94	2000.99
480.311	1996.92
480.682	2024.04
481.053	2073.53
481.424	2091.84
481.795	2120.99
482.166	2152.85
482.537	2127.54
482.908	2199.41
483.279	2233.75
483.65	2245.96
484.021	2311.27
484.391	2308.1
484.762	2315.33
485.133	2358.27
485.503	2379.51
485.874	2447.08
486.244	2458.38
486.615	2485.73
486.985	2509
487.356	2578.83
487.726	2617.93
488.097	2620.19
488.467	2652.5
488.837	2668.32
489.207	2672.39
489.578	2767.07
489.948	2757.81
490.318	2800.29
490.688	2771.14
491.058	2874.87
491.428	2864.25
491.798	2901.31
492.168	2937.69
492.538	2969.78
492.908	3004.58
493.278	3014.3
493.648	3033.28
494.017	3076.44
494.387	3140.17
494.757	3116.44
495.126	3118.25
495.496	3182.66
495.866	3199.38
496.235	3218.59
496.605	3244.8
496.974	3234.63
497.344	3291.58
497.713	3319.15
498.082	3342.88
498.452	3340.62
498.821	3376.32
499.19	3380.84
499.559	3429.43
499.928	3433.72
500.298	3473.95
500.667	3486.83
501.036	3435.76
501.405	3495.87
501.774	3484.57
502.143	3524.57
502.512	3567.73
502.88	3565.7
503.249	3598.92
503.618	3595.53
503.987	3616.09
504.356	3636.66
504.724	3646.37
505.093	3605.47
505.462	3652.7
505.83	3699.7
506.199	3723.66
506.567	3680.27
506.936	3757.1
507.304	3842.75
507.672	3779.25
508.041	3805.69
508.409	3801.62
508.777	3836.88
509.145	3845.24
509.514	3834.84
509.882	3892.47
510.25	3870.55
510.618	3910.55
510.986	3919.36
511.354	3944.67
511.722	3971.34
512.09	3955.97
512.458	3984.9
512.826	3990.32
513.193	4017.44
513.561	4041.39
513.929	4042.97
514.297	4045.01
514.664	4094.95
515.032	4115.74
515.4	4134.04
515.767	4098.56
516.135	4112.8
516.502	4139.69
516.869	4168.39
517.237	4192.8
517.604	4147.6
517.972	4181.73
518.339	4183.99
518.706	4216.3
519.073	4221.73
519.44	4218.79
519.808	4250.65
520.175	4263.53
520.542	4251.78
520.909	4334.94
521.276	4291.55
521.643	4330.87
522.009	4321.16
522.376	4376.07
522.743	4377.65
523.11	4422.17
523.477	4419.46
523.843	4428.5
524.21	4491.55
524.577	4465.33
524.943	4473.92
525.31	4529.74
525.676	4593.69
526.043	4577.42
526.409	4615.39
526.776	4609.74
527.142	4652.45
527.508	4664.88
527.874	4678.89
528.241	4698.1
528.607	4700.13
528.973	4754.14
529.339	4774.25
529.705	4810.86
530.071	4840.01
530.437	4827.13
530.803	4876.17
531.169	4909.62
531.535	4884.53
531.901	4929.5
532.267	4928.15
532.632	4927.7
532.998	4969.28
533.364	5018.54
533.73	5042.27
534.095	5109.61
534.461	5052.89
534.826	5094.92
535.192	5101.48
535.557	5200.23
535.923	5168.37
536.288	5177.86
536.653	5241.59
537.019	5207.46
537.384	5194.81
537.749	5236.16
538.114	5237.52
538.479	5313
538.845	5267.57
539.21	5261.47
539.575	5317.06
539.94	5319.78
540.305	5344.63
540.67	5368.36
541.034	5378.98
541.399	5427.34
541.764	5456.04
542.129	5475.48
542.494	5536.27
542.858	5542.37
543.223	5520
543.587	5561.58
543.952	5592.08
544.316	5614
544.681	5607.9
545.045	5708.24
545.41	5681.12
545.774	5701.69
546.138	5715.47
546.503	5757.96
546.867	5748.92
547.231	5822.36
547.595	5819.65
547.959	5781.01
548.324	5837.73
548.688	5804.51
549.052	5913.21
549.416	5820.55
549.779	5811.97
550.143	5941.91
550.507	5969.25
550.871	5965.63
551.235	5957.27
551.599	5981.45
551.962	6039.3
552.326	6055.12
552.689	6044.05
553.053	6068.23
553.417	6057.16
553.78	6180.09
554.143	6125.18
554.507	6152.75
554.87	6177.83
555.234	6285.85
555.597	6243.82
555.96	6222.8
556.323	6254.44
556.686	6293.08
557.05	6279.52
557.413	6286.98
557.776	6360.43
558.139	6402.46
558.502	6309.58
558.865	6381.89
559.228	6395.91
559.59	6427.54
559.953	6437.49
560.316	6456.24
560.679	6497.37
561.041	6533.3
561.404	6566.97
561.767	6583.47
562.129	6537.82
562.492	6594.54
562.854	6644.94
563.217	6600.87
563.579	6642.9
563.941	6698.04
564.304	6637.48
564.666	6646.75
565.028	6726.52
565.39	6761.55
565.753	6809.45
566.115	6790.47
566.477	6814.88
566.839	6865.72
567.201	6918.15
567.563	6895.33
567.925	6904.82
568.287	6915.44
568.648	6947.98
569.01	6959.96
569.372	6984.36
569.734	7024.36
570.095	7109.11
570.457	7145.26
570.819	7173.29
571.18	7097.58
571.542	7277.24
571.903	7231.36
572.265	7315.66
572.626	7307.29
572.987	7335.54
573.349	7377.8
573.71	7433.62
574.071	7493.5
574.432	7515.88
574.794	7631.8
575.155	7573.05
575.516	7679.49
575.877	7745.25
576.238	7777.56
576.599	7863.66
576.96	7897.79
577.32	7931.91
577.681	8052.36
578.042	8123.77
578.403	8184.33
578.763	8140.72
579.124	8341.84
579.485	8432.01
579.845	8588.16
580.206	8568.73
580.566	8622.51
580.927	8765.33
581.287	8852.56
581.648	9079
582.008	9201.03
582.368	9286.45
582.728	9377.3
583.089	9539.33
583.449	9622.94
583.809	9785.65
584.169	10013.21
584.529	10112.64
584.889	10428.57
585.249	10399.19
585.609	10611.16
585.969	10779.07
586.329	10948.33
586.688	11200.52
587.048	11358.71
587.408	11508.09
587.768	11731.36
588.127	11891.35
588.487	12150.1
588.846	12413.83
589.206	12529.53
589.565	12746.47
589.925	13132.9
590.284	13222.39
590.643	13444.76
591.003	13777.63
591.362	14037.06
591.721	14251.29
592.08	14482.25
592.44	14842.46
592.799	15086.98
593.158	15302.79
593.517	15446.06
593.876	15806.05
594.235	16028.65
594.593	16321.97
594.952	16605.13
595.311	16864.56
595.67	17169.18
596.029	17548.38
596.387	17666.34
596.746	18129.83
597.104	18231.53
597.463	18432.42
597.822	18921.68
598.18	19077.61
598.538	19336.58
598.897	19598.95
599.255	19858.83
599.613	20322.54
599.972	20496.33
600.33	20696.09
600.688	21049.53
601.046	21236.87
601.404	21671.21
601.762	21884.31
602.12	22164.98
602.478	22418.08
602.836	22649.94
603.194	22731.97
603.552	23099.42
603.91	23195.46
604.268	23552.06
604.625	23715
604.983	24048.55
605.341	24200.18
605.698	24615.54
606.056	24772.37
606.413	24956.1
606.771	25187.95
607.128	25526.48
607.485	25562.18
607.843	26007.37
608.2	26226.12
608.557	26422.72
608.914	26542.04
609.272	26764.41
609.629	27105.42
609.986	27363.72
610.343	27416.14
610.7	27700.2
611.057	27934.55
611.414	27916.02
611.771	28275.56
612.127	28482.33
612.484	28570.69
612.841	28792.83
613.198	28904.69
613.554	29043.67
613.911	29499.25
614.267	29499.7
614.624	29554.84
614.98	29858.57
615.337	30007.94
615.693	30226.24
616.05	30014.72
616.406	30494.25
616.762	30577.42
617.118	30713.46
617.475	30822.16
617.831	31019.89
618.187	31171.75
618.543	31380.56
618.899	31529.26
619.255	31648.57
619.611	31708.23
619.967	31933.31
620.323	32094.44
620.678	32200.2
621.034	32077.72
621.39	32137.83
621.746	32329.23
622.101	32793.63
622.457	32630.24
622.812	32787.53
623.168	32795.89
623.523	32931.93
623.879	33109.55
624.234	32899.16
624.589	33103.9
624.945	33252.15
625.3	33297.57
625.655	33285.59
626.01	33527.4
626.365	33579.6
626.72	33608.3
627.075	33748.86
627.43	33701.85
627.785	33635.87
628.14	33785.24
628.495	33822.75
628.85	33799.25
629.205	33798.12
629.559	33987.72
629.914	33833.83
630.269	33971
630.623	33991.56
630.978	33932.36
631.332	34182.07
631.687	34200.15
632.041	34101.17
632.396	34192.91
632.75	34053.71
633.104	34196.53
633.459	34102.3
633.813	34199.02
634.167	34274.04
634.521	34279.47
634.875	34276.75
635.229	34254.38
635.583	34053.94
635.937	34175.29
636.291	34111.56
636.645	34210.09
636.999	34159.02
637.352	34392.46
637.706	34238.56
638.06	34332.57
638.413	34263.87
638.767	34249.64
639.121	34170.09
639.474	34024.33
639.828	34052.35
640.181	34236.98
640.534	34302.97
640.888	34196.76
641.241	33965.12
641.594	34184.33
641.947	34226.36
642.301	34086.02
642.654	34116.31
643.007	34190.65
643.36	34139.81
643.713	34068.62
644.066	34183.65
644.419	34164.89
644.771	33649.88
645.124	33525.36
645.477	33418.02
645.83	33323.11
646.182	33165.14
646.535	33071.59
646.888	33213.96
647.24	32973.74
647.593	33147.52
647.945	33118.37
648.298	32883.57
648.65	32839.28
649.002	32752.5
649.355	33023.68
649.707	33131.7
650.059	33061.64
650.411	33497.34
650.763	33649.43
651.115	33912.92
651.467	33743.66
651.819	33776.65
652.171	33723.32
652.523	33664.57
652.875	33693.94
653.227	33510.9
653.578	33805.81
653.93	33695.53
654.282	33491.46
654.633	33483.78
654.985	33508.64
655.337	33597.45
655.688	33547.51
656.039	33616.21
656.391	33323.11
656.742	33504.12
657.094	33513.38
657.445	33703.66
657.796	33616.43
658.147	33371.02
658.498	33396.1
658.849	33450.34
659.2	33588.41
659.551	33358.59
659.902	33428.19
660.253	33408.53
660.604	33456.89
660.955	33272.49
661.306	33388.42
661.656	33402.88
662.007	33227.29
662.358	33272.71
662.708	33364.91
663.059	33302.54
663.409	33304.58
663.76	33476.78
664.11	33321.75
664.461	33362.43
664.811	33465.7
665.161	33314.52
665.511	33270.9
665.862	33289.66
666.212	33447.62
666.562	33364.46
666.912	33302.77
667.262	33173.05
667.612	33257.57
667.962	33305.03
668.312	33184.13
668.662	33326.04
669.011	33279.04
669.361	33234.75
669.711	33258.02
670.06	33056.9
670.41	33162.21
670.76	33062.55
671.109	33175.09
671.459	33080.63
671.808	33076.11
672.157	33105.26
672.507	33005.6
672.856	32976
673.205	32899.39
673.554	33100.06
673.904	33095.99
674.253	33234.52
674.602	33117.91
674.951	32680.19
675.3	32365.17
675.649	32978.71
675.998	32981.19
676.346	32909.78
676.695	33060.74
677.044	32802.44
677.393	32885.83
677.741	32921.99
678.09	32810.35
678.438	32746.62
678.787	32777.81
679.135	32808.54
679.484	32593.18
679.832	32804.02
680.181	32492.85
680.529	32701.88
680.877	32583.01
681.225	32507.31
681.573	32798.6
681.922	32430.7
682.27	32332.62
682.618	32403.36
682.966	32249.46
683.314	32311.61
683.661	32267.77
684.009	32149.8
684.357	32059.64
684.705	31969.7
685.053	32027.77
685.4	31939.64
685.748	31823.26
686.095	31890.83
686.443	31738.97
686.79	31838.4
687.138	31706.65
687.485	31678.4
687.832	31524.96
688.18	31710.27
688.527	31441.57
688.874	31520.22
689.221	31465.98
689.568	31366.1
689.915	31263.27
690.262	31322.93
690.609	31195.71
690.956	31114.13
691.303	31088.14
691.65	30949.16
691.997	30977.63
692.344	30764.76
692.69	30594.59
693.037	30615.61
693.383	30405.22
693.73	30641.6
694.077	30386.23
694.423	30279.35
694.769	30321.38
695.116	30133.13
695.462	30155.96
695.808	30053.14
696.155	30069.41
696.501	29848.17
696.847	29836.42
697.193	29718.23
697.539	29823.76
697.885	29591.45
698.231	29460.16
698.577	29493.15
698.923	29376.77
699.269	29285.92
699.614	29235.98
699.96	29081.18
700.306	29034.18
700.651	29073.28
700.997	28858.37
701.342	28909.21
701.688	28894.07
702.033	28708.76
702.379	28655.88
702.724	28601.42
703.069	28677.81
703.415	28330.92
703.76	28397.59
704.105	28452.27
704.45	28263.58
704.795	28186.07
705.14	28105.62
705.485	28050.48
705.83	27945.17
706.175	28037.6
706.52	27905.4
706.865	27829.24
707.209	27826.75
707.554	27643.71
707.899	27721.9
708.243	27517.61
708.588	27478.29
708.932	27351.51
709.277	27264.74
709.621	27312.87
709.966	27278.75
710.31	27290.05
710.654	27134.57
710.998	27058.41
711.342	27000.11
711.687	26977.06
712.031	26926.44
712.375	26877.63
712.719	26929.15
713.063	26794.24
713.407	26860.9
713.75	26734.13
714.094	26623.62
714.438	26604.87
714.782	26537.97
715.125	26366.45
715.469	26467.47
715.812	26251.2
716.156	26107.93
716.499	26195.84
716.843	26324.65
717.186	26112.45
717.53	26198.32
717.873	26072.22
718.216	26146.57
718.559	26018.21
718.902	25754.27
719.246	25838.33
719.589	25844.89
719.932	25740.03
720.275	25692.12
720.617	25720.82
720.96	25714.72
721.303	25577.55
721.646	25620.94
721.989	25436.53
722.331	25505.91
722.674	25465.69
723.016	25559.24
723.359	25360.6
723.701	25373.94
724.044	25183.66
724.386	25168.07
724.729	25179.59
725.071	25227.73
725.413	25142.76
725.755	25123.32
726.097	25035.19
726.439	24754.97
726.782	24861.41
727.124	24861.18
727.465	24865.25
727.807	24861.63
728.149	24741.86
728.491	24700.51
728.833	24836.78
729.175	24629.55
729.516	24589.1
729.858	24573.73
730.199	24556.11
730.541	24618.48
730.882	24506.84
731.224	24577.12
731.565	24391.82
731.906	24415.32
732.248	24366.05
732.589	24347.75
732.93	24195.21
733.271	24248.32
733.612	24270.69
733.953	24234.08
734.294	24160.64
734.635	24153.63
734.976	24155.44
735.317	23990.24
735.658	24034.76
735.999	24049
736.339	24006.29
736.68	23959.06
737.021	23835.22
737.361	23795.22
737.702	24025.95
738.042	23859.85
738.383	23784.83
738.723	23800.42
739.063	23615.57
739.404	23726.75
739.744	23641.1
740.084	23624.6
740.424	23711.16
740.764	23478.17
741.104	23604.27
741.444	23439.52
741.784	23422.8
742.124	23428.23
742.464	23452.63
742.804	23322.01
743.143	23324.73
743.483	23329.02
743.823	23249.93
744.162	23189.81
744.502	23283.14
744.841	23143.94
745.181	23190.94
745.52	23168.57
745.86	23136.26
746.199	23122.7
746.538	22926.77
746.877	23110.27
747.216	23087.22
747.556	22964.06
747.895	23040.67
748.234	22844.96
748.573	22845.64
748.911	22782.37
749.25	22753.67
749.589	22712.54
749.928	22754.8
750.267	22762.03
750.605	22637.74
750.944	22636.16
751.283	22595.93
751.621	22652.43
751.96	22511.41
752.298	22463.51
752.636	22488.82
752.975	22366.78
753.313	22296.05
753.651	22377.86
753.989	22265.32
754.327	22233.91
754.666	22063.97
755.004	22165.21
755.342	22121.14
755.679	22049.28
756.017	21990.98
756.355	22048.6
756.693	21941.71
757.031	21894.03
757.368	21798.44
757.706	21696.97
758.044	21690.19
758.381	21742.17
758.719	21614.26
759.056	21660.36
759.394	21462.63
759.731	21288.17
760.068	21283.2
760.405	21184.22
760.743	21284.33
761.08	21351.22
761.417	21091.34
761.754	21080.49
762.091	21029.42
762.428	20939.03
762.765	20804.79
763.102	20887.05
763.438	20708.52
763.775	20686.83
764.112	20737.68
764.449	20785.36
764.785	20567.06
765.122	20494.29
765.458	20369.32
765.795	20371.81
766.131	20310.12
766.467	20220.63
766.804	20204.58
767.14	20025.15
767.476	20147.63
767.812	19978.82
768.148	19973.18
768.485	19806.85
768.821	19773.41
769.157	19743.8
769.492	19730.7
769.828	19653.86
770.164	19496.13
770.5	19439.63
770.836	19481.66
771.171	19361.44
771.507	19262.23
771.842	19203.25
772.178	19238.51
772.513	19104.05
772.849	19090.49
773.184	19008
773.519	19064.72
773.855	18842.58
774.19	18791.06
774.525	18804.39
774.86	18695.02
775.195	18766.88
775.53	18565.08
775.865	18582.7
776.2	18288.7
776.535	18209.61
776.87	18196.95
777.205	18102.49
777.539	18127.57
777.874	18135.71
778.209	17859.56
778.543	17983.85
778.878	17814.59
779.212	17776.85
779.547	17757.87
779.881	17789.5
780.215	17668.15
780.55	17570.3
780.884	17501.15
781.218	17387.93
781.552	17465.9
781.886	17317.2
782.22	17203.98
782.554	17176.86
782.888	17053.93
783.222	16877.21
783.556	16909.08
783.889	16859.58
784.223	16743.43
784.557	16728.29
784.89	16817.1
785.224	16614.17
785.557	16659.36
785.891	16489.2
786.224	16573.04
786.558	16467.5
786.891	16342.76
787.224	16264.8
787.557	16273.39
787.891	16218.92
788.224	16119.49
788.557	16115.42
788.89	16081.53
789.223	16041.3
789.556	15871.36
789.888	15882.44
790.221	15806.96
790.554	15735.77
790.887	15773.06
791.219	15677.92
791.552	15554.99
791.884	15608.32
792.217	15540.07
792.549	15379.17
792.882	15354.09
793.214	15354.09
793.546	15290.59
793.879	15248.33
794.211	15140.08
794.543	15191.15
794.875	15096.47
795.207	15145.96
795.539	15058.05
795.871	15058.5
796.203	14878.39
796.535	14705.29
796.867	14806.08
797.198	14800.43
797.53	14774.67
797.862	14505.97
798.193	14679.53
798.525	14571.74
798.856	14595.92
799.188	14451.51
799.519	14322.48
799.85	14332.87
800.182	14352.53
800.513	14344.4
800.844	14200.9
801.175	14209.94
801.506	14169.94
801.837	14053.56
802.168	14068.47
802.499	14147.11
802.83	13990.06
803.161	13906.22
803.491	13913
803.822	13914.13
804.153	13737.86
804.483	13657.41
804.814	13659.22
805.145	13722.27
805.475	13679.56
805.805	13618.77
806.136	13581.71
806.466	13584.19
806.796	13464.42
807.126	13465.1
807.457	13386.91
807.787	13460.8
808.117	13287.93
808.447	13266.91
808.777	13300.58
809.107	13263.97
809.436	13248.61
809.766	13222.62
810.096	13173.35
810.426	13149.63
810.755	13146.46
811.085	13034.37
811.414	13078.44
811.744	12946.92
812.073	12859.46
812.403	12897.2
812.732	12774.49
813.061	12828.05
813.39	12798
813.719	12790.77
814.049	12770.2
814.378	12659.24
814.707	12669.41
815.036	12657.44
815.365	12556.65
815.693	12544.22
816.022	12428.97
816.351	12418.35
816.68	12391
817.008	12394.62
817.337	12284.79
817.665	12293.6
817.994	12323.66
818.322	12282.53
818.651	12221.97
818.979	12173.15
819.307	12229.42
819.636	12176.09
819.964	12111.69
820.292	12188.97
820.62	12132.03
820.948	12088.41
821.276	12130.44
821.604	12019.71
821.932	12080.95
822.259	12002.31
822.587	12054.51
822.915	12128.64
823.243	12140.61
823.57	12035.53
823.898	12016.1
824.225	11987.62
824.553	11976.1
824.88	11980.17
825.207	12058.58
825.535	11993.05
825.862	11985.59
826.189	11924.8
826.516	12019.49
826.843	12018.13
827.17	12050.9
827.497	12043.89
827.824	11983.78
828.151	12024.46
828.478	11971.13
828.805	12113.5
829.131	11987.4
829.458	12013.61
829.785	11978.13
830.111	11944.46
830.438	11976.32
830.764	12019.26
831.09	11974.06
831.417	11920.05
831.743	11936.78
832.069	11967.96
832.395	11915.76
832.722	11920.96
833.048	11872.82
833.374	11907.62
833.7	11837.8
834.026	11882.77
834.351	11910.79
834.677	11885.93
835.003	11892.71
835.329	11842.32
835.654	11821.75
835.98	11858.81
836.306	11826.72
836.631	11783.79
836.956	11821.07
837.282	11726.39
837.607	11717.12
837.932	11693.85
838.258	11722.54
838.583	11647.52
838.908	11587.86
839.233	11656.56
839.558	11572.04
839.883	11547.41
840.208	11475.32
840.533	11575.43
840.858	11512.15
841.182	11504.47
841.507	11469.67
841.832	11439.61
842.156	11404.14
842.481	11355.55
842.805	11404.59
843.13	11336.79
843.454	11306.74
843.778	11309.67
844.103	11190.13
844.427	11227.42
844.751	11194.2
845.075	11155.78
845.399	11222.22
845.723	10985.62
846.047	11031.04
846.371	11012.28
846.695	11076.91
847.019	10916.69
847.343	10919.63
847.666	10818.61
847.99	10753.76
848.313	10772.97
848.637	10713.08
848.96	10677.15
849.284	10676.47
849.607	10636.02
849.931	10567.32
850.254	10518.73
850.577	10473.09
850.9	10381.34
851.223	10391.05
851.546	10305.18
851.869	10216.6
852.192	10308.57
852.515	10209.36
852.838	10187.22
853.161	10121.01
853.483	10075.58
853.806	10051.85
854.129	10082.14
854.451	10064.51
854.774	9928.69
855.096	9884.85
855.419	9872.65
855.741	9905.64
856.063	9795.82
856.385	9839.2
856.708	9732.09
857.03	9780.22
857.352	9715.14
857.674	9657.97
857.996	9664.75
858.318	9556.73
858.64	9574.35
858.961	9616.39
859.283	9562.6
859.605	9429.95
859.926	9539.33
860.248	9412.32
860.57	9403.28
860.891	9485.32
861.212	9441.7
861.534	9340.69
861.855	9384.53
862.176	9361.93
862.498	9351.99
862.819	9328.26
863.14	9287.58
863.461	9326.45
863.782	9266.79
864.103	9201.03
864.424	9247.58
864.745	9190.86
865.065	9215.94
865.386	9163.52
865.707	9155.61
866.027	9146.12
866.348	9131.2
866.668	9146.34
866.989	9085.33
867.309	9070.41
867.63	9090.52
867.95	9089.85
868.27	8949.06
868.59	9005.33
868.91	8983.41
869.23	8958.78
869.55	8916.52
869.87	8905.9
870.19	8958.78
870.51	8931.66
870.83	8909.29
871.15	8908.61
871.469	8847.14
871.789	8787.71
872.109	8906.12
872.428	8797.65
872.748	8864.54
873.067	8815.95
873.386	8810.08
873.706	8789.29
874.025	8697.54
874.344	8753.58
874.663	8696.64
874.982	8700.93
875.301	8701.61
875.62	8717.88
875.939	8645.11
876.258	8724.21
876.577	8667.71
876.896	8607.6
877.214	8606.47
877.533	8629.29
877.852	8588.62
878.17	8582.97
878.489	8581.61
878.807	8576.64
879.125	8568.28
879.444	8528.5
879.762	8531.89
880.08	8424.55
880.398	8475.17
880.716	8484.21
881.034	8431.56
881.352	8429.75
881.67	8455.96
881.988	8427.26
882.306	8365.12
882.624	8389.07
882.941	8285.8
883.259	8307.27
883.577	8279.7
883.894	8243.09
884.212	8181.4
884.529	8169.42
884.846	8184.33
885.164	8198.34
885.481	8138.01
885.798	8098.69
886.115	8098.69
886.432	8108.63
886.75	8077.67
887.067	8066.37
887.383	8029.76
887.7	8054.84
888.017	8000.16
888.334	7970.78
888.651	8038.57
888.967	7942.31
889.284	7953.38
889.6	7882.42
889.917	7887.84
890.233	7881.52
890.55	7845.81
890.866	7882.19
891.182	7816.21
891.498	7745.93
891.815	7759.94
892.131	7722.65
892.447	7719.94
892.763	7702.76
893.079	7681.52
893.395	7640.17
893.71	7634.97
894.026	7588.87
894.342	7613.27
894.657	7552.26
894.973	7595.2
895.289	7550.9
895.604	7493.28
895.92	7446.73
896.235	7420.29
896.55	7427.97
896.865	7415.31
897.181	7385.71
897.496	7371.25
897.811	7353.39
898.126	7347.97
898.441	7281.76
898.756	7257.58
899.071	7213.51
899.386	7262.55
899.7	7184.81
900.015	7187.75
900.33	7065.94
900.644	7088.32
900.959	7103.68
901.273	7018.04
901.588	7054.87
901.902	7020.07
902.216	6970.81
902.531	7013.97
902.845	6907.76
903.159	6912.05
903.473	6901.43
903.787	6859.85
904.101	6799.28
904.415	6762.68
904.729	6790.92
905.042	6681.77
905.356	6680.64
905.67	6708.67
905.984	6713.86
906.297	6672.73
906.611	6642.68
906.924	6575.79
907.237	6573.08
907.551	6547.99
907.864	6496.69
908.177	6508.44
908.491	6491.72
908.804	6449.69
909.117	6426.86
909.43	6368.56
909.743	6348.22
910.056	6345.29
910.368	6299.18
910.681	6247.66
910.994	6255.57
911.307	6245.4
911.619	6168.34
911.932	6195.68
912.244	6142.13
912.557	6157.27
912.869	6157.27
913.181	6076.14
913.494	6068.23
913.806	6079.3
914.118	6011.96
914.43	6042.69
914.742	5971.06
915.054	5910.04
915.366	5940.55
915.678	5948.91
915.99	5893.09
916.302	5834.34
916.613	5820.78
916.925	5793.21
917.236	5817.16
917.548	5734.45
917.859	5731.29
918.171	5656.94
918.482	5710.95
918.794	5678.86
919.105	5660.33
919.416	5631.41
919.727	5594.12
920.038	5584.18
920.349	5568.81
920.66	5508.47
920.971	5500.56
921.282	5493.56
921.593	5450.17
921.903	5401.36
922.214	5421.47
922.525	5433.67
922.835	5402.26
923.146	5359.55
923.456	5314.13
923.767	5303.5
924.077	5309.83
924.387	5271.87
924.697	5239.33
925.008	5210.63
925.318	5209.04
925.628	5195.48
925.938	5136.96
926.248	5112.32
926.558	5154.58
926.867	5085.43
927.177	5113.45
927.487	4994.59
927.796	4989.39
928.106	5016.28
928.416	5001.59
928.725	4964.76
929.034	4915.04
929.344	4967.47
929.653	4863.29
929.962	4839.34
930.271	4846.34
930.581	4798.43
930.89	4828.49
931.199	4820.13
931.508	4747.59
931.817	4772.67
932.125	4721.82
932.434	4766.12
932.743	4675.72
933.051	4645.44
933.36	4666.01
933.669	4606.12
933.977	4619.45
934.286	4579
934.594	4546.69
934.902	4573.13
935.21	4529.51
935.519	4509.18
935.827	4481.38
936.135	4456.75
936.443	4431.89
936.751	4469.4
937.059	4432.12
937.367	4356.41
937.674	4407.71
937.982	4380.59
938.29	4376.75
938.597	4381.27
938.905	4279.58
939.213	4301.95
939.52	4273.7
939.827	4282.97
940.135	4246.58
940.442	4207.94
940.749	4210.88
941.056	4231.22
941.363	4187.38
941.67	4165.68
941.977	4140.82
942.284	4116.64
942.591	4116.19
942.898	4082.29
943.205	4075.97
943.511	4079.36
943.818	4014.72
944.125	4045.23
944.431	4020.15
944.738	4015.85
945.044	3924.11
945.35	3933.82
945.657	3925.24
945.963	3935.63
946.269	3895.18
946.575	3889.98
946.881	3847.05
947.187	3839.36
947.493	3800.49
947.799	3824.22
948.105	3801.85
948.41	3769.99
948.716	3789.42
949.022	3782.41
949.327	3741.74
949.633	3738.57
949.938	3701.29
950.244	3664.9
950.549	3686.15
950.854	3662.87
951.16	3614.51
951.465	3652.7
951.77	3614.06
952.075	3603.21
952.38	3581.29
952.685	3551.91
952.99	3566.38
953.294	3547.62
953.599	3522.31
953.904	3504
954.209	3494.29
954.513	3473.27
954.818	3444.57
955.122	3458.36
955.426	3432.82
955.731	3414.29
956.035	3377.45
956.339	3384.23
956.643	3333.61
956.948	3342.88
957.252	3318.92
957.556	3352.82
957.86	3334.06
958.163	3316.66
958.467	3281.86
958.771	3308.98
959.075	3270.11
959.378	3258.13
959.682	3242.77
959.985	3218.36
960.289	3215.65
960.592	3185.59
960.896	3203.67
961.199	3162.32
961.502	3145.6
961.805	3145.6
962.108	3094.98
962.411	3107.4
962.714	3052.26
963.017	3078.7
963.32	3067.41
963.623	3090.46
963.926	3057.01
964.228	3014.53
964.531	3020.4
964.833	3014.3
965.136	2976.79
965.438	2988.31
965.741	2943.79
966.043	2937.24
966.345	2927.3
966.648	2912.38
966.95	2962.32
967.252	2930.91
967.554	2924.13
967.856	2865.15
968.158	2864.02
968.46	2883.91
968.761	2844.36
969.063	2846.39
969.365	2788.99
969.666	2799.62
969.968	2780.86
970.269	2774.53
970.571	2767.07
970.872	2757.58
971.174	2738.6
971.475	2740.18
971.776	2703.12
972.077	2719.17
972.378	2700.64
972.679	2697.25
972.98	2679.84
973.281	2641.2
973.582	2637.13
973.883	2648.21
974.183	2647.3
974.484	2626.96
974.785	2599.39
975.085	2603.91
975.386	2581.77
975.686	2570.02
975.986	2573.63
976.287	2583.12
976.587	2556.46
976.887	2561.43
977.187	2574.99
977.487	2486.18
977.787	2505.61
978.087	2502
978.387	2471.26
978.687	2466.97
978.987	2483.47
979.286	2431.26
979.586	2440.76
979.885	2402.11
980.185	2405.5
980.484	2416.8
980.784	2393.52
981.083	2345.62
981.382	2401.43
981.682	2373.41
981.981	2393.3
982.28	2314.66
982.579	2336.35
982.878	2308.33
983.177	2309.69
983.475	2326.86
983.774	2267.65
984.073	2285.96
984.372	2277.82
984.67	2245.28
984.969	2252.74
985.267	2247.09
985.566	2259.52
985.864	2195.56
986.162	2216.13
986.461	2204.83
986.759	2236.92
987.057	2221.55
987.355	2144.72
987.653	2173.87
987.951	2184.49
988.249	2128.67
988.547	2136.81
988.844	2144.72
989.142	2131.16
989.44	2111.27
989.737	2114.89
990.035	2079.63
990.332	2107.2
990.63	2086.64
990.927	2048.22
991.224	2070.82
991.521	2059.07
991.819	2026.75
992.116	2021.56
992.413	2011.16
992.71	2008
993.006	2004.16
993.303	1985.85
993.6	1985.63
993.897	1958.96
994.193	1980.43
994.49	1964.84
994.787	1953.31
995.083	1976.59
995.379	1931.84
995.676	1925.74
995.972	1908.11
996.268	1896.59
996.565	1892.52
996.861	1869.47
997.157	1891.39
997.453	1850.26
997.749	1861.11
998.044	1836.48
998.34	1841.67
998.636	1836.48
998.932	1817.49
999.227	1776.14
999.523	1811.39
999.818	1788.12
1000.114	1808.23
1000.409	1778.17
1000.704	1780.43
1001	1757.84
1001.295	1778.85
1001.59	1761.22
1001.885	1729.36
1002.18	1723.94
1002.475	1704.73
1002.77	1711.73
1003.065	1719.64
1003.359	1731.4
1003.654	1702.92
1003.949	1673.09
1004.243	1678.52
1004.538	1656.82
1004.832	1632.19
1005.127	1650.95
1005.421	1601.46
1005.715	1618.63
1006.009	1627.44
1006.304	1617.27
1006.598	1627.22
1006.892	1586.31
1007.186	1591.51
1007.48	1571.85
1007.773	1561.46
1008.067	1576.82
1008.361	1539.54
1008.655	1550.61
1008.948	1561.23
1009.242	1513.77
1009.535	1518.52
1009.829	1516.03
1010.122	1509.03
1010.415	1482.14
1010.708	1467.22
1011.001	1497.5
1011.295	1444.85
1011.588	1455.02
1011.881	1457.5
1012.173	1442.36
1012.466	1408.01
1012.759	1439.2
1013.052	1425.19
1013.344	1408.47
1013.637	1402.59
1013.93	1390.16
1014.222	1405.75
1014.514	1365.76
1014.807	1383.83
1015.099	1368.24
1015.391	1368.92
1015.683	1376.83
1015.976	1358.75
1016.268	1336.15
1016.56	1334.57
1016.851	1311.97
1017.143	1303.61
1017.435	1307.45
1017.727	1303.38
1018.018	1294.12
1018.31	1292.08
1018.602	1274.46
1018.893	1279.2
1019.185	1250.5
1019.476	1244.4
1019.767	1246.21
1020.058	1285.98
1020.35	1236.04
1020.641	1212.31
1020.932	1198.08
1021.223	1209.6
1021.514	1210.5
1021.804	1214.57
1022.095	1204.4
1022.386	1183.39
1022.677	1187.23
1022.967	1149.72
1023.258	1140.22
1023.548	1135.93
1023.839	1129.6
1024.129	1126.89
1024.419	1086.67
1024.709	1099.32
1025	1119.21
1025.29	1119.21
1025.58	1108.81
1025.87	1072.88
1026.16	1080.79
1026.449	1092.32
1026.739	1066.1
1027.029	1083.5
1027.319	1068.36
1027.608	1071.07
1027.898	1046.89
1028.187	1015.93
1028.477	1024.97
1028.766	1048.25
1029.055	1038.08
1029.344	1003.5
1029.634	996.5
1029.923	997.4
1030.212	1012.32
1030.501	1001.47
1030.79	969.61
1031.078	991.75
1031.367	963.73
1031.656	981.36
1031.945	968.7
1032.233	949.04
1032.522	951.98
1032.81	949.95
1033.099	916.73
1033.387	920.34
1033.675	942.49
1033.963	926.67
1034.251	928.93
1034.54	925.77
1034.828	898.65
1035.116	906.33
1035.403	892.32
1035.691	871.76
1035.979	875.82
1036.267	870.17
1036.554	869.95
1036.842	854.81
1037.129	838.31
1037.417	855.94
1037.704	838.76
1037.992	863.4
1038.279	850.29
1038.566	843.73
1038.853	843.73
1039.14	843.73
