Data from hue_100_FLMS001491_00049.txt Node
Date: Tue Feb 07 17:03:15 GMT 2017
User: dcchb
Spectrometer: FLMS00149
Trigger mode: 0
Integration Time (sec): 2.000000E-2
Scans to average: 10
Electric dark correction enabled: true
Nonlinearity correction enabled: false
Boxcar width: 0
XAxis mode: Wavelengths
Number of Pixels in Spectrum: 2048
>>>>>Begin Spectral Data<<<<<
341.393	2.3
341.776	2.3
342.16	2.3
342.543	-47.41
342.927	-63.23
343.31	-107.3
343.693	-96.23
344.077	-53.29
344.46	-63.01
344.843	-36.79
345.226	-18.94
345.61	-25.95
345.993	-14.65
346.376	10.44
346.759	-2.44
347.142	38.91
347.525	56.54
347.908	67.16
348.291	71.68
348.674	74.62
349.057	99.25
349.44	140.6
349.823	143.54
350.206	163.2
350.588	187.38
350.971	206.59
351.354	218.34
351.737	229.41
352.119	263.99
352.502	262.18
352.884	291.11
353.267	261.05
353.65	296.98
354.032	298.79
354.414	327.72
354.797	323.65
355.179	320.94
355.562	332.91
355.944	322.29
356.326	356.64
356.709	332.46
357.091	322.29
357.473	339.47
357.855	337.89
358.238	339.69
358.62	340.15
359.002	374.95
359.384	336.98
359.766	337.66
360.148	351.22
360.53	334.04
360.912	367.94
361.294	342.41
361.676	333.37
362.057	364.78
362.439	356.19
362.821	332.91
363.203	331.79
363.584	304.67
363.966	327.04
364.348	311.45
364.729	321.39
365.111	327.27
365.493	332.24
365.874	325.91
366.256	312.35
366.637	322.97
367.019	316.64
367.4	334.04
367.781	291.11
368.163	334.27
368.544	304.89
368.925	303.09
369.306	343.54
369.688	332.01
370.069	313.03
370.45	321.84
370.831	326.59
371.212	337.66
371.593	334.04
371.974	307.38
372.355	298.34
372.736	309.64
373.117	322.75
373.498	313.03
373.879	320.94
374.26	316.42
374.641	307.38
375.021	315.29
375.402	336.08
375.783	327.27
376.163	335.63
376.544	334.5
376.925	358.23
377.305	336.08
377.686	341.5
378.066	332.69
378.447	338.56
378.827	321.84
379.208	335.4
379.588	340.15
379.968	347.15
380.349	354.61
380.729	329.98
381.109	329.98
381.489	347.6
381.87	353.25
382.25	347.6
382.63	343.99
383.01	349.19
383.39	376.3
383.77	339.69
384.15	357.1
384.53	362.97
384.91	359.58
385.29	332.01
385.67	368.39
386.049	379.92
386.429	352.8
386.809	379.92
387.189	368.62
387.568	365.68
387.948	379.47
388.328	366.59
388.707	363.65
389.087	380.82
389.466	389.64
389.846	382.18
390.225	370.88
390.605	383.31
390.984	390.54
391.363	391.9
391.743	385.79
392.122	382.18
392.501	406.13
392.881	389.41
393.26	395.96
393.639	412.46
394.018	405
394.397	412.23
394.776	396.87
395.155	432.35
395.534	396.42
395.913	413.36
396.292	396.87
396.671	403.87
397.05	413.36
397.429	448.39
397.808	415.4
398.186	403.2
398.565	413.14
398.944	399.58
399.323	432.8
399.701	418.34
400.08	439.58
400.458	426.47
400.837	444.1
401.215	434.38
401.594	443.19
401.972	447.94
402.351	415.62
402.729	442.52
403.107	446.36
403.486	435.51
403.864	426.7
404.242	439.13
404.62	470.31
404.999	477.54
405.377	463.31
405.755	458.34
406.133	432.8
406.511	465.34
406.889	484.1
407.267	472.35
407.645	470.76
408.023	478.45
408.401	463.53
408.779	485.45
409.156	469.63
409.534	491.1
409.912	492.68
410.29	489.75
410.667	486.13
411.045	503.76
411.422	491.1
411.8	485.91
412.178	497.66
412.555	522.97
412.933	526.58
413.31	532.23
413.687	550.31
414.065	549.41
414.442	555.96
414.819	524.1
415.197	533.36
415.574	539.46
415.951	555.96
416.328	552.12
416.705	570.2
417.082	555.73
417.46	578.33
417.837	582.63
418.214	571.33
418.591	587.37
418.967	574.94
419.344	589.63
419.721	603.87
420.098	596.41
420.475	620.82
420.852	624.43
421.228	616.52
421.605	613.13
421.982	626.24
422.358	612.68
422.735	635.28
423.111	631.89
423.488	650.65
423.864	640.25
424.241	635.73
424.617	647.93
424.994	626.92
425.37	667.82
425.746	637.31
426.123	649.29
426.499	656.52
426.875	659.01
427.251	684.32
427.627	685
428.003	686.35
428.379	691.78
428.756	701.49
429.132	710.31
429.507	703.07
429.883	734.03
430.259	743.07
430.635	733.36
431.011	743.98
431.387	747.82
431.763	741.72
432.138	753.02
432.514	750.08
432.89	755.28
433.265	763.19
433.641	805.9
434.016	791.21
434.392	788.04
434.767	821.26
435.143	810.42
435.518	830.08
435.894	845.22
436.269	841.83
436.644	852.68
437.02	851.32
437.395	869.62
437.77	871.88
438.145	876.86
438.52	888.83
438.895	901.26
439.271	881.83
439.646	922.73
440.021	919.11
440.395	912.11
440.77	909.85
441.145	923.86
441.52	937.19
441.895	952.11
442.27	962.95
442.645	923.41
443.019	976.74
443.394	1000.92
443.769	995.27
444.143	990.75
444.518	989.17
444.892	997.08
445.267	978.32
445.641	1037.98
446.016	1001.82
446.39	1031.2
446.764	1028.49
447.139	1008.38
447.513	1028.26
447.887	1050.86
448.262	1049.73
448.636	1057.64
449.01	1044.31
449.384	1067.36
449.758	1093.57
450.132	1085.89
450.506	1084.08
450.88	1122.05
451.254	1084.08
451.628	1114.14
452.002	1160.24
452.376	1167.02
452.75	1151.2
453.123	1169.28
453.497	1165.89
453.871	1172.89
454.244	1228.71
454.618	1254.7
454.992	1249.28
455.365	1272.1
455.739	1273.91
456.112	1274.36
456.486	1297.86
456.859	1305.32
457.232	1329.05
457.606	1351.87
457.979	1361.59
458.352	1395.26
458.725	1400.23
459.099	1372.21
459.472	1431.87
459.845	1451.08
460.218	1439.33
460.591	1455.6
460.964	1456.73
461.337	1478.87
461.71	1536.05
462.083	1538.98
462.456	1547.8
462.829	1559.55
463.201	1582.37
463.574	1615.82
463.947	1616.95
464.32	1661.69
464.692	1672.31
465.065	1698.3
465.438	1736.04
465.81	1723.16
466.183	1782.37
466.555	1799.09
466.928	1833.21
467.3	1824.4
467.672	1849.94
468.045	1905.75
468.417	1936.94
468.789	1924.74
469.161	1966.77
469.534	1974
469.906	2077.73
470.278	2092.19
470.65	2138.07
471.022	2188.46
471.394	2196.59
471.766	2237.05
472.138	2274.33
472.51	2351.39
472.882	2400.88
473.253	2428.91
473.625	2466.64
473.997	2548
474.369	2570.82
474.74	2610.82
475.112	2674.55
475.484	2767.88
475.855	2812.85
476.227	2851.27
476.598	2935.11
476.97	2976.01
477.341	3074.76
477.713	3169.22
478.084	3198.83
478.455	3349.78
478.827	3354.53
479.198	3534.86
479.569	3538.48
479.94	3688.98
480.311	3762.66
480.682	3849.21
481.053	3944.12
481.424	4093.49
481.795	4145.92
482.166	4260.5
482.537	4395.41
482.908	4510.21
483.279	4593.82
483.65	4705.46
484.021	4873.59
484.391	4987.93
484.762	5068.84
485.133	5206.23
485.503	5251.66
485.874	5452.1
486.244	5568.26
486.615	5757.41
486.985	5808.25
487.356	6005.53
487.726	6143.84
488.097	6316.71
488.467	6447.78
488.837	6651.39
489.207	6744.5
489.578	6918.73
489.948	7078.95
490.318	7244.15
490.688	7310.58
491.058	7459.28
491.428	7739.27
491.798	7826.73
492.168	8032.83
492.538	8121.86
492.908	8320.73
493.278	8587.84
493.648	8585.35
494.017	8754.16
494.387	8919.13
494.757	9002.74
495.126	9242.74
495.496	9308.5
495.866	9444.77
496.235	9539.68
496.605	9753.23
496.974	9872.78
497.344	10060.12
497.713	10158.87
498.082	10321.58
498.452	10361.58
498.821	10563.83
499.19	10633.21
499.559	10821.68
499.928	10957.95
500.298	11105.74
500.667	11215.79
501.036	11272.06
501.405	11455.56
501.774	11479.29
502.143	11642.22
502.512	11707.76
502.88	11771.26
503.249	11909.33
503.618	12006.73
503.987	12158.82
504.356	12246.5
504.724	12307.52
505.093	12352.26
505.462	12518.81
505.83	12578.02
506.199	12636.55
506.567	12823.21
506.936	12949.76
507.304	13100.94
507.672	13107.04
508.041	13165.8
508.409	13336.41
508.777	13385.91
509.145	13471.78
509.514	13516.98
509.882	13605.11
510.25	13590.19
510.618	13701.38
510.986	13743.86
511.354	13965.78
511.722	13979.56
512.09	14141.82
512.458	14200.8
512.826	14255.71
513.193	14285.32
513.561	14330.29
513.929	14428.82
514.297	14584.52
514.664	14617.74
515.032	14638.98
515.4	14788.13
515.767	14808.69
516.135	14893.21
516.502	14794.68
516.869	15098.4
517.237	14961
517.604	14995.13
517.972	15137.72
518.339	15130.49
518.706	15166.65
519.073	15238.51
519.44	15396.25
519.808	15465.17
520.175	15297.49
520.542	15583.36
520.909	15665.62
521.276	15523.48
521.643	15777.93
522.009	15705.84
522.376	15755.11
522.743	15843.69
523.11	16056.57
523.477	15995.78
523.843	16075.33
524.21	16224.93
524.577	16259.28
524.943	16264.93
525.31	16338.6
525.676	16375.43
526.043	16516.67
526.409	16489.1
526.776	16582.88
527.142	16596.22
527.508	16590.34
527.874	16723.9
528.241	16807.96
528.607	16755.76
528.973	16851.35
529.339	16772.93
529.705	16854.97
530.071	17017.9
530.437	16935.42
530.803	16911.01
531.169	16931.57
531.535	16872.59
531.901	16958.01
532.267	16931.35
532.632	17028.3
532.998	17038.92
533.364	17013.61
533.73	17014.28
534.095	17049.99
534.461	17001.18
534.826	17087.05
535.192	17083.89
535.557	17144.9
535.923	17012.93
536.288	17006.83
536.653	17005.7
537.019	16923.44
537.384	17002.31
537.749	16988.75
538.114	16967.51
538.479	16955.75
538.845	16994.4
539.21	16899.94
539.575	16983.55
539.94	16925.7
540.305	16909.2
540.67	16793.05
541.034	16821.29
541.399	16901.74
541.764	16805.48
542.129	16775.87
542.494	16772.71
542.858	16773.39
543.223	16648.64
543.587	16843.44
543.952	16701.52
544.316	16762.77
544.681	16574.97
545.045	16697
545.41	16608.87
545.774	16692.71
546.138	16569.32
546.503	16621.98
546.867	16523.68
547.231	16610.45
547.595	16551.25
547.959	16499.5
548.324	16460.4
548.688	16402.1
549.052	16407.75
549.416	16410.23
549.779	16214.53
550.143	16220.41
550.507	16351.02
550.871	16383.79
551.235	16242.55
551.599	16284.13
551.962	16356.67
552.326	16266.51
552.689	16318.26
553.053	16175.44
553.417	16079.39
553.78	16351.48
554.143	16219.95
554.507	16224.7
554.87	16166.85
555.234	16281.65
555.597	16138.15
555.96	16211.82
556.323	16191.71
556.686	16154.65
557.05	16276.68
557.413	16268.09
557.776	16145.61
558.139	16254.76
558.502	16205.27
558.865	16115.55
559.228	16238.71
559.59	16163.23
559.953	16279.39
560.316	16324.13
560.679	16267.86
561.041	16259.05
561.404	16322.78
561.767	16428.31
562.129	16217.7
562.492	16367.75
562.854	16368.2
563.217	16318.94
563.579	16311.7
563.941	16399.39
564.304	16446.62
564.666	16478.48
565.028	16497.91
565.39	16458.37
565.753	16537.46
566.115	16512.83
566.477	16644.58
566.839	16624.01
567.201	16732.03
567.563	16682.99
567.925	16816.1
568.287	16810.45
568.648	16716.66
569.01	16904
569.372	16881.41
569.734	16749.43
570.095	16816.55
570.457	16883.89
570.819	16883.67
571.18	16823.55
571.542	16859.26
571.903	16889.09
572.265	17060.61
572.626	17005.24
572.987	16994.85
573.349	17040.05
573.71	17154.17
574.071	17025.13
574.432	17104.68
574.794	17192.58
575.155	17218.57
575.516	17108.75
575.877	17129.54
576.238	17161.85
576.599	17107.16
576.96	17200.72
577.32	17261.06
577.681	17223.32
578.042	17311.9
578.403	17153.26
578.763	17335.18
579.124	17248.63
579.485	17204.34
579.845	17366.82
580.206	17264
580.566	17242.07
580.927	17283.66
581.287	17320.94
581.648	17131.57
582.008	17386.7
582.368	17204.11
582.728	17231.68
583.089	17285.01
583.449	17211.79
583.809	17189.42
584.169	17297.44
584.529	17209.31
584.889	17305.58
585.249	17203.43
585.609	17101.97
585.969	17237.56
586.329	17119.82
586.688	17233.71
587.048	17150.33
587.408	17139.03
587.768	17220.83
588.127	17157.56
588.487	17039.82
588.846	17196.88
589.206	17055.41
589.565	17149.2
589.925	17079.37
590.284	17047.5
590.643	17116.2
591.003	17145.81
591.362	17160.27
591.721	17039.82
592.08	17088.63
592.44	17104.45
592.799	17064
593.158	17103.77
593.517	16991.91
593.876	17046.6
594.235	17122.76
594.593	17002.31
594.952	17071.23
595.311	16996.43
595.67	17092.7
596.029	17083.43
596.387	17095.86
596.746	17097.45
597.104	16983.1
597.463	16966.38
597.822	17085.69
598.18	17005.02
598.538	16953.27
598.897	17039.59
599.255	16914.63
599.613	17075.75
599.972	17026.26
600.33	17029.88
600.688	17005.47
601.046	16942.65
601.404	17064.45
601.762	17064.68
602.12	17101.51
602.478	17096.99
602.836	17092.25
603.194	16985.13
603.552	16999.37
603.91	16973.16
604.268	17145.35
604.625	17017.22
604.983	17112.81
605.341	17005.47
605.698	17076.2
606.056	17096.32
606.413	17121.4
606.771	17095.19
607.128	17124.56
607.485	17036.43
607.843	17116.65
608.2	17134.96
608.557	17198.91
608.914	17093.83
609.272	17246.37
609.629	17206.37
609.986	17225.13
610.343	17162.08
610.7	17401.62
611.057	17289.76
611.414	17321.17
611.771	17324.56
612.127	17364.33
612.484	17373.37
612.841	17412.92
613.198	17311.45
613.554	17301.96
613.911	17404.1
614.267	17460.15
614.624	17323.88
614.98	17388.74
615.337	17465.8
615.693	17479.58
616.05	17446.82
616.406	17390.09
616.762	17472.8
617.118	17521.16
617.475	17515.29
617.831	17502.63
618.187	17487.72
618.543	17544.89
618.899	17595.96
619.255	17568.39
619.611	17616.08
619.967	17614.49
620.323	17687.94
620.678	17637.77
621.034	17525.91
621.39	17499.7
621.746	17522.52
622.101	17731.1
622.457	17569.07
622.812	17598.22
623.168	17576.76
623.523	17602.52
623.879	17726.81
624.234	17588.96
624.589	17550.32
624.945	17643.65
625.3	17609.97
625.655	17685.91
626.01	17624.89
626.365	17560.94
626.72	17646.36
627.075	17566.36
627.43	17598.9
627.785	17572.46
628.14	17494.5
628.495	17610.43
628.85	17623.08
629.205	17479.58
629.559	17606.36
629.914	17523.65
630.269	17549.19
630.623	17403.2
630.978	17509.41
631.332	17476.19
631.687	17502.63
632.041	17419.7
632.396	17460.6
632.75	17424.67
633.104	17428.51
633.459	17294.5
633.813	17350.77
634.167	17338.57
634.521	17296.08
634.875	17348.96
635.229	17355.07
635.583	17245.46
635.937	17290.44
636.291	17259.48
636.645	17233.94
636.999	17182.87
637.352	17160.72
637.706	17120.5
638.06	17281.4
638.413	17205.69
638.767	17062.42
639.121	17112.59
639.474	16996.66
639.828	17079.14
640.181	17101.74
640.534	16995.98
640.888	16981.52
641.241	16847.73
641.594	16903.78
641.947	17053.15
642.301	16905.13
642.654	16920.28
643.007	17000.5
643.36	16904
643.713	16875.76
644.066	17003.66
644.419	16786.72
644.771	16714.18
645.124	16587.4
645.477	16558.7
645.83	16490.46
646.182	16477.58
646.535	16274.19
646.888	16346.96
647.24	16295.89
647.593	16416.33
647.945	16358.03
648.298	16244.81
648.65	16219.73
649.002	16205.27
649.355	16330.91
649.707	16255.66
650.059	16486.84
650.411	16563.45
650.763	16535.43
651.115	16784.91
651.467	16691.81
651.819	16703.78
652.171	16589.66
652.523	16638.02
652.875	16577.23
653.227	16569.32
653.578	16598.93
653.93	16675.31
654.282	16606.84
654.633	16546.73
654.985	16551.02
655.337	16593.73
655.688	16505.6
656.039	16703.78
656.391	16580.85
656.742	16587.18
657.094	16534.52
657.445	16573.84
657.796	16632.83
658.147	16639.38
658.498	16582.66
658.849	16616.78
659.2	16541.98
659.551	16633.05
659.902	16634.63
660.253	16590.34
660.604	16607.97
660.955	16512.6
661.306	16572.49
661.656	16535.2
662.007	16548.31
662.358	16569.32
662.708	16615.65
663.059	16645.03
663.409	16579.04
663.76	16678.93
664.11	16696.33
664.461	16559.38
664.811	16648.87
665.161	16728.87
665.511	16562.77
665.862	16732.26
666.212	16662.43
666.562	16702.65
666.912	16675.99
667.262	16650.68
667.612	16627.18
667.962	16623.33
668.312	16598.25
668.662	16659.94
669.011	16696.33
669.361	16599.83
669.711	16618.36
670.06	16473.73
670.41	16595.76
670.76	16628.76
671.109	16667.4
671.459	16523.9
671.808	16518.25
672.157	16544.01
672.507	16390.35
672.856	16594.41
673.205	16551.25
673.554	16440.97
673.904	16497.24
674.253	16635.31
674.602	16497.46
674.951	16223.8
675.3	16245.49
675.649	16468.54
675.998	16457.01
676.346	16446.84
676.695	16445.94
677.044	16337.01
677.393	16312.38
677.741	16403.45
678.09	16419.05
678.438	16318.71
678.787	16249.33
679.135	16293.85
679.484	16200.97
679.832	16237.36
680.181	16139.05
680.529	16151.71
680.877	16120.3
681.225	16126.17
681.573	16226.06
681.922	16038.04
682.27	16062.9
682.618	15949
682.966	15854.31
683.314	15967.98
683.661	15882.56
684.009	15823.13
684.357	15818.38
684.705	15773.86
685.053	15722.79
685.4	15783.58
685.748	15518.05
686.095	15630.37
686.443	15582.01
686.79	15605.06
687.138	15594.89
687.485	15531.16
687.832	15599.41
688.18	15577.03
688.527	15438.28
688.874	15412.29
689.221	15390.15
689.568	15381.78
689.915	15191.06
690.262	15336.14
690.609	15242.81
690.956	15234.44
691.303	15236.7
691.65	15173.43
691.997	15037.39
692.344	14927.33
692.69	15044.62
693.037	14956.03
693.383	14801.91
693.73	14845.53
694.077	14751.74
694.423	14739.77
694.769	14658.41
695.116	14670.62
695.462	14637.62
695.808	14547.68
696.155	14577.96
696.501	14375.71
696.847	14445.54
697.193	14282.6
697.539	14253.9
697.885	14218.2
698.231	14128.26
698.577	14227.01
698.923	14147.47
699.269	14039.22
699.614	14041.71
699.96	13949.73
700.306	13908.38
700.651	13899.34
700.997	13904.99
701.342	13733.69
701.688	13793.58
702.033	13756.74
702.379	13660.7
702.724	13616.18
703.069	13648.05
703.415	13450.08
703.76	13468.16
704.105	13507.26
704.45	13413.93
704.795	13383.42
705.14	13364.89
705.485	13222.75
705.83	13208.06
706.175	13235.17
706.52	13182.29
706.865	13117.44
707.209	13141.39
707.554	13072.92
707.899	13102.3
708.243	13026.59
708.588	12927.16
708.932	12882.64
709.277	12801.51
709.621	12872.02
709.966	12802.64
710.31	12808.07
710.654	12739.37
710.998	12751.8
711.342	12705.47
711.687	12569.88
712.031	12554.74
712.375	12571.69
712.719	12552.48
713.063	12472.03
713.407	12563.33
713.75	12460.28
714.094	12463.22
714.438	12339.83
714.782	12385.03
715.125	12338.7
715.469	12361.53
715.812	12320.62
716.156	12257.57
716.499	12120.4
716.843	12187.29
717.186	12191.36
717.53	12169.21
717.873	12254.86
718.216	12218.7
718.559	12105.26
718.902	12079.27
719.246	12048.09
719.589	12035.88
719.932	11993.4
720.275	11992.72
720.617	12009.22
720.96	11973.74
721.303	11989.78
721.646	11986.85
721.989	11976
722.331	11987.3
722.674	11842.67
723.016	11862.78
723.359	11918.15
723.701	11874.76
724.044	11829.56
724.386	11818.04
724.729	11870.24
725.071	11859.62
725.413	11818.71
725.755	11818.71
726.097	11768.09
726.439	11738.26
726.782	11686.74
727.124	11700.75
727.465	11779.62
727.807	11740.98
728.149	11730.81
728.491	11621.21
728.833	11710.24
729.175	11580.53
729.516	11630.02
729.858	11606.29
730.199	11635.44
730.541	11609.45
730.882	11583.01
731.224	11569.46
731.565	11562.9
731.906	11562.9
732.248	11609.68
732.589	11513.19
732.93	11453.98
733.271	11623.24
733.612	11517.71
733.953	11601.55
734.294	11518.84
734.635	11544.15
734.976	11480.64
735.317	11460.98
735.658	11541.21
735.999	11500.53
736.339	11556.35
736.68	11604.93
737.021	11529
737.361	11462.79
737.702	11511.38
738.042	11554.31
738.383	11478.84
738.723	11585.27
739.063	11601.09
739.404	11614.88
739.744	11562.68
740.084	11580.3
740.424	11581.66
740.764	11538.72
741.104	11629.12
741.444	11584.14
741.784	11580.75
742.124	11576.91
742.464	11648.78
742.804	11653.07
743.143	11616.23
743.483	11639.51
743.823	11541.43
744.162	11699.17
744.502	11740.3
744.841	11755.67
745.181	11914.76
745.52	11849.67
745.86	11823.23
746.199	11876.11
746.538	11929.9
746.877	12075.21
747.216	12063.91
747.556	12126.73
747.895	12154.98
748.234	12134.41
748.573	12240.62
748.911	12254.41
749.25	12372.15
749.589	12383.22
749.928	12432.71
750.267	12584.12
750.605	12657.34
750.944	12743.89
751.283	12745.92
751.621	12851.91
751.96	12856.2
752.298	13003.09
752.636	13057.33
752.975	13142.3
753.313	13279.02
753.651	13371.67
753.989	13431.78
754.327	13618.44
754.666	13641.49
755.004	13789.74
755.342	13926.23
755.679	14077.41
756.017	14127.13
756.355	14382.94
756.693	14375.71
757.031	14675.59
757.368	14646.21
757.706	14854.34
758.044	15035.81
758.381	15170.94
758.719	15373.2
759.056	15436.25
759.394	15652.29
759.731	15769.12
760.068	15866.97
760.405	16078.26
760.743	16157.58
761.08	16353.28
761.417	16611.36
761.754	16767.51
762.091	16867.85
762.428	16996.21
762.765	17040.05
763.102	17374.27
763.438	17452.01
763.775	17698.79
764.112	17860.36
764.449	18046.35
764.785	18096.97
765.122	18159.11
765.458	18222.84
765.795	18382.84
766.131	18635.03
766.467	18625.99
766.804	18735.82
767.14	18979.88
767.476	19080.22
767.812	19225.53
768.148	19258.52
768.485	19336.94
768.821	19430.72
769.157	19581.22
769.492	19629.13
769.828	19785.96
770.164	19769.01
770.5	19933.76
770.836	20039.52
771.171	20100.53
771.507	20191.38
771.842	20097.59
772.178	20281.09
772.513	20379.17
772.849	20456.23
773.184	20493.74
773.519	20636.34
773.855	20606.96
774.19	20524.7
774.525	20692.83
774.86	20828.87
775.195	20773.06
775.53	20944.35
775.865	20931.02
776.2	20784.13
776.535	20827.97
776.87	20963.33
777.205	20890.79
777.539	20903.22
777.874	21097.34
778.209	20906.16
778.543	20978.7
778.878	20933.73
779.212	20964.69
779.547	20865.71
779.881	21115.19
780.215	21001.3
780.55	20990
780.884	20987.97
781.218	20959.72
781.552	21001.75
781.886	20987.06
782.22	20931.02
782.554	20893.73
782.888	20862.54
783.222	20807.63
783.556	20739.16
783.889	20843.56
784.223	20614.87
784.557	20749.33
784.89	20768.54
785.224	20700.74
785.557	20696.9
785.891	20579.84
786.224	20501.2
786.558	20591.37
786.891	20470.92
787.224	20389.79
787.557	20393.63
787.891	20441.09
788.224	20433.63
788.557	20313.18
788.89	20353.86
789.223	20354.76
789.556	20204.03
789.888	20276.12
790.221	20217.59
790.554	20054.2
790.887	20085.39
791.219	19947.54
791.552	19917.94
791.884	19869.12
792.217	19873.42
792.549	19896.47
792.882	19872.97
793.214	19664.84
793.546	19832.52
793.879	19678.4
794.211	19515.46
794.543	19634.1
794.875	19597.04
795.207	19571.96
795.539	19547.1
795.871	19568.34
796.203	19472.07
796.535	19192.53
796.867	19275.69
797.198	19222.14
797.53	19291.51
797.862	19070.5
798.193	19165.19
798.525	18943.5
798.856	19070.5
799.188	18830.51
799.519	18770.17
799.85	18803.39
800.182	18760.45
800.513	18846.78
800.844	18565.2
801.175	18747.35
801.506	18689.49
801.837	18561.81
802.168	18649.95
802.499	18512.55
802.83	18489.27
803.161	18371.76
803.491	18449.27
803.822	18452.66
804.153	18298.09
804.483	18215.61
804.814	18156.85
805.145	18196.63
805.475	18068.72
805.805	18056.52
806.136	18070.53
806.466	18085.67
806.796	18027.36
807.126	17894.71
807.457	17889.74
807.787	17869.63
808.117	17799.8
808.447	17662.4
808.777	17852.68
809.107	17600.26
809.436	17602.52
809.766	17541.05
810.096	17565.91
810.426	17456.08
810.755	17507.83
811.085	17427.83
811.414	17335.18
811.744	17296.76
812.073	17231.45
812.403	17213.83
812.732	17167.05
813.061	17144
813.39	17092.02
813.719	17095.86
814.049	17078.24
814.378	17120.95
814.707	17007.28
815.036	16954.17
815.365	16964.12
815.693	16745.36
816.022	16761.86
816.351	16725.25
816.68	16676.44
817.008	16712.6
817.337	16623.79
817.665	16576.78
817.994	16629.44
818.322	16601.41
818.651	16439.61
818.979	16421.31
819.307	16566.61
819.636	16458.59
819.964	16342.66
820.292	16464.92
820.62	16426.96
820.948	16409.78
821.276	16516.9
821.604	16342.66
821.932	16368.88
822.259	16381.31
822.587	16347.64
822.915	16328.88
823.243	16478.93
823.57	16333.4
823.898	16388.09
824.225	16327.3
824.553	16315.77
824.88	16284.13
825.207	16382.44
825.535	16299.95
825.862	16303.12
826.189	16302.66
826.516	16412.72
826.843	16392.83
827.17	16373.85
827.497	16403.23
827.824	16412.72
828.151	16352.83
828.478	16345.38
828.805	16345.6
829.131	16307.64
829.458	16265.83
829.785	16258.15
830.111	16290.91
830.438	16377.92
830.764	16334.3
831.09	16408.65
831.417	16283.23
831.743	16354.87
832.069	16353.06
832.395	16236.45
832.722	16265.83
833.048	16247.75
833.374	16217.24
833.7	16187.41
834.026	16148.09
834.351	16243.46
834.677	16207.98
835.003	16215.21
835.329	16145.38
835.654	16196.68
835.98	16131.37
836.306	16048.43
836.631	16014.54
836.956	16051.37
837.282	16089.11
837.607	15965.27
837.932	15986.74
838.258	15942.9
838.583	15941.09
838.908	15883.69
839.233	15915.1
839.558	15818.61
839.883	15755.11
840.208	15721.21
840.533	15792.85
840.858	15730.48
841.182	15775.67
841.507	15771.83
841.832	15660.42
842.156	15630.14
842.481	15658.84
842.805	15621.33
843.13	15492.74
843.454	15572.29
843.778	15489.35
844.103	15386.3
844.427	15263.82
844.751	15422.91
845.075	15328.9
845.399	15256.82
845.723	15178.17
846.047	15138.18
846.371	15111.28
846.695	15074.9
847.019	14953.55
847.343	14969.14
847.666	14796.49
847.99	14736.6
848.313	14751.07
848.637	14740.22
848.96	14652.31
849.284	14643.27
849.607	14475.14
849.931	14513.79
850.254	14464.75
850.577	14349.72
850.9	14162.83
851.223	14275.15
851.546	14206
851.869	13996.96
852.192	14147.47
852.515	13930.75
852.838	13910.41
853.161	13980.24
853.483	13876.74
853.806	13746.8
854.129	13786.57
854.451	13683.52
854.774	13643.98
855.096	13617.31
855.419	13619.35
855.741	13549.29
856.063	13478.33
856.385	13495.51
856.708	13387.04
857.03	13284.44
857.352	13275.17
857.674	13292.12
857.996	13259.58
858.318	13198.11
858.64	13225.01
858.961	13162.18
859.283	13167.83
859.605	12994.5
859.926	13064.78
860.248	13011.23
860.57	12982.53
860.891	12973.26
861.212	12918.8
861.534	12857.33
861.855	12837.9
862.176	12798.58
862.498	12826.82
862.819	12889.42
863.14	12787.73
863.461	12715.64
863.782	12684.91
864.103	12755.41
864.424	12638.58
864.745	12633.38
865.065	12650.11
865.386	12530.56
865.707	12559.49
866.027	12546.83
866.348	12446.27
866.668	12496.89
866.989	12409.89
867.309	12455.08
867.63	12453.73
867.95	12416.67
868.27	12346.61
868.59	12335.99
868.91	12335.31
869.23	12289.89
869.55	12213.28
869.87	12318.81
870.19	12258.25
870.51	12319.72
870.83	12272.49
871.15	12177.12
871.469	12158.14
871.789	12236.56
872.109	12128.99
872.428	12049.9
872.748	12123.34
873.067	12107.97
873.386	12056.9
873.706	12090.8
874.025	12013.29
874.344	11953.4
874.663	12012.16
874.982	11826.17
875.301	11879.96
875.62	11903.68
875.939	11878.15
876.258	11867.53
876.577	11774.87
876.896	11812.84
877.214	11777.81
877.533	11834.08
877.852	11722.9
878.17	11726.51
878.489	11729.68
878.807	11698.49
879.125	11691.26
879.444	11620.3
879.762	11650.13
880.08	11668.21
880.398	11565.16
880.716	11582.11
881.034	11587.76
881.352	11538.27
881.67	11606.06
881.988	11463.24
882.306	11429.57
882.624	11421.66
882.941	11338.05
883.259	11372.17
883.577	11358.84
883.894	11307.09
884.212	11289.46
884.529	11293.3
884.846	11235.91
885.164	11282.23
885.481	11086.3
885.798	11257.15
886.115	11137.38
886.432	11121.56
886.75	11090.82
887.067	11129.69
887.383	11055.12
887.7	11093.76
888.017	11075.46
888.334	10931.96
888.651	10906.87
888.967	11021
889.284	10903.03
889.6	10884.28
889.917	10800.21
890.233	10859.42
890.55	10737.84
890.866	10837.95
891.182	10682.7
891.498	10678.63
891.815	10700.1
892.131	10638.41
892.447	10605.41
892.763	10557.5
893.079	10465.98
893.395	10482.03
893.71	10486.09
894.026	10444.97
894.342	10374.01
894.657	10320
894.973	10316.61
895.289	10356.15
895.604	10150.51
895.92	10153.67
896.235	10146.67
896.55	10200
896.865	10154.13
897.181	10024.86
897.496	10031.42
897.811	10066.44
898.126	9975.83
898.441	9957.75
898.756	9886.34
899.071	9890.4
899.386	9845.21
899.7	9804.76
900.015	9717.53
900.33	9722.27
900.644	9641.82
900.959	9633.46
901.273	9656.74
901.588	9611.32
901.902	9524.76
902.216	9512.79
902.531	9473.69
902.845	9434.14
903.159	9421.49
903.473	9356.41
903.787	9259.01
904.101	9306.69
904.415	9211.55
904.729	9248.61
905.042	9182.4
905.356	9097.66
905.67	9091.1
905.984	9062.4
906.297	9120.25
906.611	9016.53
906.924	9036.41
907.237	8993.7
907.551	8887.72
907.864	8913.71
908.177	8900.6
908.491	8840.71
908.804	8785.12
909.117	8753.48
909.43	8694.28
909.743	8673.94
910.056	8655.18
910.368	8563.66
910.681	8526.15
910.994	8570.21
911.307	8497.22
911.619	8460.84
911.932	8481.18
912.244	8393.04
912.557	8368.86
912.869	8320.95
913.181	8314.4
913.494	8275.53
913.806	8209.77
914.118	8179.71
914.43	8111.92
914.742	8122.09
915.054	8009.78
915.366	8083.45
915.678	8019.49
915.99	7931.36
916.302	7889.55
916.613	7902.21
916.925	7853.62
917.236	7853.4
917.548	7778.82
917.859	7820.4
918.171	7725.49
918.482	7665.6
918.794	7673.96
919.105	7683.23
919.416	7590.13
919.727	7600.52
920.038	7554.65
920.349	7491.6
920.66	7488.21
920.971	7531.6
921.282	7435.78
921.593	7394.2
921.903	7386.51
922.214	7347.19
922.525	7311.49
922.835	7284.6
923.146	7205.73
923.456	7224.94
923.767	7154.66
924.077	7121.21
924.387	7071.04
924.697	7040.54
925.008	7135.22
925.318	7048.22
925.628	7014.1
925.938	7009.35
926.248	6932.29
926.558	6877.83
926.867	6912.18
927.177	6924.15
927.487	6824.95
927.796	6794.44
928.106	6800.09
928.416	6749.7
928.725	6742.01
929.034	6695.91
929.344	6673.31
929.653	6640.09
929.962	6536.37
930.271	6589.02
930.581	6584.05
930.89	6506.99
931.199	6493.2
931.508	6493.66
931.817	6474
932.125	6417.27
932.434	6443.04
932.743	6383.83
933.051	6320.55
933.36	6318.75
933.669	6251.18
933.977	6302.7
934.286	6257.96
934.594	6209.37
934.902	6183.16
935.21	6166.89
935.519	6189.26
935.827	6065.65
936.135	6091.18
936.443	6064.74
936.751	6007.57
937.059	6027.23
937.367	5956.95
937.674	5952.43
937.982	5894.58
938.29	5885.99
938.597	5902.26
938.905	5839.89
939.213	5815.93
939.52	5814.8
939.827	5804.18
940.135	5772.55
940.442	5743.39
940.749	5724.86
941.056	5723.96
941.363	5596.51
941.67	5648.03
941.977	5559.44
942.284	5514.25
942.591	5545.21
942.898	5515.15
943.205	5524.19
943.511	5477.19
943.818	5490.29
944.125	5427.92
944.431	5390.64
944.738	5390.86
945.044	5403.29
945.35	5350.41
945.657	5264.99
945.963	5257.76
946.269	5249.4
946.575	5264.54
946.881	5227.02
947.187	5203.07
947.493	5195.61
947.799	5141.83
948.105	5136.63
948.41	5104.99
948.716	5066.58
949.022	5061.6
949.327	5027.93
949.633	5057.99
949.938	4982.96
950.244	4996.3
950.549	4953.13
950.854	4909.29
951.16	4923.53
951.465	4930.08
951.77	4870.65
952.075	4832.46
952.38	4857.99
952.685	4832.46
952.99	4781.16
953.294	4787.26
953.599	4775.51
953.904	4759.01
954.209	4731.9
954.513	4721.05
954.818	4631.78
955.122	4633.37
955.426	4625.68
955.731	4632.69
956.035	4622.52
956.339	4610.99
956.643	4530.09
956.948	4512.47
957.252	4517.89
957.556	4525.57
957.86	4433.82
958.163	4488.96
958.467	4415.52
958.771	4388.4
959.075	4434.05
959.378	4363.09
959.682	4373.03
959.985	4325.58
960.289	4280.16
960.592	4328.52
960.896	4279.03
961.199	4246.48
961.502	4270.44
961.805	4261.17
962.108	4176.66
962.411	4180.72
962.714	4159.48
963.017	4192.7
963.32	4152.7
963.623	4131.23
963.926	4124.68
964.228	4088.97
964.531	4069.99
964.833	4102.99
965.136	4024.12
965.438	4061.18
965.741	3973.05
966.043	3948.87
966.345	3992.25
966.648	3949.77
966.95	3937.79
967.252	3898.47
967.554	3915.42
967.856	3809.43
968.158	3900.73
968.46	3846.49
968.761	3842.88
969.063	3827.96
969.365	3779.83
969.666	3757.01
969.968	3740.06
970.269	3713.62
970.571	3687.86
970.872	3709.78
971.174	3632.72
971.475	3613.05
971.776	3647.18
972.077	3620.96
972.378	3592.04
972.679	3603.79
972.98	3598.37
973.281	3617.35
973.582	3584.81
973.883	3559.95
974.183	3534.41
974.484	3531.25
974.785	3494.19
975.085	3484.47
975.386	3490.12
975.686	3485.15
975.986	3426.17
976.287	3439.95
976.587	3427.07
976.887	3410.8
977.187	3406.51
977.487	3400.63
977.787	3372.16
978.087	3337.13
978.387	3340.29
978.687	3325.6
978.987	3328.09
979.286	3283.12
979.586	3271.82
979.885	3284.93
980.185	3218.49
980.484	3233.86
980.784	3203.35
981.083	3195.66
981.382	3190.69
981.682	3136.46
981.981	3171.48
982.28	3132.16
982.579	3110.02
982.878	3096.46
983.177	3158.6
983.475	3049.45
983.774	3064.82
984.073	3056.01
984.372	3021.66
984.67	3041.09
984.969	3036.12
985.267	3001.09
985.566	2996.57
985.864	2992.28
986.162	2971.72
986.461	2938.95
986.759	2901.21
987.057	2923.36
987.355	2917.25
987.653	2880.19
987.951	2849.91
988.249	2869.12
988.547	2840.87
988.844	2817.82
989.142	2832.74
989.44	2812.62
989.737	2796.13
990.035	2750.7
990.332	2763.36
990.63	2759.29
990.927	2760.42
991.224	2707.09
991.521	2731.27
991.819	2724.72
992.116	2708.45
992.413	2710.03
992.71	2715.45
993.006	2681.78
993.303	2653.31
993.6	2630.03
993.897	2607.43
994.193	2615.34
994.49	2563.36
994.787	2542.12
995.083	2563.14
995.379	2587.09
995.676	2550.71
995.972	2538.05
996.268	2510.26
996.565	2528.56
996.861	2475.91
997.157	2491.05
997.453	2463.03
997.749	2446.76
998.044	2465.51
998.34	2423.03
998.636	2422.58
998.932	2409.47
999.227	2396.14
999.523	2385.97
999.818	2360.43
1000.114	2335.8
1000.409	2350.94
1000.704	2314.11
1001	2288.57
1001.295	2284.05
1001.59	2278.17
1001.885	2259.64
1002.18	2269.36
1002.475	2266.42
1002.77	2240.44
1003.065	2206.99
1003.359	2235.69
1003.654	2228.46
1003.949	2176.26
1004.243	2195.46
1004.538	2146.65
1004.832	2110.04
1005.127	2116.82
1005.421	2145.52
1005.715	2117.73
1006.009	2090.38
1006.304	2103.72
1006.598	2066.2
1006.892	2077.05
1007.186	2066.2
1007.48	2046.77
1007.773	2034.79
1008.067	2012.42
1008.361	2002.25
1008.655	1983.04
1008.948	1992.76
1009.242	2000.67
1009.535	1931.74
1009.829	1936.26
1010.122	1935.13
1010.415	1948.01
1010.708	1946.66
1011.001	1907.34
1011.295	1884.06
1011.588	1909.6
1011.881	1879.09
1012.173	1852.65
1012.466	1844.29
1012.759	1879.54
1013.052	1813.33
1013.344	1814.91
1013.637	1795.7
1013.93	1765.42
1014.222	1797.74
1014.514	1775.81
1014.807	1751.63
1015.099	1751.18
1015.391	1740.34
1015.683	1741.24
1015.976	1731.75
1016.268	1704.86
1016.56	1718.42
1016.851	1672.31
1017.143	1665.08
1017.435	1646.33
1017.727	1632.32
1018.018	1684.07
1018.31	1651.75
1018.602	1616.5
1018.893	1627.8
1019.185	1611.75
1019.476	1602.26
1019.767	1609.94
1020.058	1613.79
1020.35	1546.67
1020.641	1568.81
1020.932	1538.53
1021.223	1540.11
1021.514	1534.92
1021.804	1511.64
1022.095	1494.69
1022.386	1515.03
1022.677	1519.32
1022.967	1455.15
1023.258	1465.99
1023.548	1465.77
1023.839	1460.57
1024.129	1446.11
1024.419	1426.45
1024.709	1420.12
1025	1418.76
1025.29	1384.64
1025.58	1353
1025.87	1383.28
1026.16	1407.69
1026.449	1338.09
1026.739	1345.54
1027.029	1343.28
1027.319	1356.16
1027.608	1329.5
1027.898	1331.98
1028.187	1334.92
1028.477	1305.09
1028.766	1313.91
1029.055	1275.04
1029.344	1298.31
1029.634	1267.58
1029.923	1271.65
1030.212	1263.74
1030.501	1245.66
1030.79	1228.94
1031.078	1218.32
1031.367	1196.62
1031.656	1189.84
1031.945	1208.37
1032.233	1193.46
1032.522	1171.54
1032.81	1176.51
1033.099	1162.27
1033.387	1176.28
1033.675	1159.33
1033.963	1147.81
1034.251	1142.61
1034.54	1127.7
1034.828	1131.31
1035.116	1119.56
1035.403	1110.3
1035.691	1133.57
1035.979	1087.7
1036.267	1094.93
1036.554	1062.39
1036.842	1082.27
1037.129	1055.61
1037.417	1031.2
1037.704	1047.47
1037.992	1062.84
1038.279	1039.56
1038.566	1031.88
1038.853	1031.88
1039.14	1031.88
