Data from hue_210_FLMS001491_00008.txt Node
Date: Tue Feb 07 16:40:41 GMT 2017
User: dcchb
Spectrometer: FLMS00149
Trigger mode: 0
Integration Time (sec): 2.000000E-2
Scans to average: 10
Electric dark correction enabled: true
Nonlinearity correction enabled: false
Boxcar width: 0
XAxis mode: Wavelengths
Number of Pixels in Spectrum: 2048
>>>>>Begin Spectral Data<<<<<
341.393	-7.68
341.776	-7.68
342.16	-7.68
342.543	-62.37
342.927	-61.47
343.31	-67.34
343.693	-75.93
344.077	-64.18
344.46	-58.08
344.843	-34.58
345.226	-48.59
345.61	-42.26
345.993	-19.66
346.376	7.23
346.759	7.91
347.142	29.83
347.525	44.29
347.908	50.62
348.291	73.9
348.674	106.66
349.057	90.17
349.44	120.67
349.823	150.05
350.206	165.42
350.588	188.24
350.971	202.03
351.354	208.81
351.737	246.32
352.119	237.28
352.502	244.06
352.884	280.9
353.267	285.87
353.65	277.28
354.032	286.09
354.414	304.17
354.797	297.62
355.179	315.92
355.562	333.78
355.944	318.18
356.326	330.16
356.709	317.05
357.091	345.75
357.473	337.84
357.855	339.65
358.238	330.84
358.62	340.56
359.002	332.42
359.384	348.47
359.766	327.22
360.148	322.03
360.53	336.26
360.912	338.52
361.294	345.53
361.676	351.4
362.057	329.71
362.439	327.45
362.821	351.4
363.203	326.77
363.584	326.77
363.966	339.2
364.348	317.05
364.729	331.06
365.111	285.64
365.493	338.52
365.874	320.44
366.256	317.73
366.637	321.35
367.019	319.54
367.4	306.43
367.781	313.21
368.163	332.42
368.544	315.02
368.925	296.04
369.306	346.66
369.688	320.9
370.069	304.4
370.45	300.33
370.831	303.72
371.212	325.42
371.593	293.55
371.974	301.69
372.355	312.76
372.736	295.81
373.117	316.15
373.498	303.04
373.879	317.05
374.26	309.37
374.641	316.83
375.021	315.02
375.402	332.19
375.783	318.64
376.163	315.92
376.544	311.63
376.925	318.64
377.305	319.54
377.686	330.61
378.066	321.35
378.447	322.48
378.827	311.63
379.208	321.35
379.588	319.31
379.968	308.69
380.349	303.95
380.729	326.32
381.109	331.29
381.489	354.34
381.87	334.68
382.25	327.22
382.63	319.09
383.01	335.58
383.39	355.47
383.77	336.94
384.15	335.36
384.53	332.65
384.91	347.34
385.29	358.41
385.67	353.89
386.049	351.63
386.429	337.62
386.809	379.43
387.189	346.66
387.568	366.54
387.948	352.99
388.328	357.73
388.707	352.31
389.087	344.62
389.466	373.32
389.846	363.15
390.225	379.88
390.605	359.31
390.984	373.32
391.363	367.45
391.743	358.63
392.122	376.71
392.501	376.26
392.881	393.89
393.26	376.49
393.639	390.05
394.018	377.84
394.397	376.71
394.776	373.32
395.155	411.97
395.534	392.76
395.913	380.1
396.292	408.35
396.671	423.27
397.05	394.34
397.429	392.53
397.808	417.39
398.186	411.74
398.565	388.69
398.944	385.07
399.323	410.61
399.701	389.82
400.08	421.01
400.458	411.06
400.837	423.27
401.215	416.26
401.594	421.01
401.972	414.23
402.351	418.29
402.729	435.92
403.107	434.34
403.486	431.85
403.864	445.41
404.242	444.73
404.62	440.67
404.999	450.38
405.377	458.52
405.755	482.25
406.133	454.68
406.511	449.93
406.889	471.63
407.267	491.06
407.645	493.32
408.023	493.32
408.401	504.17
408.779	508.01
409.156	498.52
409.534	524.51
409.912	525.64
410.29	526.09
410.667	538.06
411.045	556.82
411.422	562.47
411.8	556.37
412.178	551.85
412.555	578.97
412.933	582.36
413.31	605.63
413.687	607.67
414.065	615.58
414.442	611.74
414.819	618.29
415.197	650.6
415.574	650.6
415.951	648.57
416.328	651.73
416.705	683.37
417.082	687.67
417.46	665.07
417.837	700.09
418.214	715.91
418.591	705.52
418.967	720.88
419.344	750.26
419.721	763.6
420.098	760.88
420.475	774.22
420.852	795.23
421.228	786.19
421.605	813.99
421.982	813.31
422.358	830.03
422.735	835.01
423.111	857.15
423.488	864.84
423.864	870.49
424.241	930.15
424.617	913.2
424.994	904.61
425.37	955.68
425.746	950.71
426.123	987.09
426.499	966.53
426.875	991.84
427.251	1016.92
427.627	1035
428.003	1060.54
428.379	1044.27
428.756	1051.27
429.132	1074.32
429.507	1094.21
429.883	1108.67
430.259	1126.75
430.635	1124.94
431.011	1166.3
431.387	1144.38
431.763	1191.38
432.138	1187.54
432.514	1210.14
432.89	1207.65
433.265	1258.95
433.641	1295.56
434.016	1294.88
434.392	1357.48
434.767	1393.41
435.143	1375.33
435.518	1371.72
435.894	1401.77
436.269	1444.48
436.644	1457.81
437.02	1505.95
437.395	1485.38
437.77	1523.35
438.145	1545.72
438.52	1561.99
438.895	1581.88
439.271	1616.45
439.646	1659.17
440.021	1678.15
440.395	1658.26
440.77	1700.07
441.145	1745.94
441.52	1770.8
441.895	1782.1
442.27	1807.86
442.645	1796.56
443.019	1861.42
443.394	1850.35
443.769	1898.93
444.143	1902.55
444.518	1926.28
444.892	1921.98
445.267	1921.98
445.641	1959.95
446.016	1985.03
446.39	1995.43
446.764	2008.76
447.139	2018.7
447.513	2034.07
447.887	2020.29
448.262	2053.28
448.636	2084.69
449.01	2113.62
449.384	2103.45
449.758	2130.11
450.132	2171.02
450.506	2192.48
450.88	2177.57
451.254	2172.37
451.628	2233.16
452.002	2288.98
452.376	2270.22
452.75	2268.87
453.123	2300.96
453.497	2328.53
453.871	2378.47
454.244	2381.63
454.618	2415.08
454.992	2454.62
455.365	2444.46
455.739	2519.93
456.112	2507.28
456.486	2486.04
456.859	2563.1
457.232	2599.48
457.606	2632.7
457.979	2644.68
458.352	2698.23
458.725	2743.88
459.099	2742.53
459.472	2782.3
459.845	2799.93
460.218	2843.54
460.591	2845.8
460.964	2855.07
461.337	2929.41
461.71	2986.59
462.083	3005.34
462.456	3013.93
462.829	3020.71
463.201	3091.22
463.574	3100.94
463.947	3150.2
464.32	3177.54
464.692	3230.65
465.065	3239.01
465.438	3292.12
465.81	3310.42
466.183	3355.17
466.555	3436.07
466.928	3465.67
467.3	3467.71
467.672	3513.13
468.045	3614.37
468.417	3569.4
468.789	3580.7
469.161	3627.48
469.534	3733.24
469.906	3773.23
470.278	3794.48
470.65	3862.95
471.022	3923.29
471.394	4003.96
471.766	4005.54
472.138	4067.92
472.51	4147.69
472.882	4227.69
473.253	4213
473.625	4272.2
473.997	4363.5
474.369	4323.05
474.74	4449.83
475.112	4532.08
475.484	4580.67
475.855	4634.23
476.227	4623.16
476.598	4800.33
476.97	4815.92
477.341	4883.94
477.713	4933.43
478.084	4997.83
478.455	5139.07
478.827	5112.18
479.198	5284.38
479.569	5252.07
479.94	5395.34
480.311	5431.27
480.682	5608.44
481.053	5643.47
481.424	5738.15
481.795	5822.45
482.166	5842.78
482.537	5897.02
482.908	6053.63
483.279	6021.08
483.65	6160.29
484.021	6268.31
484.391	6342.66
484.762	6431.92
485.133	6392.6
485.503	6474.41
485.874	6654.06
486.244	6692.03
486.615	6774.74
486.985	6829.88
487.356	6967.5
487.726	6948.07
488.097	7131.34
488.467	7117.55
488.837	7261.96
489.207	7311.45
489.578	7412.23
489.948	7509.18
490.318	7543.3
490.688	7541.72
491.058	7711.21
491.428	7721.15
491.798	7811.55
492.168	7976.29
492.538	7958.89
492.908	8019.68
493.278	8144.42
493.648	8107.58
494.017	8241.82
494.387	8272.1
494.757	8334.02
495.126	8471.64
495.496	8469.61
495.866	8466.9
496.235	8526.78
496.605	8576.5
496.974	8679.77
497.344	8717.28
497.713	8696.27
498.082	8770.39
498.452	8808.36
498.821	8868.24
499.19	8887.9
499.559	8898.52
499.928	8924.06
500.298	8977.17
500.667	9108.91
501.036	8996.15
501.405	9155.01
501.774	9061.46
502.143	9135.35
502.512	9153.88
502.88	9208.8
503.249	9159.31
503.618	9318.63
503.987	9338.51
504.356	9318.63
504.724	9329.7
505.093	9408.11
505.462	9383.48
505.83	9427.1
506.199	9483.82
506.567	9584.15
506.936	9529.47
507.304	9676.58
507.672	9575.12
508.041	9653.76
508.409	9637.49
508.777	9750.93
509.145	9701.21
509.514	9764.94
509.882	9808.1
510.25	9809.46
510.618	9806.97
510.986	9817.14
511.354	9838.39
511.722	9953.86
512.09	9957.7
512.458	9870.25
512.826	9880.19
513.193	9975.78
513.561	10006.29
513.929	10000.42
514.297	10037.48
514.664	10106.4
515.032	10095.33
515.4	10143.24
515.767	10141.65
516.135	10137.13
516.502	10074.99
516.869	10158.38
517.237	10190.01
517.604	10069.34
517.972	10194.31
518.339	10172.16
518.706	10206.74
519.073	10180.98
519.44	10200.86
519.808	10245.15
520.175	10262.78
520.542	10321.31
520.909	10251.93
521.276	10171.03
521.643	10281.76
522.009	10329.22
522.376	10289.67
522.743	10309.11
523.11	10363.57
523.477	10458.03
523.843	10439.95
524.21	10512.94
524.577	10560.17
524.943	10463.45
525.31	10477.01
525.676	10475.88
526.043	10546.84
526.409	10553.17
526.776	10534.41
527.142	10496.22
527.508	10586.61
527.874	10544.36
528.241	10580.51
528.607	10510.68
528.973	10529.89
529.339	10450.35
529.705	10546.39
530.071	10484.24
530.437	10611.47
530.803	10546.39
531.169	10592.72
531.535	10503.9
531.901	10485.37
532.267	10551.36
532.632	10550.23
532.998	10513.62
533.364	10550.46
533.73	10542.32
534.095	10527.41
534.461	10499.38
534.826	10481.31
535.192	10407.86
535.557	10501.87
535.923	10354.53
536.288	10396.34
536.653	10441.31
537.019	10343.68
537.384	10301.65
537.749	10279.96
538.114	10160.64
538.479	10265.27
538.845	10209
539.21	10195.44
539.575	10120.41
539.94	10160.64
540.305	10171.26
540.67	10081.32
541.034	10082.67
541.399	10081.09
541.764	10002.67
542.129	9994.99
542.494	9926.97
542.858	9984.82
543.223	9915.45
543.587	9956.12
543.952	9840.87
544.316	9809.23
544.681	9832.96
545.045	9809.91
545.41	9769.46
545.774	9824.83
546.138	9702.8
546.503	9675.45
546.867	9677.49
547.231	9639.07
547.595	9636.13
547.959	9597.04
548.324	9528.56
548.688	9574.21
549.052	9550.26
549.416	9553.42
549.779	9497.6
550.143	9413.54
550.507	9443.82
550.871	9451.73
551.235	9310.04
551.599	9416.93
551.962	9341.9
552.326	9292.86
552.689	9278.63
553.053	9175.13
553.417	9237.27
553.78	9232.75
554.143	9159.99
554.507	9223.71
554.87	9123.38
555.234	9210.15
555.597	9180.32
555.96	9116.6
556.323	9163.83
556.686	9102.59
557.05	9120.44
557.413	9063.26
557.776	9091.96
558.139	9073.89
558.502	9064.39
558.865	9012.42
559.228	9114.34
559.59	9009.25
559.953	9047.45
560.316	9079.99
560.679	9032.08
561.041	9122.02
561.404	9074.11
561.767	9053.1
562.129	9014.23
562.492	9029.82
562.854	9020.78
563.217	9020.78
563.579	9023.49
563.941	9060.55
564.304	9033.66
564.666	9019.88
565.028	9062.59
565.39	9053.55
565.753	9159.31
566.115	9062.36
566.477	9044.96
566.839	9111.17
567.201	9159.76
567.563	9091.29
567.925	9230.27
568.287	9132.42
568.648	9123.6
569.01	9206.99
569.372	9203.83
569.734	9131.74
570.095	9247.89
570.457	9218.74
570.819	9190.04
571.18	9242.92
571.542	9221.45
571.903	9224.16
572.265	9286.76
572.626	9357.95
572.987	9270.04
573.349	9282.47
573.71	9297.61
574.071	9338.29
574.432	9338.96
574.794	9323.37
575.155	9350.04
575.516	9312.52
575.877	9395.69
576.238	9353.65
576.599	9390.71
576.96	9359.53
577.32	9419.41
577.681	9411.28
578.042	9505.51
578.403	9395.01
578.763	9431.62
579.124	9549.58
579.485	9547.32
579.845	9488.34
580.206	9503.03
580.566	9443.82
580.927	9468
581.287	9532.18
581.648	9544.83
582.008	9542.35
582.368	9502.58
582.728	9562.69
583.089	9574.89
583.449	9582.35
583.809	9565.4
584.169	9575.34
584.529	9589.8
584.889	9629.13
585.249	9615.34
585.609	9586.41
585.969	9585.28
586.329	9597.94
586.688	9587.09
587.048	9595
587.408	9602.91
587.768	9621.67
588.127	9620.54
588.487	9643.59
588.846	9696.92
589.206	9630.26
589.565	9657.83
589.925	9644.72
590.284	9717.03
590.643	9718.39
591.003	9743.47
591.362	9690.37
591.721	9763.36
592.08	9717.71
592.44	9771.27
592.799	9728.56
593.158	9740.99
593.517	9721.55
593.876	9804.94
594.235	9759.07
594.593	9768.56
594.952	9816.01
595.311	9738.95
595.67	9683.14
596.029	9785.28
596.387	9828.89
596.746	9770.36
597.104	9695.79
597.463	9792.06
597.822	9768.56
598.18	9712.29
598.538	9755.68
598.897	9795.22
599.255	9699.63
599.613	9832.74
599.972	9791.38
600.33	9762.91
600.688	9778.73
601.046	9837.71
601.404	9827.99
601.762	9843.36
602.12	9855.11
602.478	9835.22
602.836	9861.66
603.194	9812.85
603.552	9790.03
603.91	9815.79
604.268	9845.62
604.625	9809.46
604.983	9818.05
605.341	9787.54
605.698	9903.47
606.056	9944.37
606.413	9810.14
606.771	9917.93
607.128	9840.19
607.485	9862.57
607.843	9846.75
608.2	9928.33
608.557	9967.87
608.914	9907.31
609.272	10000.64
609.629	9914.77
609.986	9990.02
610.343	9964.94
610.7	10046.97
611.057	10001.32
611.414	9938.72
611.771	9970.13
612.127	10011.26
612.484	9964.94
612.841	10074.76
613.198	9945.73
613.554	10075.67
613.911	10074.54
614.267	10020.53
614.624	9936.46
614.98	10043.8
615.337	10054.88
615.693	10070.47
616.05	10065.27
616.406	10141.65
616.762	10098.27
617.118	10033.18
617.475	10095.33
617.831	10037.25
618.187	10152.05
618.543	10076.8
618.899	10097.36
619.255	10121.32
619.611	10108.21
619.967	10178.72
620.323	10161.99
620.678	10102.56
621.034	10109.56
621.39	10159.28
621.746	10130.13
622.101	10202.9
622.457	10116.8
622.812	10094.65
623.168	10166.96
623.523	10136
623.879	10143.24
624.234	10118.6
624.589	10161.77
624.945	10171.48
625.3	10211.93
625.655	10147.08
626.01	10131.26
626.365	10119.96
626.72	10128.55
627.075	10137.13
627.43	10111.15
627.785	10150.69
628.14	10179.62
628.495	10135.55
628.85	10172.39
629.205	10056.68
629.559	10161.09
629.914	10136
630.269	10129.45
630.623	10088.55
630.978	10054.2
631.332	10068.66
631.687	10099.4
632.041	10013.75
632.396	10022.34
632.75	9987.31
633.104	9971.04
633.459	9956.12
633.813	9981.66
634.167	9966.07
634.521	9962.22
634.875	9985.27
635.229	9937.59
635.583	9888.55
635.937	9881.77
636.291	9915.22
636.645	9875.9
636.999	9857.37
637.352	9851.27
637.706	9809.69
638.06	9853.3
638.413	9752.29
638.767	9743.47
639.121	9813.75
639.474	9756.58
639.828	9686.3
640.181	9741.44
640.534	9738.05
640.888	9707.09
641.241	9670.93
641.594	9681.33
641.947	9727.2
642.301	9677.26
642.654	9697.82
643.007	9700.08
643.36	9713.64
643.713	9659.86
644.066	9642.91
644.419	9612.85
644.771	9686.52
645.124	9530.82
645.477	9504.61
645.83	9434.78
646.182	9491.28
646.535	9390.26
646.888	9377.15
647.24	9338.29
647.593	9352.3
647.945	9315.46
648.298	9257.61
648.65	9253.99
649.002	9247.21
649.355	9336.48
649.707	9368.12
650.059	9422.58
650.411	9520.88
650.763	9469.58
651.115	9561.56
651.467	9530.14
651.819	9516.81
652.171	9531.05
652.523	9570.37
652.875	9540.09
653.227	9486.08
653.578	9561.33
653.93	9536.25
654.282	9515.23
654.633	9472.07
654.985	9529.01
655.337	9495.34
655.688	9569.69
656.039	9625.74
656.391	9543.03
656.742	9512.97
657.094	9552.52
657.445	9585.96
657.796	9515.23
658.147	9535.12
658.498	9451.73
658.849	9538.05
659.2	9532.63
659.551	9571.05
659.902	9572.86
660.253	9540.09
660.604	9513.65
660.955	9469.81
661.306	9503.03
661.656	9545.29
662.007	9638.39
662.358	9584.61
662.708	9564.04
663.059	9566.3
663.409	9516.13
663.76	9636.81
664.11	9531.73
664.461	9559.75
664.811	9586.64
665.161	9563.59
665.511	9560.88
665.862	9572.86
666.212	9578.51
666.562	9669.58
666.912	9604.04
667.262	9544.61
667.612	9580.31
667.962	9623.02
668.312	9603.82
668.662	9620.99
669.011	9511.61
669.361	9559.07
669.711	9511.16
670.06	9585.96
670.41	9576.47
670.76	9553.42
671.109	9523.14
671.459	9532.4
671.808	9535.34
672.157	9610.37
672.507	9443.37
672.856	9394.78
673.205	9490.15
673.554	9478.85
673.904	9442.46
674.253	9529.92
674.602	9538.28
674.951	9345.29
675.3	9296.7
675.649	9402.24
675.998	9474.1
676.346	9426.64
676.695	9527.66
677.044	9347.55
677.393	9443.82
677.741	9380.77
678.09	9388.91
678.438	9329.7
678.787	9333.99
679.135	9345.97
679.484	9293.31
679.832	9315.91
680.181	9258.51
680.529	9268
680.877	9296.48
681.225	9284.05
681.573	9324.27
681.922	9217.38
682.27	9174.22
682.618	9231.4
682.966	9153.66
683.314	9178.97
683.661	9107.11
684.009	9081.12
684.357	9096.48
684.705	9139.19
685.053	9088.12
685.4	9049.25
685.748	9005.19
686.095	8984.85
686.443	8956.83
686.79	8952.98
687.138	8965.41
687.485	8961.57
687.832	8838.86
688.18	8854
688.527	8856.72
688.874	8823.04
689.221	8773.78
689.568	8754.12
689.915	8738.3
690.262	8770.62
690.609	8685.87
690.956	8701.92
691.303	8670.96
691.65	8585.76
691.997	8672.09
692.344	8470.29
692.69	8544.18
693.037	8541.02
693.383	8481.36
693.73	8463.73
694.077	8340.35
694.423	8385.09
694.769	8381.7
695.116	8409.95
695.462	8337.63
695.808	8298.31
696.155	8304.87
696.501	8246.56
696.847	8264.42
697.193	8130.86
697.539	8177.19
697.885	8171.08
698.231	8084.76
698.577	8043.4
698.923	8105.32
699.269	7997.3
699.614	7975.84
699.96	7980.36
700.306	7979.45
700.651	7882.28
700.997	7905.1
701.342	7874.14
701.688	7774.71
702.033	7858.32
702.379	7793.02
702.724	7806.35
703.069	7726.8
703.415	7665.11
703.76	7664.66
704.105	7668.27
704.45	7614.26
704.795	7579.46
705.14	7593.25
705.485	7571.1
705.83	7493.14
706.175	7488.62
706.52	7527.71
706.865	7412.91
707.209	7490.2
707.554	7378.11
707.899	7423.76
708.243	7340.37
708.588	7356.42
708.932	7305.12
709.277	7320.49
709.621	7294.5
709.966	7238.91
710.31	7329.98
710.654	7222.41
710.998	7247.27
711.342	7199.58
711.687	7149.42
712.031	7130.89
712.375	7154.84
712.719	7177.21
713.063	7094.73
713.407	7129.76
713.75	7088.4
714.094	7042.07
714.438	7013.83
714.782	7115.97
715.125	6984.68
715.469	7028.97
715.812	6923.89
716.156	6976.99
716.499	6948.29
716.843	7001.85
717.186	6933.15
717.53	6938.35
717.873	6920.95
718.216	6912.13
718.559	6875.98
718.902	6842.53
719.246	6882.76
719.589	6838.92
719.932	6872.14
720.275	6859.71
720.617	6778.13
720.96	6765.7
721.303	6818.13
721.646	6809.54
721.989	6790.56
722.331	6792.14
722.674	6770.9
723.016	6744.46
723.359	6760.05
723.701	6805.24
724.044	6742.65
724.386	6724.57
724.729	6753.72
725.071	6755.08
725.413	6741.97
725.755	6724.12
726.097	6737.9
726.439	6666.27
726.782	6685.47
727.124	6716.21
727.465	6636.89
727.807	6597.79
728.149	6733.61
728.491	6658.58
728.833	6706.26
729.175	6612.48
729.516	6640.73
729.858	6642.76
730.199	6662.65
730.541	6582.88
730.882	6656.1
731.224	6628.07
731.565	6656.55
731.906	6634.63
732.248	6671.46
732.589	6585.82
732.93	6566.83
733.271	6563.22
733.612	6633.95
733.953	6645.47
734.294	6563.67
734.635	6614.97
734.976	6624.01
735.317	6634.4
735.658	6617.45
735.999	6624.01
736.339	6651.12
736.68	6660.16
737.021	6653.16
737.361	6625.59
737.702	6700.39
738.042	6665.59
738.383	6646.38
738.723	6672.14
739.063	6605.02
739.404	6678.02
739.744	6706.26
740.084	6750.33
740.424	6680.5
740.764	6696.1
741.104	6727.28
741.444	6693.61
741.784	6766.38
742.124	6800.73
742.464	6809.54
742.804	6807.28
743.143	6835.75
743.483	6859.93
743.823	6832.81
744.162	6889.08
744.502	6871.91
744.841	6951
745.181	6984.68
745.52	6998.91
745.86	6981.96
746.199	7024.67
746.538	7089.53
746.877	7078.23
747.216	7117.78
747.556	7132.24
747.895	7267.83
748.234	7233.48
748.573	7309.64
748.911	7302.41
749.25	7422.86
749.589	7436.87
749.928	7529.97
750.267	7659.23
750.605	7659.23
750.944	7770.42
751.283	7772.23
751.621	7858.32
751.96	8003.18
752.298	7946.68
752.636	8140.58
752.975	8242.5
753.313	8286.11
753.651	8419.89
753.989	8503.51
754.327	8658.76
754.666	8707.12
755.004	8770.62
755.342	9035.47
755.679	9056.49
756.017	9159.76
756.355	9424.16
756.693	9433.42
757.031	9632.97
757.368	9766.3
757.706	9934.2
758.044	10010.13
758.381	10204.93
758.719	10422.78
759.056	10575.32
759.394	10708.42
759.731	10797.46
760.068	11077.45
760.405	11166.03
760.743	11296.43
761.08	11547.72
761.417	11700.71
761.754	11797.43
762.091	12091.66
762.428	12227.02
762.765	12347.02
763.102	12594.92
763.438	12704.3
763.775	12793.79
764.112	13114.68
764.449	13234.91
764.785	13405.3
765.122	13542.24
765.458	13662.69
765.795	13898.17
766.131	14101.32
766.467	14191.04
766.804	14344.93
767.14	14418.6
767.476	14629.22
767.812	14799.84
768.148	14964.13
768.485	15058.81
768.821	15131.81
769.157	15320.05
769.492	15438.01
769.828	15619.25
770.164	15634.39
770.5	15850.2
770.836	16001.84
771.171	16060.37
771.507	16214.71
771.842	16241.38
772.178	16378.78
772.513	16505.78
772.849	16553.92
773.184	16706.68
773.519	16838.88
773.855	16889.95
774.19	16976.05
774.525	16974.92
774.86	17249.49
775.195	17256.72
775.53	17211.75
775.865	17330.39
776.2	17296.49
776.535	17312.77
776.87	17418.3
777.205	17468.24
777.539	17527.9
777.874	17712.08
778.209	17607.45
778.543	17651.74
778.878	17714.11
779.212	17824.62
779.547	17823.94
779.881	17926.76
780.215	17818.97
780.55	17952.3
780.884	17839.53
781.218	17941.45
781.552	18078.17
781.886	18035.23
782.22	17920.66
782.554	17931.73
782.888	17895.12
783.222	17904.61
783.556	17915.91
783.889	17931.96
784.223	17859.19
784.557	17795.69
784.89	18007.66
785.224	17842.24
785.557	17830.04
785.891	17854.9
786.224	17850.6
786.558	17876.37
786.891	17708.01
787.224	17725.86
787.557	17772.41
787.891	17815.12
788.224	17797.5
788.557	17891.51
788.89	17854.67
789.223	17720.66
789.556	17741.91
789.888	17710.72
790.221	17720.66
790.554	17500.78
790.887	17696.26
791.219	17582.59
791.552	17652.64
791.884	17579.65
792.217	17532.87
792.549	17524.28
792.882	17379.43
793.214	17443.16
793.546	17480.9
793.879	17335.36
794.211	17343.72
794.543	17336.95
794.875	17386.21
795.207	17277.74
795.539	17271.64
795.871	17247.68
796.203	17154.58
796.535	17104.18
796.867	17064.86
797.198	17064.18
797.53	17129.95
797.862	16844.53
798.193	16982.6
798.525	16955.26
798.856	16910.74
799.188	16812.21
799.519	16756.17
799.85	16642.73
800.182	16614.7
800.513	16638.88
800.844	16561.37
801.175	16604.08
801.506	16609.73
801.837	16604.08
802.168	16550.3
802.499	16401.38
802.83	16395.73
803.161	16372.68
803.491	16364.54
803.822	16363.19
804.153	16383.52
804.483	16216.52
804.814	16177.65
805.145	16207.71
805.475	16252.91
805.805	16115.51
806.136	16126.36
806.466	16181.27
806.796	16030.99
807.126	15961.61
807.457	15845.46
807.787	15919.36
808.117	15903.76
808.447	15851.56
808.777	15820.37
809.107	15770.66
809.436	15757.33
809.766	15765.46
810.096	15692.69
810.426	15710.32
810.755	15651.34
811.085	15694.05
811.414	15611.79
811.744	15555.07
812.073	15525.69
812.403	15491.57
812.732	15379.71
813.061	15398.69
813.39	15342.87
813.719	15254.06
814.049	15300.39
814.378	15251.35
814.707	15210
815.036	15291.8
815.365	15153.95
815.693	15180.39
816.022	15075.31
816.351	15071.92
816.68	14994.18
817.008	15052.94
817.337	14994.63
817.665	14990.79
817.994	15010
818.322	14858.37
818.651	14866.95
818.979	14812.72
819.307	14881.64
819.636	14866.95
819.964	14810.01
820.292	14843
820.62	14781.53
820.948	14812.27
821.276	14856.33
821.604	14758.26
821.932	14718.48
822.259	14765.26
822.587	14727.07
822.915	14747.41
823.243	14753.51
823.57	14667.41
823.898	14689.33
824.225	14666.96
824.553	14724.58
824.88	14781.76
825.207	14732.27
825.535	14730.23
825.862	14762.55
826.189	14660.63
826.516	14801.64
826.843	14804.13
827.17	14864.69
827.497	14807.97
827.824	14795.54
828.151	14846.16
828.478	14775.43
828.805	14827.41
829.131	14795.77
829.458	14719.84
829.785	14717.81
830.111	14693.85
830.438	14723.68
830.764	14811.36
831.09	14832.38
831.417	14682.78
831.743	14792.15
832.069	14806.62
832.395	14739.73
832.722	14660.63
833.048	14695.43
833.374	14770.46
833.7	14657.24
834.026	14647.3
834.351	14684.59
834.677	14650.46
835.003	14759.39
835.329	14617.47
835.654	14598.94
835.98	14530.01
836.306	14667.86
836.631	14544.7
836.956	14599.62
837.282	14640.29
837.607	14403.46
837.932	14476
838.258	14495.21
838.583	14459.96
838.908	14366.85
839.233	14385.61
839.558	14347.19
839.883	14297.48
840.208	14220.64
840.533	14221.09
840.858	14302.67
841.182	14254.31
841.507	14340.41
841.832	14241.89
842.156	14203.02
842.481	14133.19
842.805	14147.42
843.13	14159.4
843.454	14074.43
843.778	14126.18
844.103	14029.01
844.427	13925.06
844.751	14014.32
845.075	13922.12
845.399	13834.66
845.723	13776.36
846.047	13838.96
846.371	13728.68
846.695	13753.08
847.019	13635.12
847.343	13564.39
847.666	13526.42
847.99	13442.58
848.313	13506.31
848.637	13390.83
848.96	13326.88
849.284	13249.6
849.607	13171.86
849.931	13152.65
850.254	13057.96
850.577	13018.41
850.9	12889.6
851.223	12891.64
851.546	12855.48
851.869	12789.04
852.192	12872.2
852.515	12748.14
852.838	12652.1
853.161	12710.63
853.483	12577.97
853.806	12569.84
854.129	12479.22
854.451	12474.47
854.774	12435.15
855.096	12297.08
855.419	12313.12
855.741	12360.8
856.063	12289.85
856.385	12260.02
856.708	12133.69
857.03	12183.86
857.352	12164.2
857.674	12130.08
857.996	11978.89
858.318	11874.49
858.64	11921.72
858.961	11936.64
859.283	11945.45
859.605	11860.25
859.926	11852.34
860.248	11811.89
860.57	11784.77
860.891	11747.49
861.212	11753.36
861.534	11714.04
861.855	11635.85
862.176	11630.43
862.498	11682.4
862.819	11640.15
863.14	11552.69
863.461	11523.99
863.782	11506.36
864.103	11492.81
864.424	11488.96
864.745	11525.12
865.065	11423.65
865.386	11400.38
865.707	11389.98
866.027	11428.17
866.348	11347.5
866.668	11377.78
866.989	11447.16
867.309	11332.81
867.63	11283.77
867.95	11311.34
868.27	11257.33
868.59	11173.27
868.91	11246.26
869.23	11195.19
869.55	11240.38
869.87	11186.37
870.19	11121.52
870.51	11147.96
870.83	11179.37
871.15	11047.17
871.469	11079.71
871.789	11058.47
872.109	11032.48
872.428	10943.89
872.748	11052.36
873.067	11020.73
873.386	11052.36
873.706	10909.09
874.025	10920.39
874.344	10870
874.663	10921.75
874.982	10802.2
875.301	10903.22
875.62	10826.61
875.939	10794.74
876.258	10785.03
876.577	10713.62
876.896	10769.66
877.214	10749.55
877.533	10688.76
877.852	10650.79
878.17	10739.83
878.489	10735.54
878.807	10692.37
879.125	10691.92
879.444	10614.18
879.762	10639.95
880.08	10577.8
880.398	10580.51
880.716	10589.1
881.034	10522.21
881.352	10557.24
881.67	10479.72
881.988	10475.88
882.306	10469.1
882.624	10389.11
882.941	10430.69
883.259	10366.96
883.577	10263.23
883.894	10411.25
884.212	10332.61
884.529	10244.7
884.846	10269.11
885.164	10221.88
885.481	10203.8
885.798	10129
886.115	10086.97
886.432	10129.23
886.75	10073.41
887.067	10122.9
887.383	10108.43
887.7	10050.13
888.017	9992.05
888.334	10019.4
888.651	9988.89
888.967	9923.58
889.284	9893.53
889.6	9844.49
889.917	9844.71
890.233	9842.45
890.55	9754.55
890.866	9798.16
891.182	9752.96
891.498	9759.74
891.815	9646.53
892.131	9649.01
892.447	9640.2
892.763	9574.89
893.079	9599.52
893.395	9574.89
893.71	9569.47
894.026	9545.74
894.342	9444.72
894.657	9345.97
894.973	9359.53
895.289	9379.19
895.604	9336.48
895.92	9228.91
896.235	9219.42
896.55	9262.81
896.865	9176.93
897.181	9192.53
897.496	9164.5
897.811	9069.59
898.126	9063.72
898.441	9023.27
898.756	9045.41
899.071	8924.06
899.386	8964.96
899.7	8884.51
900.015	8852.42
900.33	8844.29
900.644	8756.83
900.959	8756.83
901.273	8734.69
901.588	8650.39
901.902	8715.25
902.216	8668.7
902.531	8617.63
902.845	8605.88
903.159	8521.58
903.473	8487.46
903.787	8458.99
904.101	8441.13
904.415	8421.25
904.729	8408.14
905.042	8329.27
905.356	8293.79
905.67	8369.27
905.984	8324.75
906.297	8228.94
906.611	8160.24
906.924	8176.28
907.237	8179.67
907.551	8100.35
907.864	8116.62
908.177	8102.61
908.491	8058.32
908.804	7960.02
909.117	7913.46
909.43	7905.55
909.743	7838.44
910.056	7854.03
910.368	7851.54
910.681	7751.21
910.994	7739.91
911.307	7680.02
911.619	7683.64
911.932	7714.37
912.244	7596.18
912.557	7617.88
912.869	7554.6
913.181	7495.62
913.494	7467.6
913.806	7426.47
914.118	7451.56
914.43	7382.63
914.742	7329.07
915.054	7343.76
915.366	7306.47
915.678	7270.54
915.99	7258.34
916.302	7190.32
916.613	7150.09
916.925	7136.31
917.236	7131.34
917.548	7070.1
917.859	7061.74
918.171	7041.85
918.482	7007.95
918.794	6983.55
919.105	6988.97
919.416	6913.04
919.727	6879.59
920.038	6898.12
920.349	6791.91
920.66	6783.32
920.971	6743.1
921.282	6788.52
921.593	6732.7
921.903	6756.66
922.214	6682.54
922.525	6621.97
922.835	6593.27
923.146	6624.01
923.456	6613.84
923.767	6542.2
924.077	6525.25
924.387	6543.1
924.697	6443.67
925.008	6419.27
925.318	6409.55
925.628	6414.75
925.938	6358.7
926.248	6332.94
926.558	6286.39
926.867	6305.37
927.177	6302.66
927.487	6230.34
927.796	6180.18
928.106	6122.1
928.416	6149.89
928.725	6141.31
929.034	6130.69
929.344	6127.75
929.653	6091.37
929.962	6015.89
930.271	6002.1
930.581	5970.46
930.89	5961.2
931.199	5942.67
931.508	5884.14
931.817	5947.19
932.125	5887.08
932.434	5839.39
932.743	5831.26
933.051	5802.11
933.36	5775.67
933.669	5692.96
933.977	5678.95
934.286	5725.5
934.594	5670.36
934.902	5632.62
935.21	5623.81
935.519	5668.1
935.827	5603.02
936.135	5581.77
936.443	5498.84
936.751	5493.19
937.059	5449.8
937.367	5479.4
937.674	5471.95
937.982	5434.66
938.29	5420.87
938.597	5381.55
938.905	5349.92
939.213	5336.81
939.52	5297.26
939.827	5311.5
940.135	5257.26
940.442	5261.78
940.749	5257.94
941.056	5218.85
941.363	5120.32
941.67	5161.67
941.977	5116.25
942.284	5068.34
942.591	5090.71
942.898	5039.42
943.205	5065.86
943.511	5017.27
943.818	5003.26
944.125	4928.23
944.431	4911.06
944.738	4917.61
945.044	4920.77
945.35	4903.37
945.657	4906.31
945.963	4800.33
946.269	4836.26
946.575	4831.96
946.881	4794.9
947.187	4762.13
947.493	4717.39
947.799	4729.82
948.105	4734.79
948.41	4699.54
948.716	4660.22
949.022	4679.2
949.327	4623.61
949.633	4616.83
949.938	4606.66
950.244	4569.6
950.549	4581.12
950.854	4514.46
951.16	4507.45
951.465	4475.59
951.77	4481.46
952.075	4430.17
952.38	4454.12
952.685	4420.45
952.99	4379.32
953.294	4428.58
953.599	4352.88
953.904	4320.34
954.209	4313.33
954.513	4313.11
954.818	4313.33
955.122	4266.78
955.426	4223.17
955.731	4245.31
956.035	4200.12
956.339	4186.56
956.643	4164.64
956.948	4146.11
957.252	4162.6
957.556	4130.96
957.86	4067.01
958.163	4120.8
958.467	4051.87
958.771	4041.93
959.075	4005.09
959.378	4015.26
959.682	3990.18
959.985	3964.87
960.289	3971.65
960.592	3914.7
960.896	3917.19
961.199	3893.23
961.502	3891.65
961.805	3858.43
962.108	3814.59
962.411	3822.95
962.714	3869.5
963.017	3801.48
963.32	3764.19
963.623	3773.23
963.926	3765.32
964.228	3758.32
964.531	3735.95
964.833	3734.37
965.136	3655.5
965.438	3685.55
965.741	3691.65
966.043	3637.42
966.345	3628.61
966.648	3645.1
966.95	3608.27
967.252	3553.8
967.554	3581.6
967.856	3582.05
968.158	3554.26
968.46	3509.06
968.761	3487.82
969.063	3523.52
969.365	3465.45
969.666	3474.71
969.968	3443.53
970.269	3420.02
970.571	3468.84
970.872	3397.88
971.174	3363.3
971.475	3379.57
971.776	3371.44
972.077	3333.47
972.378	3340.25
972.679	3295.28
972.98	3298.44
973.281	3260.03
973.582	3300.93
973.883	3270.2
974.183	3216.86
974.484	3215.28
974.785	3204.44
975.085	3196.07
975.386	3221.84
975.686	3182.74
975.986	3170.31
976.287	3133.02
976.587	3118.56
976.887	3147.71
977.187	3109.97
977.487	3073.37
977.787	3083.53
978.087	3069.07
978.387	3044.67
978.687	3000.15
978.987	3010.54
979.286	3016.64
979.586	3018.45
979.885	2997.66
980.185	2969.19
980.484	2956.08
980.784	2912.24
981.083	2926.7
981.382	2941.17
981.682	2891.68
981.981	2933.48
982.28	2889.87
982.579	2866.82
982.878	2852.13
983.177	2866.82
983.475	2841.96
983.774	2821.17
984.073	2791.79
984.372	2797.21
984.67	2787.05
984.969	2749.98
985.267	2780.27
985.566	2726.03
985.864	2697.33
986.162	2720.15
986.461	2692.58
986.759	2682.87
987.057	2670.21
987.355	2662.98
987.653	2668.4
987.951	2651.23
988.249	2660.5
988.547	2615.07
988.844	2583.66
989.142	2611.91
989.44	2593.38
989.737	2568.97
990.035	2525.13
990.332	2535.75
990.63	2540.5
990.927	2498.01
991.224	2506.37
991.521	2516.77
991.819	2513.15
992.116	2471.8
992.413	2464.79
992.71	2439.71
993.006	2454.62
993.303	2427.96
993.6	2430.9
993.897	2403.78
994.193	2395.42
994.49	2389.54
994.787	2366.72
995.083	2363.78
995.379	2368.98
995.676	2335.98
995.972	2357
996.268	2311.13
996.565	2291.01
996.861	2305.25
997.157	2272.93
997.453	2281.97
997.749	2265.7
998.044	2237.91
998.34	2224.8
998.636	2232.03
998.932	2215.53
999.227	2160.17
999.523	2207.4
999.818	2192.71
1000.114	2180.51
1000.409	2147.97
1000.704	2150.9
1001	2113.62
1001.295	2120.62
1001.59	2065.93
1001.885	2108.19
1002.18	2087.63
1002.475	2079.49
1002.77	2063.22
1003.065	2049.44
1003.359	2044.47
1003.654	2017.35
1003.949	2013.05
1004.243	2006.95
1004.538	1986.16
1004.832	1985.71
1005.127	2008.31
1005.421	1959.04
1005.715	1935.32
1006.009	1936.45
1006.304	1936.45
1006.598	1929.89
1006.892	1898.03
1007.186	1888.54
1007.48	1867.52
1007.773	1857.35
1008.067	1849.44
1008.361	1856.22
1008.655	1848.99
1008.948	1806.51
1009.242	1844.25
1009.535	1803.12
1009.829	1813.06
1010.122	1803.57
1010.415	1796.34
1010.708	1774.87
1011.001	1749.11
1011.295	1750.69
1011.588	1734.19
1011.881	1721.54
1012.173	1741.65
1012.466	1723.34
1012.759	1724.25
1013.052	1714.76
1013.344	1700.75
1013.637	1672.72
1013.93	1656.45
1014.222	1665.49
1014.514	1627.75
1014.807	1632.95
1015.099	1624.14
1015.391	1630.69
1015.683	1620.52
1015.976	1607.42
1016.268	1609.68
1016.56	1576.46
1016.851	1560.18
1017.143	1541.43
1017.435	1539.62
1017.727	1535.33
1018.018	1540.75
1018.31	1483.8
1018.602	1503.69
1018.893	1500.98
1019.185	1509.56
1019.476	1497.14
1019.767	1450.81
1020.058	1455.78
1020.35	1433.18
1020.641	1444.48
1020.932	1445.16
1021.223	1400.19
1021.514	1401.77
1021.804	1408.1
1022.095	1405.39
1022.386	1388.89
1022.677	1396.8
1022.967	1360.64
1023.258	1363.81
1023.548	1381.21
1023.839	1346.18
1024.129	1336.91
1024.419	1311.83
1024.709	1313.64
1025	1305.73
1025.29	1312.06
1025.58	1304.37
1025.87	1299.63
1026.16	1295.33
1026.449	1279.97
1026.739	1239.06
1027.029	1236.58
1027.319	1253.07
1027.608	1223.02
1027.898	1216.01
1028.187	1209.91
1028.477	1235
1028.766	1205.62
1029.055	1211.27
1029.344	1190.93
1029.634	1187.99
1029.923	1157.71
1030.212	1187.31
1030.501	1140.08
1030.79	1168.1
1031.078	1142.57
1031.367	1132.17
1031.656	1106.19
1031.945	1118.39
1032.233	1116.58
1032.522	1119.07
1032.81	1102.8
1033.099	1105.96
1033.387	1089.69
1033.675	1080.88
1033.963	1050.59
1034.251	1047.88
1034.54	1075
1034.828	1063.25
1035.116	1050.82
1035.403	1054.89
1035.691	1015.79
1035.979	1053.53
1036.267	1023.93
1036.554	992.52
1036.842	988
1037.129	1013.76
1037.417	982.57
1037.704	1005.4
1037.992	978.05
1038.279	966.08
1038.566	967.88
1038.853	967.88
1039.14	967.88
