Data from hue_00_FLMS001491_69.txt Node
Date: Mon Feb 06 15:30:04 GMT 2017
User: dcchb
Spectrometer: FLMS00149
Trigger mode: 0
Integration Time (sec): 2.000000E-2
Scans to average: 10
Electric dark correction enabled: true
Nonlinearity correction enabled: false
Boxcar width: 0
XAxis mode: Wavelengths
Number of Pixels in Spectrum: 2048
>>>>>Begin Spectral Data<<<<<
341.393	-12.6
341.776	-12.6
342.16	-12.6
342.543	-54.86
342.927	-59.15
343.31	-97.12
343.693	-70.9
344.077	-51.24
344.46	-56.21
344.843	-54.63
345.226	-47.17
345.61	-25.48
345.993	-6.27
346.376	-14.18
346.759	23.11
347.142	40.51
347.525	16.33
347.908	72.82
348.291	85.93
348.674	78.02
349.057	106.49
349.44	118.25
349.823	156.21
350.206	183.33
350.588	203.67
350.971	208.19
351.354	225.14
351.737	215.87
352.119	270.56
352.502	275.53
352.884	277.34
353.267	279.82
353.65	295.64
354.032	312.82
354.414	318.69
354.797	306.94
355.179	331.57
355.562	330.67
355.944	313.95
356.326	327.73
356.709	306.26
357.091	328.41
357.473	349.65
357.855	351.01
358.238	340.84
358.62	354.4
359.002	325.92
359.384	369.76
359.766	322.08
360.148	350.33
360.53	325.47
360.912	319.37
361.294	311.91
361.676	325.7
362.057	321.63
362.439	315.3
362.821	324.57
363.203	318.69
363.584	323.89
363.966	302.2
364.348	308.97
364.729	327.05
365.111	327.28
365.493	319.14
365.874	318.47
366.256	320.5
366.637	336.54
367.019	295.87
367.4	325.25
367.781	311.01
368.163	306.72
368.544	310.1
368.925	297.45
369.306	323.21
369.688	308.3
370.069	301.29
370.45	314.62
370.831	310.33
371.212	298.58
371.593	310.78
371.974	321.4
372.355	327.96
372.736	300.84
373.117	319.6
373.498	315.75
373.879	315.75
374.26	297.9
374.641	323.21
375.021	311.69
375.402	325.02
375.783	308.52
376.163	315.3
376.544	333.16
376.925	308.97
377.305	309.65
377.686	306.72
378.066	323.66
378.447	326.6
378.827	322.76
379.208	337.9
379.588	334.06
379.968	327.05
380.349	323.44
380.729	312.82
381.109	334.51
381.489	330.44
381.87	334.06
382.25	325.47
382.63	327.28
383.01	324.34
383.39	309.2
383.77	342.19
384.15	364.57
384.53	347.62
384.91	341.74
385.29	344.91
385.67	327.05
386.049	330.22
386.429	346.49
386.809	336.54
387.189	331.12
387.568	325.7
387.948	345.58
388.328	350.56
388.707	321.86
389.087	333.16
389.466	338.35
389.846	334.74
390.225	328.64
390.605	353.49
390.984	340.84
391.363	360.5
391.743	358.01
392.122	365.7
392.501	328.64
392.881	369.76
393.26	374.28
393.639	369.54
394.018	382.19
394.397	366.37
394.776	370.89
395.155	349.43
395.534	379.71
395.913	377.9
396.292	365.24
396.671	369.31
397.05	374.06
397.429	374.51
397.808	379.71
398.186	372.7
398.565	360.27
398.944	373.61
399.323	392.14
399.701	379.48
400.08	374.28
400.458	379.26
400.837	381.29
401.215	374.28
401.594	387.39
401.972	384.45
402.351	388.52
402.729	386.71
403.107	372.02
403.486	379.03
403.864	396.2
404.242	399.37
404.62	417.67
404.999	380.16
405.377	405.7
405.755	411.12
406.133	415.86
406.511	407.28
406.889	415.19
407.267	418.35
407.645	433.94
408.023	413.38
408.401	433.72
408.779	414.73
409.156	422.19
409.534	424.45
409.912	439.37
410.29	443.89
410.667	409.76
411.045	443.66
411.422	422.42
411.8	447.95
412.178	454.28
412.555	444.11
412.933	448.18
413.31	429.65
413.687	441.63
414.065	442.76
414.442	455.64
414.819	448.63
415.197	464.23
415.574	469.42
415.951	469.65
416.328	470.1
416.705	476.43
417.082	481.17
417.46	491.57
417.837	481.63
418.214	474.85
418.591	489.54
418.967	497.9
419.344	492.47
419.721	503.32
420.098	501.96
420.475	528.63
420.852	514.39
421.228	497.9
421.605	498.35
421.982	520.04
422.358	527.05
422.735	485.69
423.111	515.52
423.488	516.43
423.864	531.79
424.241	540.83
424.617	543.77
424.994	548.06
425.37	532.7
425.746	558.91
426.123	529.99
426.499	545.58
426.875	553.49
427.251	566.82
427.627	579.02
428.003	543.55
428.379	570.89
428.756	575.41
429.132	587.39
429.507	563.66
429.883	589.87
430.259	592.36
430.635	601.85
431.011	596.2
431.387	607.5
431.763	605.92
432.138	608.85
432.514	616.54
432.89	614.05
433.265	617.89
433.641	633.26
434.016	633.49
434.392	642.3
434.767	638.01
435.143	660.83
435.518	658.8
435.894	665.8
436.269	652.24
436.644	663.09
437.02	670.77
437.395	675.74
437.77	693.82
438.145	696.99
438.52	709.19
438.895	703.54
439.271	694.28
439.646	719.81
440.021	701.96
440.395	737.66
440.77	722.3
441.145	707.38
441.52	739.47
441.895	713.26
442.27	768.85
442.645	722.75
443.019	739.25
443.394	749.19
443.769	751.9
444.143	736.08
444.518	757.55
444.892	761.39
445.267	744.44
445.641	753.03
446.016	745.35
446.39	759.36
446.764	753.93
447.139	774.05
447.513	780.15
447.887	774.95
448.262	770.88
448.636	767.04
449.01	806.14
449.384	795.97
449.758	789.19
450.132	786.02
450.506	800.49
450.88	807.27
451.254	835.06
451.628	821.05
452.002	852.69
452.376	816.31
452.75	844.55
453.123	856.08
453.497	858.56
453.871	844.78
454.244	879.81
454.618	856.53
454.992	893.14
455.365	870.32
455.739	885.91
456.112	911.9
456.486	915.29
456.859	925.68
457.232	937.43
457.606	912.35
457.979	934.72
458.352	953.93
458.725	952.35
459.099	969.52
459.472	957.09
459.845	986.92
460.218	990.54
460.591	1003.19
460.964	1043.19
461.337	1029.86
461.71	1015.85
462.083	1049.29
462.456	1033.93
462.829	1049.75
463.201	1072.57
463.574	1087.94
463.947	1094.72
464.32	1094.49
464.692	1127.03
465.065	1125.9
465.438	1120.7
465.81	1123.87
466.183	1166.58
466.555	1163.64
466.928	1183.53
467.3	1168.39
467.672	1200.48
468.045	1224.21
468.417	1221.95
468.789	1233.47
469.161	1251.32
469.534	1278.21
469.906	1284.99
470.278	1298.33
470.65	1331.09
471.022	1320.25
471.394	1362.96
471.766	1370.19
472.138	1377.42
472.51	1416.29
472.882	1415.39
473.253	1436.85
473.625	1491.54
473.997	1456.74
474.369	1506.46
474.74	1539
475.112	1538.55
475.484	1582.39
475.855	1588.04
476.227	1620.8
476.598	1668.94
476.97	1689.96
477.341	1692.22
477.713	1720.92
478.084	1722.5
478.455	1802.95
478.827	1828.71
479.198	1905.54
479.569	1847.24
479.94	1907.58
480.311	1944.64
480.682	1976.5
481.053	2004.98
481.424	2021.92
481.795	2050.4
482.166	2101.02
482.537	2159.1
482.908	2192.54
483.279	2202.48
483.65	2235.03
484.021	2318.87
484.391	2309.6
484.762	2325.19
485.133	2372.2
485.503	2397.73
485.874	2479.54
486.244	2506.21
486.615	2522.48
486.985	2564.28
487.356	2598.86
487.726	2627.33
488.097	2710.72
488.467	2711.17
488.837	2780.55
489.207	2774.45
489.578	2849.7
489.948	2887.89
490.318	2924.95
490.688	2905.06
491.058	2959.75
491.428	3033.42
491.798	3050.37
492.168	3104.38
492.538	3117.71
492.908	3174.89
493.278	3221.21
493.648	3213.08
494.017	3232.29
494.387	3308.67
494.757	3338.27
495.126	3329.46
495.496	3399.74
495.866	3398.39
496.235	3464.37
496.605	3472.73
496.974	3462.56
497.344	3513.18
497.713	3543.69
498.082	3569.45
498.452	3610.36
498.821	3629.11
499.19	3636.57
499.559	3688.55
499.928	3727.64
500.298	3746.4
500.667	3730.35
501.036	3724.03
501.405	3801.31
501.774	3789.34
502.143	3837.7
502.512	3863.23
502.88	3843.12
503.249	3924.02
503.618	3937.81
503.987	3895.55
504.356	3950.01
504.724	3992.49
505.093	3942.55
505.462	3979.61
505.83	4010.35
506.199	4059.84
506.567	4070.91
506.936	4085.82
507.304	4120.85
507.672	4153.62
508.041	4159.04
508.409	4206.05
508.777	4185.03
509.145	4249.44
509.514	4220.74
509.882	4285.37
510.25	4260.51
510.618	4275.65
510.986	4295.08
511.354	4299.15
511.722	4375.08
512.09	4371.02
512.458	4391.58
512.826	4450.11
513.193	4426.15
513.561	4476.1
513.929	4482.88
514.297	4470.22
514.664	4470.45
515.032	4509.77
515.4	4541.86
515.767	4585.7
516.135	4564.46
516.502	4550.22
516.869	4602.2
517.237	4621.4
517.604	4577.79
517.972	4628.18
518.339	4655.53
518.706	4660.5
519.073	4694.4
519.44	4649.2
519.808	4733.49
520.175	4726.26
520.542	4768.07
520.909	4789.54
521.276	4799.48
521.643	4784.56
522.009	4813.26
522.376	4858.91
522.743	4824.56
523.11	4895.07
523.477	4956.99
523.843	4993.82
524.21	5026.82
524.577	5017.1
524.943	5044.22
525.31	5028.17
525.676	5100.49
526.043	5112.46
526.409	5114.27
526.776	5193.14
527.142	5168.06
527.508	5162.41
527.874	5219.13
528.241	5269.75
528.607	5225.68
528.973	5300.71
529.339	5307.04
529.705	5351.55
530.071	5380.48
530.437	5389.97
530.803	5421.16
531.169	5502.28
531.535	5422.74
531.901	5474.94
532.267	5531.89
532.632	5550.19
532.998	5575.28
533.364	5579.57
533.73	5641.72
534.095	5682.62
534.461	5681.04
534.826	5683.97
535.192	5711.54
535.557	5726.23
535.923	5798.55
536.288	5788.83
536.653	5770.75
537.019	5836.97
537.384	5841.48
537.749	5853.69
538.114	5860.92
538.479	5897.53
538.845	5927.58
539.21	5908.83
539.575	5989.73
539.94	5985.89
540.305	6053.91
540.67	6038.77
541.034	6036.51
541.399	6080.12
541.764	6059.78
542.129	6180.91
542.494	6143.85
542.858	6177.3
543.223	6234.47
543.587	6253
543.952	6262.72
544.316	6308.14
544.681	6310.63
545.045	6298.65
545.41	6323.73
545.774	6420.9
546.138	6392.2
546.503	6411.64
546.867	6451.19
547.231	6493.45
547.595	6494.35
547.959	6514.69
548.324	6513.33
548.688	6553.33
549.052	6554.01
549.416	6579.77
549.779	6613.89
550.143	6636.04
550.507	6708.13
550.871	6641.24
551.235	6753.55
551.599	6743.61
551.962	6775.92
552.326	6768.69
552.689	6819.09
553.053	6787.45
553.417	6767.11
553.78	6872.64
554.143	6835.13
554.507	6909.03
554.87	6960.78
555.234	7016.37
555.597	6975.69
555.96	6954.68
556.323	7021.79
556.686	6958.74
557.05	7096.37
557.413	7116.71
557.776	7053.43
558.139	7134.11
558.502	7131.17
558.865	7139.08
559.228	7147.89
559.59	7251.17
559.953	7223.82
560.316	7300.88
560.679	7247.78
561.041	7348.79
561.404	7316.7
561.767	7370.03
562.129	7396.25
562.492	7438.05
562.854	7422.23
563.217	7408.68
563.579	7438.73
563.941	7533.64
564.304	7518.05
564.666	7581.1
565.028	7549.01
565.39	7569.57
565.753	7639.86
566.115	7625.84
566.477	7739.97
566.839	7702.23
567.201	7735.22
567.563	7785.39
567.925	7901.54
568.287	7824.26
568.648	7876.69
569.01	7869.91
569.372	7992.16
569.734	7905.16
570.095	8005.27
570.457	8081.88
570.819	8118.49
571.18	8109.9
571.542	8074.65
571.903	8146.96
572.265	8194.64
572.626	8233.51
572.987	8308.54
573.349	8374.07
573.71	8409.33
574.071	8461.3
574.432	8442.32
574.794	8591.02
575.155	8554.41
575.516	8670.34
575.877	8614.97
576.238	8777.23
576.599	8870.33
576.96	8845.93
577.32	8963.21
577.681	9036.2
578.042	9188.29
578.403	9157.1
578.763	9255.86
579.124	9302.18
579.485	9470.54
579.845	9584.44
580.206	9662.4
580.566	9789.86
580.927	9838.22
581.287	9980.81
581.648	10032.79
582.008	10219.9
582.368	10353.68
582.728	10501.02
583.089	10595.48
583.449	10744.86
583.809	10931.75
584.169	11044.74
584.529	11179.2
584.889	11445.63
585.249	11571.96
585.609	11745.28
585.969	11957.48
586.329	12078.38
586.688	12357.25
587.048	12543
587.408	12655.77
587.768	12889.21
588.127	13083.1
588.487	13302.98
588.846	13613.48
589.206	13829.07
589.565	13993.13
589.925	14337.98
590.284	14504.99
590.643	14763.96
591.003	15000.34
591.362	15413.21
591.721	15555.35
592.08	15848.68
592.44	16147.88
592.799	16330.47
593.158	16611.37
593.517	16820.63
593.876	17231.47
594.235	17394.63
594.593	17645.24
594.952	17890.89
595.311	18210.43
595.67	18644.54
596.029	18810.41
596.387	19130.4
596.746	19465.53
597.104	19637.73
597.463	19917.27
597.822	20278.85
598.18	20530.36
598.538	20733.3
598.897	21289.21
599.255	21379.16
599.613	21855.75
599.972	22044.22
600.33	22299.36
600.688	22559.92
601.046	22850.76
601.404	23143.18
601.762	23392.21
602.12	23683.05
602.478	23955.36
602.836	24169.82
603.194	24365.97
603.552	24694.1
603.91	24810.03
604.268	25314.42
604.625	25340.18
604.983	25642.09
605.341	25811.36
605.698	26155.98
606.056	26539.92
606.413	26657.21
606.771	26891.78
607.128	27165.9
607.485	27257.87
607.843	27474.36
608.2	27814.92
608.557	28206.32
608.914	28225.08
609.272	28489.7
609.629	28622.35
609.986	29017.37
610.343	29028.45
610.7	29417.36
611.057	29530.58
611.414	29704.36
611.771	29838.59
612.127	30314.06
612.484	30281.97
612.841	30732.81
613.198	30781.85
613.554	30800.15
613.911	31129.86
614.267	31240.14
614.624	31417.99
614.98	31567.59
615.337	31892.1
615.693	31933.23
616.05	32045.32
616.406	32320.34
616.762	32516.26
617.118	32487.79
617.475	32721.68
617.831	32909.47
618.187	33098.85
618.543	33109.24
618.899	33399.63
619.255	33468.78
619.611	33418.84
619.967	33756.68
620.323	33793.97
620.678	33816.79
621.034	33793.07
621.39	34055.43
621.746	33976.79
622.101	34438.47
622.457	34263.56
622.812	34532.71
623.168	34758.24
623.523	34612.48
623.879	34846.15
624.234	34735.19
624.589	34863.32
624.945	35096.08
625.3	35149.41
625.655	35047.72
626.01	35224.44
626.365	35300.6
626.72	35335.4
627.075	35339.01
627.43	35435.06
627.785	35327.49
628.14	35521.16
628.495	35712.79
628.85	35811.32
629.205	35638.22
629.559	35899.23
629.914	35834.59
630.269	35811.32
630.623	35810.64
630.978	35822.62
631.332	36028.49
631.687	36050.86
632.041	35911.88
632.396	36018.09
632.75	35898.32
633.104	36134.47
633.459	35873.92
633.813	36032.56
634.167	35917.98
634.521	35977.64
634.875	36049.05
635.229	36035.04
635.583	35882.28
635.937	35993.69
636.291	35918.43
636.645	36026.45
636.999	35936.74
637.352	36070.75
637.706	35917.53
638.06	36024.42
638.413	35945.33
638.767	35998.43
639.121	36061.26
639.474	35902.62
639.828	36051.31
640.181	36154.59
640.534	36030.07
640.888	35955.95
641.241	35748.27
641.594	35878.44
641.947	36035.72
642.301	35823.52
642.654	35831.66
643.007	35838.21
643.36	35946.23
643.713	35836.63
644.066	35948.94
644.419	35712.11
644.771	35485.23
645.124	35240.71
645.477	35173.82
645.83	34875.98
646.182	34989.64
646.535	34758.01
646.888	34804.79
647.24	34762.76
647.593	34885.01
647.945	34790.33
648.298	34681.63
648.65	34633.27
649.002	34592.59
649.355	34768.18
649.707	34562.99
650.059	34741.52
650.411	35235.51
650.763	35191.45
651.115	35573.13
651.467	35361.84
651.819	35552.57
652.171	35360.93
652.523	35300.15
652.875	35473.02
653.227	35210.43
653.578	35491.55
653.93	35389.63
654.282	35219.02
654.633	35080.49
654.985	35213.59
655.337	35194.61
655.688	35291.33
656.039	35463.76
656.391	34968.63
656.742	35206.59
657.094	35282.97
657.445	35387.83
657.796	35088.17
658.147	35065.35
658.498	35195.29
658.849	35180.15
659.2	35226.02
659.551	34998.91
659.902	35173.14
660.253	35075.97
660.604	35057.67
660.955	35072.58
661.306	35080.04
661.656	35082.3
662.007	35078.46
662.358	35071.45
662.708	35130.66
663.059	35062.19
663.409	34885.69
663.76	34989.19
664.11	35107.83
664.461	35162.3
664.811	35088.4
665.161	35045.69
665.511	35096.53
665.862	34983.32
666.212	35251.56
666.562	35126.14
666.912	35109.87
667.262	35019.93
667.612	34853.15
667.962	35046.82
668.312	34806.37
668.662	35159.13
669.011	34859.7
669.361	34856.32
669.711	34929.76
670.06	34781.51
670.41	34835.3
670.76	34631.01
671.109	34943.32
671.459	34869.2
671.808	34781.51
672.157	34813.15
672.507	34559.83
672.856	34675.98
673.205	34799.82
673.554	34858.12
673.904	34642.54
674.253	34925.01
674.602	34707.84
674.951	34157.58
675.3	34069.67
675.649	34649.31
675.998	34565.25
676.346	34683.89
676.695	34777.9
677.044	34450.45
677.393	34464.91
677.741	34618.81
678.09	34600.95
678.438	34483.22
678.787	34522.54
679.135	34514.4
679.484	34302.88
679.832	34394.18
680.181	34248.42
680.529	34326.61
680.877	34192.83
681.225	34111.25
681.573	34386.05
681.922	34014.53
682.27	34039.61
682.618	33885.72
682.966	33983.12
683.314	33997.13
683.661	33920.97
684.009	33694.09
684.357	33647.76
684.705	33694.54
685.053	33590.36
685.4	33672.84
685.748	33451.83
686.095	33490.02
686.443	33426.07
686.79	33259.07
687.138	33354.21
687.485	33414.77
687.832	33258.62
688.18	33184.49
688.527	33035.8
688.874	33105.4
689.221	33021.79
689.568	33002.35
689.915	32900.21
690.262	32895.46
690.609	32848.23
690.956	32698.86
691.303	32744.51
691.65	32475.81
691.997	32582.7
692.344	32273.11
692.69	32338.87
693.037	32284.18
693.383	32071.98
693.73	32173.67
694.077	31993.79
694.423	31918.99
694.769	31883.74
695.116	31903.85
695.462	31772.33
695.808	31562.39
696.155	31702.95
696.501	31493.92
696.847	31462.73
697.193	31313.58
697.539	31425.22
697.885	31098.22
698.231	30980.48
698.577	30970.77
698.923	30927.15
699.269	30806.03
699.614	30652.81
699.96	30577.33
700.306	30766.71
700.651	30447.84
700.997	30436.32
701.342	30465.92
701.688	30354.29
702.033	30274.29
702.379	30177.12
702.724	30105.03
703.069	30203.78
703.415	29772.38
703.76	29794.3
704.105	29829.33
704.45	29752.72
704.795	29594.98
705.14	29541.43
705.485	29445.38
705.83	29400.87
706.175	29531.71
706.52	29382.56
706.865	29333.52
707.209	29306.63
707.554	29079.52
707.899	29277.03
708.243	28986.19
708.588	29068.67
708.932	28849.69
709.277	28717.49
709.621	28825.29
709.966	28572.86
710.31	28712.3
710.654	28417.39
710.998	28467.78
711.342	28501.68
711.687	28347.56
712.031	28305.98
712.375	28051.75
712.719	28150.73
713.063	28145.31
713.407	28196.6
713.75	28053.78
714.094	28019.66
714.438	27917.06
714.782	27967.68
715.125	27854.01
715.469	27775.15
715.812	27696.96
716.156	27605.66
716.499	27614.92
716.843	27602.27
717.186	27481.14
717.53	27502.84
717.873	27628.48
718.216	27479.79
718.559	27288.6
718.902	27226.01
719.246	27176.97
719.589	27182.62
719.932	27125.9
720.275	27048.16
720.617	26976.3
720.96	27030.98
721.303	27069.85
721.646	26993.25
721.989	26783.76
722.331	26921.61
722.674	26791.89
723.016	26821.95
723.359	26706.7
723.701	26706.92
724.044	26467.38
724.386	26421.73
724.729	26768.39
725.071	26474.39
725.413	26483.43
725.755	26482.98
726.097	26293.15
726.439	26232.81
726.782	26218.58
727.124	26314.62
727.465	26169.09
727.807	26089.31
728.149	26104.45
728.491	26000.73
728.833	26021.97
729.175	25890.68
729.516	25928.87
729.858	25921.63
730.199	25849.09
730.541	25867.17
730.882	25788.53
731.224	25918.92
731.565	25714.86
731.906	25654.75
732.248	25674.86
732.589	25513.74
732.93	25381.76
733.271	25402.1
733.612	25391.93
733.953	25492.04
734.294	25319.16
734.635	25285.95
734.976	25443
735.317	25275.78
735.658	25171.37
735.999	25278.26
736.339	25207.08
736.68	25273.52
737.021	25066.97
737.361	25010.92
737.702	25166.85
738.042	25026.97
738.383	24970.47
738.723	25092.5
739.063	24930.47
739.404	25029.45
739.744	24954.43
740.084	24859.52
740.424	24838.27
740.764	24746.3
741.104	24766.64
741.444	24663.81
741.784	24677.15
742.124	24675.79
742.464	24570.94
742.804	24539.98
743.143	24622.01
743.483	24504.5
743.823	24358.74
744.162	24460.43
744.502	24416.36
744.841	24259.76
745.181	24395.35
745.52	24298.4
745.86	24318.29
746.199	24212.53
746.538	24172.75
746.877	24236.93
747.216	24204.84
747.556	24059.54
747.895	24190.61
748.234	23922.82
748.573	23996.94
748.911	23914.46
749.25	23899.09
749.589	23853.44
749.928	23827.45
750.267	23851.41
750.605	23713.33
750.944	23754.91
751.283	23587.23
751.621	23653.45
751.96	23612.99
752.298	23520.79
752.636	23524.41
752.975	23345.43
753.313	23256.62
753.651	23417.07
753.989	23559.66
754.327	23242.84
754.666	23126.23
755.004	23140.01
755.342	23190.63
755.679	23144.76
756.017	23003.52
756.355	23141.14
756.693	23060.92
757.031	22937.08
757.368	22856.63
757.706	22823.64
758.044	22796.75
758.381	22832.22
758.719	22787.48
759.056	22716.07
759.394	22562.18
759.731	22408.51
760.068	22431.78
760.405	22268.4
760.743	22341.39
761.08	22381.16
761.417	22227.72
761.754	22166.93
762.091	22117.22
762.428	22038.12
762.765	21923.32
763.102	22027.95
763.438	21810.1
763.775	21802.2
764.112	21721.75
764.449	21767.17
764.785	21659.83
765.122	21468.87
765.458	21402.21
765.795	21448.08
766.131	21326.05
766.467	21256.67
766.804	21232.27
767.14	21040.63
767.476	21158.37
767.812	21010.58
768.148	21069.56
768.485	20883.58
768.821	20750.7
769.157	20902.11
769.492	20632.73
769.828	20576.46
770.164	20499.86
770.5	20502.79
770.836	20525.39
771.171	20359.3
771.507	20332.86
771.842	20113.43
772.178	20081.34
772.513	20103.71
772.849	19974.45
773.184	19886.77
773.519	19946.65
773.855	19854.9
774.19	19687
774.525	19682.02
774.86	19678.41
775.195	19656.71
775.53	19567
775.865	19403.84
776.2	19332.43
776.535	19198.87
776.87	19096.05
777.205	19169.04
777.539	19042.72
777.874	18997.3
778.209	18920.69
778.543	18911.2
778.878	18724.54
779.212	18747.36
779.547	18602.51
779.881	18718.21
780.215	18558.44
780.55	18543.52
780.884	18426.01
781.218	18344.21
781.552	18351.66
781.886	18280.93
782.22	18208.62
782.554	18210.2
782.888	17878.68
783.222	17885.91
783.556	17759.82
783.889	17787.39
784.223	17655.19
784.557	17645.92
784.89	17706.94
785.224	17504.45
785.557	17419.49
785.891	17360.05
786.224	17334.06
786.558	17328.64
786.891	17163
787.224	16995.77
787.557	17114.63
787.891	17127.97
788.224	17021.76
788.557	17061.3
788.89	16849.56
789.223	16987.18
789.556	16689.79
789.888	16721.88
790.221	16681.65
790.554	16520.3
790.887	16601.43
791.219	16510.36
791.552	16445.5
791.884	16304.26
792.217	16315.11
792.549	16189.69
792.882	16124.38
793.214	16007.09
793.546	16155.56
793.879	15998.28
794.211	15899.3
794.543	15991.27
794.875	15859.3
795.207	15789.7
795.539	15729.13
795.871	15726.65
796.203	15646.65
796.535	15584.05
796.867	15604.17
797.198	15439.42
797.53	15478.52
797.862	15304.96
798.193	15358.07
798.525	15292.31
798.856	15318.3
799.188	15165.99
799.519	15112.43
799.85	15084.86
800.182	15034.69
800.513	15000.11
800.844	14841.02
801.175	14976.39
801.506	14949.04
801.837	14782.72
802.168	14747.01
802.499	14844.19
802.83	14634.25
803.161	14676.05
803.491	14591.99
803.822	14555.61
804.153	14569.62
804.483	14320.81
804.814	14450.52
805.145	14368.49
805.475	14384.31
805.805	14276.74
806.136	14200.59
806.466	14235.61
806.796	14217.54
807.126	14060.48
807.457	13969.18
807.787	14050.08
808.117	13923.53
808.447	13955.85
808.777	14004.66
809.107	13888.96
809.436	13875.62
809.766	13863.19
810.096	13794.72
810.426	13741.16
810.755	13729.41
811.085	13753.82
811.414	13658.68
811.744	13601.96
812.073	13591.79
812.403	13582.07
812.732	13493.71
813.061	13510.89
813.39	13342.76
813.719	13326.71
814.049	13467.72
814.378	13321.29
814.707	13290.33
815.036	13298.46
815.365	13187.51
815.693	13044.91
816.022	13079.71
816.351	12995.65
816.68	12996.55
817.008	13073.61
817.337	12875.88
817.665	12880.85
817.994	12956.1
818.322	12913.84
818.651	12844.24
818.979	12806.95
819.307	12846.95
819.636	12783.22
819.964	12719.5
820.292	12800.62
820.62	12766.5
820.948	12700.51
821.276	12744.81
821.604	12668.42
821.932	12727.63
822.259	12679.27
822.587	12644.7
822.915	12664.58
823.243	12674.98
823.57	12590.23
823.898	12696.22
824.225	12579.84
824.553	12684.02
824.88	12589.56
825.207	12718.82
825.535	12598.6
825.862	12613.96
826.189	12563.34
826.516	12647.41
826.843	12703.45
827.17	12576.67
827.497	12643.57
827.824	12635.66
828.151	12608.54
828.478	12642.66
828.805	12732.38
829.131	12526.28
829.458	12572.38
829.785	12523.79
830.111	12574.87
830.438	12648.09
830.764	12607.41
831.09	12624.36
831.417	12543.68
831.743	12675.66
832.069	12552.95
832.395	12495.32
832.722	12550.23
833.048	12484.25
833.374	12522.21
833.7	12442.22
834.026	12440.86
834.351	12459.62
834.677	12434.76
835.003	12460.29
835.329	12486.28
835.654	12337.36
835.98	12353.18
836.306	12284.93
836.631	12306.85
836.956	12299.17
837.282	12317.7
837.607	12291.03
837.932	12293.97
838.258	12243.12
838.583	12287.64
838.908	12143.92
839.233	12193.18
839.558	12138.04
839.883	12128.33
840.208	12133.52
840.533	12114.31
840.858	12098.72
841.182	12075.67
841.507	12116.57
841.832	11965.17
842.156	11936.92
842.481	11933.75
842.805	11897.37
843.13	11878.16
843.454	11900.53
843.778	11816.92
844.103	11803.81
844.427	11772.63
844.751	11782.8
845.075	11743.7
845.399	11680.65
845.723	11691.27
846.047	11689.24
846.371	11524.5
846.695	11564.5
847.019	11448.57
847.343	11415.35
847.666	11406.99
847.99	11311.62
848.313	11290.16
848.637	11260.33
848.96	11200.89
849.284	11164.06
849.607	11097.84
849.931	11135.13
850.254	11019.88
850.577	10984.4
850.9	10894.23
851.223	10899.43
851.546	10821.47
851.869	10780.11
852.192	10763.62
852.515	10740.34
852.838	10699.66
853.161	10696.5
853.483	10501.25
853.806	10577.18
854.129	10581.25
854.451	10505.77
854.774	10532.89
855.096	10394.81
855.419	10406.11
855.741	10344.42
856.063	10333.8
856.385	10324.76
856.708	10243.63
857.03	10195.27
857.352	10234.36
857.674	10168.83
857.996	10200.47
858.318	10111.2
858.64	10057.42
858.961	10060.13
859.283	10032.56
859.605	10027.59
859.926	10030.98
860.248	9966.12
860.57	9941.49
860.891	9941.04
861.212	9844.32
861.534	9890.42
861.855	9849.74
862.176	9861.72
862.498	9844.09
862.819	9873.24
863.14	9774.71
863.461	9729.52
863.782	9679.35
864.103	9693.59
864.424	9746.69
864.745	9697.65
865.065	9631.67
865.386	9598.22
865.707	9613.59
866.027	9610.88
866.348	9566.36
866.668	9475.06
866.989	9527.26
867.309	9535.62
867.63	9556.19
867.95	9511.67
868.27	9412.92
868.59	9493.59
868.91	9431.22
869.23	9400.71
869.55	9417.44
869.87	9416.31
870.19	9349.64
870.51	9421.96
870.83	9397.32
871.15	9287.27
871.469	9337.21
871.789	9289.98
872.109	9356.19
872.428	9253.37
872.748	9300.15
873.067	9212.02
873.386	9322.52
873.706	9255.63
874.025	9188.97
874.344	9150.1
874.663	9202.75
874.982	9148.52
875.301	9148.06
875.62	9081.17
875.939	9056.99
876.258	9091.34
876.577	9019.71
876.896	9061.51
877.214	9076.43
877.533	9090.89
877.852	9012.7
878.17	9019.48
878.489	9015.19
878.807	9021.97
879.125	8875.53
879.444	8948.3
879.762	8904.91
880.08	8951.23
880.398	8826.49
880.716	8868.3
881.034	8912.82
881.352	8915.75
881.67	8794.85
881.988	8825.36
882.306	8832.59
882.624	8783.1
882.941	8749.88
883.259	8714.63
883.577	8750.11
883.894	8649.77
884.212	8631.69
884.529	8715.99
884.846	8649.32
885.164	8615.88
885.481	8560.96
885.798	8607.97
886.115	8551.92
886.432	8474.41
886.75	8462.66
887.067	8499.95
887.383	8414.52
887.7	8485.71
888.017	8390.34
888.334	8430.34
888.651	8390.57
888.967	8315.54
889.284	8313.51
889.6	8320.74
889.917	8246.62
890.233	8252.95
890.55	8238.03
890.866	8226.96
891.182	8179.5
891.498	8210.24
891.815	8129.11
892.131	8191.03
892.447	8073.97
892.763	8067.87
893.079	8054.76
893.395	8034.42
893.71	7997.81
894.026	7975.89
894.342	7944.93
894.657	7969.11
894.973	7911.49
895.289	7899.51
895.604	7871.26
895.92	7813.86
896.235	7812.96
896.55	7829.23
896.865	7712.62
897.181	7714.66
897.496	7731.38
897.811	7677.37
898.126	7664.26
898.441	7623.13
898.756	7637.6
899.071	7579.29
899.386	7602.79
899.7	7534.55
900.015	7472.18
900.33	7415.68
900.644	7443.93
900.959	7408.9
901.273	7389.24
901.588	7380.88
901.902	7296.36
902.216	7271.5
902.531	7263.82
902.845	7281.67
903.159	7209.13
903.473	7177.27
903.787	7160.55
904.101	7111.51
904.415	7132.3
904.729	7118.51
905.042	7035.58
905.356	7024.28
905.67	7024.05
905.984	6986.99
906.297	6986.54
906.611	6935.92
906.924	6949.48
907.237	6887.11
907.551	6838.52
907.864	6827.45
908.177	6848.01
908.491	6822.7
908.804	6746.09
909.117	6703.38
909.43	6695.47
909.743	6649.6
910.056	6676.94
910.368	6641.46
910.681	6602.37
910.994	6549.94
911.307	6540.68
911.619	6483.5
911.932	6510.17
912.244	6395.82
912.557	6444.18
912.869	6429.04
913.181	6408.7
913.494	6344.75
913.806	6389.49
914.118	6305.88
914.43	6251.42
914.742	6264.3
915.054	6234.24
915.366	6155.83
915.678	6196.96
915.99	6161.25
916.302	6109.95
916.613	6129.84
916.925	6043.51
917.236	6094.59
917.548	6044.42
917.859	6090.29
918.171	6017.98
918.482	5961.48
918.794	5921.26
919.105	5921.03
919.416	5920.35
919.727	5881.26
920.038	5857.76
920.349	5820.92
920.66	5774.14
920.971	5808.94
921.282	5697.76
921.593	5688.49
921.903	5699.12
922.214	5663.41
922.525	5669.06
922.835	5605.56
923.146	5582.51
923.456	5590.19
923.767	5559.46
924.077	5504.54
924.387	5536.63
924.697	5494.83
925.008	5486.69
925.318	5442.4
925.628	5439.01
925.938	5369.63
926.248	5377.54
926.558	5365.57
926.867	5323.76
927.177	5290.31
927.487	5264.1
927.796	5223.42
928.106	5195.63
928.416	5234.04
928.725	5189.98
929.034	5170.09
929.344	5185
929.653	5181.39
929.962	5140.26
930.271	5070.88
930.581	5036.31
930.89	5052.35
931.199	4990.89
931.508	5007.38
931.817	5019.81
932.125	4956.54
932.434	4921.73
932.743	4889.87
933.051	4856.2
933.36	4878.8
933.669	4866.6
933.977	4770.55
934.286	4812.36
934.594	4836.54
934.902	4763.1
935.21	4717.45
935.519	4763.32
935.827	4725.13
936.135	4708.86
936.443	4623.21
936.751	4673.38
937.059	4647.39
937.367	4613.27
937.674	4604.91
937.982	4578.02
938.29	4529.2
938.597	4572.59
938.905	4528.75
939.213	4506.38
939.52	4474.29
939.827	4459.6
940.135	4437
940.442	4391.58
940.749	4418.25
941.056	4399.04
941.363	4332.37
941.67	4377.57
941.977	4335.76
942.284	4290.11
942.591	4308.64
942.898	4245.82
943.205	4289.66
943.511	4259.61
943.818	4225.93
944.125	4230.91
944.431	4174.18
944.738	4158.37
945.044	4141.87
945.35	4145.26
945.657	4121.98
945.963	4100.51
946.269	4042.21
946.575	4089.89
946.881	4065.26
947.187	4062.77
947.493	3987.07
947.799	3994.53
948.105	3978.26
948.41	3947.52
948.716	3954.75
949.022	3907.98
949.327	3936.45
949.633	3875.21
949.938	3896.45
950.244	3880.86
950.549	3851.71
950.854	3831.82
951.16	3815.55
951.465	3798.15
951.77	3739.62
952.075	3782.1
952.38	3732.16
952.685	3746.62
952.99	3730.13
953.294	3674.99
953.599	3717.47
953.904	3678.38
954.209	3626.4
954.513	3663.46
954.818	3596.8
955.122	3604.71
955.426	3636.12
955.731	3565.39
956.035	3557.7
956.339	3547.99
956.643	3484.48
956.948	3513.64
957.252	3537.14
957.556	3490.59
957.86	3472.28
958.163	3442
958.467	3431.38
958.771	3407.88
959.075	3402.45
959.378	3416.24
959.682	3420.98
959.985	3359.74
960.289	3359.74
960.592	3332.17
960.896	3347.09
961.199	3334.43
961.502	3308.67
961.805	3294.43
962.108	3254.43
962.411	3268.9
962.714	3274.09
963.017	3242.46
963.32	3215.79
963.623	3222.34
963.926	3199.52
964.228	3207.88
964.531	3122.46
964.833	3150.48
965.136	3142.57
965.438	3126.98
965.741	3093.53
966.043	3091.73
966.345	3058.51
966.648	3043.82
966.95	3065.29
967.252	3032.52
967.554	3041.33
967.856	3006.53
968.158	3003.37
968.46	2968.79
968.761	2994.78
969.063	2962.24
969.365	2937.38
969.666	2953.43
969.968	2959.3
970.269	2923.14
970.571	2883.6
970.872	2913.2
971.174	2861.9
971.475	2869.81
971.776	2852.64
972.077	2821.23
972.378	2809.47
972.679	2828.68
972.98	2806.54
973.281	2785.07
973.582	2751.85
973.883	2740.55
974.183	2744.62
974.484	2731.74
974.785	2727.44
975.085	2708.01
975.386	2729.93
975.686	2739.42
975.986	2642.92
976.287	2694.9
976.587	2621.23
976.887	2643.83
977.187	2634.79
977.487	2657.16
977.787	2596.37
978.087	2605.86
978.387	2578.97
978.687	2583.94
978.987	2574.68
979.286	2563.15
979.586	2531.74
979.885	2531.06
980.185	2498.07
980.484	2512.08
980.784	2505.53
981.083	2504.62
981.382	2495.36
981.682	2477.28
981.981	2466.43
982.28	2473.89
982.579	2423.5
982.878	2450.39
983.177	2428.69
983.475	2393.67
983.774	2367
984.073	2347.79
984.372	2388.24
984.67	2359.77
984.969	2390.5
985.267	2318.87
985.566	2362.93
985.864	2327.68
986.162	2347.79
986.461	2290.84
986.759	2274.8
987.057	2260.11
987.355	2257.4
987.653	2285.87
987.951	2249.49
988.249	2265.99
988.547	2268.25
988.844	2239.77
989.142	2225.99
989.44	2217.17
989.737	2163.16
990.035	2181.24
990.332	2205.42
990.63	2187.57
990.927	2141.47
991.224	2135.14
991.521	2147.12
991.819	2105.54
992.116	2118.42
992.413	2104.86
992.71	2096.27
993.006	2086.56
993.303	2105.31
993.6	2094.46
993.897	2074.13
994.193	2047.23
994.49	2054.92
994.787	2056.05
995.083	2026.22
995.379	1994.81
995.676	1991.64
995.972	2008.14
996.268	2008.82
996.565	1973.34
996.861	1938.54
997.157	1940.34
997.453	1949.84
997.749	1938.76
998.044	1918.88
998.34	1908.03
998.636	1904.64
998.932	1927.01
999.227	1889.95
999.523	1889.5
999.818	1888.37
1000.114	1870.29
1000.409	1850.18
1000.704	1849.73
1001	1847.47
1001.295	1820.57
1001.59	1830.29
1001.885	1808.37
1002.18	1826.22
1002.475	1797.52
1002.77	1799.78
1003.065	1749.84
1003.359	1781.7
1003.654	1746.68
1003.949	1716.17
1004.243	1745.32
1004.538	1753
1004.832	1715.94
1005.127	1697.41
1005.421	1707.58
1005.715	1704.87
1006.009	1659.45
1006.304	1623.29
1006.598	1642.73
1006.892	1644.31
1007.186	1659.9
1007.48	1640.92
1007.773	1623.74
1008.067	1645.21
1008.361	1611.99
1008.655	1603.4
1008.948	1583.52
1009.242	1590.98
1009.535	1572.9
1009.829	1581.94
1010.122	1536.51
1010.415	1554.14
1010.708	1545.1
1011.001	1550.75
1011.295	1527.02
1011.588	1533.58
1011.881	1493.12
1012.173	1502.62
1012.466	1497.87
1012.759	1494.03
1013.052	1466.01
1013.344	1468.72
1013.637	1468.04
1013.93	1456.74
1014.222	1419.45
1014.514	1408.16
1014.807	1435.05
1015.099	1389.4
1015.391	1422.17
1015.683	1382.39
1015.976	1370.64
1016.268	1365.22
1016.56	1379.68
1016.851	1345.33
1017.143	1361.15
1017.435	1350.3
1017.727	1343.75
1018.018	1345.78
1018.31	1321.38
1018.602	1315.73
1018.893	1327.93
1019.185	1317.54
1019.476	1303.07
1019.767	1282.96
1020.058	1315.95
1020.35	1277.09
1020.641	1246.13
1020.932	1237.76
1021.223	1219.01
1021.514	1217.43
1021.804	1226.69
1022.095	1242.74
1022.386	1220.59
1022.677	1223.98
1022.967	1230.76
1023.258	1197.31
1023.548	1201.83
1023.839	1186.92
1024.129	1194.38
1024.419	1179.69
1024.709	1148.05
1025	1156.64
1025.29	1134.26
1025.58	1145.11
1025.87	1105.11
1026.16	1108.5
1026.449	1117.09
1026.739	1117.99
1027.029	1080.48
1027.319	1112.8
1027.608	1078.22
1027.898	1092.23
1028.187	1049.75
1028.477	1090.88
1028.766	1050.88
1029.055	1045
1029.344	1061.95
1029.634	1051.1
1029.923	1060.82
1030.212	1029.63
1030.501	1028.96
1030.79	1009.3
1031.078	1016.53
1031.367	1005.91
1031.656	990.99
1031.945	979.69
1032.233	998
1032.522	981.27
1032.81	996.64
1033.099	986.92
1033.387	966.36
1033.675	950.31
1033.963	966.36
1034.251	946.47
1034.54	943.99
1034.828	941.05
1035.116	925.46
1035.403	916.87
1035.691	919.81
1035.979	930.88
1036.267	885
1036.554	897.43
1036.842	891.33
1037.129	865.12
1037.417	893.59
1037.704	872.35
1037.992	896.98
1038.279	886.13
1038.566	868.96
1038.853	868.96
1039.14	868.96
