Data from hue_200_FLMS001491_00078.txt Node
Date: Tue Feb 07 16:43:55 GMT 2017
User: dcchb
Spectrometer: FLMS00149
Trigger mode: 0
Integration Time (sec): 2.000000E-2
Scans to average: 10
Electric dark correction enabled: true
Nonlinearity correction enabled: false
Boxcar width: 0
XAxis mode: Wavelengths
Number of Pixels in Spectrum: 2048
>>>>>Begin Spectral Data<<<<<
341.393	-22.5
341.776	-22.5
342.16	-22.5
342.543	-84.42
342.927	-68.83
343.31	-78.32
343.693	-81.71
344.077	-77.19
344.46	-64.31
344.843	-43.74
345.226	-48.26
345.61	-34.48
345.993	-15.49
346.376	3.26
346.759	23.15
347.142	21.57
347.525	45.3
347.908	55.24
348.291	76.03
348.674	108.34
349.057	110.6
349.44	120.1
349.823	129.81
350.206	154.9
350.588	184.73
350.971	208.91
351.354	203.03
351.737	238.74
352.119	242.35
352.502	248.91
352.884	267.66
353.267	276.7
353.65	287.1
354.032	305.63
354.414	306.76
354.797	296.14
355.179	307.66
355.562	340.43
355.944	330.03
356.326	346.76
356.709	337.94
357.091	343.82
357.473	334.33
357.855	337.94
358.238	337.04
358.62	318.28
359.002	349.47
359.384	349.47
359.766	348.34
360.148	349.69
360.53	338.17
360.912	338.85
361.294	326.42
361.676	363.93
362.057	328
362.439	339.52
362.821	330.71
363.203	326.87
363.584	346.98
363.966	310.83
364.348	330.94
364.729	302.69
365.111	297.27
365.493	313.08
365.874	303.59
366.256	318.28
366.637	319.19
367.019	324.38
367.4	312.18
367.781	313.54
368.163	329.36
368.544	303.14
368.925	317.83
369.306	335.01
369.688	332.07
370.069	311.5
370.45	304.72
370.831	336.81
371.212	321.22
371.593	313.54
371.974	333.42
372.355	329.13
372.736	332.29
373.117	344.95
373.498	335.01
373.879	336.14
374.26	301.11
374.641	316.7
375.021	317.6
375.402	303.82
375.783	317.15
376.163	314.89
376.544	339.52
376.925	305.18
377.305	328
377.686	337.49
378.066	340.43
378.447	316.47
378.827	329.13
379.208	318.51
379.588	315.34
379.968	350.15
380.349	330.71
380.729	341.11
381.109	304.05
381.489	334.78
381.87	343.14
382.25	327.55
382.63	341.33
383.01	329.81
383.39	345.85
383.77	349.47
384.15	354.89
384.53	360.77
384.91	351.28
385.29	340.2
385.67	354.44
386.049	346.08
386.429	370.71
386.809	338.85
387.189	327.1
387.568	345.17
387.948	374.55
388.328	335.23
388.707	350.82
389.087	368.9
389.466	358.51
389.846	344.95
390.225	372.74
390.605	356.7
390.984	360.99
391.363	373.65
391.743	371.39
392.122	364.84
392.501	390.37
392.881	390.15
393.26	385.63
393.639	368.22
394.018	375.68
394.397	396.25
394.776	398.05
395.155	388.56
395.534	382.46
395.913	380.88
396.292	390.6
396.671	391.5
397.05	393.99
397.429	403.03
397.808	379.07
398.186	394.21
398.565	397.15
398.944	412.29
399.323	407.09
399.701	407.77
400.08	397.15
400.458	420.65
400.837	404.16
401.215	441.9
401.594	430.82
401.972	403.7
402.351	425.85
402.729	452.29
403.107	417.26
403.486	444.61
403.864	449.13
404.242	446.64
404.62	448.22
404.999	444.83
405.377	459.3
405.755	465.4
406.133	467.66
406.511	450.48
406.889	473.31
407.267	471.27
407.645	487.09
408.023	501.55
408.401	501.1
408.779	480.54
409.156	498.16
409.534	502.68
409.912	518.73
410.29	515.79
410.667	547.66
411.045	546.75
411.422	553.3
411.8	564.83
412.178	588.11
412.555	589.46
412.933	581.78
413.31	615
413.687	622
414.065	612.51
414.442	641.66
414.819	642.12
415.197	655.22
415.574	671.72
415.951	653.19
416.328	663.81
416.705	693.41
417.082	690.48
417.46	702.23
417.837	718.95
418.214	749.68
418.591	740.42
418.967	735.22
419.344	762.11
419.721	796.91
420.098	762.11
420.475	789.46
420.852	794.65
421.228	785.84
421.605	805.28
421.982	837.59
422.358	861.09
422.735	866.52
423.111	904.71
423.488	876.69
423.864	906.06
424.241	931.83
424.617	950.13
424.994	988.55
425.37	975.67
425.746	989.9
426.123	1012.73
426.499	1020.19
426.875	1030.81
427.251	1051.37
427.627	1082.78
428.003	1098.38
428.379	1113.06
428.756	1149.22
429.132	1153.06
429.507	1129.79
429.883	1156.23
430.259	1153.51
430.635	1188.99
431.011	1201.65
431.387	1225.15
431.763	1226.96
432.138	1254.08
432.514	1267.41
432.89	1294.3
433.265	1306.96
433.641	1331.59
434.016	1360.06
434.392	1390.12
434.767	1422.66
435.143	1443
435.518	1463.79
435.894	1497.23
436.269	1495.43
436.644	1554.18
437.02	1583.79
437.395	1556.67
437.77	1623.56
438.145	1678.02
438.52	1707.62
438.895	1714.86
439.271	1688.42
439.646	1779.26
440.021	1745.59
440.395	1791.69
440.77	1816.32
441.145	1834.17
441.52	1887.05
441.895	1895.64
442.27	1922.08
442.645	1929.99
443.019	1963.21
443.394	1951.46
443.769	2011.35
444.143	2042.08
444.518	2055.64
444.892	2042.53
445.267	2080.72
445.641	2099.7
446.016	2119.14
446.39	2087.95
446.764	2146.94
447.139	2177.22
447.513	2154.17
447.887	2188.74
448.262	2217.44
448.636	2242.53
449.01	2260.83
449.384	2281.62
449.758	2319.59
450.132	2339.7
450.506	2365.01
450.88	2348.51
451.254	2376.76
451.628	2430.77
452.002	2430.32
452.376	2437.77
452.75	2465.34
453.123	2483.2
453.497	2543.08
453.871	2550.77
454.244	2625.34
454.618	2565
454.992	2670.99
455.365	2634.83
455.739	2726.58
456.112	2733.81
456.486	2739.46
456.859	2803.41
457.232	2846.35
457.606	2841.15
457.979	2863.53
458.352	2898.33
458.725	2977.87
459.099	2970.42
459.472	2970.42
459.845	3093.58
460.218	3052.67
460.591	3143.07
460.964	3130.64
461.337	3247.02
461.71	3277.3
462.083	3293.12
462.456	3310.97
462.829	3331.31
463.201	3382.16
463.574	3402.04
463.947	3466
464.32	3535.83
464.692	3512.55
465.065	3571.08
465.438	3641.13
465.81	3697.18
466.183	3717.52
466.555	3778.98
466.928	3771.98
467.3	3774.24
467.672	3859.66
468.045	3983.72
468.417	3986.43
468.789	4026.21
469.161	4059.2
469.534	4089.93
469.906	4160.89
470.278	4208.58
470.65	4282.25
471.022	4344.62
471.394	4395.46
471.766	4473.43
472.138	4510.26
472.51	4606.53
472.882	4653.76
473.253	4694.44
473.625	4719.07
473.997	4867.54
474.369	4855.56
474.74	4956.35
475.112	5016.24
475.484	5131.49
475.855	5209.68
476.227	5201.09
476.598	5316.34
476.97	5387.3
477.341	5500.97
477.713	5546.17
478.084	5596.34
478.455	5727.18
478.827	5721.76
479.198	5992.03
479.569	5995.2
479.94	6033.39
480.311	6122.2
480.682	6239.93
481.053	6449.19
481.424	6472.47
481.795	6535.07
482.166	6649.87
482.537	6633.37
482.908	6805.34
483.279	6845.12
483.65	6975.51
484.021	7047.82
484.391	7122.62
484.762	7225.67
485.133	7259.57
485.503	7385.89
485.874	7461.82
486.244	7577.53
486.615	7681.48
486.985	7791.76
487.356	7905.65
487.726	7937.97
488.097	8157.85
488.467	8065.42
488.837	8246.89
489.207	8292.31
489.578	8424.28
489.948	8484.4
490.318	8615.92
490.688	8638.06
491.058	8783.14
491.428	8888.9
491.798	8917.83
492.168	9079.41
492.538	9057.94
492.908	9108.33
493.278	9246.64
493.648	9263.81
494.017	9308.1
494.387	9442.79
494.757	9496.8
495.126	9585.38
495.496	9532.96
495.866	9642.11
496.235	9690.69
496.605	9732.95
496.974	9866.28
497.344	9910.12
497.713	9903.12
498.082	10014.98
498.452	10054.52
498.821	10090.68
499.19	10074.41
499.559	10117.35
499.928	10198.25
500.298	10224.24
500.667	10362.76
501.036	10285.25
501.405	10337.45
501.774	10329.09
502.143	10487.05
502.512	10374.52
502.88	10538.8
503.249	10506.26
503.618	10572.25
503.987	10549.2
504.356	10607.73
504.724	10603.89
505.093	10664.23
505.462	10661.74
505.83	10698.35
506.199	10768.18
506.567	10914.39
506.936	10835.97
507.304	10997.55
507.672	10957.55
508.041	10968.4
508.409	11006.14
508.777	11062.41
509.145	11045.01
509.514	11040.94
509.882	11121.39
510.25	11038.68
510.618	11094.04
510.986	11094.95
511.354	11201.39
511.722	11239.8
512.09	11260.82
512.458	11289.97
512.826	11314.6
513.193	11285.45
513.561	11299.01
513.929	11327.26
514.297	11419.01
514.664	11458.33
515.032	11388.5
515.4	11434.15
515.767	11461.27
516.135	11470.08
516.502	11330.87
516.869	11539.68
517.237	11416.52
517.604	11418.56
517.972	11491.55
518.339	11561.83
518.706	11541.26
519.073	11477.09
519.44	11517.08
519.808	11601.38
520.175	11511.66
520.542	11579.46
520.909	11703.07
521.276	11641.6
521.643	11718.66
522.009	11648.15
522.376	11693.12
522.743	11637.98
523.11	11691.32
523.477	11801.6
523.843	11708.49
524.21	11800.69
524.577	11864.87
524.943	11849.05
525.31	11795.27
525.676	11821.26
526.043	11856.28
526.409	11873.01
526.776	11930.41
527.142	11889.5
527.508	11812.67
527.874	11847.92
528.241	11894.25
528.607	11819.9
528.973	11970.41
529.339	11825.1
529.705	11806.79
530.071	11799.79
530.437	11738.55
530.803	11823.74
531.169	11876.62
531.535	11728.6
531.901	11720.47
532.267	11643.63
532.632	11688.83
532.998	11604.31
533.364	11643.18
533.73	11614.93
534.095	11561.38
534.461	11574.48
534.826	11615.84
535.192	11545.33
535.557	11586.91
535.923	11551.21
536.288	11464.88
536.653	11446.13
537.019	11320.93
537.384	11291.1
537.749	11282.97
538.114	11242.97
538.479	11176.98
538.845	11203.19
539.21	11093.59
539.575	11121.16
539.94	11035.51
540.305	11139.92
540.67	10977.44
541.034	10896.54
541.399	10937.21
541.764	10906.7
542.129	10809.31
542.494	10812.02
542.858	10738.8
543.223	10708.74
543.587	10738.12
543.952	10580.16
544.316	10562.53
544.681	10467.39
545.045	10586.26
545.41	10446.15
545.774	10445.02
546.138	10344.91
546.503	10311.92
546.867	10286.16
547.231	10260.39
547.595	10163.22
547.959	10137.69
548.324	10094.07
548.688	10028.31
549.052	10036.22
549.416	10016.33
549.779	9964.36
550.143	9897.69
550.507	9899.95
550.871	9801.2
551.235	9787.64
551.599	9808.88
551.962	9679.84
552.326	9644.82
552.689	9675.32
553.053	9547.19
553.417	9557.59
553.78	9651.6
554.143	9488.21
554.507	9425.84
554.87	9457.25
555.234	9443.47
555.597	9358.5
555.96	9374.99
556.323	9346.29
556.686	9283.24
557.05	9302.68
557.413	9292.51
557.776	9237.6
558.139	9228.56
558.502	9233.53
558.865	9154.21
559.228	9163.47
559.59	9118.73
559.953	9083.93
560.316	9139.75
560.679	9098.39
561.041	9105.17
561.404	9156.47
561.767	9122.34
562.129	9019.75
562.492	9024.27
562.854	9072.85
563.217	8986.53
563.579	8995.57
563.941	9021.33
564.304	9052.06
564.666	9026.53
565.028	8988.79
565.39	8997.38
565.753	8980.65
566.115	9062.01
566.477	8956.93
566.839	9008
567.201	9007.32
567.563	8986.53
567.925	8946.98
568.287	8989.02
568.648	8921.45
569.01	8989.24
569.372	9009.58
569.734	8936.36
570.095	8980.2
570.457	8969.13
570.819	9018.39
571.18	8966.87
571.542	9036.02
571.903	9042.12
572.265	8994.21
572.626	9040.99
572.987	9001.44
573.349	9015.46
573.71	9045.51
574.071	9017.71
574.432	9006.19
574.794	9061.78
575.155	9048.45
575.516	8957.38
575.877	9026.3
576.238	9048.67
576.599	9038.51
576.96	8998.05
577.32	9045.96
577.681	9051.16
578.042	9045.74
578.403	9025.17
578.763	9030.6
579.124	9038.73
579.485	9048
579.845	9122.34
580.206	9017.94
580.566	9049.8
580.927	8974.78
581.287	9046.19
581.648	9012.29
582.008	8993.76
582.368	9019.3
582.728	8980.65
583.089	8982.46
583.449	8976.13
583.809	8996.7
584.169	8944.72
584.529	8922.12
584.889	9062.69
585.249	8939.52
585.609	8906.53
585.969	8933.88
586.329	8896.14
586.688	8957.83
587.048	8935.23
587.408	8893.2
587.768	8902.46
588.127	8900.66
588.487	8884.39
588.846	8921.67
589.206	8852.97
589.565	8873.09
589.925	8873.09
590.284	8807.78
590.643	8877.15
591.003	8918.28
591.362	8881.45
591.721	8872.41
592.08	8948.79
592.44	8888.23
592.799	8845.52
593.158	8789.7
593.517	8834.89
593.876	8799.87
594.235	8759.64
594.593	8778.85
594.952	8808.91
595.311	8763.48
595.67	8782.92
596.029	8854.33
596.387	8828.57
596.746	8779.76
597.104	8731.85
597.463	8684.16
597.822	8776.14
598.18	8727.1
598.538	8785.86
598.897	8818.85
599.255	8704.5
599.613	8776.14
599.972	8754.44
600.33	8735.24
600.688	8705.63
601.046	8664.28
601.404	8709.02
601.762	8720.77
602.12	8761.22
602.478	8754.22
602.836	8793.99
603.194	8726.88
603.552	8671.51
603.91	8622.02
604.268	8698.63
604.625	8720.32
604.983	8725.75
605.341	8620.21
605.698	8690.49
606.056	8791.96
606.413	8708.57
606.771	8663.15
607.128	8755.12
607.485	8647.78
607.843	8743.6
608.2	8704.5
608.557	8771.85
608.914	8639.65
609.272	8751.06
609.629	8741.79
609.986	8762.13
610.343	8753.77
610.7	8788.12
611.057	8700.44
611.414	8742.02
611.771	8777.5
612.127	8836.7
612.484	8714.9
612.841	8796.93
613.198	8775.69
613.554	8831.05
613.911	8796.93
614.267	8794.22
614.624	8753.54
614.98	8842.13
615.337	8843.93
615.693	8803.94
616.05	8803.48
616.406	8852.52
616.762	8797.61
617.118	8841.45
617.475	8751.28
617.831	8849.58
618.187	8789.92
618.543	8848.91
618.899	8906.76
619.255	8845.06
619.611	8836.25
619.967	8886.87
620.323	8925.51
620.678	8823.82
621.034	8902.92
621.39	8869.92
621.746	8849.13
622.101	8899.3
622.457	8793.77
622.812	8900.66
623.168	8925.97
623.523	8851.17
623.879	8929.36
624.234	8797.61
624.589	8823.37
624.945	8841.45
625.3	8898.85
625.655	8837.38
626.01	8867.21
626.365	8816.59
626.72	8840.77
627.075	8854.56
627.43	8881.22
627.785	8792.64
628.14	8792.18
628.495	8840.32
628.85	8864.27
629.205	8798.06
629.559	8835.12
629.914	8753.32
630.269	8748.57
630.623	8737.04
630.978	8785.4
631.332	8772.3
631.687	8776.59
632.041	8691.85
632.396	8802.35
632.75	8679.87
633.104	8723.49
633.459	8699.08
633.813	8753.77
634.167	8721.68
634.521	8680.77
634.875	8683.26
635.229	8713.99
635.583	8569.59
635.937	8604.17
636.291	8619.76
636.645	8549.25
636.999	8593.32
637.352	8559.65
637.706	8552.87
638.06	8509.03
638.413	8560.33
638.767	8515.58
639.121	8518.97
639.474	8513.1
639.828	8533.21
640.181	8503.15
640.534	8459.09
640.888	8457.73
641.241	8485.07
641.594	8455.7
641.947	8431.06
642.301	8473.77
642.654	8441.01
643.007	8521.46
643.36	8449.59
643.713	8459.99
644.066	8512.19
644.419	8354.23
644.771	8335.7
645.124	8278.75
645.477	8262.48
645.83	8200.79
646.182	8236.04
646.535	8177.28
646.888	8168.92
647.24	8097.74
647.593	8191.52
647.945	8175.7
648.298	8114.01
648.65	8156.27
649.002	8112.43
649.355	8137.51
649.707	8121.02
650.059	8125.53
650.411	8308.81
650.763	8306.77
651.115	8315.59
651.467	8314.91
651.819	8325.98
652.171	8351.52
652.523	8339.77
652.875	8315.59
653.227	8293.21
653.578	8310.16
653.93	8280.79
654.282	8230.62
654.633	8269.03
654.985	8291.86
655.337	8335.02
655.688	8309.48
656.039	8378.18
656.391	8348.81
656.742	8389.93
657.094	8337.05
657.445	8360.11
657.796	8324.85
658.147	8351.97
658.498	8322.14
658.849	8372.08
659.2	8342.7
659.551	8346.77
659.902	8372.08
660.253	8384.06
660.604	8365.08
660.955	8312.65
661.306	8360.33
661.656	8386.32
662.007	8448.46
662.358	8409.37
662.708	8339.54
663.059	8417.5
663.409	8383.83
663.76	8393.1
664.11	8458.86
664.461	8394.91
664.811	8441.01
665.161	8459.99
665.511	8382.25
665.862	8422.02
666.212	8412.08
666.562	8407.79
666.912	8404.17
667.262	8410.05
667.612	8456.83
667.962	8420.44
668.312	8451.18
668.662	8472.87
669.011	8478.75
669.361	8371.4
669.711	8437.17
670.06	8380.67
670.41	8387.9
670.76	8441.68
671.109	8370.73
671.459	8327.79
671.808	8333.67
672.157	8394.23
672.507	8358.3
672.856	8366.21
673.205	8319.88
673.554	8364.17
673.904	8351.07
674.253	8386.55
674.602	8391.06
674.951	8197.62
675.3	8150.17
675.649	8335.7
675.998	8297.73
676.346	8278.98
676.695	8288.24
677.044	8241.46
677.393	8288.69
677.741	8252.99
678.09	8226.55
678.438	8265.19
678.787	8250.73
679.135	8253.89
679.484	8171.64
679.832	8217.28
680.181	8134.35
680.529	8172.09
680.877	8164.18
681.225	8087.57
681.573	8224.74
681.922	8117.63
682.27	8106.33
682.618	8013.22
682.966	8027.91
683.314	8121.69
683.661	7995.59
684.009	8005.76
684.357	7958.76
684.705	7903.39
685.053	7982.49
685.4	7959.66
685.748	7925.31
686.095	7863.39
686.443	7886.9
686.79	7855.49
687.138	7832.21
687.485	7866.11
687.832	7870.4
688.18	7799.22
688.527	7707.24
688.874	7733.91
689.221	7778.2
689.568	7706.11
689.915	7626.34
690.262	7670.86
690.609	7662.04
690.956	7584.98
691.303	7541.6
691.65	7509.96
691.997	7609.16
692.344	7482.84
692.69	7551.31
693.037	7471.99
693.383	7423.86
693.73	7506.57
694.077	7395.16
694.423	7361.94
694.769	7274.48
695.116	7286.69
695.462	7276.74
695.808	7255.95
696.155	7271.09
696.501	7200.81
696.847	7199.68
697.193	7102.51
697.539	7150.65
697.885	7054.6
698.231	7059.12
698.577	7069.52
698.923	7048.05
699.269	7034.26
699.614	6981.84
699.96	6972.57
700.306	6899.58
700.651	6897.77
700.997	6859.81
701.342	6796.76
701.688	6843.76
702.033	6792.69
702.379	6792.46
702.724	6746.14
703.069	6760.83
703.415	6683.76
703.76	6636.08
704.105	6635.4
704.45	6679.47
704.795	6612.35
705.14	6563.99
705.485	6563.54
705.83	6505.24
706.175	6547.5
706.52	6554.28
706.865	6497.1
707.209	6479.48
707.554	6445.13
707.899	6467.27
708.243	6446.03
708.588	6392.93
708.932	6401.51
709.277	6335.07
709.621	6329.65
709.966	6269.99
710.31	6303.21
710.654	6223.44
710.998	6240.61
711.342	6261.86
711.687	6255.08
712.031	6207.17
712.375	6201.29
712.719	6207.39
713.063	6196.32
713.407	6150.9
713.75	6173.27
714.094	6117.23
714.438	6163.1
714.782	6139.82
715.125	6162.87
715.469	6102.09
715.812	6070.45
716.156	6064.8
716.499	6088.75
716.843	6099.6
717.186	5981.86
717.53	6058.7
717.873	6045.36
718.216	6036.1
718.559	6024.8
718.902	5961.75
719.246	5999.04
719.589	6011.24
719.932	5942.99
720.275	5908.87
720.617	5950.22
720.96	5912.49
721.303	5953.16
721.646	5983.67
721.989	5939.38
722.331	5919.04
722.674	5875.65
723.016	5931.69
723.359	5904.8
723.701	5923.56
724.044	5862.32
724.386	5884.92
724.729	5889.44
725.071	5895.76
725.413	5848.53
725.755	5828.65
726.097	5872.03
726.439	5844.01
726.782	5775.77
727.124	5937.57
727.465	5830.68
727.807	5846.5
728.149	5885.59
728.491	5827.97
728.833	5841.3
729.175	5831.81
729.516	5799.95
729.858	5794.07
730.199	5833.17
730.541	5838.14
730.882	5847.85
731.224	5818.25
731.565	5843.34
731.906	5845.82
732.248	5835.65
732.589	5851.24
732.93	5819.38
733.271	5808.99
733.612	5858.25
733.953	5872.49
734.294	5800.62
734.635	5837.69
734.976	5851.47
735.317	5865.03
735.658	5862.09
735.999	5880.62
736.339	5822.54
736.68	5839.04
737.021	5904.12
737.361	5837.01
737.702	5853.5
738.042	5893.5
738.383	5889.66
738.723	5920.85
739.063	5930.11
739.404	5943.67
739.744	5928.3
740.084	5952.26
740.424	5979.38
740.764	5947.51
741.104	6026.38
741.444	5996.55
741.784	5997
742.124	6000.17
742.464	6048.98
742.804	6048.08
743.143	6090.79
743.483	6111.8
743.823	6048.3
744.162	6119.71
744.502	6175.76
744.841	6242.65
745.181	6247.62
745.52	6255.08
745.86	6263.21
746.199	6266.15
746.538	6365.58
746.877	6421.4
747.216	6489.19
747.556	6501.62
747.895	6566.25
748.234	6516.76
748.573	6570.32
748.911	6666.59
749.25	6758.11
749.589	6770.09
749.928	6835.63
750.267	6941.84
750.605	7026.58
750.944	7061.61
751.283	7077.65
751.621	7235.61
751.96	7304.99
752.298	7415.5
752.636	7488.26
752.975	7564.87
753.313	7616.85
753.651	7843.51
753.989	7873.11
754.327	7949.72
754.666	8089.6
755.004	8282.82
755.342	8357.62
755.679	8461.8
756.017	8582.47
756.355	8795.8
756.693	8932.29
757.031	9086.87
757.368	9192.17
757.706	9332.06
758.044	9537.25
758.381	9620.18
758.719	9792.61
759.056	9991.93
759.394	10130.23
759.731	10304.69
760.068	10446.38
760.405	10636.2
760.743	10846.59
761.08	10979.7
761.417	11112.12
761.754	11324.77
762.091	11526.35
762.428	11659.23
762.765	11897.87
763.102	12068.26
763.438	12132.66
763.775	12432.99
764.112	12613.1
764.449	12805.19
764.785	12939.42
765.122	13054.9
765.458	13195.91
765.795	13424.83
766.131	13521.1
766.467	13695.56
766.804	13871.15
767.14	13953.63
767.476	14200.18
767.812	14377.35
768.148	14511.81
768.485	14581.41
768.821	14715.64
769.157	14797.9
769.492	15021.85
769.828	15117.22
770.164	15172.58
770.5	15327.15
770.836	15525.79
771.171	15541.39
771.507	15717.43
771.842	15670.65
772.178	15889.62
772.513	15970.98
772.849	16144.53
773.184	16186.34
773.519	16297.75
773.855	16370.06
774.19	16367.8
774.525	16503.62
774.86	16669.27
775.195	16714.24
775.53	16803.27
775.865	16717.63
776.2	16783.16
776.535	16869.26
776.87	16938.64
777.205	16948.58
777.539	17024.74
777.874	17069.71
778.209	17071.29
778.543	17171.62
778.878	17024.06
779.212	17255.92
779.547	17259.53
779.881	17290.94
780.215	17292.07
780.55	17378.4
780.884	17322.58
781.218	17410.71
781.552	17409.13
781.886	17394.67
782.22	17378.62
782.554	17411.84
782.888	17288.23
783.222	17367.78
783.556	17280.77
783.889	17234.9
784.223	17256.59
784.557	17345.63
784.89	17344.28
785.224	17360.55
785.557	17283.49
785.891	17328.46
786.224	17266.09
786.558	17342.24
786.891	17237.84
787.224	17241
787.557	17281.9
787.891	17204.62
788.224	17232.64
788.557	17338.63
788.89	17252.53
789.223	17363.03
789.556	17142.7
789.888	17117.39
790.221	17215.69
790.554	17117.84
790.887	17094.79
791.219	17108.8
791.552	16997.17
791.884	16989.71
792.217	16988.13
792.549	16956.94
792.882	16936.83
793.214	16808.24
793.546	16871.07
793.879	16841.69
794.211	16726.21
794.543	16827.45
794.875	16778.19
795.207	16789.04
795.539	16673.33
795.871	16743.39
796.203	16624.75
796.535	16565.76
796.867	16549.49
797.198	16544.75
797.53	16486.45
797.862	16441.7
798.193	16426.33
798.525	16397.63
798.856	16362.61
799.188	16237.64
799.519	16160.58
799.85	16148.83
800.182	16171.43
800.513	16231.08
800.844	16052.11
801.175	15983.18
801.506	16080.35
801.837	15995.84
802.168	15973.24
802.499	16006.91
802.83	15904.77
803.161	15862.28
803.491	15932.56
803.822	15823.86
804.153	15811.66
804.483	15757.42
804.814	15715.62
805.145	15629.74
805.475	15648.05
805.805	15599.01
806.136	15545
806.466	15611.67
806.796	15500.48
807.126	15429.3
807.457	15429.52
807.787	15505.68
808.117	15337.55
808.447	15414.61
808.777	15301.62
809.107	15272.69
809.436	15254.39
809.766	15239.25
810.096	15153.82
810.426	15093.26
810.755	15182.3
811.085	15142.3
811.414	15099.36
811.744	14984.79
812.073	14966.26
812.403	15012.81
812.732	14900.95
813.061	14948.86
813.39	14844.23
813.719	14825.7
814.049	14938.46
814.378	14783.89
814.707	14764.91
815.036	14761.52
815.365	14729.66
815.693	14622.09
816.022	14620.05
816.351	14664.8
816.68	14520.17
817.008	14578.25
817.337	14458.48
817.665	14414.41
817.994	14452.15
818.322	14451.92
818.651	14408.53
818.979	14392.04
819.307	14386.84
819.636	14378.7
819.964	14241.76
820.292	14326.28
820.62	14326.5
820.948	14234.53
821.276	14286.73
821.604	14373.73
821.932	14350.23
822.259	14363.79
822.587	14307.97
822.915	14274.07
823.243	14322.89
823.57	14303.68
823.898	14295.09
824.225	14273.85
824.553	14206.96
824.88	14264.13
825.207	14341.42
825.535	14314.52
825.862	14350.91
826.189	14248.31
826.516	14293.06
826.843	14280.4
827.17	14416.67
827.497	14312.04
827.824	14261.19
828.151	14373.05
828.478	14319.95
828.805	14366.5
829.131	14262.32
829.458	14257.58
829.785	14237.24
830.111	14235.88
830.438	14316.33
830.764	14330.8
831.09	14331.25
831.417	14333.06
831.743	14322.89
832.069	14361.53
832.395	14284.7
832.722	14369.89
833.048	14206.28
833.374	14274.53
833.7	14201.53
834.026	14190.46
834.351	14255.32
834.677	14181.42
835.003	14260.74
835.329	14220.52
835.654	14256.67
835.98	14067.07
836.306	14182.32
836.631	14039.05
836.956	14149.33
837.282	14230.46
837.607	14096
837.932	13990.24
838.258	14003.8
838.583	14013.74
838.908	13973.29
839.233	13968.55
839.558	13943.69
839.883	13918.83
840.208	13893.74
840.533	13822.33
840.858	13885.61
841.182	13869.11
841.507	13816.91
841.832	13783.92
842.156	13696.69
842.481	13766.52
842.805	13710.7
843.13	13675.9
843.454	13656.46
843.778	13569.69
844.103	13526.07
844.427	13570.59
844.751	13522.91
845.075	13578.05
845.399	13389.35
845.723	13441.55
846.047	13446.3
846.371	13207.89
846.695	13318.17
847.019	13227.55
847.343	13054.9
847.666	13058.06
847.99	13029.59
848.313	13008.34
848.637	12932.64
848.96	12924.96
849.284	12848.35
849.607	12824.85
849.931	12783.94
850.254	12721.12
850.577	12564.06
850.9	12497.85
851.223	12574.01
851.546	12491.52
851.869	12401.81
852.192	12464.86
852.515	12299.44
852.838	12324.75
853.161	12302.83
853.483	12175.37
853.806	12158.88
854.129	12179.21
854.451	12132.89
854.774	12078.65
855.096	12027.81
855.419	11925.21
855.741	11940.35
856.063	11845.44
856.385	11850.18
856.708	11868.94
857.03	11735.84
857.352	11762.73
857.674	11718.21
857.996	11656.74
858.318	11623.97
858.64	11666.01
858.961	11618.55
859.283	11571.55
859.605	11521.6
859.926	11510.98
860.248	11486.12
860.57	11367.71
860.891	11489.51
861.212	11378.56
861.534	11280.71
861.855	11309.86
862.176	11332.23
862.498	11306.24
862.819	11320.03
863.14	11234.83
863.461	11208.39
863.782	11153.7
864.103	11243.42
864.424	11110.54
864.745	11193.25
865.065	11080.49
865.386	10992.8
865.707	11092.46
866.027	11028.28
866.348	11013.14
866.668	11024.22
866.989	11003.65
867.309	10895.63
867.63	10979.02
867.95	11021.5
868.27	10969.75
868.59	10887.27
868.91	10879.13
869.23	10829.87
869.55	10777.89
869.87	10855.18
870.19	10769.31
870.51	10823.54
870.83	10815.63
871.15	10743.77
871.469	10806.37
871.789	10808.18
872.109	10736.31
872.428	10694.28
872.748	10724.79
873.067	10662.64
873.386	10670.1
873.706	10702.19
874.025	10588.07
874.344	10548.97
874.663	10588.75
874.982	10536.09
875.301	10581.97
875.62	10520.95
875.939	10515.98
876.258	10492.25
876.577	10507.39
876.896	10526.83
877.214	10444.57
877.533	10449.54
877.852	10420.39
878.17	10440.28
878.489	10449.99
878.807	10370.22
879.125	10352.6
879.444	10371.8
879.762	10273.05
880.08	10287.74
880.398	10202.09
880.716	10291.81
881.034	10213.16
881.352	10234.86
881.67	10134.07
881.988	10167.52
882.306	10150.34
882.624	10155.31
882.941	10062.43
883.259	10089.1
883.577	10145.37
883.894	10098.36
884.212	10014.07
884.529	10022.43
884.846	9923.23
885.164	9994.19
885.481	9946.5
885.798	9945.15
886.115	9840.29
886.432	9879.16
886.75	9791.93
887.067	9807.07
887.383	9808.88
887.7	9771.37
888.017	9722.33
888.334	9797.58
888.651	9674.87
888.967	9686.17
889.284	9668.09
889.6	9530.7
889.917	9533.18
890.233	9599.17
890.55	9491.37
890.866	9499.74
891.182	9469.68
891.498	9438.04
891.815	9380.42
892.131	9317.82
892.447	9355.79
892.763	9346.52
893.079	9254.32
893.395	9266.3
893.71	9286.63
894.026	9241.66
894.342	9189.69
894.657	9088.45
894.973	9086.64
895.289	9044.83
895.604	9092.52
895.92	8982.01
896.235	8998.51
896.55	8967.55
896.865	8921.67
897.181	8875.57
897.496	8923.71
897.811	8863.14
898.126	8844.84
898.441	8757.38
898.756	8815.69
899.071	8681.9
899.386	8683.26
899.7	8646.65
900.015	8586.31
900.33	8619.53
900.644	8529.37
900.959	8572.98
901.273	8483.72
901.588	8477.84
901.902	8436.49
902.216	8329.6
902.531	8412.53
902.845	8371.18
903.159	8332.76
903.473	8239.66
903.787	8259.54
904.101	8267.9
904.415	8182.93
904.729	8153.78
905.042	8097.97
905.356	8120.11
905.67	8028.81
905.984	8014.58
906.297	8063.16
906.611	7957.4
906.924	7983.39
907.237	7910.85
907.551	7836.05
907.864	7842.83
908.177	7784.53
908.491	7817.75
908.804	7776.62
909.117	7693.46
909.43	7658.43
909.743	7641.71
910.056	7680.35
910.368	7590.63
910.681	7582.27
910.994	7537.3
911.307	7505.66
911.619	7452.11
911.932	7490.98
912.244	7405.55
912.557	7434.25
912.869	7347.93
913.181	7337.31
913.494	7326.01
913.806	7224.32
914.118	7223.86
914.43	7157.2
914.742	7174.6
915.054	7114.26
915.366	7123.75
915.678	7109.29
915.99	7041.5
916.302	6986.36
916.613	6968.28
916.925	6955.4
917.236	6917.43
917.548	6936.64
917.859	6920.37
918.171	6836.08
918.482	6810.77
918.794	6768.96
919.105	6774.84
919.416	6713.82
919.727	6686.7
920.038	6666.59
920.349	6664.56
920.66	6670.88
920.971	6605.12
921.282	6597.67
921.593	6592.47
921.903	6518.57
922.214	6506.14
922.525	6475.63
922.835	6460.49
923.146	6387.73
923.456	6426.6
923.767	6319.25
924.077	6290.33
924.387	6334.4
924.697	6269.99
925.008	6219.6
925.318	6250.56
925.628	6192.03
925.938	6181.86
926.248	6164.68
926.558	6138.24
926.867	6135.3
927.177	6121.07
927.487	6102.99
927.796	6036.55
928.106	6046.49
928.416	5970.34
928.725	6019.6
929.034	5924.69
929.344	5888.53
929.653	5922.43
929.962	5870.23
930.271	5879.04
930.581	5810.34
930.89	5800.4
931.199	5764.02
931.508	5747.29
931.817	5758.37
932.125	5690.57
932.434	5713.17
932.743	5652.61
933.051	5627.07
933.36	5583.68
933.669	5615.77
933.977	5573.51
934.286	5614.87
934.594	5577.58
934.902	5501.88
935.21	5465.94
935.519	5477.24
935.827	5448.32
936.135	5389.34
936.443	5348.66
936.751	5350.69
937.059	5391.6
937.367	5329.22
937.674	5330.35
937.982	5268.43
938.29	5268.89
938.597	5238.38
938.905	5241.77
939.213	5190.7
939.52	5147.99
939.827	5122.45
940.135	5098.04
940.442	5081.77
940.749	5090.36
941.056	5061.21
941.363	5075.45
941.67	4990.48
941.977	5017.59
942.284	4930.14
942.591	4922.23
942.898	4959.29
943.205	4867.54
943.511	4924.26
943.818	4900.31
944.125	4809.01
944.431	4830.71
944.738	4762.69
945.044	4753.19
945.35	4733.76
945.657	4710.48
945.963	4716.81
946.269	4704.16
946.575	4718.17
946.881	4650.37
947.187	4631.16
947.493	4605.63
947.799	4591.39
948.105	4568.57
948.41	4569.47
948.716	4584.61
949.022	4503.71
949.327	4548.68
949.633	4469.13
949.938	4510.04
950.244	4491.96
950.549	4486.08
950.854	4383.03
951.16	4387.78
951.465	4372.19
951.77	4358.18
952.075	4364.96
952.38	4270.95
952.685	4324.28
952.99	4228.46
953.294	4233.66
953.599	4255.35
953.904	4198.18
954.209	4195.69
954.513	4210.84
954.818	4195.02
955.122	4155.02
955.426	4125.64
955.731	4147.11
956.035	4094.91
956.339	4077.05
956.643	4065.08
956.948	4037.28
957.252	4035.92
957.556	4000.45
957.86	4022.82
958.163	3957.06
958.467	3947.57
958.771	4004.29
959.075	3986.43
959.378	3918.19
959.682	3923.16
959.985	3917.51
960.289	3873.67
960.592	3825.54
960.896	3820.11
961.199	3827.57
961.502	3808.36
961.805	3788.93
962.108	3798.19
962.411	3783.95
962.714	3756.38
963.017	3716.39
963.32	3688.36
963.623	3669.38
963.926	3660.12
964.228	3641.13
964.531	3631.64
964.833	3654.47
965.136	3569.27
965.438	3595.48
965.741	3562.49
966.043	3547.58
966.345	3539.67
966.648	3509.84
966.95	3512.55
967.252	3524.07
967.554	3500.35
967.856	3458.09
968.158	3435.94
968.46	3457.18
968.761	3380.35
969.063	3444.98
969.365	3382.61
969.666	3366.79
969.968	3357.52
970.269	3312.33
970.571	3362.5
970.872	3295.61
971.174	3335.38
971.475	3313.68
971.776	3266.91
972.077	3267.81
972.378	3221.48
972.679	3219.9
972.98	3201.6
973.281	3197.08
973.582	3182.16
973.883	3189.39
974.183	3154.82
974.484	3164.99
974.785	3134.03
975.085	3176.74
975.386	3138.1
975.686	3086.57
975.986	3059
976.287	3090.19
976.587	3031.21
976.887	3038.89
977.187	3047.02
977.487	3031.43
977.787	2990.3
978.087	3006.12
978.387	3004.09
978.687	2962.05
978.987	2933.81
979.286	2912.11
979.586	2958.89
979.885	2910.76
980.185	2876.63
980.484	2873.24
980.784	2849.52
981.083	2861.49
981.382	2826.01
981.682	2816.07
981.981	2776.3
982.28	2808.61
982.579	2793.92
982.878	2791.89
983.177	2743.76
983.475	2779.01
983.774	2741.5
984.073	2751.89
984.372	2727.94
984.67	2684.1
984.969	2718.45
985.267	2721.16
985.566	2704.66
985.864	2628.5
986.162	2635.96
986.461	2617.43
986.759	2613.59
987.057	2633.93
987.355	2608.17
987.653	2595.06
987.951	2590.09
988.249	2547.38
988.547	2547.15
988.844	2536.76
989.142	2518.9
989.44	2511.45
989.737	2544.44
990.035	2512.58
990.332	2487.94
990.63	2492.24
990.927	2478.23
991.224	2430.77
991.521	2430.32
991.819	2430.77
992.116	2446.81
992.413	2417.21
992.71	2381.28
993.006	2373.82
993.303	2338.12
993.6	2382.18
993.897	2341.05
994.193	2347.61
994.49	2328.63
994.787	2308.06
995.083	2292.92
995.379	2277.55
995.676	2282.07
995.972	2278.91
996.268	2262.19
996.565	2262.19
996.861	2234.16
997.157	2259.7
997.453	2231.9
997.749	2211.34
998.044	2222.41
998.34	2208.85
998.636	2184.22
998.932	2197.56
999.227	2146.71
999.523	2187.39
999.818	2116.2
1000.114	2112.59
1000.409	2131.79
1000.704	2096.31
1001	2075.75
1001.295	2086.37
1001.59	2070.55
1001.885	2060.61
1002.18	2036.88
1002.475	2035.75
1002.77	2024.9
1003.065	2021.29
1003.359	1990.56
1003.654	1989.88
1003.949	1948.52
1004.243	1959.6
1004.538	1941.97
1004.832	1971.57
1005.127	1952.14
1005.421	1928.18
1005.715	1907.17
1006.009	1907.39
1006.304	1887.51
1006.598	1880.5
1006.892	1873.95
1007.186	1849.54
1007.48	1835.3
1007.773	1836.21
1008.067	1827.85
1008.361	1810.45
1008.655	1828.53
1008.948	1802.99
1009.242	1772.26
1009.535	1780.17
1009.829	1750.56
1010.122	1748.53
1010.415	1731.58
1010.708	1766.61
1011.001	1738.36
1011.295	1694.97
1011.588	1726.83
1011.881	1677.12
1012.173	1677.57
1012.466	1691.35
1012.759	1668.76
1013.052	1662.88
1013.344	1670.11
1013.637	1634.86
1013.93	1607.74
1014.222	1628.76
1014.514	1642.99
1014.807	1613.62
1015.099	1560.28
1015.391	1581.07
1015.683	1562.32
1015.976	1559.38
1016.268	1536.78
1016.56	1562.32
1016.851	1533.39
1017.143	1504.92
1017.435	1505.82
1017.727	1504.69
1018.018	1502.88
1018.31	1501.75
1018.602	1459.27
1018.893	1466.95
1019.185	1436.22
1019.476	1459.72
1019.767	1439.61
1020.058	1404.81
1020.35	1412.04
1020.641	1398.25
1020.932	1379.5
1021.223	1397.58
1021.514	1405.49
1021.804	1384.92
1022.095	1381.53
1022.386	1367.29
1022.677	1343.34
1022.967	1321.19
1023.258	1339.95
1023.548	1300.18
1023.839	1314.87
1024.129	1303.79
1024.419	1296.56
1024.709	1260.18
1025	1276.22
1025.29	1271.7
1025.58	1285.49
1025.87	1255.66
1026.16	1246.39
1026.449	1258.6
1026.739	1236
1027.029	1231.03
1027.319	1214.08
1027.608	1216.34
1027.898	1230.8
1028.187	1196.9
1028.477	1181.31
1028.766	1179.5
1029.055	1170.24
1029.344	1175.44
1029.634	1151.03
1029.923	1151.48
1030.212	1120.52
1030.501	1137.24
1030.79	1120.97
1031.078	1122.33
1031.367	1102.89
1031.656	1119.17
1031.945	1105.15
1032.233	1089.11
1032.522	1093.4
1032.81	1076
1033.099	1053.86
1033.387	1042.33
1033.675	1061.99
1033.963	1028.09
1034.251	1039.85
1034.54	1015.21
1034.828	1006.85
1035.116	1029.9
1035.403	1006.63
1035.691	1018.38
1035.979	1021.99
1036.267	1001.88
1036.554	1014.54
1036.842	972.05
1037.129	976.12
1037.417	969.56
1037.704	974.08
1037.992	953.75
1038.279	950.13
1038.566	967.53
1038.853	967.53
1039.14	967.53
