Data from hue_190_FLMS001491_00025.txt Node
Date: Tue Feb 07 16:45:03 GMT 2017
User: dcchb
Spectrometer: FLMS00149
Trigger mode: 0
Integration Time (sec): 2.000000E-2
Scans to average: 10
Electric dark correction enabled: true
Nonlinearity correction enabled: false
Boxcar width: 0
XAxis mode: Wavelengths
Number of Pixels in Spectrum: 2048
>>>>>Begin Spectral Data<<<<<
341.393	6.68
341.776	6.68
342.16	6.68
342.543	-64.96
342.927	-66.09
343.31	-83.03
343.693	-72.41
344.077	-80.55
344.46	-58.4
344.843	-56.37
345.226	-30.61
345.61	-17.5
345.993	-45.52
346.376	-5.75
346.759	0.35
347.142	39.67
347.525	43.74
347.908	47.81
348.291	88.26
348.674	115.83
349.057	114.47
349.44	138.2
349.823	138.88
350.206	177.98
350.588	189.95
350.971	199.9
351.354	239.44
351.737	243.06
352.119	257.3
352.502	242.15
352.884	267.69
353.267	281.25
353.65	293
354.032	309.72
354.414	308.14
354.797	309.95
355.179	332.32
355.562	311.53
355.944	332.32
356.326	329.38
356.709	303.85
357.091	325.99
357.473	335.49
357.855	324.19
358.238	351.08
358.62	340.01
359.002	331.87
359.384	327.58
359.766	328.93
360.148	321.47
360.53	329.38
360.912	335.26
361.294	354.92
361.676	336.62
362.057	322.83
362.439	301.36
362.821	314.7
363.203	315.15
363.584	339.78
363.966	331.87
364.348	323.28
364.729	312.44
365.111	321.7
365.493	332.1
365.874	330.97
366.256	293.68
366.637	295.71
367.019	315.37
367.4	317.63
367.781	283.28
368.163	302.94
368.544	300.01
368.925	310.4
369.306	326.67
369.688	311.31
370.069	316.73
370.45	303.4
370.831	294.36
371.212	299.78
371.593	288.26
371.974	306.79
372.355	286.9
372.736	323.06
373.117	305.66
373.498	317.41
373.879	298.42
374.26	310.4
374.641	318.99
375.021	308.37
375.402	319.67
375.783	330.29
376.163	318.31
376.544	306.56
376.925	340.23
377.305	316.73
377.686	317.41
378.066	343.85
378.447	328.93
378.827	319.21
379.208	311.08
379.588	335.49
379.968	311.53
380.349	312.89
380.729	330.06
381.109	320.8
381.489	316.95
381.87	332.77
382.25	336.84
382.63	335.03
383.01	336.84
383.39	341.14
383.77	324.64
384.15	323.96
384.53	321.25
384.91	336.16
385.29	337.52
385.67	324.19
386.049	340.23
386.429	334.36
386.809	333
387.189	333
387.568	333.23
387.948	336.84
388.328	330.29
388.707	348.37
389.087	373.22
389.466	341.36
389.846	356.05
390.225	357.86
390.605	346.78
390.984	328.48
391.363	355.6
391.743	352.21
392.122	340.68
392.501	370.74
392.881	359.67
393.26	364.86
393.639	361.02
394.018	354.02
394.397	374.13
394.776	378.65
395.155	369.38
395.534	354.24
395.913	367.12
396.292	371.19
396.671	389.5
397.05	367.12
397.429	386.11
397.808	384.75
398.186	368.7
398.565	403.51
398.944	375.03
399.323	392.21
399.701	380
400.08	380.46
400.458	389.5
400.837	388.37
401.215	403.73
401.594	401.47
401.972	401.02
402.351	410.06
402.729	403.28
403.107	420.23
403.486	420.23
403.864	425.2
404.242	415.48
404.62	419.78
404.999	427.46
405.377	430.17
405.755	422.49
406.133	429.95
406.511	423.62
406.889	450.74
407.267	457.97
407.645	459.55
408.023	450.51
408.401	476.27
408.779	469.49
409.156	474.69
409.534	472.43
409.912	478.76
410.29	501.13
410.667	497.52
411.045	508.81
411.422	521.7
411.8	531.19
412.178	525.76
412.555	535.71
412.933	545.88
413.31	539.55
413.687	554.24
414.065	578.87
414.442	576.84
414.819	575.93
415.197	584.07
415.574	588.36
415.951	607.57
416.328	622.48
416.705	612.54
417.082	652.54
417.46	635.59
417.837	632.43
418.214	668.58
418.591	675.82
418.967	672.65
419.344	686.66
419.721	675.82
420.098	688.92
420.475	702.93
420.852	720.33
421.228	721.46
421.605	734.57
421.982	749.26
422.358	760.11
422.735	767.11
423.111	775.93
423.488	828.58
423.864	796.94
424.241	832.87
424.617	852.76
424.994	856.6
425.37	855.7
425.746	884.4
426.123	919.65
426.499	939.31
426.875	926.88
427.251	964.85
427.627	936.37
428.003	976.15
428.379	984.28
428.756	964.85
429.132	992.19
429.507	1038.52
429.883	1001
430.259	1039.87
430.635	1020.21
431.011	1043.04
431.387	1076.03
431.763	1089.36
432.138	1087.78
432.514	1107.67
432.89	1139.08
433.265	1143.37
433.641	1167.1
434.016	1190.83
434.392	1211.39
434.767	1220.66
435.143	1210.26
435.518	1264.5
435.894	1272.86
436.269	1321
436.644	1352.18
437.02	1353.54
437.395	1376.81
437.77	1394.21
438.145	1422.69
438.52	1451.84
438.895	1447.32
439.271	1497.26
439.646	1514.89
440.021	1516.7
440.395	1555.11
440.77	1564.61
441.145	1558.73
441.52	1611.61
441.895	1648.9
442.27	1668.78
442.645	1661.55
443.019	1685.51
443.394	1689.8
443.769	1722.12
444.143	1718.95
444.518	1749.01
444.892	1743.58
445.267	1779.52
445.641	1807.99
446.016	1788.78
446.39	1797.82
446.764	1835.79
447.139	1841.89
447.513	1913.07
447.887	1899.74
448.262	1912.85
448.636	1938.38
449.01	1930.25
449.384	1959.62
449.758	1961.88
450.132	1967.08
450.506	1993.3
450.88	2024.03
451.254	2024.25
451.628	2065.61
452.002	2076.68
452.376	2080.75
452.75	2112.39
453.123	2140.64
453.497	2153.52
453.871	2201.65
454.244	2204.59
454.618	2225.15
454.992	2253.63
455.365	2307.41
455.739	2322.1
456.112	2369.33
456.486	2400.29
456.859	2385.83
457.232	2434.41
457.606	2428.54
457.979	2511.47
458.352	2498.59
458.725	2503.56
459.099	2584.92
459.472	2589.44
459.845	2652.49
460.218	2626.5
460.591	2662.88
460.964	2712.82
461.337	2768.42
461.71	2774.07
462.083	2838.02
462.456	2847.96
462.829	2874.18
463.201	2886.6
463.574	2941.52
463.947	2976.32
464.32	3002.76
464.692	3057.22
465.065	3091.8
465.438	3159.14
465.81	3172.93
466.183	3221.06
466.555	3292.92
466.928	3302.87
467.3	3327.5
467.672	3350.32
468.045	3437.78
468.417	3485.46
468.789	3480.71
469.161	3551.67
469.534	3594.38
469.906	3626.92
470.278	3707.83
470.65	3751.67
471.022	3861.72
471.394	3910.08
471.766	3942.85
472.138	4031.89
472.51	4041.83
472.882	4116.86
473.253	4133.8
473.625	4201.82
473.997	4288.6
474.369	4360.46
474.74	4407.47
475.112	4463.29
475.484	4517.52
475.855	4661.47
476.227	4734.01
476.598	4838.42
476.97	4808.14
477.341	5022.14
477.713	4982.82
478.084	5057.17
478.455	5195.02
478.827	5262.59
479.198	5400.21
479.569	5376.26
479.94	5558.63
480.311	5582.35
480.682	5748.22
481.053	5871.39
481.424	5995.9
481.795	5951.38
482.166	6084.71
482.537	6166.74
482.908	6332.39
483.279	6356.57
483.65	6502.1
484.021	6609.44
484.391	6668.65
484.762	6736
485.133	6825.71
485.503	6913.84
485.874	7063.9
486.244	7148.64
486.615	7285.36
486.985	7304.57
487.356	7506.6
487.726	7532.81
488.097	7653.49
488.467	7641.28
488.837	7868.17
489.207	7919.24
489.578	8131.21
489.948	8141.83
490.318	8281.27
490.688	8248.27
491.058	8399.23
491.428	8508.38
491.798	8651.88
492.168	8756.73
492.538	8797.64
492.908	8875.83
493.278	8959.89
493.648	8958.08
494.017	9137.51
494.387	9165.99
494.757	9210.05
495.126	9288.02
495.496	9364.63
495.866	9415.92
496.235	9512.87
496.605	9558.52
496.974	9611.4
497.344	9653.88
497.713	9682.36
498.082	9702.47
498.452	9799.87
498.821	9880.32
499.19	9904.05
499.559	9925.74
499.928	10024.5
500.298	10003.25
500.667	10151.05
501.036	10068.11
501.405	10134.1
501.774	10140.65
502.143	10327.31
502.512	10266.3
502.88	10331.15
503.249	10337.71
503.618	10381.78
503.987	10436.91
504.356	10444.6
504.724	10423.13
505.093	10443.24
505.462	10537.48
505.83	10525.73
506.199	10641.2
506.567	10676.68
506.936	10637.36
507.304	10770.69
507.672	10757.36
508.041	10761.2
508.409	10847.3
508.777	10785.38
509.145	10915.09
509.514	10812.5
509.882	10890.46
510.25	10901.99
510.618	10938.6
510.986	10986.5
511.354	10976.34
511.722	10994.19
512.09	11087.97
512.458	11022.66
512.826	11110.8
513.193	11102.89
513.561	11110.8
513.929	11072.6
514.297	11115.09
514.664	11278.7
515.032	11195.54
515.4	11233.73
515.767	11265.82
516.135	11229.89
516.502	11075.99
516.869	11223.11
517.237	11228.76
517.604	11233.5
517.972	11278.02
518.339	11252.03
518.706	11178.82
519.073	11207.97
519.44	11253.62
519.808	11309.89
520.175	11223.33
520.542	11282.99
520.909	11298.59
521.276	11184.24
521.643	11238.93
522.009	11244.13
522.376	11341.07
522.743	11217.01
523.11	11377.68
523.477	11383.33
523.843	11416.32
524.21	11414.29
524.577	11390.79
524.943	11391.01
525.31	11381.97
525.676	11414.52
526.043	11464.68
526.409	11404.57
526.776	11406.15
527.142	11390.79
527.508	11393.73
527.874	11391.69
528.241	11297.23
528.607	11378.13
528.973	11306.27
529.339	11322.77
529.705	11315.08
530.071	11289.77
530.437	11258.81
530.803	11218.82
531.169	11241.41
531.535	11225.59
531.901	11085.26
532.267	11096.11
532.632	11113.06
532.998	11015.2
533.364	11056.11
533.73	10974.75
534.095	10992.15
534.461	10994.87
534.826	10899.28
535.192	10938.6
535.557	10817.24
535.923	10722.33
536.288	10780.63
536.653	10700.41
537.019	10642.33
537.384	10584.71
537.749	10474.88
538.114	10511.04
538.479	10472.17
538.845	10399.18
539.21	10320.08
539.575	10276.02
539.94	10224.04
540.305	10286.86
540.67	10173.64
541.034	10132.06
541.399	10160.76
541.764	10025.4
542.129	9964.38
542.494	9907.66
542.858	9947.21
543.223	9805.07
543.587	9837.83
543.952	9705.63
544.316	9691.17
544.681	9681.23
545.045	9605.07
545.41	9554.68
545.774	9517.39
546.138	9493.66
546.503	9395.36
546.867	9321.46
547.231	9317.4
547.595	9207.34
547.959	9249.15
548.324	9153.33
548.688	9111.75
549.052	9071.53
549.416	9030.62
549.779	8933.9
550.143	8926.67
550.507	8923.06
550.871	8864.3
551.235	8762.38
551.599	8770.97
551.962	8711.76
552.326	8611.2
552.689	8697.3
553.053	8483.07
553.417	8548.38
553.78	8576.17
554.143	8405.33
554.507	8468.15
554.87	8479
555.234	8344.09
555.597	8293.47
555.96	8238.33
556.323	8255.5
556.686	8209.63
557.05	8142.06
557.413	8143.19
557.776	8101.16
558.139	8111.55
558.502	8063.87
558.865	7982.97
559.228	7992.23
559.59	7990.88
559.953	7958.79
560.316	7997.2
560.679	7904.33
561.041	7888.96
561.404	7917.43
561.767	7949.97
562.129	7837.89
562.492	7887.38
562.854	7864.1
563.217	7810.54
563.579	7754.5
563.941	7750.88
564.304	7750.21
564.666	7824.1
565.028	7779.13
565.39	7751.34
565.753	7785.46
566.115	7778.45
566.477	7798.79
566.839	7733.71
567.201	7782.75
567.563	7696.65
567.925	7701.62
568.287	7684.22
568.648	7702.98
569.01	7690.77
569.372	7672.69
569.734	7658.91
570.095	7712.69
570.457	7686.7
570.819	7658.46
571.18	7588.63
571.542	7629.08
571.903	7658.68
572.265	7612.13
572.626	7619.59
572.987	7618.91
573.349	7591.79
573.71	7603.09
574.071	7627.5
574.432	7589.31
574.794	7609.42
575.155	7669.53
575.516	7563.09
575.877	7619.59
576.238	7566.71
576.599	7543.66
576.96	7548.63
577.32	7543.43
577.681	7557.44
578.042	7497.78
578.403	7492.13
578.763	7522.87
579.124	7522.64
579.485	7551.57
579.845	7511.79
580.206	7487.16
580.566	7505.24
580.927	7521.96
581.287	7521.51
581.648	7459.82
582.008	7463.66
582.368	7445.36
582.728	7475.41
583.089	7412.59
583.449	7417.11
583.809	7456.2
584.169	7430.89
584.529	7413.94
584.889	7432.93
585.249	7355.87
585.609	7328.3
585.969	7383.44
586.329	7283.55
586.688	7363.1
587.048	7307.73
587.408	7301.18
587.768	7323.32
588.127	7313.83
588.487	7244.68
588.846	7372.59
589.206	7226.38
589.565	7266.38
589.925	7247.62
590.284	7289.43
590.643	7186.38
591.003	7244
591.362	7295.75
591.721	7247.85
592.08	7223.44
592.44	7198.81
592.799	7232.93
593.158	7179.83
593.517	7235.19
593.876	7227.96
594.235	7141.41
594.593	7182.54
594.952	7134.4
595.311	7126.95
595.67	7132.82
596.029	7111.35
596.387	7158.13
596.746	7135.08
597.104	7142.09
597.463	7125.14
597.822	7091.92
598.18	7027.29
598.538	7046.5
598.897	7130.56
599.255	6965.14
599.613	7114.74
599.972	7095.08
600.33	7085.59
600.688	7056.44
601.046	7079.71
601.404	7104.12
601.762	7075.87
602.12	7096.21
602.478	7105.03
602.836	7032.48
603.194	7022.99
603.552	7040.62
603.91	6980.96
604.268	6999.94
604.625	7041.98
604.983	7060.96
605.341	6994.07
605.698	7051.69
606.056	7015.31
606.413	7005.37
606.771	7046.27
607.128	6969.44
607.485	6998.14
607.843	7037.23
608.2	7023.22
608.557	7047.4
608.914	6981.41
609.272	7007.17
609.629	7011.24
609.986	7058.02
610.343	7041.98
610.7	7056.89
611.057	6998.14
611.414	7022.77
611.771	7040.17
612.127	7022.09
612.484	7060.96
612.841	7022.54
613.198	6981.41
613.554	7015.08
613.911	7041.98
614.267	7030.68
614.624	7050.56
614.98	7071.58
615.337	7098.92
615.693	7050.11
616.05	7065.03
616.406	7073.16
616.762	7034.97
617.118	7025.03
617.475	7094.86
617.831	7100.05
618.187	7127.85
618.543	7067.74
618.899	7130.79
619.255	7104.57
619.611	7105.25
619.967	7057.34
620.323	7109.09
620.678	7162.2
621.034	7046.5
621.39	7128.98
621.746	7046.95
622.101	7204.68
622.457	7128.53
622.812	7061.18
623.168	7081.75
623.523	7106.15
623.879	7174.18
624.234	7096.66
624.589	7125.82
624.945	7128.53
625.3	7145.93
625.655	7111.13
626.01	7071.13
626.365	7090.34
626.72	7048.3
627.075	7113.16
627.43	7144.57
627.785	7031.81
628.14	7079.04
628.495	7088.53
628.85	7009.89
629.205	7027.51
629.559	7053.27
629.914	7065.93
630.269	7031.58
630.623	7038.13
630.978	7044.24
631.332	7046.27
631.687	7027.96
632.041	7009.43
632.396	6980.28
632.75	6992.26
633.104	7001.75
633.459	6954.07
633.813	7016.21
634.167	6974.63
634.521	6944.8
634.875	6996.33
635.229	6904.13
635.583	6911.13
635.937	6910.23
636.291	6867.97
636.645	6885.82
636.999	6864.35
637.352	6899.61
637.706	6850.79
638.06	6952.49
638.413	6886.27
638.767	6816.45
639.121	6860.06
639.474	6783.68
639.828	6778.03
640.181	6822.77
640.534	6819.16
640.888	6817.8
641.241	6759.5
641.594	6818.7
641.947	6789.33
642.301	6769.21
642.654	6809.21
643.007	6827.29
643.36	6752.94
643.713	6717.24
644.066	6758.14
644.419	6768.54
644.771	6693.28
645.124	6670.46
645.477	6684.7
645.83	6647.86
646.182	6607.41
646.535	6573.74
646.888	6583
647.24	6582.33
647.593	6617.13
647.945	6586.17
648.298	6549.11
648.65	6513.18
649.002	6536.68
649.355	6577.36
649.707	6565.6
650.059	6612.38
650.411	6643.79
650.763	6724.24
651.115	6759.05
651.467	6713.17
651.819	6681.31
652.171	6729.44
652.523	6735.54
652.875	6718.82
653.227	6671.59
653.578	6714.07
653.93	6697.35
654.282	6688.31
654.633	6725.37
654.985	6668.88
655.337	6681.76
655.688	6707.52
656.039	6734.41
656.391	6693.06
656.742	6757.92
657.094	6724.02
657.445	6706.17
657.796	6749.33
658.147	6713.4
658.498	6747.29
658.849	6738.93
659.2	6725.37
659.551	6711.59
659.902	6785.03
660.253	6752.94
660.604	6734.64
660.955	6762.66
661.306	6742.1
661.656	6719.5
662.007	6793.85
662.358	6784.36
662.708	6738.26
663.059	6754.3
663.409	6769.67
663.76	6815.99
664.11	6790.23
664.461	6824.35
664.811	6848.99
665.161	6830.91
665.511	6801.53
665.862	6876.33
666.212	6834.52
666.562	6834.98
666.912	6792.72
667.262	6845.82
667.612	6842.66
667.962	6851.25
668.312	6848.08
668.662	6851.47
669.011	6779.84
669.361	6818.03
669.711	6887.86
670.06	6876.78
670.41	6804.02
670.76	6783.23
671.109	6804.02
671.459	6836.33
671.808	6794.52
672.157	6809.21
672.507	6771.25
672.856	6790.68
673.205	6779.61
673.554	6788.65
673.904	6783.9
674.253	6749.55
674.602	6739.61
674.951	6620.29
675.3	6639.73
675.649	6779.61
675.998	6703.91
676.346	6717.69
676.695	6763.11
677.044	6686.05
677.393	6707.75
677.741	6673.85
678.09	6647.86
678.438	6635.43
678.787	6704.36
679.135	6700.06
679.484	6651.93
679.832	6643.12
680.181	6618.03
680.529	6611.93
680.877	6583.91
681.225	6584.36
681.573	6610.35
681.922	6590.24
682.27	6591.59
682.618	6505.94
682.966	6540.75
683.314	6565.38
683.661	6518.6
684.009	6470.01
684.357	6488.09
684.705	6456.91
685.053	6467.98
685.4	6455.1
685.748	6396.8
686.095	6391.6
686.443	6397.25
686.79	6357.93
687.138	6415.33
687.485	6318.61
687.832	6348.43
688.18	6341.66
688.527	6306.63
688.874	6282.45
689.221	6210.59
689.568	6249.68
689.915	6230.25
690.262	6295.78
690.609	6253.07
690.956	6147.99
691.303	6181.43
691.65	6143.69
691.997	6108.22
692.344	6056.92
692.69	6096.69
693.037	6095.56
693.383	5975.34
693.73	6013.3
694.077	5971.72
694.423	5992.06
694.769	5951.16
695.116	5964.04
695.462	5875
695.808	5847.43
696.155	5895.57
696.501	5857.37
696.847	5866.87
697.193	5771.5
697.539	5770.82
697.885	5725.63
698.231	5684.5
698.577	5736.7
698.923	5724.95
699.269	5674.33
699.614	5639.07
699.96	5598.17
700.306	5664.38
700.651	5630.04
700.997	5599.98
701.342	5570.6
701.688	5471.85
702.033	5491.28
702.379	5477.05
702.724	5437.05
703.069	5428.46
703.415	5402.47
703.76	5374.45
704.105	5393.66
704.45	5374.68
704.795	5287.22
705.14	5295.36
705.485	5298.07
705.83	5302.13
706.175	5311.63
706.52	5271.85
706.865	5261.01
707.209	5250.38
707.554	5181.46
707.899	5223.27
708.243	5183.95
708.588	5215.13
708.932	5108.69
709.277	5112.99
709.621	5147.56
709.966	5056.49
710.31	5139.2
710.654	5053.33
710.998	5068.24
711.342	5071.18
711.687	5053.78
712.031	5074.8
712.375	5032.54
712.719	5028.7
713.063	5015.59
713.407	5024.4
713.75	4985.53
714.094	4956.61
714.438	4938.08
714.782	4951.86
715.125	4944.86
715.469	4898.08
715.812	4963.84
716.156	4928.81
716.499	4872.32
716.843	4882.48
717.186	4881.35
717.53	4917.96
717.873	4888.81
718.216	4898.98
718.559	4891.98
718.902	4833.9
719.246	4878.87
719.589	4804.07
719.932	4858.76
720.275	4834.8
720.617	4806.55
720.96	4855.82
721.303	4840.68
721.646	4797.74
721.989	4802.94
722.331	4790.51
722.674	4818.76
723.016	4814.46
723.359	4799.1
723.701	4812.2
724.044	4801.13
724.386	4751.41
724.729	4745.54
725.071	4727.46
725.413	4777.63
725.755	4698.99
726.097	4766.56
726.439	4752.54
726.782	4729.04
727.124	4751.19
727.465	4736.05
727.807	4709.61
728.149	4736.73
728.491	4706.9
728.833	4662.83
729.175	4747.12
729.516	4716.16
729.858	4745.54
730.199	4701.02
730.541	4686.56
730.882	4739.21
731.224	4737.63
731.565	4734.01
731.906	4767.91
732.248	4748.02
732.589	4750.96
732.93	4744.64
733.271	4720.68
733.612	4779.21
733.953	4728.14
734.294	4764.3
734.635	4805.65
734.976	4825.31
735.317	4753.67
735.658	4786.67
735.999	4781.02
736.339	4800
736.68	4828.7
737.021	4790.51
737.361	4807.01
737.702	4836.38
738.042	4810.4
738.383	4806.1
738.723	4866.67
739.063	4846.78
739.404	4883.16
739.744	4897.4
740.084	4901.24
740.424	4906.21
740.764	4899.43
741.104	4943.73
741.444	4957.74
741.784	4950.51
742.124	4984.85
742.464	4970.62
742.804	5021.46
743.143	5028.47
743.483	5089.48
743.823	5079.32
744.162	5098.98
744.502	5115.7
744.841	5137.17
745.181	5141.01
745.52	5236.83
745.86	5291.51
746.199	5254.45
746.538	5320.67
746.877	5388.91
747.216	5432.07
747.556	5501.9
747.895	5504.39
748.234	5542.13
748.573	5583.03
748.911	5597.49
749.25	5673.88
749.589	5710.03
749.928	5825.06
750.267	5879.97
750.605	5959.74
750.944	6021.89
751.283	6090.59
751.621	6162
751.96	6270.02
752.298	6369.45
752.636	6476.57
752.975	6519.96
753.313	6594.76
753.651	6769.89
753.989	6887.63
754.327	6957.68
754.666	7026.61
755.004	7196.55
755.342	7323.32
755.679	7506.37
756.017	7561.06
756.355	7758.79
756.693	7860.71
757.031	8015.96
757.368	8159.01
757.706	8320.59
758.044	8448.72
758.381	8623.18
758.719	8770.74
759.056	8971.19
759.394	9096.16
759.731	9248.02
760.068	9411.63
760.405	9595.58
760.743	9768.46
761.08	9887.55
761.417	10070.82
761.754	10264.49
762.091	10476.01
762.428	10627.19
762.765	10703.8
763.102	11017.24
763.438	11170.45
763.775	11305.14
764.112	11515.53
764.449	11773.83
764.785	11866.48
765.122	11960.94
765.458	12182.86
765.795	12399.12
766.131	12434.83
766.467	12682.51
766.804	12853.12
767.14	12880.92
767.476	13193
767.812	13248.82
768.148	13527
768.485	13600.45
768.821	13642.71
769.157	13875.92
769.492	13976.48
769.828	14197.04
770.164	14201.56
770.5	14352.29
770.836	14547.32
771.171	14533.53
771.507	14750.47
771.842	14755.67
772.178	14903.46
772.513	14928.55
772.849	15192.72
773.184	15244.02
773.519	15283.34
773.855	15423.9
774.19	15470
774.525	15500.96
774.86	15643.56
775.195	15758.81
775.53	15779.6
775.865	15787.28
776.2	15837.9
776.535	15935.3
776.87	15891.91
777.205	15953.61
777.539	16115.86
777.874	16189.08
778.209	16025.24
778.543	16204.45
778.878	16129.19
779.212	16180.72
779.547	16300.72
779.881	16382.3
780.215	16314.5
780.55	16487.83
780.884	16360.6
781.218	16410.09
781.552	16474.04
781.886	16480.6
782.22	16422.52
782.554	16417.1
782.888	16342.3
783.222	16427.94
783.556	16480.37
783.889	16405.12
784.223	16308.85
784.557	16400.37
784.89	16444.44
785.224	16391.11
785.557	16462.97
785.891	16434.72
786.224	16413.71
786.558	16429.3
786.891	16353.82
787.224	16242.64
787.557	16296.42
787.891	16348.85
788.224	16427.49
788.557	16412.35
788.89	16350.88
789.223	16359.02
789.556	16260.94
789.888	16228.17
790.221	16152.7
790.554	16171.68
790.887	16226.37
791.219	16054.17
791.552	16138.91
791.884	16133.26
792.217	16098.01
792.549	16069.99
792.882	16021.85
793.214	15985.24
793.546	16012.14
793.879	15882.2
794.211	15879.71
794.543	15986.6
794.875	15883.33
795.207	15918.13
795.539	15905.02
795.871	15864.57
796.203	15783.21
796.535	15689.21
796.867	15672.26
797.198	15654.86
797.53	15712.71
797.862	15604.24
798.193	15540.28
798.525	15554.75
798.856	15610.56
799.188	15351.36
799.519	15432.26
799.85	15309.1
800.182	15354.75
800.513	15417.57
800.844	15258.71
801.175	15324.7
801.506	15297.35
801.837	15190.69
802.168	15205.6
802.499	15151.14
802.83	15039.73
803.161	15166.73
803.491	15088.09
803.822	15074.98
804.153	15028.88
804.483	14846.52
804.814	14905.72
805.145	14939.4
805.475	14867.98
805.805	14787.08
806.136	14884.03
806.466	14827.08
806.796	14827.08
807.126	14654.88
807.457	14620.31
807.787	14630.7
808.117	14647.88
808.447	14558.39
808.777	14593.42
809.107	14468.9
809.436	14416.47
809.766	14436.81
810.096	14394.55
810.426	14409.01
810.755	14367.21
811.085	14371.05
811.414	14401.33
811.744	14248.79
812.073	14278.62
812.403	14248.11
812.732	14081.56
813.061	14156.59
813.39	14099.64
813.719	14092.86
814.049	14095.12
814.378	14061.45
814.707	14005.63
815.036	14154.33
815.365	13999.76
815.693	13892.42
816.022	13828.92
816.351	13858.07
816.68	13825.98
817.008	13906.65
817.337	13703.27
817.665	13665.3
817.994	13821.46
818.322	13741.91
818.651	13676.38
818.979	13641.12
819.307	13731.74
819.636	13647.45
819.964	13590.5
820.292	13736.94
820.62	13610.16
820.948	13571.52
821.276	13624.85
821.604	13617.85
821.932	13623.5
822.259	13576.95
822.587	13546.44
822.915	13521.13
823.243	13571.07
823.57	13592.09
823.898	13559.32
824.225	13529.94
824.553	13476.83
824.88	13526.1
825.207	13562.26
825.535	13583.05
825.862	13614.23
826.189	13498.3
826.516	13573.1
826.843	13604.52
827.17	13582.37
827.497	13618.3
827.824	13621.01
828.151	13694.91
828.478	13558.41
828.805	13673.67
829.131	13648.81
829.458	13584.18
829.785	13502.82
830.111	13635.93
830.438	13658.75
830.764	13676.83
831.09	13607.45
831.417	13574.69
831.743	13639.32
832.069	13562.71
832.395	13608.81
832.722	13640.22
833.048	13536.27
833.374	13621.01
833.7	13543.05
834.026	13457.4
834.351	13632.09
834.677	13508.7
835.003	13531.97
835.329	13448.59
835.654	13413.56
835.98	13455.14
836.306	13484.74
836.631	13388.93
836.956	13470.73
837.282	13396.84
837.607	13340.57
837.932	13382.6
838.258	13321.13
838.583	13351.87
838.908	13281.81
839.233	13188.71
839.558	13170.4
839.883	13217.18
840.208	13205.66
840.533	13184.19
840.858	13157.07
841.182	13176.73
841.507	13074.13
841.832	13134.92
842.156	12973.12
842.481	13053.12
842.805	13066.45
843.13	13021.93
843.454	12911.65
843.778	12885.21
844.103	12901.48
844.427	12822.84
844.751	12819.45
845.075	12892.22
845.399	12755.5
845.723	12660.36
846.047	12761.15
846.371	12640.02
846.695	12631.66
847.019	12503.98
847.343	12414.26
847.666	12474.38
847.99	12363.87
848.313	12310.09
848.637	12348.28
848.96	12274.38
849.284	12200.94
849.607	12183.76
849.931	12059.02
850.254	12025.35
850.577	11982.41
850.9	11928.18
851.223	11959.13
851.546	11847.05
851.869	11799.14
852.192	11876.43
852.515	11678.24
852.838	11658.35
853.161	11688.18
853.483	11657.22
853.806	11569.54
854.129	11603.66
854.451	11461.52
854.774	11467.62
855.096	11396.21
855.419	11403.67
855.741	11446.83
856.063	11327.96
856.385	11286.16
856.708	11210
857.03	11153.73
857.352	11250.45
857.674	11211.13
857.996	11111.25
858.318	11051.59
858.64	11094.98
858.961	11034.87
859.283	11012.94
859.605	10911.03
859.926	11014.07
860.248	10873.97
860.57	10891.59
860.891	10843.23
861.212	10808.66
861.534	10804.59
861.855	10730.24
862.176	10804.14
862.498	10786.51
862.819	10766.17
863.14	10650.47
863.461	10716.46
863.782	10604.37
864.103	10638.49
864.424	10639.17
864.745	10629.45
865.065	10522.11
865.386	10503.58
865.707	10553.75
866.027	10476.91
866.348	10516.46
866.668	10535.22
866.989	10468.78
867.309	10418.84
867.63	10363.92
867.95	10478.27
868.27	10417.93
868.59	10339.29
868.91	10324.15
869.23	10294.77
869.55	10248.22
869.87	10359.18
870.19	10344.04
870.51	10314.21
870.83	10294.77
871.15	10212.74
871.469	10224.72
871.789	10215.9
872.109	10284.6
872.428	10175.9
872.748	10160.76
873.067	10161.89
873.386	10166.19
873.706	10185.85
874.025	10085.96
874.344	9988.79
874.663	10077.83
874.982	10088.68
875.301	10063.37
875.62	9997.15
875.939	9955.35
876.258	10092.52
876.577	9910.83
876.896	9946.08
877.214	9903.37
877.533	9886.65
877.852	9913.54
878.17	9961.9
878.489	9917.83
878.807	9937.04
879.125	9884.84
879.444	9824.28
879.762	9869.47
880.08	9826.31
880.398	9758.51
880.716	9761.23
881.034	9662.02
881.352	9772.98
881.67	9622.25
881.988	9697.73
882.306	9653.43
882.624	9671.29
882.941	9592.87
883.259	9604.39
883.577	9526.88
883.894	9559.2
884.212	9527.56
884.529	9531.63
884.846	9487.11
885.164	9472.87
885.481	9441.01
885.798	9492.08
886.115	9378.41
886.432	9381.8
886.75	9350.84
887.067	9374.8
887.383	9223.84
887.7	9333.22
888.017	9303.39
888.334	9338.86
888.651	9210.73
888.967	9194.69
889.284	9199.89
889.6	9143.84
889.917	9041.47
890.233	9128.47
890.55	8996.5
890.866	9065.2
891.182	9033.34
891.498	8999.66
891.815	8925.54
892.131	8874.24
892.447	8919.21
892.763	8863.4
893.079	8872.44
893.395	8824.08
893.71	8794.92
894.026	8774.36
894.342	8754.25
894.657	8687.58
894.973	8638.32
895.289	8700.01
895.604	8658.66
895.92	8550.86
896.235	8554.03
896.55	8540.69
896.865	8523.97
897.181	8487.81
897.496	8471.09
897.811	8470.41
898.126	8456.85
898.441	8386.57
898.756	8335.5
899.071	8278.55
899.386	8255.05
899.7	8192.45
900.015	8211.21
900.33	8132.79
900.644	8142.74
900.959	8147.94
901.273	8122.85
901.588	8065.9
901.902	8071.55
902.216	7922.4
902.531	7970.31
902.845	8032.91
903.159	7911.11
903.473	7836.98
903.787	7832.69
904.101	7807.38
904.415	7806.7
904.729	7788.4
905.042	7727.38
905.356	7678.34
905.67	7717.44
905.984	7706.14
906.297	7634.95
906.611	7625.69
906.924	7611.9
907.237	7505.47
907.551	7560.83
907.864	7473.15
908.177	7456.88
908.491	7480.38
908.804	7391.35
909.117	7303.44
909.43	7288.98
909.743	7267.73
910.056	7255.76
910.368	7183.44
910.681	7162.2
910.994	7168.3
911.307	7146.83
911.619	7123.78
911.932	7150
912.244	6983.67
912.557	7060.96
912.869	6958.81
913.181	6933.5
913.494	6953.39
913.806	6860.06
914.118	6893.96
914.43	6853.28
914.742	6832.26
915.054	6833.39
915.366	6759.5
915.678	6721.53
915.99	6706.84
916.302	6647.18
916.613	6638.14
916.925	6661.65
917.236	6603.34
917.548	6608.31
917.859	6554.08
918.171	6472.95
918.482	6557.47
918.794	6463.69
919.105	6423.24
919.416	6393.86
919.727	6417.36
920.038	6382.56
920.349	6317.02
920.66	6316.8
920.971	6353.86
921.282	6363.35
921.593	6215.1
921.903	6153.86
922.214	6209.23
922.525	6138.04
922.835	6143.92
923.146	6125.62
923.456	6103.02
923.767	6068.89
924.077	6079.74
924.387	6036.8
924.697	6025.96
925.008	6022.57
925.318	5976.02
925.628	5970.37
925.938	5947.32
926.248	5865.96
926.558	5827.32
926.867	5817.6
927.177	5821.22
927.487	5774.44
927.796	5775.34
928.106	5746.87
928.416	5700.09
928.725	5649.24
929.034	5669.36
929.344	5675.01
929.653	5636.82
929.962	5647.66
930.271	5548.46
930.581	5587.55
930.89	5552.98
931.199	5472.98
931.508	5456.03
931.817	5466.65
932.125	5468.46
932.434	5413.09
932.743	5415.58
933.051	5360.44
933.36	5360.89
933.669	5327.22
933.977	5317.73
934.286	5329.93
934.594	5302.59
934.902	5227.56
935.21	5200.89
935.519	5211.97
935.827	5153.89
936.135	5136.72
936.443	5132.65
936.751	5129.71
937.059	5121.12
937.367	5062.37
937.674	5053.55
937.982	5062.82
938.29	5043.84
938.597	4997.28
938.905	4947.57
939.213	4936.72
939.52	4938.08
939.827	4916.38
940.135	4917.96
940.442	4841.13
940.749	4873.22
941.056	4853.33
941.363	4816.27
941.67	4779.21
941.977	4737.18
942.284	4720
942.591	4715.26
942.898	4729.27
943.205	4710.96
943.511	4692.89
943.818	4599.33
944.125	4633.68
944.431	4607.01
944.738	4578.76
945.044	4573.79
945.35	4579.89
945.657	4490.63
945.963	4543.06
946.269	4503.29
946.575	4489.73
946.881	4433.46
947.187	4410.41
947.493	4393.23
947.799	4419.67
948.105	4393.01
948.41	4308.04
948.716	4357.3
949.022	4315.27
949.327	4303.29
949.633	4218.32
949.938	4248.38
950.244	4287.47
950.549	4240.02
950.854	4235.72
951.16	4214.48
951.465	4169.06
951.77	4174.93
952.075	4160.7
952.38	4096.06
952.685	4101.04
952.99	4066.01
953.294	4059.91
953.599	4061.04
953.904	4008.61
954.209	3992.34
954.513	4001.38
954.818	3977.42
955.122	4011.32
955.426	3981.72
955.731	3931.1
956.035	3950.76
956.339	3892
956.643	3816.75
956.948	3866.92
957.252	3807.26
957.556	3835.73
957.86	3805.22
958.163	3812.68
958.467	3761.38
958.771	3714.15
959.075	3741.05
959.378	3741.05
959.682	3753.7
959.985	3695.17
960.289	3698.11
960.592	3680.26
960.896	3656.98
961.199	3631.44
961.502	3619.69
961.805	3609.75
962.108	3624.89
962.411	3603.65
962.714	3555.51
963.017	3530.43
963.32	3575.85
963.623	3537.66
963.926	3527.72
964.228	3464.22
964.531	3491.56
964.833	3478.68
965.136	3414.27
965.438	3426.93
965.741	3406.59
966.043	3361.17
966.345	3378.57
966.648	3341.96
966.95	3394.61
967.252	3339.7
967.554	3288.18
967.856	3287.72
968.158	3300.61
968.46	3303.54
968.761	3274.17
969.063	3242.53
969.365	3254.05
969.666	3213.38
969.968	3173.38
970.269	3125.92
970.571	3209.31
970.872	3185.35
971.174	3159.59
971.475	3134.96
971.776	3147.61
972.077	3104
972.378	3096.99
972.679	3088.86
972.98	3095.41
973.281	3045.7
973.582	3041.63
973.883	3045.7
974.183	3002.31
974.484	2967.28
974.785	2967.73
975.085	3009.54
975.386	2986.94
975.686	2992.59
975.986	2944.68
976.287	2943.33
976.587	2960.73
976.887	2885.93
977.187	2900.62
977.487	2878.24
977.787	2882.76
978.087	2819.49
978.387	2856.55
978.687	2832.37
978.987	2807.06
979.286	2818.81
979.586	2799.83
979.885	2769.77
980.185	2755.76
980.484	2782.65
980.784	2758.25
981.083	2728.64
981.382	2745.82
981.682	2706.72
981.981	2696.1
982.28	2718.02
982.579	2659.04
982.878	2670.79
983.177	2658.59
983.475	2674.18
983.774	2628.31
984.073	2616.56
984.372	2601.87
984.67	2591.7
984.969	2616.33
985.267	2592.15
985.566	2552.83
985.864	2557.8
986.162	2551.25
986.461	2527.07
986.759	2544.24
987.057	2494.3
987.355	2504.02
987.653	2517.8
987.951	2480.06
988.249	2462.66
988.547	2432.83
988.844	2457.92
989.142	2444.36
989.44	2408.88
989.737	2427.63
990.035	2408.2
990.332	2385.83
990.63	2368.65
990.927	2361.87
991.224	2385.38
991.521	2322.78
991.819	2345.83
992.116	2327.52
992.413	2300.18
992.71	2315.55
993.006	2289.56
993.303	2266.06
993.6	2285.94
993.897	2272.38
994.193	2225.15
994.49	2234.19
994.787	2213.4
995.083	2219.05
995.379	2204.14
995.676	2197.13
995.972	2190.58
996.268	2167.08
996.565	2130.01
996.861	2143.57
997.157	2152.84
997.453	2130.69
997.749	2131.82
998.044	2100.41
998.34	2088.66
998.636	2101.54
998.932	2089.34
999.227	2032.39
999.523	2071.71
999.818	2048.43
1000.114	2041.66
1000.409	2011.6
1000.704	2012.28
1001	1995.1
1001.295	1962.56
1001.59	1990.58
1001.885	1954.43
1002.18	1965.05
1002.475	1943.8
1002.77	1898.61
1003.065	1912.85
1003.359	1917.14
1003.654	1892.51
1003.949	1907.87
1004.243	1881.43
1004.538	1857.93
1004.832	1857.48
1005.127	1865.16
1005.421	1822.9
1005.715	1802.11
1006.009	1804.6
1006.304	1827.88
1006.598	1831.49
1006.892	1787.42
1007.186	1757.14
1007.48	1780.65
1007.773	1763.7
1008.067	1767.99
1008.361	1747.65
1008.655	1728.9
1008.948	1735.22
1009.242	1686.86
1009.535	1713.08
1009.829	1691.16
1010.122	1696.81
1010.415	1655
1010.708	1665.85
1011.001	1681.89
1011.295	1657.03
1011.588	1627.43
1011.881	1626.3
1012.173	1629.46
1012.466	1626.53
1012.759	1581.78
1013.052	1581.33
1013.344	1596.24
1013.637	1572.06
1013.93	1551.27
1014.222	1537.71
1014.514	1564.15
1014.807	1528.45
1015.099	1509.92
1015.391	1529.58
1015.683	1531.84
1015.976	1493.2
1016.268	1494.33
1016.56	1484.61
1016.851	1506.53
1017.143	1450.26
1017.435	1473.76
1017.727	1449.58
1018.018	1439.86
1018.31	1438.06
1018.602	1422.69
1018.893	1415.91
1019.185	1414.33
1019.476	1357.83
1019.767	1373.42
1020.058	1391.73
1020.35	1365.51
1020.641	1372.75
1020.932	1371.84
1021.223	1332.52
1021.514	1341.56
1021.804	1342.92
1022.095	1284.61
1022.386	1307.44
1022.677	1302.92
1022.967	1311.73
1023.258	1283.71
1023.548	1288.23
1023.839	1268.12
1024.129	1247.33
1024.419	1266.31
1024.709	1264.5
1025	1230.38
1025.29	1228.34
1025.58	1210.94
1025.87	1186.08
1026.16	1170.04
1026.449	1198.97
1026.739	1184.95
1027.029	1185.18
1027.319	1175.46
1027.608	1190.38
1027.898	1172.3
1028.187	1130.72
1028.477	1137.5
1028.766	1142.24
1029.055	1137.27
1029.344	1127.56
1029.634	1132.75
1029.923	1102.47
1030.212	1108.35
1030.501	1106.54
1030.79	1073.09
1031.078	1086.88
1031.367	1083.49
1031.656	1097.73
1031.945	1033.32
1032.233	1071.06
1032.522	1047.11
1032.81	1041
1033.099	1024.73
1033.387	1058.63
1033.675	1033.09
1033.963	1000.1
1034.251	1010.27
1034.54	967.11
1034.828	967.11
1035.116	999.42
1035.403	988.12
1035.691	968.01
1035.979	978.41
1036.267	972.53
1036.554	961.46
1036.842	967.56
1037.129	955.36
1037.417	933.44
1037.704	944.51
1037.992	926.2
1038.279	908.13
1038.566	920.78
1038.853	920.78
1039.14	920.78
