Data from hue_36_FLMS001491_00059.txt Node
Date: Tue Feb 07 17:30:00 GMT 2017
User: dcchb
Spectrometer: FLMS00149
Trigger mode: 0
Integration Time (sec): 2.000000E-2
Scans to average: 10
Electric dark correction enabled: true
Nonlinearity correction enabled: false
Boxcar width: 0
XAxis mode: Wavelengths
Number of Pixels in Spectrum: 2048
>>>>>Begin Spectral Data<<<<<
341.393	-10.2
341.776	-10.2
342.16	-10.2
342.543	-36.64
342.927	-84.55
343.31	-63.08
343.693	-77.09
344.077	-69.4
344.46	-79.35
344.843	-55.62
345.226	-48.84
345.61	-45.45
345.993	-1.38
346.376	9.01
346.759	12.17
347.142	29.35
347.525	67.09
347.908	53.53
348.291	67.09
348.674	88.11
349.057	113.87
349.44	125.17
349.823	139.63
350.206	163.58
350.588	174.2
350.971	223.69
351.354	223.24
351.737	234.32
352.119	245.84
352.502	267.54
352.884	284.48
353.267	289.68
353.65	279.29
354.032	312.96
354.414	304.82
354.797	319.29
355.179	338.95
355.562	329.23
355.944	305.5
356.326	337.14
356.709	343.01
357.091	333.97
357.473	338.95
357.855	348.44
358.238	332.84
358.62	329.68
359.002	352.5
359.384	334.2
359.766	360.41
360.148	330.13
360.53	354.54
360.912	342.79
361.294	327.87
361.676	334.2
362.057	341.88
362.439	346.86
362.821	305.05
363.203	335.33
363.584	321.77
363.966	319.74
364.348	326.29
364.729	320.64
365.111	329.91
365.493	327.42
365.874	314.31
366.256	333.3
366.637	336.69
367.019	312.28
367.4	338.72
367.781	318.83
368.163	333.75
368.544	334.88
368.925	322.45
369.306	329.23
369.688	313.86
370.069	317.93
370.45	297.59
370.831	331.49
371.212	322.22
371.593	323.13
371.974	324.48
372.355	329.91
372.736	320.19
373.117	308.21
373.498	313.64
373.879	325.84
374.26	301.21
374.641	317.7
375.021	326.74
375.402	329.91
375.783	319.29
376.163	325.39
376.544	343.01
376.925	335.33
377.305	321.09
377.686	351.83
378.066	328.1
378.447	329.23
378.827	328.78
379.208	307.08
379.588	333.52
379.968	333.97
380.349	346.63
380.729	334.2
381.109	339.85
381.489	347.76
381.87	322
382.25	328.55
382.63	341.21
383.01	366.29
383.39	365.39
383.77	339.85
384.15	336.23
384.53	331.94
384.91	348.66
385.29	350.25
385.67	338.49
386.049	361.54
386.429	351.83
386.809	355.44
387.189	340.08
387.568	361.54
387.948	348.89
388.328	356.12
388.707	362
389.087	353.41
389.466	366.29
389.846	343.01
390.225	359.51
390.605	341.43
390.984	362.9
391.363	363.58
391.743	371.04
392.122	368.55
392.501	349.34
392.881	363.58
393.26	371.04
393.639	367.19
394.018	369.68
394.397	379.62
394.776	377.36
395.155	371.94
395.534	367.42
395.913	371.49
396.292	368.78
396.671	376.01
397.05	384.82
397.429	387.98
397.808	374.65
398.186	380.75
398.565	406.74
398.944	385.27
399.323	383.46
399.701	396.57
400.08	356.57
400.458	390.02
400.837	381.43
401.215	389.57
401.594	402.22
401.972	409.9
402.351	419.85
402.729	402.45
403.107	393.63
403.486	397.02
403.864	393.86
404.242	399.74
404.62	406.97
404.999	420.98
405.377	409.9
405.755	420.75
406.133	421.43
406.511	403.35
406.889	409
407.267	414.88
407.645	449.45
408.023	422.56
408.401	419.85
408.779	429.34
409.156	426.18
409.534	446.29
409.912	413.29
410.29	443.58
410.667	431.82
411.045	440.19
411.422	447.64
411.8	454.2
412.178	443.12
412.555	427.08
412.933	429.56
413.31	452.62
413.687	474.08
414.065	476.34
414.442	459.39
414.819	459.17
415.197	450.36
415.574	487.19
415.951	471.6
416.328	470.24
416.705	467.53
417.082	464.59
417.46	471.15
417.837	456.91
418.214	476.8
418.591	482.22
418.967	484.7
419.344	469.11
419.721	492.84
420.098	495.78
420.475	498.49
420.852	491.26
421.228	518.38
421.605	503.69
421.982	482.44
422.358	526.06
422.735	511.82
423.111	503.69
423.488	519.73
423.864	521.09
424.241	521.54
424.617	548.88
424.994	547.3
425.37	530.58
425.746	528.55
426.123	548.66
426.499	519.96
426.875	532.39
427.251	567.64
427.627	576.45
428.003	540.52
428.379	546.85
428.756	566.96
429.132	562.67
429.507	591.82
429.883	576.23
430.259	582.1
430.635	581.88
431.011	597.7
431.387	597.24
431.763	612.16
432.138	597.47
432.514	619.62
432.89	591.14
433.265	638.83
433.641	629.79
434.016	623.91
434.392	629.33
434.767	639.5
435.143	629.11
435.518	633.85
435.894	634.76
436.269	623.91
436.644	650.58
437.02	659.62
437.395	658.71
437.77	693.74
438.145	674.3
438.52	692.16
438.895	683.57
439.271	693.74
439.646	675.21
440.021	692.61
440.395	694.19
440.77	698.71
441.145	716.34
441.52	722.21
441.895	711.82
442.27	720.4
442.645	722.89
443.019	709.11
443.394	737.58
443.769	740.52
444.143	718.14
444.518	723.12
444.892	721.53
445.267	753.62
445.641	744.58
446.016	724.47
446.39	748.88
446.764	784.36
447.139	776.45
447.513	744.58
447.887	780.06
448.262	798.37
448.636	760.86
449.01	773.96
449.384	776
449.758	777.58
450.132	774.87
450.506	817.8
450.88	817.58
451.254	824.13
451.628	817.8
452.002	843.57
452.376	839.95
452.75	831.36
453.123	829.1
453.497	855.99
453.871	856.45
454.244	860.51
454.618	866.84
454.992	882.89
455.365	874.3
455.739	888.54
456.112	903.9
456.486	911.59
456.859	887.86
457.232	953.62
457.606	923.79
457.979	928.99
458.352	943
458.725	973.05
459.099	995.2
459.472	1005.82
459.845	993.62
460.218	1002.88
460.591	1025.26
460.964	987.29
461.337	1030.68
461.71	1043.11
462.083	1053.05
462.456	1070.68
462.829	1058.7
463.201	1073.84
463.574	1083.79
463.947	1088.08
464.32	1117.23
464.692	1132.15
465.065	1131.69
465.438	1158.13
465.81	1171.24
466.183	1189.77
466.555	1169.21
466.928	1194.74
467.3	1217.57
467.672	1223.22
468.045	1272.71
468.417	1242.65
468.789	1299.6
469.161	1336.66
469.534	1357.68
469.906	1389.77
470.278	1350.9
470.65	1376.66
471.022	1440.84
471.394	1462.76
471.766	1465.92
472.138	1500.27
472.51	1524.23
472.882	1555.41
473.253	1568.29
473.625	1615.75
473.997	1623.43
474.369	1666.37
474.74	1681.28
475.112	1703.66
475.484	1795.18
475.855	1785.24
476.227	1829.98
476.598	1862.97
476.97	1925.12
477.341	1995.85
477.713	2025.68
478.084	2027.49
478.455	2091.67
478.827	2173.25
479.198	2236.52
479.569	2240.82
479.94	2310.87
480.311	2380.93
480.682	2429.06
481.053	2504.99
481.424	2583.41
481.795	2613.69
482.166	2688.71
482.537	2788.82
482.908	2845.32
483.279	2899.33
483.65	2964.64
484.021	3035.15
484.391	3138.87
484.762	3188.36
485.133	3278.53
485.503	3300.9
485.874	3425.19
486.244	3494.57
486.615	3597.39
486.985	3678.97
487.356	3798.29
487.726	3871.28
488.097	3999.41
488.467	4059.53
488.837	4194.66
489.207	4257.49
489.578	4338.61
489.948	4465.39
490.318	4504.26
490.688	4582
491.058	4752.84
491.428	4847.98
491.798	4927.98
492.168	5025.15
492.538	5064.47
492.908	5205.94
493.278	5306.5
493.648	5397.8
494.017	5483.44
494.387	5595.08
494.757	5707.17
495.126	5793.27
495.496	5817.9
495.866	5962.53
496.235	6031.68
496.605	6129.75
496.974	6220.83
497.344	6284.33
497.713	6383.98
498.082	6450.2
498.452	6621.49
498.821	6677.76
499.19	6722.73
499.559	6810.19
499.928	6897.87
500.298	6988.71
500.667	7129.95
501.036	7161.14
501.405	7180.8
501.774	7245.88
502.143	7317.52
502.512	7443.39
502.88	7564.07
503.249	7585.31
503.618	7602.71
503.987	7698.53
504.356	7766.55
504.724	7905.07
505.093	7965.86
505.462	8014.9
505.83	8117.27
506.199	8176.03
506.567	8308.68
506.936	8281.11
507.304	8413.08
507.672	8454.44
508.041	8599.29
508.409	8630.25
508.777	8630.25
509.145	8791.6
509.514	8778.72
509.882	8891.94
510.25	8921.09
510.618	8952.73
510.986	9012.39
511.354	9096.23
511.722	9187.53
512.09	9333.51
512.458	9338.26
512.826	9423.23
513.193	9530.12
513.561	9502.09
513.929	9602.88
514.297	9705.71
514.664	9767.17
515.032	9790.45
515.4	9878.58
515.767	9876.32
516.135	9962.42
516.502	9867.28
516.869	10092.14
517.237	10079.71
517.604	10104.11
517.972	10246.71
518.339	10260.94
518.706	10319.47
519.073	10413.26
519.44	10468.85
519.808	10584.55
520.175	10540.26
520.542	10692.57
520.909	10704.32
521.276	10805.34
521.643	10874.71
522.009	10934.37
522.376	11002.62
522.743	11028.83
523.11	11110.87
523.477	11201.49
523.843	11315.38
524.21	11420.69
524.577	11490.52
524.943	11529.61
525.31	11599.67
525.676	11723.28
526.043	11789.27
526.409	11815.93
526.776	11956.27
527.142	12017.73
527.508	12005.76
527.874	12090.95
528.241	12229.93
528.607	12295.02
528.973	12365.07
529.339	12377.95
529.705	12455.01
530.071	12597.83
530.437	12616.14
530.803	12697.72
531.169	12783.82
531.535	12784.49
531.901	12760.54
532.267	12937.48
532.632	13052.74
532.998	12995.11
533.364	13171.38
533.73	13162.79
534.095	13245.73
534.461	13259.28
534.826	13355.55
535.192	13418.38
535.557	13515.32
535.923	13500.86
536.288	13547.19
536.653	13701.53
537.019	13554.87
537.384	13714.87
537.749	13764.81
538.114	13649.56
538.479	13812.72
538.845	13862.88
539.21	13882.09
539.575	13929.1
539.94	14026.5
540.305	14160.73
540.67	14127.06
541.034	14172.03
541.399	14297
541.764	14276.21
542.129	14368.86
542.494	14388.29
542.858	14488.18
543.223	14471.68
543.587	14615.18
543.952	14616.08
544.316	14694.5
544.681	14691.79
545.045	14733.14
545.41	14912.8
545.774	14922.74
546.138	14907.6
546.503	15007.49
546.867	15083.19
547.231	15186.01
547.595	15103.76
547.959	15194.83
548.324	15242.96
548.688	15274.37
549.052	15342.17
549.416	15344.65
549.779	15350.3
550.143	15433.69
550.507	15527.02
550.871	15534.25
551.235	15581.93
551.599	15786.9
551.962	15816.28
552.326	15697.41
552.689	15878.42
553.053	15823.06
553.417	15956.39
553.78	16143.5
554.143	16040
554.507	16117.97
554.87	16183.73
555.234	16302.59
555.597	16240.22
555.96	16343.27
556.323	16487
556.686	16385.98
557.05	16588.69
557.413	16525.86
557.776	16699.87
558.139	16724.5
558.502	16707.33
558.865	16713.43
559.228	16787.55
559.59	16891.96
559.953	17030.26
560.316	17174.66
560.679	17165.17
561.041	17222.8
561.404	17323.13
561.767	17296.24
562.129	17340.76
562.492	17568.78
562.854	17515.22
563.217	17546.86
563.579	17567.87
563.941	17757.47
564.304	17790.01
564.666	17885.6
565.028	17919.73
565.39	18026.39
565.753	18014.87
566.115	18077.24
566.477	18163.11
566.839	18292.15
567.201	18415.31
567.563	18374.18
567.925	18466.15
568.287	18544.12
568.648	18537.79
569.01	18635.19
569.372	18975.29
569.734	18819.59
570.095	18846.26
570.457	19000.15
570.819	19071.56
571.18	19121.95
571.542	19302.29
571.903	19214.61
572.265	19278.79
572.626	19402.17
572.987	19420.7
573.349	19527.82
573.71	19739.34
574.071	19660.02
574.432	19796.51
574.794	20013.91
575.155	20052.55
575.516	20053.91
575.877	20224.3
576.238	20288.93
576.599	20343.62
576.96	20542.93
577.32	20650.05
577.681	20723.49
578.042	20848.46
578.403	20940.66
578.763	20996.93
579.124	21261.11
579.485	21430.82
579.845	21561.89
580.206	21578.39
580.566	21772.73
580.927	21857.7
581.287	22148.32
581.648	22149.22
582.008	22441.87
582.368	22436.9
582.728	22633.05
583.089	22824.23
583.449	23099.03
583.809	23132.47
584.169	23333.82
584.529	23481.61
584.889	23761.38
585.249	23860.36
585.609	23946.01
585.969	24290.18
586.329	24477.29
586.688	24653.56
587.048	24886.32
587.408	24925.42
587.768	25269.14
588.127	25352.75
588.487	25530.6
588.846	25934.21
589.206	25903.25
589.565	26179.85
589.925	26493.74
590.284	26612.61
590.643	26865.71
591.003	27152.03
591.362	27367.61
591.721	27627.95
592.08	27714.95
592.44	28002.85
592.799	28154.26
593.158	28312.22
593.517	28711.08
593.876	28779.55
594.235	28880.79
594.593	29298.64
594.952	29617.5
595.311	29539.99
595.67	30036.47
596.029	30303.13
596.387	30509.23
596.746	30616.57
597.104	30689.11
597.463	30945.15
597.822	31229.21
598.18	31334.74
598.538	31469.43
598.897	32054.27
599.255	31830.1
599.613	32602.96
599.972	32437.99
600.33	32789.17
600.688	32734.93
601.046	32988.93
601.404	33171.3
601.762	33220.34
602.12	33651.74
602.478	33694.68
602.836	33987.55
603.194	33863.04
603.552	34193.87
603.91	34331.5
604.268	34499.86
604.625	34606.52
604.983	34854.87
605.341	34726.74
605.698	35070.69
606.056	35286.73
606.413	35412.6
606.771	35670.45
607.128	35813.04
607.485	35704.57
607.843	35936.43
608.2	36215.29
608.557	36504.1
608.914	36509.52
609.272	36727.59
609.629	36964.65
609.986	37156.96
610.343	36950.19
610.7	37382.04
611.057	37459.33
611.414	37435.37
611.771	37590.17
612.127	37948.58
612.484	37819.77
612.841	38125.75
613.198	38278.97
613.554	38298.4
613.911	38605.96
614.267	38551.27
614.624	38636.02
614.98	38786.75
615.337	39022.9
615.693	39165.04
616.05	38968.66
616.406	39333.4
616.762	39254.31
617.118	39419.95
617.475	39440.97
617.831	39774.29
618.187	39638.7
618.543	39794.63
618.899	40118.46
619.255	40043.21
619.611	40039.14
619.967	40169.31
620.323	40420.15
620.678	40224.68
621.034	40297.44
621.39	40231.46
621.746	40349.65
622.101	40591.45
622.457	40651.78
622.812	40721.84
623.168	40826.47
623.523	40973.36
623.879	40994.6
624.234	40851.1
624.589	40915.96
624.945	41037.99
625.3	41216.74
625.655	41167.7
626.01	41182.39
626.365	41292.9
626.72	41191.66
627.075	41306.68
627.43	41266.91
627.785	41330.86
628.14	41510.97
628.495	41425.32
628.85	41574.92
629.205	41333.12
629.559	41635.04
629.914	41383.29
630.269	41547.13
630.623	41542.83
630.978	41393.01
631.332	41526.11
631.687	41613.34
632.041	41395.95
632.396	41679.55
632.75	41502.38
633.104	41644.3
633.459	41403.4
633.813	41409.5
634.167	41395.95
634.521	41494.25
634.875	41652.44
635.229	41486.79
635.583	41582.83
635.937	41434.59
636.291	41401.37
636.645	41374.48
636.999	41424.42
637.352	41569.27
637.706	41329.73
638.06	41491.76
638.413	41392.1
638.767	41228.72
639.121	41394.59
639.474	41145.33
639.828	41232.79
640.181	41350.3
640.534	41269.4
640.888	41052.9
641.241	41160.25
641.594	41186.69
641.947	41282.95
642.301	41185.1
642.654	41192.56
643.007	41289.51
643.36	41151.66
643.713	41048.61
644.066	41324.31
644.419	40966.8
644.771	40782.63
645.124	40487.04
645.477	40432.13
645.83	40134.74
646.182	40015.87
646.535	39868.75
646.888	40038.02
647.24	39953.95
647.593	40104
647.945	39941.29
648.298	39792.37
648.65	39677.35
649.002	39593.96
649.355	39793.95
649.707	39899.26
650.059	39820.62
650.411	40394.62
650.763	40365.46
651.115	40687.49
651.467	40676.42
651.819	40678.45
652.171	40536.53
652.523	40459.92
652.875	40441.85
653.227	40251.34
653.578	40579.7
653.93	40561.17
654.282	40327.5
654.633	40141.97
654.985	40357.55
655.337	40358.68
655.688	40429.87
656.039	40537.21
656.391	40241.4
656.742	40355.52
657.094	40450.43
657.445	40339.02
657.796	40359.14
658.147	40338.12
658.498	40219.03
658.849	40343.54
659.2	40308.97
659.551	40155.75
659.902	40318.69
660.253	40360.27
660.604	40412.02
660.955	40187.62
661.306	40341.28
661.656	40245.02
662.007	40323.88
662.358	40344.67
662.708	40264.68
663.059	40248.63
663.409	39803.44
663.76	40336.54
664.11	40142.19
664.461	40182.87
664.811	40167.28
665.161	40144.23
665.511	40234.17
665.862	40162.98
666.212	40176.09
666.562	40336.54
666.912	40041.4
667.262	40044.79
667.612	40112.59
667.962	40073.04
668.312	39938.58
668.662	40268.97
669.011	40113.04
669.361	40038.69
669.711	40110.56
670.06	40013.38
670.41	40010.22
670.76	39883.67
671.109	40049.54
671.459	39912.82
671.808	39882.31
672.157	39916.21
672.507	39590.8
672.856	39719.61
673.205	39950.11
673.554	39999.37
673.904	39820.85
674.253	39947.85
674.602	39796.21
674.951	39364.81
675.3	39189.45
675.649	39787.17
675.998	39710.79
676.346	39712.15
676.695	39843.44
677.044	39519.38
677.393	39713.73
677.741	39786.04
678.09	39733.84
678.438	39474.41
678.787	39597.8
679.135	39578.14
679.484	39350.58
679.832	39506.96
680.181	39396.9
680.529	39368.2
680.877	39295.89
681.225	39232.61
681.573	39382.21
681.922	39112.39
682.27	39001.88
682.618	39176.57
682.966	38915.33
683.314	39038.27
683.661	38927.31
684.009	38751.5
684.357	38683.25
684.705	38638.05
685.053	38683.25
685.4	38670.37
685.748	38566.19
686.095	38459.98
686.443	38357.83
686.79	38398.96
687.138	38429.92
687.485	38434.89
687.832	38321.9
688.18	38273.99
688.527	38031.29
688.874	38112.87
689.221	37971.63
689.568	37918.3
689.915	37706.55
690.262	37815.7
690.609	37775.02
690.956	37593.56
691.303	37675.82
691.65	37419.55
691.997	37429.95
692.344	37187.02
692.69	37193.34
693.037	37263.17
693.383	36978.21
693.73	37105.21
694.077	36793.58
694.423	36854.82
694.769	36719.01
695.116	36655.28
695.462	36590.65
695.808	36442.18
696.155	36731.89
696.501	36166.7
696.847	36230.66
697.193	35949.99
697.539	36161.05
697.885	36039.93
698.231	35792.25
698.577	35792.7
698.923	35832.7
699.269	35747.28
699.614	35471.36
699.96	35405.14
700.306	35349.55
700.651	35089.44
700.997	35159.5
701.342	35079.95
701.688	34984.59
702.033	34971.03
702.379	34914.31
702.724	34850.81
703.069	34866.4
703.415	34527.43
703.76	34501.21
704.105	34636.58
704.45	34515.9
704.795	34292.18
705.14	34150.49
705.485	34063.48
705.83	34016.48
706.175	34035.46
706.52	33855.8
706.865	33832.3
707.209	33729.48
707.554	33566.32
707.899	33623.27
708.243	33528.81
708.588	33501.01
708.932	33303.5
709.277	33288.36
709.621	33421.69
709.966	33047.69
710.31	33198.87
710.654	32917.98
710.998	32826
711.342	32899.9
711.687	32796.85
712.031	32715.04
712.375	32563.18
712.719	32626.91
713.063	32529.96
713.407	32647.93
713.75	32495.84
714.094	32356.18
714.438	32180.82
714.782	32271.89
715.125	32242.29
715.469	32298.33
715.812	32073.93
716.156	31845.01
716.499	31972.92
716.843	31956.87
717.186	31709.87
717.53	31973.14
717.873	31792.81
718.216	31777.22
718.559	31635.3
718.902	31335.19
719.246	31480.05
719.589	31477.11
719.932	31189.89
720.275	31236.44
720.617	31374.51
720.96	31218.59
721.303	31090.91
721.646	31224.01
721.989	30973.17
722.331	31100.17
722.674	30941.76
723.016	31030.79
723.359	30961.64
723.701	30930.46
724.044	30673.29
724.386	30533.63
724.729	30782.21
725.071	30618.38
725.413	30635.32
725.755	30650.24
726.097	30444.37
726.439	30377.48
726.782	30474.2
727.124	30518.27
727.465	30399.17
727.807	30219.52
728.149	30278.27
728.491	30264.03
728.833	30195.11
729.175	30111.95
729.516	29956.02
729.858	30008.22
730.199	29983.82
730.541	29809.81
730.882	29836.02
731.224	29879.64
731.565	29711.05
731.906	29734.11
732.248	29787.89
732.589	29671.06
732.93	29530.72
733.271	29514.9
733.612	29639.19
733.953	29557.61
734.294	29433.77
734.635	29374.57
734.976	29384.28
735.317	29224.97
735.658	29263.61
735.999	29378.41
736.339	29274
736.68	29259.99
737.021	29193.78
737.361	28971.41
737.702	29132.31
738.042	29040.56
738.383	29021.36
738.723	29057.74
739.063	28893.22
739.404	28948.36
739.744	28907.91
740.084	28725.09
740.424	28893.9
740.764	28705.88
741.104	28895.94
741.444	28576.4
741.784	28535.72
742.124	28472.9
742.464	28463.4
742.804	28489.84
743.143	28416.4
743.483	28486.23
743.823	28307.93
744.162	28270.64
744.502	28233.35
744.841	28219.34
745.181	28293.47
745.52	28223.18
745.86	28111.77
746.199	28140.93
746.538	28181.15
746.877	28173.24
747.216	28046.24
747.556	27967.37
747.895	28042.17
748.234	27886.47
748.573	27797.88
748.911	27695.06
749.25	27676.53
749.589	27660.49
749.928	27637.89
750.267	27555.41
750.605	27610.32
750.944	27407.61
751.283	27462.3
751.621	27469.53
751.96	27323.55
752.298	27362.64
752.636	27273.83
752.975	27171.23
753.313	27198.13
753.651	27215.98
753.989	27033.16
754.327	27166.04
754.666	26861.19
755.004	27033.16
755.342	27039.03
755.679	26888.76
756.017	26736.67
756.355	26824.35
756.693	26641.08
757.031	26693.28
757.368	26561.53
757.706	26519.27
758.044	26384.14
758.381	26387.07
758.719	26346.17
759.056	26306.17
759.394	26371.48
759.731	26094.65
760.068	26017.14
760.405	25973.3
760.743	25960.19
761.08	25873.42
761.417	25754.77
761.754	25763.14
762.091	25628.9
762.428	25578.73
762.765	25379.87
763.102	25524.05
763.438	25372.19
763.775	25222.59
764.112	25310.72
764.449	25211.74
764.785	25129.25
765.122	25028.47
765.458	24848.81
765.795	24867.79
766.131	24716.38
766.467	24625.76
766.804	24589.16
767.14	24441.81
767.476	24467.13
767.812	24379.67
768.148	24335.15
768.485	24277.98
768.821	24073.92
769.157	24092.22
769.492	23961.6
769.828	24018.78
770.164	23872.11
770.5	23770.42
770.836	23830.98
771.171	23586.47
771.507	23467.15
771.842	23390.32
772.178	23301.05
772.513	23287.04
772.849	23301.73
773.184	23173.15
773.519	23127.95
773.855	23029.87
774.19	22909.65
774.525	22850.44
774.86	22732.26
775.195	22798.02
775.53	22690.22
775.865	22517.8
776.2	22455.88
776.535	22317.13
776.87	22271.25
777.205	22267.63
777.539	22123.46
777.874	22170.01
778.209	21917.59
778.543	21867.65
778.878	21749.68
779.212	21697.71
779.547	21639.18
779.881	21657.71
780.215	21389.01
780.55	21499.75
780.884	21376.81
781.218	21403.25
781.552	21214.1
781.886	21178.85
782.22	21086.87
782.554	20992.64
782.888	20769.6
783.222	20795.36
783.556	20657.73
783.889	20559.88
784.223	20508.81
784.557	20397.63
784.89	20488.47
785.224	20236.05
785.557	20173
785.891	20204.86
786.224	20161.48
786.558	20032.89
786.891	19814.59
787.224	19903.63
787.557	19864.99
787.891	19780.24
788.224	19707.02
788.557	19694.82
788.89	19711.77
789.223	19656.18
789.556	19484.88
789.888	19311.78
790.221	19340.93
790.554	19226.36
790.887	19290.09
791.219	19242.63
791.552	19141.39
791.884	19059.81
792.217	18932.13
792.549	18897.1
792.882	18726.03
793.214	18678.8
793.546	18656.43
793.879	18623.89
794.211	18492.14
794.543	18608.75
794.875	18377.34
795.207	18418.7
795.539	18300.73
795.871	18300.96
796.203	18059.16
796.535	18076.78
796.867	18065.49
797.198	18021.42
797.53	17926.73
797.862	17845.6
798.193	17885.83
798.525	17804.25
798.856	17740.3
799.188	17649.23
799.519	17560.87
799.85	17372.62
800.182	17562.9
800.513	17372.62
800.844	17296.24
801.175	17362
801.506	17378.27
801.837	17251.04
802.168	17119.97
802.499	17102.8
802.83	17041.33
803.161	17011.73
803.491	16955.01
803.822	16969.92
804.153	16887.89
804.483	16788.23
804.814	16744.16
805.145	16625.52
805.475	16654.22
805.805	16608.57
806.136	16640.21
806.466	16526.99
806.796	16523.83
807.126	16424.4
807.457	16348.69
807.787	16368.35
808.117	16255.14
808.447	16226.44
808.777	16253.56
809.107	16183.73
809.436	16102.6
809.766	16044.3
810.096	16015.6
810.426	15893.34
810.755	15962.26
811.085	15888.14
811.414	15850.18
811.744	15775.6
812.073	15730.63
812.403	15794.81
812.732	15641.14
813.061	15556.4
813.39	15530.86
813.719	15548.04
814.049	15620.35
814.378	15496.06
814.707	15416.52
815.036	15443.86
815.365	15287.25
815.693	15260.59
816.022	15181.27
816.351	15144.66
816.68	15126.58
817.008	15148.73
817.337	15100.82
817.665	15073.25
817.994	15033.25
818.322	15028.05
818.651	14907.6
818.979	14910.09
819.307	14934.27
819.636	14891.33
819.964	14748.51
820.292	14838.9
820.62	14771.33
820.948	14717.1
821.276	14720.49
821.604	14819.7
821.932	14766.36
822.259	14827.15
822.587	14725.69
822.915	14641.62
823.243	14761.84
823.57	14649.98
823.898	14624.67
824.225	14610.44
824.553	14694.05
824.88	14686.37
825.207	14664.9
825.535	14656.08
825.862	14654.05
826.189	14640.49
826.516	14678
826.843	14770.88
827.17	14731.34
827.497	14742.86
827.824	14628.74
828.151	14685.24
828.478	14662.41
828.805	14704.9
829.131	14683.65
829.458	14562.07
829.785	14560.72
830.111	14564.33
830.438	14679.36
830.764	14640.94
831.09	14690.66
831.417	14466.26
831.743	14606.59
832.069	14640.04
832.395	14566.37
832.722	14575.63
833.048	14540.61
833.374	14566.14
833.7	14521.62
834.026	14577.22
834.351	14533.6
834.677	14419.48
835.003	14530.21
835.329	14374.06
835.654	14466.26
835.98	14343.1
836.306	14424.45
836.631	14368.18
836.956	14374.51
837.282	14402.08
837.607	14285.25
837.932	14226.94
838.258	14273.95
838.583	14230.56
838.908	14272.36
839.233	14192.82
839.558	14202.99
839.883	14066.95
840.208	14049.55
840.533	14052.48
840.858	13972.49
841.182	13992.15
841.507	13942.43
841.832	13901.75
842.156	13908.08
842.481	13895.88
842.805	13781.76
843.13	13862.88
843.454	13774.52
843.778	13769.78
844.103	13788.99
844.427	13682.32
844.751	13688.2
845.075	13581.99
845.399	13659.27
845.723	13518.49
846.047	13601.87
846.371	13419.28
846.695	13433.97
847.019	13218.61
847.343	13227.42
847.666	13227.42
847.99	13148.78
848.313	13112.17
848.637	13046.86
848.96	13131.38
849.284	13028.56
849.607	12883.47
849.931	12811.39
850.254	12829.69
850.577	12672.63
850.9	12711.05
851.223	12657.27
851.546	12561.68
851.869	12572.3
852.192	12606.87
852.515	12439.19
852.838	12390.15
853.161	12386.31
853.483	12249.37
853.806	12192.87
854.129	12235.81
854.451	12194.91
854.774	12128.24
855.096	12151.97
855.419	12056.83
855.741	12065.19
856.063	12083.27
856.385	11853.9
856.708	11904.29
857.03	11876.5
857.352	11806.89
857.674	11846.44
857.996	11773.45
858.318	11730.74
858.64	11716.73
858.961	11626.56
859.283	11634.92
859.605	11559.67
859.926	11661.36
860.248	11530.29
860.57	11507.24
860.891	11528.71
861.212	11427.69
861.534	11410.75
861.855	11394.25
862.176	11407.13
862.498	11314.02
862.819	11386.34
863.14	11316.06
863.461	11333.69
863.782	11242.84
864.103	11259.79
864.424	11193.12
864.745	11202.62
865.065	11159.68
865.386	11183.86
865.707	11083.75
866.027	11161.94
866.348	11085.1
866.668	11085.78
866.989	10996.97
867.309	10978.21
867.63	11067.03
867.95	11002.17
868.27	10971.66
868.59	10939.8
868.91	10879.69
869.23	10954.71
869.55	10893.92
869.87	10926.69
870.19	10797.43
870.51	10890.53
870.83	10863.87
871.15	10781.61
871.469	10787.71
871.789	10817.54
872.109	10801.95
872.428	10721.05
872.748	10699.13
873.067	10677.88
873.386	10681.72
873.706	10654.15
874.025	10561.73
874.344	10577.77
874.663	10601.27
874.982	10607.15
875.301	10646.02
875.62	10561.5
875.939	10469.98
876.258	10494.16
876.577	10476.08
876.896	10419.36
877.214	10423.43
877.533	10421.84
877.852	10388.63
878.17	10413.94
878.489	10433.14
878.807	10399.7
879.125	10407.16
879.444	10381.62
879.762	10300.94
880.08	10300.27
880.398	10313.6
880.716	10265.92
881.034	10228.63
881.352	10290.1
881.67	10242.19
881.988	10216.65
882.306	10167.16
882.624	10127.84
882.941	10023.66
883.259	10131.91
883.577	10061.4
883.894	10027.96
884.212	10074.28
884.529	10032.93
884.846	9977.34
885.164	9950.67
885.481	9896.89
885.798	9928.3
886.115	9902.76
886.432	9839.49
886.75	9834.29
887.067	9808.53
887.383	9804.01
887.7	9856.89
888.017	9725.82
888.334	9737.79
888.651	9761.52
888.967	9752.03
889.284	9624.35
889.6	9572.83
889.917	9581.87
890.233	9529.89
890.55	9610.34
890.866	9485.37
891.182	9493.51
891.498	9491.93
891.815	9419.16
892.131	9412.15
892.447	9373.06
892.763	9328.09
893.079	9307.98
893.395	9335.55
893.71	9257.81
894.026	9223.23
894.342	9254.42
894.657	9123.12
894.973	9178.71
895.289	9205.61
895.604	9104.14
895.92	9110.92
896.235	9086.06
896.55	8970.13
896.865	9056.46
897.181	8990.7
897.496	8969.91
897.811	8862.56
898.126	8815.56
898.441	8792.73
898.756	8779.85
899.071	8783.24
899.386	8768.78
899.7	8731.95
900.015	8642.46
900.33	8558.16
900.644	8557.03
900.959	8580.54
901.273	8573.76
901.588	8483.59
901.902	8430.48
902.216	8438.85
902.531	8391.84
902.845	8388.23
903.159	8346.87
903.473	8336.02
903.787	8308.45
904.101	8245.86
904.415	8237.5
904.729	8247.66
905.042	8184.62
905.356	8162.69
905.67	8105.3
905.984	8120.89
906.297	8075.92
906.611	8025.75
906.924	8010.61
907.237	7974.68
907.551	7965.64
907.864	7934.45
908.177	7825.3
908.491	7917.5
908.804	7783.04
909.117	7788.69
909.43	7712.54
909.743	7682.93
910.056	7726.77
910.368	7672.54
910.681	7588.47
910.994	7541.02
911.307	7525.42
911.619	7470.51
911.932	7544.63
912.244	7416.27
912.557	7482.94
912.869	7415.6
913.181	7377.63
913.494	7394.35
913.806	7308.03
914.118	7275.03
914.43	7285.88
914.742	7204.75
915.054	7192.1
915.366	7166.34
915.678	7189.16
915.99	7103.74
916.302	7084.98
916.613	7060.13
916.925	7054.93
917.236	7025.32
917.548	6991.65
917.859	6929.28
918.171	6882.05
918.482	6850.64
918.794	6879.11
919.105	6844.99
919.416	6869.4
919.727	6767.7
920.038	6753.24
920.349	6711.43
920.66	6692.9
920.971	6682.96
921.282	6670.3
921.593	6578.33
921.903	6537.65
922.214	6548.05
922.525	6499.24
922.835	6501.95
923.146	6415.85
923.456	6426.92
923.767	6404.1
924.077	6374.72
924.387	6358.22
924.697	6312.8
925.008	6301.05
925.318	6255.4
925.628	6232.8
925.938	6204.33
926.248	6187.83
926.558	6176.08
926.867	6128.85
927.177	6059.02
927.487	6059.93
927.796	6011.57
928.106	5991.9
928.416	6016.08
928.725	5990.32
929.034	5947.39
929.344	5958.01
929.653	5953.94
929.962	5824.45
930.271	5862.64
930.581	5823.1
930.89	5799.37
931.199	5784
931.508	5792.59
931.817	5727.96
932.125	5716.43
932.434	5670.11
932.743	5600.05
933.051	5596.21
933.36	5625.13
933.669	5596.43
933.977	5530.9
934.286	5539.94
934.594	5484.12
934.902	5494.97
935.21	5449.09
935.519	5470.34
935.827	5448.87
936.135	5403.67
936.443	5324.58
936.751	5374.97
937.059	5288.19
937.367	5304.24
937.674	5303.79
937.982	5315.31
938.29	5248.2
938.597	5277.35
938.905	5141.08
939.213	5153.06
939.52	5118.26
939.827	5152.15
940.135	5119.84
940.442	5071.7
940.749	5077.35
941.056	5039.39
941.363	4994.19
941.67	4944.47
941.977	4990.35
942.284	4958.94
942.591	4947.41
942.898	4880.75
943.205	4920.52
943.511	4870.35
943.818	4877.58
944.125	4836.68
944.431	4899.28
944.738	4818.15
945.044	4761.65
945.35	4784.93
945.657	4717.14
945.963	4706.29
946.269	4684.37
946.575	4698.61
946.881	4619.51
947.187	4611.6
947.493	4623.13
947.799	4590.36
948.105	4579.29
948.41	4544.71
948.716	4522.34
949.022	4481.44
949.327	4518.27
949.633	4423.81
949.938	4442.11
950.244	4413.87
950.549	4373.87
950.854	4357.37
951.16	4358.5
951.465	4351.04
951.77	4305.62
952.075	4289.35
952.38	4289.58
952.685	4285.06
952.99	4215.45
953.294	4228.34
953.599	4226.98
953.904	4189.47
954.209	4174.1
954.513	4133.65
954.818	4134.1
955.122	4136.36
955.426	4103.82
955.731	4111.05
956.035	4052.75
956.339	4060.66
956.643	4086.42
956.948	4020.43
957.252	4028.79
957.556	4021.11
957.86	3991.28
958.163	3951.51
958.467	3926.65
958.771	3897.95
959.075	3911.06
959.378	3899.53
959.682	3901.34
959.985	3888.23
960.289	3850.72
960.592	3876.93
960.896	3849.14
961.199	3796.93
961.502	3782.47
961.805	3729.14
962.108	3717.16
962.411	3685.98
962.714	3697.73
963.017	3696.15
963.32	3706.09
963.623	3686.65
963.926	3648.69
964.228	3607.11
964.531	3604.85
964.833	3591.97
965.136	3563.49
965.438	3546.55
965.741	3526.21
966.043	3521.01
966.345	3486.89
966.648	3500.44
966.95	3476.72
967.252	3474.91
967.554	3491.86
967.856	3461.8
968.158	3422.48
968.46	3434.01
968.761	3381.58
969.063	3413.22
969.365	3389.26
969.666	3376.15
969.968	3329.6
970.269	3376.61
970.571	3310.39
970.872	3344.74
971.174	3264.29
971.475	3286.21
971.776	3279.43
972.077	3236.72
972.378	3213.9
972.679	3229.94
972.98	3213.67
973.281	3187.01
973.582	3154.92
973.883	3137.06
974.183	3165.76
974.484	3132.32
974.785	3106.56
975.085	3084.86
975.386	3098.2
975.686	3103.17
975.986	3070.4
976.287	3029.27
976.587	3008.03
976.887	3018.88
977.187	3023.62
977.487	3019.1
977.787	2997.41
978.087	2971.19
978.387	2929.61
978.687	2963.74
978.987	2916.73
979.286	2889.84
979.586	2907.24
979.885	2842.83
980.185	2874.7
980.484	2907.01
980.784	2845.32
981.083	2812.78
981.382	2815.26
981.682	2797.86
981.981	2802.16
982.28	2786.34
982.579	2779.79
982.878	2779.11
983.177	2753.8
983.475	2773.01
983.774	2718.09
984.073	2709.05
984.372	2719.9
984.67	2693.01
984.969	2675.83
985.267	2651.2
985.566	2606.91
985.864	2641.94
986.162	2638.32
986.461	2632.67
986.759	2625.89
987.057	2598.32
987.355	2581.6
987.653	2556.51
987.951	2575.95
988.249	2570.98
988.547	2562.62
988.844	2503.63
989.142	2533.46
989.44	2504.54
989.737	2508.15
990.035	2493.69
990.332	2483.3
990.63	2476.97
990.927	2459.57
991.224	2423.86
991.521	2425.22
991.819	2412.34
992.116	2416.18
992.413	2426.35
992.71	2374.6
993.006	2398.78
993.303	2399.46
993.6	2391.77
993.897	2342.28
994.193	2364.66
994.49	2324.43
994.787	2296.41
995.083	2314.04
995.379	2293.02
995.676	2254.15
995.972	2253.47
996.268	2267.71
996.565	2253.7
996.861	2214.38
997.157	2238.78
997.453	2198.78
997.749	2182.51
998.044	2193.36
998.34	2202.85
998.636	2143.87
998.932	2148.62
999.227	2129.63
999.523	2132.35
999.818	2135.96
1000.114	2143.42
1000.409	2082.85
1000.704	2085.11
1001	2097.32
1001.295	2086.7
1001.59	2061.16
1001.885	2051.9
1002.18	2060.03
1002.475	2015.51
1002.77	1986.13
1003.065	2000.6
1003.359	2010.31
1003.654	1982.97
1003.949	1974.61
1004.243	1953.82
1004.538	1982.29
1004.832	1966.25
1005.127	1914.05
1005.421	1925.57
1005.715	1940.03
1006.009	1891
1006.304	1862.75
1006.598	1879.7
1006.892	1848.51
1007.186	1838.57
1007.48	1847.83
1007.773	1838.12
1008.067	1834.27
1008.361	1803.31
1008.655	1807.16
1008.948	1762.41
1009.242	1793.37
1009.535	1790.21
1009.829	1769.87
1010.122	1747.5
1010.415	1750.43
1010.708	1716.76
1011.001	1718.8
1011.295	1708.85
1011.588	1699.14
1011.881	1735.07
1012.173	1672.92
1012.466	1682.87
1012.759	1682.87
1013.052	1669.53
1013.344	1651.68
1013.637	1641.96
1013.93	1644.22
1014.222	1624.56
1014.514	1628.86
1014.807	1623.88
1015.099	1583.66
1015.391	1595.64
1015.683	1534.62
1015.976	1556.99
1016.268	1531.23
1016.56	1538.46
1016.851	1512.47
1017.143	1529.88
1017.435	1512.7
1017.727	1531.46
1018.018	1475.87
1018.31	1480.84
1018.602	1498.69
1018.893	1465.92
1019.185	1456.66
1019.476	1430.89
1019.767	1455.53
1020.058	1420.05
1020.35	1427.96
1020.641	1399.48
1020.932	1412.14
1021.223	1389.09
1021.514	1392.03
1021.804	1364
1022.095	1351.35
1022.386	1379.6
1022.677	1361.74
1022.967	1342.31
1023.258	1320.61
1023.548	1293.72
1023.839	1316.32
1024.129	1318.58
1024.419	1324.68
1024.709	1305.7
1025	1274.06
1025.29	1281.52
1025.58	1263.67
1025.87	1245.81
1026.16	1263.89
1026.449	1247.17
1026.739	1236.1
1027.029	1245.36
1027.319	1213.05
1027.608	1234.97
1027.898	1212.6
1028.187	1207.62
1028.477	1203.56
1028.766	1159.72
1029.055	1170.79
1029.344	1164.91
1029.634	1175.53
1029.923	1146.16
1030.212	1153.84
1030.501	1134.41
1030.79	1130.79
1031.078	1131.69
1031.367	1115.87
1031.656	1105.48
1031.945	1094.41
1032.233	1105.48
1032.522	1098.93
1032.81	1079.27
1033.099	1069.77
1033.387	1074.52
1033.675	1054.41
1033.963	1066.61
1034.251	1051.24
1034.54	1047.85
1034.828	1054.41
1035.116	1036.55
1035.403	1011.92
1035.691	1010.11
1035.979	1014.86
1036.267	1006.5
1036.554	999.72
1036.842	999.04
1037.129	976.44
1037.417	965.6
1037.704	987.29
1037.992	966.05
1038.279	966.73
1038.566	936.67
1038.853	936.67
1039.14	936.67
