Data from hue_70_FLMS001491_45.txt Node
Date: Mon Feb 06 15:20:58 GMT 2017
User: dcchb
Spectrometer: FLMS00149
Trigger mode: 0
Integration Time (sec): 2.000000E-2
Scans to average: 10
Electric dark correction enabled: true
Nonlinearity correction enabled: false
Boxcar width: 0
XAxis mode: Wavelengths
Number of Pixels in Spectrum: 2048
>>>>>Begin Spectral Data<<<<<
341.393	-2.18
341.776	-2.18
342.16	-2.18
342.543	-66.58
342.927	-78.11
343.31	-72
343.693	-74.94
344.077	-51.89
344.46	-55.06
344.843	-62.96
345.226	-35.17
345.61	-14.6
345.993	-14.15
346.376	-7.6
346.759	-4.89
347.142	16.58
347.525	55
347.908	47.09
348.291	58.61
348.674	97.94
349.057	118.05
349.44	123.25
349.823	147.2
350.206	173.19
350.588	173.19
350.971	201.44
351.354	230.14
351.737	224.03
352.119	244.82
352.502	264.03
352.884	274.2
353.267	281.89
353.65	280.76
354.032	285.95
354.414	298.38
354.797	306.97
355.179	318.04
355.562	320.98
355.944	338.38
356.326	344.03
356.709	344.03
357.091	336.35
357.473	351.26
357.855	321.43
358.238	344.93
358.62	335.9
359.002	334.31
359.384	337.25
359.766	351.26
360.148	337.48
360.53	332.73
360.912	329.12
361.294	336.8
361.676	325.5
362.057	306.97
362.439	330.47
362.821	319.85
363.203	319.17
363.584	327.76
363.966	313.75
364.348	306.74
364.729	308.55
365.111	316.46
365.493	315.78
365.874	314.2
366.256	285.73
366.637	301.09
367.019	310.59
367.4	348.32
367.781	315.1
368.163	323.24
368.544	310.13
368.925	312.39
369.306	331.38
369.688	316.23
370.069	311.94
370.45	288.44
370.831	303.81
371.212	294.54
371.593	314.65
371.974	292.51
372.355	289.12
372.736	304.94
373.117	290.02
373.498	325.05
373.879	326.86
374.26	309.46
374.641	318.27
375.021	283.24
375.402	308.33
375.783	330.25
376.163	333.18
376.544	326.86
376.925	316.23
377.305	339.06
377.686	302.9
378.066	306.29
378.447	312.39
378.827	327.31
379.208	320.75
379.588	316.69
379.968	338.15
380.349	314.65
380.729	341.77
381.109	305.39
381.489	324.37
381.87	324.82
382.25	352.84
382.63	347.65
383.01	339.51
383.39	348.32
383.77	334.31
384.15	332.96
384.53	332.51
384.91	325.05
385.29	350.81
385.67	345.39
386.049	361.66
386.429	316.91
386.809	334.09
387.189	344.93
387.568	337.7
387.948	350.13
388.328	358.49
388.707	360.53
389.087	354.65
389.466	362.79
389.846	341.54
390.225	362.79
390.605	352.62
390.984	360.53
391.363	357.36
391.743	362.11
392.122	373.18
392.501	379.06
392.881	363.01
393.26	367.76
393.639	348.32
394.018	369.11
394.397	357.59
394.776	386.52
395.155	371.15
395.534	352.62
395.913	386.06
396.292	389.45
396.671	374.31
397.05	370.47
397.429	365.72
397.808	382.22
398.186	391.03
398.565	400.98
398.944	382.22
399.323	366.63
399.701	372.96
400.08	391.94
400.458	387.87
400.837	390.58
401.215	403.24
401.594	385.61
401.972	394.2
402.351	404.82
402.729	398.04
403.107	391.71
403.486	394.88
403.864	388.78
404.242	394.65
404.62	388.1
404.999	391.94
405.377	412.5
405.755	394.42
406.133	389.45
406.511	400.3
406.889	423.58
407.267	419.96
407.645	422.67
408.023	405.05
408.401	434.65
408.779	416.8
409.156	425.38
409.534	431.71
409.912	417.7
410.29	410.47
410.667	413.41
411.045	445.95
411.422	424.71
411.8	437.59
412.178	473.07
412.555	451.37
412.933	446.17
413.31	426.74
413.687	448.21
414.065	455.67
414.442	464.93
414.819	465.61
415.197	457.25
415.574	483.46
415.951	451.82
416.328	486.4
416.705	466.29
417.082	480.98
417.46	475.1
417.837	483.91
418.214	482.78
418.591	499.96
418.967	464.93
419.344	491.15
419.721	495.21
420.098	481.2
420.475	489.11
420.852	493.63
421.228	513.07
421.605	506.06
421.982	486.85
422.358	498.6
422.735	524.14
423.111	500.18
423.488	537.25
423.864	516.68
424.241	514.2
424.617	526.85
424.994	525.27
425.37	542.67
425.746	532.5
426.123	539.73
426.499	546.96
426.875	540.64
427.251	549.67
427.627	520.98
428.003	542.22
428.379	564.14
428.756	575.66
429.132	562.56
429.507	548.09
429.883	561.2
430.259	582.22
430.635	583.12
431.011	578.6
431.387	591.93
431.763	605.04
432.138	606.85
432.514	591.71
432.89	603.46
433.265	621.99
433.641	603.46
434.016	624.93
434.392	622.89
434.767	632.16
435.143	636
435.518	653.63
435.894	644.81
436.269	632.61
436.644	661.76
437.02	655.43
437.395	626.96
437.77	666.06
438.145	666.73
438.52	681.87
438.895	694.98
439.271	687.75
439.646	707.64
440.021	703.12
440.395	718.94
440.77	683.68
441.145	699.95
441.52	709.9
441.895	718.71
442.27	731.59
442.645	729.56
443.019	740.63
443.394	739.27
443.769	727.75
444.143	731.82
444.518	725.26
444.892	759.84
445.267	740.18
445.641	759.16
446.016	760.52
446.39	752.16
446.764	767.75
447.139	760.74
447.513	763.68
447.887	768.88
448.262	773.85
448.636	779.27
449.01	771.59
449.384	819.95
449.758	778.82
450.132	810.68
450.506	809.1
450.88	830.12
451.254	823.79
451.628	837.58
452.002	837.12
452.376	851.36
452.75	846.16
453.123	842.55
453.497	881.64
453.871	852.49
454.244	879.38
454.618	886.62
454.992	887.29
455.365	893.39
455.739	920.06
456.112	918.25
456.486	926.16
456.859	942.21
457.232	957.35
457.606	957.35
457.979	960.06
458.352	975.65
458.725	970
459.099	1005.48
459.472	1014.3
459.845	1024.24
460.218	1006.84
460.591	1033.28
460.964	1029.21
461.337	1043.67
461.71	1062.2
462.083	1103.33
462.456	1103.11
462.829	1096.1
463.201	1122.77
463.574	1121.41
463.947	1182.43
464.32	1193.95
464.692	1184.91
465.065	1179.26
465.438	1207.06
465.81	1206.83
466.183	1246.38
466.555	1258.13
466.928	1281.86
467.3	1276.21
467.672	1323.67
468.045	1316.66
468.417	1347.39
468.789	1369.54
469.161	1371.35
469.534	1420.84
469.906	1436.43
470.278	1470.33
470.65	1502.19
471.022	1540.38
471.394	1541.74
471.766	1564.11
472.138	1585.58
472.51	1647.27
472.882	1665.8
473.253	1685.46
473.625	1703.09
473.997	1780.15
474.369	1809.08
474.74	1857.66
475.112	1868.96
475.484	1934.05
475.855	1974.72
476.227	2029.86
476.598	2053.14
476.97	2085.68
477.341	2164.1
477.713	2228.5
478.084	2246.35
478.455	2342.17
478.827	2393.24
479.198	2478.21
479.569	2516.18
479.94	2615.16
480.311	2662.61
480.682	2742.39
481.053	2808.6
481.424	2906.67
481.795	2994.58
482.166	3075.26
482.537	3130.62
482.908	3252.88
483.279	3318.64
483.65	3438.86
484.021	3566.54
484.391	3631.18
484.762	3746.2
485.133	3820.32
485.503	3899.19
485.874	4055.12
486.244	4099.19
486.615	4215.12
486.985	4363.13
487.356	4496.24
487.726	4545.5
488.097	4702.33
488.467	4848.32
488.837	5005.38
489.207	5091.93
489.578	5306.61
489.948	5299.83
490.318	5507.28
490.688	5579.37
491.058	5738.01
491.428	5882.19
491.798	6058.68
492.168	6154.5
492.538	6275.4
492.908	6481.72
493.278	6543.87
493.648	6711.77
494.017	6823.63
494.387	7020.01
494.757	7195.83
495.126	7254.36
495.496	7341.13
495.866	7487.35
496.235	7697.28
496.605	7867
496.974	7969.37
497.344	8093.43
497.713	8245.29
498.082	8314.67
498.452	8537.71
498.821	8641.89
499.19	8761.21
499.559	8833.07
499.928	8989.45
500.298	9153.52
500.667	9222.44
501.036	9231.93
501.405	9497.01
501.774	9539.95
502.143	9771.81
502.512	9778.13
502.88	9996.66
503.249	10114.62
503.618	10242.3
503.987	10278.23
504.356	10313.94
504.724	10559.13
505.093	10646.36
505.462	10723.19
505.83	10868.95
506.199	11027.59
506.567	11135.16
506.936	11234.82
507.304	11371.09
507.672	11460.8
508.041	11574.47
508.409	11705.99
508.777	11725.65
509.145	11927.23
509.514	12001.13
509.882	12087.22
510.25	12173.1
510.618	12267.33
510.986	12434.79
511.354	12569.02
511.722	12671.39
512.09	12794.32
512.458	12867.54
512.826	12904.6
513.193	13001.1
513.561	13052.17
513.929	13203.13
514.297	13351.37
514.664	13459.39
515.032	13467.08
515.4	13667.97
515.767	13703
516.135	13836.78
516.502	13766.95
516.869	14036.78
517.237	14053.73
517.604	13947.29
517.972	14184.12
518.339	14285.36
518.706	14386.6
519.073	14445.35
519.44	14513.15
519.808	14684.9
520.175	14688.74
520.542	14851.45
520.909	14895.06
521.276	14935.96
521.643	15157.43
522.009	15283.52
522.376	15225.9
522.743	15368.72
523.11	15415.72
523.477	15658.66
523.843	15681.93
524.21	15925.54
524.577	15955.82
524.943	16009.83
525.31	16112.66
525.676	16208.47
526.043	16272.65
526.409	16377.28
526.776	16502.7
527.142	16578.18
527.508	16627.44
527.874	16702.47
528.241	16759.64
528.607	16841
528.973	16987.66
529.339	16957.38
529.705	17095.23
530.071	17197.6
530.437	17318.27
530.803	17313.3
531.169	17404.6
531.535	17374.32
531.901	17434.2
532.267	17476.24
532.632	17563.24
532.998	17585.39
533.364	17646.63
533.73	17686.85
534.095	17841.2
534.461	17833.51
534.826	17899.73
535.192	17872.16
535.557	18011.59
535.923	18036.67
536.288	18000.74
536.653	18040.06
537.019	17990.57
537.384	18023.34
537.749	18102.89
538.114	18134.98
538.479	18182.43
538.845	18321.18
539.21	18181.3
539.575	18273.95
539.94	18330.22
540.305	18403.89
540.67	18343.56
541.034	18359.15
541.399	18362.09
541.764	18381.3
542.129	18483.67
542.494	18394.4
542.858	18574.51
543.223	18456.77
543.587	18638.24
543.952	18539.26
544.316	18583.32
544.681	18459.26
545.045	18529.77
545.41	18579.94
545.774	18595.75
546.138	18692.25
546.503	18811.34
546.867	18690.67
547.231	18760.04
547.595	18803.88
547.959	18752.59
548.324	18774.05
548.688	18887.27
549.052	18842.98
549.416	18849.53
549.779	18808.86
550.143	18870.32
550.507	18953.48
550.871	19039.36
551.235	19006.36
551.599	19032.58
551.962	19095.18
552.326	19014.73
552.689	19101.96
553.053	19033.71
553.417	19086.36
553.78	19316.19
554.143	19116.19
554.507	19210.43
554.87	19205.91
555.234	19385.79
555.597	19305.11
555.96	19283.65
556.323	19344.21
556.686	19335.4
557.05	19505.56
557.413	19454.94
557.776	19581.72
558.139	19640.92
558.502	19608.61
558.865	19640.7
559.228	19767.25
559.59	19699.45
559.953	19884.08
560.316	19883.63
560.679	19874.14
561.041	19982.38
561.404	19902.61
561.767	20124.75
562.129	20009.28
562.492	20188.71
562.854	20171.76
563.217	20243.39
563.579	20299.89
563.941	20379.66
564.304	20437.06
564.666	20539.21
565.028	20498.53
565.39	20522.93
565.753	20555.93
566.115	20699.43
566.477	20728.13
566.839	20723.83
567.201	20859.88
567.563	20911.17
567.925	20939.42
568.287	21015.8
568.648	21039.76
569.01	21108
569.372	21092.86
569.734	21159.53
570.095	21256.25
570.457	21369.47
570.819	21385.74
571.18	21280.88
571.542	21479.29
571.903	21419.63
572.265	21638.61
572.626	21521.1
572.987	21534.43
573.349	21613.08
573.71	21619.4
574.071	21844.71
574.432	21783.47
574.794	21934.65
575.155	21788.89
575.516	21810.13
575.877	21877.93
576.238	21912.73
576.599	22032.27
576.96	22024.36
577.32	22060.3
577.681	22129.22
578.042	22120.63
578.403	22174.42
578.763	22117.7
579.124	22158.82
579.485	22281.53
579.845	22305.94
580.206	22217.13
580.566	22255.54
580.927	22213.29
581.287	22352.72
581.648	22283.57
582.008	22450.79
582.368	22381.42
582.728	22306.62
583.089	22353.62
583.449	22306.84
583.809	22286.73
584.169	22352.49
584.529	22322.44
584.889	22488.08
585.249	22371.25
585.609	22266.39
585.969	22366.95
586.329	22252.38
586.688	22252.38
587.048	22317.01
587.408	22345.71
587.768	22341.87
588.127	22336.67
588.487	22311.14
588.846	22395.43
589.206	22247.18
589.565	22354.3
589.925	22437.69
590.284	22280.4
590.643	22276.11
591.003	22329.89
591.362	22468.65
591.721	22292.38
592.08	22445.82
592.44	22391.13
592.799	22442.66
593.158	22358.14
593.517	22410.34
593.876	22287.86
594.235	22253.96
594.593	22394.07
594.952	22398.82
595.311	22232.95
595.67	22362.43
596.029	22540.74
596.387	22408.76
596.746	22528.98
597.104	22437.01
597.463	22394.3
597.822	22590.9
598.18	22451.25
598.538	22380.06
598.897	22561.53
599.255	22377.12
599.613	22611.02
599.972	22454.41
600.33	22514.07
600.688	22463.45
601.046	22497.57
601.404	22559.27
601.762	22596.78
602.12	22623.44
602.478	22671.13
602.836	22554.29
603.194	22560.17
603.552	22600.62
603.91	22463.22
604.268	22623.67
604.625	22423.22
604.983	22576.44
605.341	22485.82
605.698	22660.28
606.056	22735.53
606.413	22653.27
606.771	22806.72
607.128	22799.49
607.485	22664.8
607.843	22748.41
608.2	22827.51
608.557	22961.06
608.914	22836.77
609.272	23049.87
609.629	22924.23
609.986	23033.38
610.343	22930.78
610.7	23118.12
611.057	23082.87
611.414	23058.91
611.771	23178.91
612.127	23232.69
612.484	23159.93
612.841	23275.18
613.198	23163.32
613.554	23325.8
613.911	23321.05
614.267	23363.76
614.624	23168.74
614.98	23326.25
615.337	23469.52
615.693	23493.25
616.05	23312.47
616.406	23634.94
616.762	23481.73
617.118	23603.98
617.475	23488.51
617.831	23665.9
618.187	23642.17
618.543	23640.14
618.899	23728.5
619.255	23683.3
619.611	23681.95
619.967	23789.06
620.323	23780.93
620.678	23676.75
621.034	23634.49
621.39	23664.55
621.746	23681.04
622.101	23835.16
622.457	23748.84
622.812	23708.16
623.168	23867.03
623.523	23967.82
623.879	23843.75
624.234	23745
624.589	23945.44
624.945	23871.55
625.3	23933.92
625.655	23947.25
626.01	23875.39
626.365	23883.98
626.72	23880.36
627.075	23957.87
627.43	23961.26
627.785	23801.04
628.14	23839.46
628.495	23960.36
628.85	23855.73
629.205	23829.29
629.559	23944.99
629.914	23851.21
630.269	23812.57
630.623	23787.48
630.978	23826.12
631.332	23824.77
631.687	23890.53
632.041	23877.87
632.396	23804.43
632.75	23818.44
633.104	23773.92
633.459	23714.26
633.813	23739.8
634.167	23639.46
634.521	23744.55
634.875	23756.07
635.229	23671.78
635.583	23570.31
635.937	23504.55
636.291	23513.59
636.645	23524.89
636.999	23445.12
637.352	23580.03
637.706	23395.18
638.06	23489.18
638.413	23453.71
638.767	23394.05
639.121	23398.34
639.474	23274.05
639.828	23338
640.181	23288.06
640.534	23347.49
640.888	23231.56
641.241	23143.21
641.594	23228.4
641.947	23217.78
642.301	23192.7
642.654	23214.39
643.007	23314.05
643.36	23227.27
643.713	23093.94
644.066	23161.06
644.419	23139.59
644.771	22901.86
645.124	22749.77
645.477	22674.74
645.83	22666.38
646.182	22505.48
646.535	22423.22
646.888	22517.01
647.24	22360.4
647.593	22367.41
647.945	22398.14
648.298	22382.55
648.65	22313.4
649.002	22265.49
649.355	22414.18
649.707	22311.14
650.059	22421.42
650.411	22752.93
650.763	22669.32
651.115	23034.28
651.467	22863.89
651.819	22846.72
652.171	22842.87
652.523	22801.75
652.875	22753.84
653.227	22638.36
653.578	22918.8
653.93	22757.68
654.282	22755.87
654.633	22664.57
654.985	22842.42
655.337	22785.7
655.688	22722.65
656.039	22843.33
656.391	22641.98
656.742	22674.52
657.094	22823.44
657.445	22717.68
657.796	22745.7
658.147	22709.32
658.498	22714.29
658.849	22820.73
659.2	22739.6
659.551	22734.18
659.902	22777.11
660.253	22656.44
660.604	22755.87
660.955	22637
661.306	22777.34
661.656	22660.51
662.007	22659.83
662.358	22702.09
662.708	22661.86
663.059	22686.04
663.409	22497.8
663.76	22827.96
664.11	22816.66
664.461	22641.98
664.811	22713.16
665.161	22707.06
665.511	22650.56
665.862	22743.67
666.212	22699.37
666.562	22733.05
666.912	22692.37
667.262	22732.14
667.612	22739.15
667.962	22754.29
668.312	22742.99
668.662	22851.46
669.011	22774.4
669.361	22784.57
669.711	22742.76
670.06	22679.49
670.41	22576.21
670.76	22586.16
671.109	22672.03
671.459	22660.05
671.808	22704.12
672.157	22653.95
672.507	22576.21
672.856	22531.7
673.205	22527.4
673.554	22599.04
673.904	22560.4
674.253	22645.59
674.602	22515.88
674.951	22251.48
675.3	21979.39
675.649	22414.41
675.998	22366.5
676.346	22389.33
676.695	22510
677.044	22319.05
677.393	22377.58
677.741	22373.73
678.09	22385.94
678.438	22312.49
678.787	22256.45
679.135	22348.65
679.484	22131.93
679.832	22227.3
680.181	22175.55
680.529	22157.47
680.877	22123.8
681.225	21981.65
681.573	22198.15
681.922	21966.74
682.27	21936.23
682.618	21929.23
682.966	21877.48
683.314	21952.28
683.661	21859.62
684.009	21866.63
684.357	21765.16
684.705	21714.32
685.053	21697.14
685.4	21677.93
685.748	21486.98
686.095	21544.83
686.443	21427.54
686.79	21456.47
687.138	21439.3
687.485	21517.03
687.832	21348.68
688.18	21361.56
688.527	21195.01
688.874	21198.17
689.221	21170.6
689.568	21097.61
689.915	21070.94
690.262	21091.51
690.609	20997.72
690.956	20921.79
691.303	20826.2
691.65	20776.04
691.997	20738.07
692.344	20725.19
692.69	20665.76
693.037	20541.92
693.383	20468.7
693.73	20514.8
694.077	20398.19
694.423	20332.88
694.769	20301.25
695.116	20225.54
695.462	20214.92
695.808	20133.34
696.155	20187.8
696.501	20047.47
696.847	19978.99
697.193	19919.34
697.539	19954.14
697.885	19749.17
698.231	19609.06
698.577	19726.57
698.923	19629.4
699.269	19510.76
699.614	19477.31
699.96	19482.74
700.306	19342.4
700.651	19238
700.997	19087.72
701.342	19192.8
701.688	19157.55
702.033	19061.05
702.379	19010.43
702.724	19035.06
703.069	19013.37
703.415	18668.29
703.76	18834.62
704.105	18716.2
704.45	18666.94
704.795	18532.93
705.14	18528.64
705.485	18453.16
705.83	18456.32
706.175	18468.98
706.52	18403.67
706.865	18330.68
707.209	18305.37
707.554	18181.98
707.899	18163.45
708.243	18085.26
708.588	18089.1
708.932	17968.88
709.277	17989.22
709.621	17920.07
709.966	17810.01
710.31	17808.43
710.654	17758.49
710.998	17748.77
711.342	17768.88
711.687	17727.75
712.031	17682.78
712.375	17574.09
712.719	17607.76
713.063	17477.14
713.407	17549.23
713.75	17447.31
714.094	17389.68
714.438	17368.67
714.782	17394.43
715.125	17356.24
715.469	17328.89
715.812	17244.38
716.156	17055.68
716.499	17125.74
716.843	17193.98
717.186	17187.88
717.53	17193.98
717.873	17115.11
718.216	16975.23
718.559	16983.37
718.902	16825.63
719.246	16916.7
719.589	16848
719.932	16811.85
720.275	16820.66
720.617	16822.69
720.96	16799.64
721.303	16773.88
721.646	16751.51
721.989	16671.06
722.331	16692.53
722.674	16681.23
723.016	16689.36
723.359	16669.93
723.701	16703.83
724.044	16530.05
724.386	16518.75
724.729	16565.3
725.071	16520.78
725.413	16582.02
725.755	16422.48
726.097	16402.82
726.439	16323.95
726.782	16311.75
727.124	16413.44
727.465	16346.55
727.807	16329.82
728.149	16329.15
728.491	16297.51
728.833	16290.96
729.175	16234.01
729.516	16182.03
729.858	16170.51
730.199	16246.66
730.541	16225.87
730.882	16127.12
731.224	16286.66
731.565	16114.69
731.906	16128.25
732.248	16155.37
732.589	16091.64
732.93	16021.81
733.271	16068.36
733.612	16076.5
733.953	16098.19
734.294	16011.42
734.635	15976.39
734.976	16002.83
735.317	15988.36
735.658	16027.91
735.999	15984.52
736.339	15901.59
736.68	16021.58
737.021	15961.92
737.361	15909.95
737.702	16009.61
738.042	16004.64
738.383	15965.77
738.723	16028.36
739.063	16001.92
739.404	15950.17
739.744	15938.42
740.084	15836.05
740.424	15984.07
740.764	15991.75
741.104	16020.23
741.444	15891.64
741.784	15913.79
742.124	16008.93
742.464	15969.83
742.804	15894.36
743.143	15988.36
743.483	16038.31
743.823	15964.41
744.162	16006.9
744.502	16023.62
744.841	15940.23
745.181	16113.33
745.52	16105.65
745.86	16074.46
746.199	16052.77
746.538	16134.8
746.877	16145.87
747.216	16239.21
747.556	16132.99
747.895	16173.22
748.234	16196.72
748.573	16239.43
748.911	16282.37
749.25	16387.22
749.589	16285.76
749.928	16398.3
750.267	16493.66
750.605	16425.19
750.944	16577.95
751.283	16563.72
751.621	16693.88
751.96	16540.89
752.298	16714.9
752.636	16798.51
752.975	16681.45
753.313	16794.22
753.651	16979.53
753.989	16920.54
754.327	17078.96
754.666	17071.95
755.004	17166.19
755.342	17204.83
755.679	17251.61
756.017	17310.14
756.355	17522.11
756.693	17479.17
757.031	17617.93
757.368	17615.67
757.706	17672.61
758.044	17590.81
758.381	17866.06
758.719	17894.3
759.056	17896.79
759.394	17979.72
759.731	17977.24
760.068	18093.39
760.405	18043
760.743	18126.39
761.08	18265.59
761.417	18262.66
761.754	18343.56
762.091	18510.56
762.428	18351.92
762.765	18450
763.102	18647.96
763.438	18447.74
763.775	18537
764.112	18644.79
764.449	18736.32
764.785	18755.3
765.122	18735.86
765.458	18689.31
765.795	18685.24
766.131	18832.81
766.467	18809.99
766.804	18883.88
767.14	18802.98
767.476	19021.96
767.812	18946.93
768.148	18954.16
768.485	18819.48
768.821	18898.12
769.157	18958.46
769.492	18942.41
769.828	18923.2
770.164	18802.53
770.5	18863.77
770.836	18889.98
771.171	18798.01
771.507	18778.8
771.842	18742.87
772.178	18824.9
772.513	18800.27
772.849	18739.93
773.184	18744
773.519	18705.81
773.855	18670.78
774.19	18620.84
774.525	18554.17
774.86	18649.54
775.195	18653.83
775.53	18611.35
775.865	18418.58
776.2	18353.5
776.535	18407.06
776.87	18334.97
777.205	18287.74
777.539	18214.75
777.874	18365.25
778.209	18276.44
778.543	18166.39
778.878	18125.71
779.212	18176.56
779.547	17979.05
779.881	18137.23
780.215	18004.36
780.55	18005.04
780.884	17875.32
781.218	17910.12
781.552	17914.42
781.886	17773.4
782.22	17708.09
782.554	17663.8
782.888	17626.51
783.222	17511.04
783.556	17424.49
783.889	17443.69
784.223	17279.63
784.557	17268.11
784.89	17412.28
785.224	17158.5
785.557	17162.57
785.891	17168.9
786.224	17133.65
786.558	17082.12
786.891	16921.9
787.224	16898.85
787.557	16814.11
787.891	16789.93
788.224	16765.07
788.557	16800.32
788.89	16682.36
789.223	16696.82
789.556	16591.74
789.888	16541.34
790.221	16504.96
790.554	16395.13
790.887	16342.48
791.219	16340.67
791.552	16262.71
791.884	16194.91
792.217	16260.22
792.549	16160.56
792.882	16036.05
793.214	15990.4
793.546	15948.59
793.879	15922.38
794.211	15875.6
794.543	15881.93
794.875	15841.02
795.207	15853.68
795.539	15755.15
795.871	15744.53
796.203	15577.98
796.535	15510.19
796.867	15521.71
797.198	15408.04
797.53	15466.57
797.862	15275.16
798.193	15365.56
798.525	15342.73
798.856	15329.85
799.188	15151.1
799.519	15004.89
799.85	15034.27
800.182	14963.08
800.513	15013.02
800.844	14885.12
801.175	14948.62
801.506	14939.35
801.837	14853.71
802.168	14767.15
802.499	14764.67
802.83	14754.73
803.161	14634.5
803.491	14637.89
803.822	14622.07
804.153	14507.73
804.483	14456.2
804.814	14451.46
805.145	14384.11
805.475	14435.86
805.805	14337.79
806.136	14288.97
806.466	14307.73
806.796	14318.13
807.126	14180.5
807.457	14195.42
807.787	14144.35
808.117	14046.72
808.447	14034.52
808.777	14137.57
809.107	13997.23
809.436	14013.95
809.766	13913.17
810.096	13894.41
810.426	13887.4
810.755	13830.46
811.085	13773.96
811.414	13766.73
811.744	13680.18
812.073	13682.21
812.403	13619.39
812.732	13560.86
813.061	13653.29
813.39	13492.39
813.719	13432.27
814.049	13458.04
814.378	13409
814.707	13340.07
815.036	13403.8
815.365	13305.95
815.693	13226.86
816.022	13144.15
816.351	13136.69
816.68	13080.64
817.008	13077.48
817.337	13042.23
817.665	13064.15
817.994	12980.99
818.322	13088.33
818.651	12943.93
818.979	12952.74
819.307	13011.72
819.636	12879.75
819.964	12820.09
820.292	12900.99
820.62	12942.12
820.948	12793.65
821.276	12770.82
821.604	12768.34
821.932	12835.91
822.259	12786.64
822.587	12836.81
822.915	12829.8
823.243	12790.03
823.57	12826.19
823.898	12787.32
824.225	12716.36
824.553	12699.86
824.88	12727.66
825.207	12749.35
825.535	12702.12
825.862	12854.89
826.189	12717.72
826.516	12776.47
826.843	12837.71
827.17	12766.08
827.497	12797.49
827.824	12802.01
828.151	12790.03
828.478	12786.19
828.805	12818.5
829.131	12727.66
829.458	12690.37
829.785	12775.57
830.111	12721.33
830.438	12736.7
830.764	12794.1
831.09	12657.83
831.417	12603.14
831.743	12683.82
832.069	12771.27
832.395	12677.27
832.722	12637.04
833.048	12633.2
833.374	12615.35
833.7	12638.62
834.026	12567.89
834.351	12659.64
834.677	12605.63
835.003	12600.88
835.329	12611.73
835.654	12500.1
835.98	12565.86
836.306	12574.22
836.631	12509.59
836.956	12441.79
837.282	12533.99
837.607	12411.74
837.932	12490.6
838.258	12419.42
838.583	12451.96
838.908	12291.29
839.233	12284.51
839.558	12371.28
839.883	12207.45
840.208	12235.92
840.533	12226.2
840.858	12271.17
841.182	12247.67
841.507	12235.24
841.832	12054.01
842.156	12160.67
842.481	12083.38
842.805	12152.76
843.13	12029.82
843.454	12002.03
843.778	12021.92
844.103	12037.51
844.427	11950.05
844.751	11957.51
845.075	11895.37
845.399	11855.82
845.723	11768.36
846.047	11855.14
846.371	11694.01
846.695	11731.08
847.019	11641.59
847.343	11563.85
847.666	11542.83
847.99	11426.22
848.313	11470.07
848.637	11390.07
848.96	11393.01
849.284	11385.32
849.607	11269.84
849.931	11263.29
850.254	11217.64
850.577	11103.97
850.9	11007.93
851.223	11013.58
851.546	10957.08
851.869	10899.46
852.192	10960.93
852.515	10888.61
852.838	10847.03
853.161	10830.53
853.483	10708.5
853.806	10668.05
854.129	10711.89
854.451	10608.62
854.774	10619.69
855.096	10523.42
855.419	10527.04
855.741	10492.46
856.063	10405.01
856.385	10387.38
856.708	10341.51
857.03	10360.04
857.352	10374.05
857.674	10326.14
857.996	10297.67
858.318	10252.7
858.64	10295.86
858.961	10180.16
859.283	10151.46
859.605	10122.98
859.926	10111.01
860.248	10047.5
860.57	10021.29
860.891	10047.73
861.212	9963.89
861.534	9981.74
861.855	9941.07
862.176	9904.46
862.498	9972.03
862.819	9880.73
863.14	9900.39
863.461	9980.84
863.782	9872.82
864.103	9832.82
864.424	9718.93
864.745	9772.48
865.065	9768.42
865.386	9735.65
865.707	9729.09
866.027	9660.4
866.348	9763.9
866.668	9720.73
866.989	9671.69
867.309	9563.22
867.63	9607.97
867.95	9589.89
868.27	9551.02
868.59	9616.78
868.91	9594.86
869.23	9575.2
869.55	9516.44
869.87	9583.34
870.19	9492.72
870.51	9507.86
870.83	9517.35
871.15	9496.56
871.469	9495.65
871.789	9415.88
872.109	9403.91
872.428	9330.01
872.748	9346.73
873.067	9367.07
873.386	9373.62
873.706	9338.82
874.025	9306.51
874.344	9316.45
874.663	9300.86
874.982	9297.47
875.301	9248.2
875.62	9305.83
875.939	9230.58
876.258	9180.18
876.577	9185.83
876.896	9125.49
877.214	9159.39
877.533	9192.16
877.852	9154.65
878.17	9136.79
878.489	9101.77
878.807	9079.39
879.125	9079.62
879.444	9040.53
879.762	8923.69
880.08	9059.96
880.398	9040.98
880.716	8980.41
881.034	8972.5
881.352	8970.47
881.67	8956.23
881.988	8982.9
882.306	8953.52
882.624	8910.13
882.941	8878.04
883.259	8859.29
883.577	8798.27
883.894	8814.54
884.212	8770.48
884.529	8771.38
884.846	8727.76
885.164	8723.47
885.481	8669.24
885.798	8725.05
886.115	8631.5
886.432	8614.77
886.75	8572.29
887.067	8565.06
887.383	8633.08
887.7	8594.44
888.017	8566.41
888.334	8543.59
888.651	8517.15
888.967	8472.18
889.284	8433.99
889.6	8450.48
889.917	8341.11
890.233	8365.29
890.55	8296.14
890.866	8273.99
891.182	8313.76
891.498	8326.87
891.815	8275.57
892.131	8200.55
892.447	8215.46
892.763	8167.1
893.079	8238.29
893.395	8121.23
893.71	8136.82
894.026	8044.17
894.342	8058.4
894.657	7994
894.973	8090.72
895.289	7993.55
895.604	8000.33
895.92	7917.84
896.235	7982.02
896.55	7897.05
896.865	7915.36
897.181	7851.63
897.496	7831.07
897.811	7758.3
898.126	7777.96
898.441	7721.92
898.756	7688.24
899.071	7630.84
899.386	7687.79
899.7	7569.15
900.015	7519.21
900.33	7545.88
900.644	7487.35
900.959	7497.51
901.273	7449.38
901.588	7441.7
901.902	7420.91
902.216	7417.97
902.531	7418.19
902.845	7285.54
903.159	7270.18
903.473	7261.14
903.787	7311.76
904.101	7268.37
904.415	7215.71
904.729	7181.14
905.042	7179.56
905.356	7096.62
905.67	7070.63
905.984	7077.64
906.297	7036.96
906.611	6993.12
906.924	7039
907.237	6974.36
907.551	6934.59
907.864	6904.31
908.177	6895.5
908.491	6882.16
908.804	6900.47
909.117	6827.25
909.43	6750.64
909.743	6737.31
910.056	6718.55
910.368	6710.19
910.681	6631.77
910.994	6632.23
911.307	6577.76
911.619	6615.96
911.932	6557.43
912.244	6551.55
912.557	6566.01
912.869	6447.6
913.181	6469.07
913.494	6478.78
913.806	6394.27
914.118	6407.83
914.43	6422.74
914.742	6356.98
915.054	6264.1
915.366	6266.13
915.678	6229.3
915.99	6224.55
916.302	6219.58
916.613	6144.1
916.925	6160.6
917.236	6163.31
917.548	6103.65
917.859	6037.89
918.171	6040.6
918.482	6014.39
918.794	6027.72
919.105	6017.55
919.416	5926.03
919.727	5998.12
920.038	5893.49
920.349	5902.3
920.66	5848.07
920.971	5838.35
921.282	5825.92
921.593	5755.64
921.903	5735.98
922.214	5768.29
922.525	5689.2
922.835	5632.25
923.146	5648.3
923.456	5666.6
923.767	5641.74
924.077	5606.94
924.387	5599.26
924.697	5551.35
925.008	5505.7
925.318	5535.08
925.628	5483.56
925.938	5465.25
926.248	5413.05
926.558	5413.5
926.867	5346.61
927.177	5371.47
927.487	5388.42
927.796	5331.47
928.106	5284.47
928.416	5255.31
928.725	5257.12
929.034	5240.85
929.344	5248.76
929.653	5195.2
929.962	5143.68
930.271	5124.47
930.581	5128.99
930.89	5116.56
931.199	5075.21
931.508	5070.23
931.817	5051.25
932.125	5010.12
932.434	5054.87
932.743	4950.69
933.051	4961.31
933.36	4916.11
933.669	4915.89
933.977	4890.35
934.286	4841.77
934.594	4864.36
934.902	4803.8
935.21	4791.6
935.519	4797.02
935.827	4751.82
936.135	4750.47
936.443	4684.71
936.751	4725.84
937.059	4707.31
937.367	4660.53
937.674	4658.04
937.982	4653.97
938.29	4607.42
938.597	4594.54
938.905	4556.8
939.213	4511.6
939.52	4493.75
939.827	4518.38
940.135	4510.7
940.442	4484.03
940.749	4488.1
941.056	4466.63
941.363	4423.02
941.67	4404.71
941.977	4342.57
942.284	4288.33
942.591	4342.12
942.898	4366.52
943.205	4322.01
943.511	4299.86
943.818	4272.74
944.125	4241.1
944.431	4263.48
944.738	4267.09
945.044	4230.71
945.35	4179.18
945.657	4140.09
945.963	4145.96
946.269	4089.92
946.575	4117.94
946.881	4111.16
947.187	4126.76
947.493	4020.32
947.799	4054.44
948.105	4060.09
948.41	4019.19
948.716	4019.19
949.022	3999.53
949.327	3978.51
949.633	3938.51
949.938	3956.36
950.244	3919.3
950.549	3877.72
950.854	3877.95
951.16	3837.05
951.465	3849.7
951.77	3840.44
952.075	3812.19
952.38	3805.18
952.685	3781
952.99	3750.72
953.294	3766.77
953.599	3722.92
953.904	3726.77
954.209	3686.77
954.513	3653.55
954.818	3658.97
955.122	3653.55
955.426	3669.59
955.731	3627.56
956.035	3580.1
956.339	3604.28
956.643	3613.78
956.948	3530.84
957.252	3552.76
957.556	3512.08
957.86	3524.96
958.163	3529.48
958.467	3536.71
958.771	3447.23
959.075	3468.69
959.378	3412.2
959.682	3447.68
959.985	3390.73
960.289	3410.39
960.592	3355.48
960.896	3392.99
961.199	3348.02
961.502	3320.68
961.805	3342.14
962.108	3262.15
962.411	3297.85
962.714	3286.55
963.017	3267.12
963.32	3234.12
963.623	3246.1
963.926	3237.51
964.228	3189.15
964.531	3186.44
964.833	3211.98
965.136	3145.99
965.438	3161.58
965.741	3134.69
966.043	3059.21
966.345	3110.51
966.648	3117.06
966.95	3109.61
967.252	3068.03
967.554	3048.14
967.856	3063.51
968.158	3031.42
968.46	3007.24
968.761	2985.77
969.063	3009.05
969.365	2976.28
969.666	2942.83
969.968	2964.98
970.269	2928.6
970.571	2929.05
970.872	2904.64
971.174	2885.43
971.475	2918.65
971.776	2882.95
972.077	2829.84
972.378	2830.74
972.679	2875.49
972.98	2819.9
973.281	2858.77
973.582	2793.01
973.883	2799.56
974.183	2760.92
974.484	2807.24
974.785	2770.18
975.085	2781.25
975.386	2753.01
975.686	2734.7
975.986	2698.54
976.287	2708.26
976.587	2666.91
976.887	2694.48
977.187	2684.53
977.487	2628.94
977.787	2642.05
978.087	2611.99
978.387	2625.55
978.687	2636.85
978.987	2600.47
979.286	2576.97
979.586	2593.46
979.885	2573.12
980.185	2504.2
980.484	2561.37
980.784	2529.51
981.083	2529.96
981.382	2518.44
981.682	2503.07
981.981	2503.52
982.28	2476.63
982.579	2482.73
982.878	2461.94
983.177	2472.79
983.475	2439.34
983.774	2428.27
984.073	2444.31
984.372	2411.32
984.67	2440.92
984.969	2397.99
985.267	2391.66
985.566	2392.11
985.864	2359.57
986.162	2348.5
986.461	2351.89
986.759	2300.14
987.057	2304.66
987.355	2294.49
987.653	2320.02
987.951	2272.57
988.249	2261.95
988.547	2267.82
988.844	2233.47
989.142	2219.69
989.44	2213.36
989.737	2236.64
990.035	2240.48
990.332	2201.38
990.63	2193.47
990.927	2155.06
991.224	2223.76
991.521	2170.2
991.819	2165.68
992.116	2153.7
992.413	2115.74
992.71	2134.04
993.006	2134.72
993.303	2131.78
993.6	2095.85
993.897	2046.13
994.193	2061.05
994.49	2065.12
994.787	2045.68
995.083	2045
995.379	2013.37
995.676	2010.65
995.972	2017.43
996.268	2003.2
996.565	1983.31
996.861	1977.21
997.157	1993.48
997.453	1972.46
997.749	1936.98
998.044	1943.31
998.34	1936.08
998.636	1940.82
998.932	1935.63
999.227	1941.73
999.523	1912.35
999.818	1876.42
1000.114	1856.08
1000.409	1866.25
1000.704	1840.26
1001	1840.04
1001.295	1829.19
1001.59	1819.47
1001.885	1826.7
1002.18	1819.47
1002.475	1812.92
1002.77	1801.85
1003.065	1780.15
1003.359	1815.63
1003.654	1746.71
1003.949	1722.53
1004.243	1749.64
1004.538	1734.28
1004.832	1727.27
1005.127	1730.89
1005.421	1731.11
1005.715	1709.64
1006.009	1682.3
1006.304	1711.68
1006.598	1651.79
1006.892	1667.39
1007.186	1679.14
1007.48	1623.32
1007.773	1636.65
1008.067	1640.27
1008.361	1627.39
1008.655	1609.31
1008.948	1592.59
1009.242	1594.62
1009.535	1562.53
1009.829	1586.48
1010.122	1576.54
1010.415	1553.72
1010.708	1532.7
1011.001	1535.64
1011.295	1538.35
1011.588	1527.05
1011.881	1501.51
1012.173	1532.7
1012.466	1496.77
1012.759	1485.24
1013.052	1478.92
1013.344	1483.44
1013.637	1453.15
1013.93	1445.92
1014.222	1472.14
1014.514	1450.44
1014.807	1464.9
1015.099	1448.86
1015.391	1409.54
1015.683	1422.65
1015.976	1428.52
1016.268	1427.17
1016.56	1408.86
1016.851	1359.37
1017.143	1395.75
1017.435	1367.51
1017.727	1349.65
1018.018	1358.92
1018.31	1367.51
1018.602	1303.78
1018.893	1319.37
1019.185	1307.62
1019.476	1285.47
1019.767	1314.63
1020.058	1276.44
1020.35	1247.51
1020.641	1263.78
1020.932	1255.64
1021.223	1261.07
1021.514	1238.24
1021.804	1259.94
1022.095	1220.17
1022.386	1247.06
1022.677	1203.22
1022.967	1204.35
1023.258	1206.38
1023.548	1217
1023.839	1196.21
1024.129	1178.58
1024.419	1168.19
1024.709	1158.47
1025	1155.53
1025.29	1159.6
1025.58	1154.63
1025.87	1149.21
1026.16	1132.94
1026.449	1127.74
1026.739	1130.9
1027.029	1145.14
1027.319	1082.09
1027.608	1087.06
1027.898	1108.53
1028.187	1090
1028.477	1075.08
1028.766	1072.82
1029.055	1067.4
1029.344	1069.89
1029.634	1053.16
1029.923	1036.22
1030.212	1057.23
1030.501	1035.76
1030.79	1038.7
1031.078	1012.71
1031.367	1005.26
1031.656	990.79
1031.945	995.99
1032.233	974.52
1032.522	991.25
1032.81	965.71
1033.099	956.67
1033.387	970.91
1033.675	947.86
1033.963	936.11
1034.251	965.48
1034.54	944.01
1034.828	959.38
1035.116	927.97
1035.403	931.59
1035.691	918.7
1035.979	921.87
1036.267	905.37
1036.554	908.08
1036.842	908.31
1037.129	892.49
1037.417	899.72
1037.704	882.55
1037.992	852.49
1038.279	858.82
1038.566	865.6
1038.853	865.6
1039.14	865.6
