Data from hue_150_FLMS001491_00051.txt Node
Date: Tue Feb 07 16:54:13 GMT 2017
User: dcchb
Spectrometer: FLMS00149
Trigger mode: 0
Integration Time (sec): 2.000000E-2
Scans to average: 10
Electric dark correction enabled: true
Nonlinearity correction enabled: false
Boxcar width: 0
XAxis mode: Wavelengths
Number of Pixels in Spectrum: 2048
>>>>>Begin Spectral Data<<<<<
341.393	-32.99
341.776	-32.99
342.16	-32.99
342.543	-68.47
342.927	-54.91
343.31	-63.28
343.693	-63.05
344.077	-54.46
344.46	-64.63
344.843	-55.59
345.226	-48.13
345.61	-28.47
345.993	-23.05
346.376	-7.01
346.759	3.84
347.142	44.29
347.525	29.83
347.908	72.54
348.291	72.54
348.674	84.52
349.057	100.11
349.44	117.29
349.823	150.28
350.206	163.84
350.588	204.29
350.971	181.69
351.354	248.36
351.737	225.3
352.119	257.39
352.502	255.59
352.884	278.64
353.267	268.92
353.65	298.52
354.032	291.74
354.414	296.72
354.797	320.22
355.179	325.87
355.562	318.41
355.944	326.77
356.326	328.35
356.709	320.44
357.091	313.44
357.473	349.14
357.855	336.04
358.238	333.55
358.62	332.87
359.002	345.75
359.384	324.06
359.766	328.8
360.148	303.72
360.53	329.03
360.912	346.43
361.294	326.09
361.676	327.22
362.057	329.71
362.439	342.36
362.821	323.61
363.203	303.95
363.584	328.58
363.966	312.08
364.348	321.8
364.729	311.4
365.111	306.88
365.493	312.76
365.874	332.87
366.256	315.92
366.637	305.53
367.019	296.72
367.4	308.24
367.781	284.96
368.163	290.84
368.544	309.82
368.925	279.09
369.306	306.66
369.688	304.17
370.069	301.69
370.45	313.89
370.831	315.7
371.212	310.27
371.593	314.34
371.974	310.95
372.355	297.39
372.736	323.16
373.117	309.82
373.498	324.96
373.879	305.3
374.26	303.27
374.641	307.11
375.021	317.51
375.402	324.29
375.783	316.15
376.163	314.57
376.544	301.24
376.925	301.01
377.305	331.97
377.686	304.85
378.066	323.61
378.447	311.63
378.827	328.8
379.208	345.75
379.588	326.55
379.968	317.05
380.349	321.8
380.729	335.81
381.109	335.81
381.489	323.61
381.87	314.34
382.25	312.76
382.63	329.03
383.01	313.21
383.39	330.16
383.77	340.78
384.15	340.1
384.53	341.23
384.91	350.5
385.29	353.89
385.67	338.52
386.049	341.01
386.429	331.97
386.809	333.32
387.189	353.21
387.568	349.14
387.948	351.4
388.328	336.94
388.707	361.8
389.087	369.26
389.466	339.43
389.846	339.2
390.225	338.52
390.605	341.91
390.984	353.21
391.363	363.38
391.743	370.16
392.122	327.9
392.501	356.15
392.881	369.26
393.26	378.3
393.639	374.68
394.018	355.47
394.397	368.58
394.776	372.87
395.155	366.54
395.534	374.45
395.913	378.52
396.292	364.51
396.671	373.1
397.05	364.51
397.429	359.31
397.808	361.57
398.186	376.26
398.565	383.94
398.944	374.23
399.323	390.27
399.701	382.14
400.08	385.98
400.458	384.85
400.837	396.6
401.215	398.41
401.594	392.31
401.972	401.57
402.351	398.18
402.729	413.1
403.107	395.24
403.486	399.09
403.864	400.67
404.242	399.54
404.62	397.73
404.999	422.81
405.377	410.61
405.755	395.92
406.133	428.01
406.511	388.46
406.889	407.22
407.267	431.85
407.645	413.77
408.023	457.16
408.401	431.4
408.779	430.05
409.156	449.93
409.534	432.53
409.912	435.69
410.29	443.6
410.667	461.91
411.045	459.42
411.422	428.69
411.8	454.45
412.178	465.52
412.555	455.13
412.933	460.33
413.31	457.62
413.687	458.29
414.065	458.07
414.442	461.46
414.819	465.75
415.197	479.31
415.574	467.78
415.951	478.86
416.328	473.66
416.705	471.63
417.082	506.88
417.46	497.39
417.837	494.9
418.214	489.93
418.591	482.47
418.967	526.31
419.344	484.51
419.721	481.12
420.098	496.71
420.475	508.91
420.852	521.12
421.228	534.45
421.605	531.96
421.982	511.4
422.358	527.67
422.735	545.07
423.111	544.62
423.488	537.61
423.864	543.49
424.241	547.56
424.617	554.56
424.994	550.49
425.37	573.32
425.746	560.89
426.123	556.82
426.499	571.28
426.875	579.65
427.251	559.53
427.627	599.98
428.003	587.78
428.379	580.32
428.756	582.81
429.132	604.28
429.507	610.15
429.883	604.05
430.259	594.79
430.635	615.8
431.011	619.42
431.387	635.01
431.763	640.66
432.138	653.09
432.514	623.71
432.89	652.64
433.265	676.59
433.641	660.1
434.016	656.93
434.392	643.37
434.767	676.59
435.143	681.56
435.518	693.54
435.894	693.77
436.269	701.22
436.644	705.74
437.02	718.85
437.395	709.13
437.77	722.47
438.145	723.37
438.52	706.2
438.895	731.73
439.271	738.29
439.646	743.26
440.021	761.34
440.395	765.18
440.77	781.67
441.145	766.53
441.52	797.95
441.895	782.8
442.27	794.1
442.645	794.1
443.019	842.01
443.394	781
443.769	797.04
444.143	805.63
444.518	813.09
444.892	827.77
445.267	828.9
445.641	814.89
446.016	819.64
446.39	862.58
446.764	836.59
447.139	855.12
447.513	850.37
447.887	846.31
448.262	845.18
448.636	880.43
449.01	889.24
449.384	871.39
449.758	890.37
450.132	887.66
450.506	895.57
450.88	903.48
451.254	913.65
451.628	949.81
452.002	929.24
452.376	932.4
452.75	945.29
453.123	938.96
453.497	947.77
453.871	973.31
454.244	995.91
454.618	994.32
454.992	982.35
455.365	1022.8
455.739	1009.46
456.112	1028.22
456.486	1037.03
456.859	1041.78
457.232	1059.18
457.606	1084.04
457.979	1094.89
458.352	1107.32
458.725	1117.71
459.099	1136.47
459.472	1147.99
459.845	1145.51
460.218	1164.04
460.591	1167.88
460.964	1183.02
461.337	1214.88
461.71	1225.05
462.083	1227.31
462.456	1252.62
462.829	1252.62
463.201	1273.41
463.574	1288.1
463.947	1312.06
464.32	1335.56
464.692	1349.57
465.065	1355.9
465.438	1368.55
465.81	1393.64
466.183	1420.53
466.555	1438.15
466.928	1464.37
467.3	1454.65
467.672	1500.75
468.045	1526.74
468.417	1542.33
468.789	1539.62
469.161	1597.02
469.534	1631.14
469.906	1664.14
470.278	1673.4
470.65	1697.13
471.022	1727.64
471.394	1785.04
471.766	1822.78
472.138	1823.23
472.51	1851.25
472.882	1907.97
473.253	1925.6
473.625	1968.54
473.997	2000.85
474.369	2061.19
474.74	2096.89
475.112	2145.48
475.484	2189.32
475.855	2272.03
476.227	2302.54
476.598	2351.8
476.97	2398.81
477.341	2453.72
477.713	2528.75
478.084	2572.14
478.455	2672.7
478.827	2691.23
479.198	2816.65
479.569	2850.32
479.94	2989.53
480.311	3004.67
480.682	3123.53
481.053	3232.46
481.424	3283.98
481.795	3359.46
482.166	3423.64
482.537	3534.14
482.908	3639.9
483.279	3749.28
483.65	3762.61
484.021	3904.53
484.391	4050.06
484.762	4125.54
485.133	4166.22
485.503	4293.22
485.874	4469.94
486.244	4533.21
486.615	4675.58
486.985	4757.39
487.356	4951.51
487.726	5009.81
488.097	5171.16
488.467	5262.01
488.837	5411.38
489.207	5504.04
489.578	5676.46
489.948	5797.59
490.318	5912.39
490.688	5991.25
491.058	6156.22
491.428	6304.92
491.798	6450.9
492.168	6568.41
492.538	6667.4
492.908	6780.16
493.278	6957.78
493.648	6985.35
494.017	7195.52
494.387	7294.5
494.757	7480.26
495.126	7602.29
495.496	7712.34
495.866	7772.45
496.235	7819.91
496.605	8066
496.974	8097.41
497.344	8256.05
497.713	8351.19
498.082	8435.94
498.452	8595.48
498.821	8712.09
499.19	8703.05
499.559	8836.38
499.928	8928.35
500.298	9029.59
500.667	9221.23
501.036	9150.04
501.405	9301.45
501.774	9408.57
502.143	9468.9
502.512	9557.04
502.88	9682.23
503.249	9708.9
503.618	9788.22
503.987	9932.85
504.356	9899.4
504.724	9978.04
505.093	10080.41
505.462	10165.38
505.83	10239.5
506.199	10372.38
506.567	10451.93
506.936	10454.87
507.304	10588.87
507.672	10638.14
508.041	10676.78
508.409	10759.94
508.777	10835.42
509.145	10951.12
509.514	10908.19
509.882	10997.22
510.25	11011.69
510.618	11106.6
510.986	11167.62
511.354	11298.01
511.722	11366.48
512.09	11380.94
512.458	11337.55
512.826	11476.99
513.193	11462.75
513.561	11519.25
513.929	11584.33
514.297	11600.82
514.664	11673.14
515.032	11711.33
515.4	11754.95
515.767	11874.26
516.135	11730.09
516.502	11764.66
516.869	11874.94
517.237	11935.28
517.604	11862.96
517.972	12028.38
518.339	12007.59
518.706	12031.1
519.073	12085.33
519.44	12164.65
519.808	12141.38
520.175	12136.86
520.542	12167.36
520.909	12253.24
521.276	12266.12
521.643	12302.73
522.009	12407.36
522.376	12486.45
522.743	12451.2
523.11	12494.81
523.477	12588.82
523.843	12510.18
524.21	12619.78
524.577	12711.53
524.943	12692.1
525.31	12697.29
525.676	12761.25
526.043	12809.61
526.409	12728.93
526.776	12791.75
527.142	12861.36
527.508	12893.67
527.874	12931.86
528.241	12883.5
528.607	12909.72
528.973	12944.74
529.339	12925.08
529.705	12963.27
530.071	12972.54
530.437	13013.9
530.803	13050.05
531.169	12961.02
531.535	12947.46
531.901	12933.45
532.267	12942.03
532.632	12925.76
532.998	12927.12
533.364	12860.68
533.73	12934.58
534.095	12968.47
534.461	12972.09
534.826	12960.11
535.192	12892.77
535.557	12969.6
535.923	12932.77
536.288	12894.8
536.653	12874.69
537.019	12752.21
537.384	12847.8
537.749	12814.13
538.114	12744.07
538.479	12765.77
538.845	12772.77
539.21	12617.52
539.575	12613.23
539.94	12630.85
540.305	12671.53
540.67	12557.64
541.034	12564.42
541.399	12494.36
541.764	12519.9
542.129	12444.42
542.494	12430.86
542.858	12504.98
543.223	12373.46
543.587	12373.46
543.952	12431.76
544.316	12306.12
544.681	12320.81
545.045	12336.4
545.41	12220.02
545.774	12253.92
546.138	12205.55
546.503	12157.87
546.867	12069.29
547.231	12111.55
547.595	12143.41
547.959	12058.21
548.324	11970.76
548.688	11937.99
549.052	11936.64
549.416	11970.98
549.779	11885.34
550.143	11834.27
550.507	11868.16
550.871	11818.67
551.235	11785.23
551.599	11842.17
551.962	11749.52
552.326	11724.66
552.689	11793.59
553.053	11662.74
553.417	11623.65
553.78	11758.11
554.143	11615.97
554.507	11673.82
554.87	11657.55
555.234	11661.84
555.597	11589.53
555.96	11504.78
556.323	11531
556.686	11551.33
557.05	11498.68
557.413	11452.35
557.776	11493.03
558.139	11475.4
558.502	11483.09
558.865	11518.79
559.228	11555.4
559.59	11482.64
559.953	11458
560.316	11624.33
560.679	11510.66
561.041	11508.17
561.404	11506.59
561.767	11493.48
562.129	11475.4
562.492	11534.39
562.854	11510.66
563.217	11483.54
563.579	11491.22
563.941	11526.25
564.304	11516.08
564.666	11615.97
565.028	11515.18
565.39	11566.48
565.753	11654.16
566.115	11590.66
566.477	11554.27
566.839	11644.67
567.201	11669.07
567.563	11651.9
567.925	11803.98
568.287	11643.99
568.648	11687.15
569.01	11694.38
569.372	11767.37
569.734	11696.19
570.095	11737.09
570.457	11716.3
570.819	11753.14
571.18	11692.12
571.542	11785
571.903	11717.21
572.265	11782.52
572.626	11822.29
572.987	11747.04
573.349	11827.03
573.71	11883.08
574.071	11891.44
574.432	11878.78
574.794	11966.47
575.155	11835.17
575.516	11833.14
575.877	11941.38
576.238	11897.99
576.599	11890.53
576.96	11912.46
577.32	11860.25
577.681	11928.5
578.042	11967.14
578.403	11848.05
578.763	11944.77
579.124	11904.32
579.485	11991.78
579.845	11945.45
580.206	11856.19
580.566	11915.17
580.927	11904.09
581.287	11959.01
581.648	11878.56
582.008	11917.43
582.368	11899.8
582.728	11985.22
583.089	11954.04
583.449	11914.94
583.809	11970.31
584.169	11936.64
584.529	11858.9
584.889	11968.27
585.249	11848.28
585.609	11781.16
585.969	11945.67
586.329	11826.81
586.688	11862.06
587.048	11799.69
587.408	11758.56
587.768	11797.66
588.127	11805.34
588.487	11769.18
588.846	11919.69
589.206	11681.05
589.565	11753.59
589.925	11837.43
590.284	11824.55
590.643	11741.84
591.003	11750.43
591.362	11809.86
591.721	11763.08
592.08	11752.46
592.44	11785.68
592.799	11711.78
593.158	11677.89
593.517	11717.43
593.876	11687.6
594.235	11649.86
594.593	11655.51
594.952	11681.27
595.311	11654.16
595.67	11756.53
596.029	11714.95
596.387	11733.48
596.746	11667.72
597.104	11645.12
597.463	11641.28
597.822	11655.96
598.18	11610.09
598.538	11648.28
598.897	11705.45
599.255	11647.15
599.613	11747.71
599.972	11715.4
600.33	11696.87
600.688	11652.57
601.046	11581.84
601.404	11663.65
601.762	11648.96
602.12	11708.39
602.478	11749.07
602.836	11706.13
603.194	11683.31
603.552	11673.37
603.91	11624.1
604.268	11695.51
604.625	11678.79
604.983	11709.07
605.341	11522.63
605.698	11646.47
606.056	11623.2
606.413	11674.27
606.771	11657.09
607.128	11655.51
607.485	11639.24
607.843	11662.29
608.2	11674.95
608.557	11735.28
608.914	11644.89
609.272	11736.64
609.629	11772.57
609.986	11768.96
610.343	11723.76
610.7	11808.96
611.057	11808.05
611.414	11839.69
611.771	11785.45
612.127	11856.64
612.484	11764.89
612.841	11800.14
613.198	11794.94
613.554	11765.57
613.911	11852.57
614.267	11867.26
614.624	11875.85
614.98	11901.16
615.337	11975.28
615.693	11912
616.05	11807.37
616.406	11964.43
616.762	11905.68
617.118	11875.85
617.475	11908.84
617.831	11965.34
618.187	11924.66
618.543	11940.48
618.899	12034.94
619.255	11964.88
619.611	11930.31
619.967	12048.04
620.323	11927.82
620.678	12047.14
621.034	11977.99
621.39	11977.09
621.746	11900.93
622.101	12107.48
622.457	11941.15
622.812	12002.4
623.168	11994.94
623.523	12011.21
623.879	12095.5
624.234	12017.99
624.589	12052.79
624.945	11995.62
625.3	11999.46
625.655	12015.28
626.01	12026.12
626.365	11940.25
626.72	12015.73
627.075	11985.9
627.43	11957.2
627.785	12007.59
628.14	11905.45
628.495	11979.35
628.85	11981.83
629.205	11933.92
629.559	12024.99
629.914	11909.74
630.269	11880.82
630.623	11861.83
630.978	11873.36
631.332	11894.15
631.687	11960.59
632.041	11875.62
632.396	11974.6
632.75	11823.64
633.104	11857.99
633.459	11899.12
633.813	11856.86
634.167	11795.17
634.521	11779.8
634.875	11856.64
635.229	11868.61
635.583	11644.67
635.937	11805.57
636.291	11701.16
636.645	11691.22
636.999	11700.71
637.352	11657.32
637.706	11602.86
638.06	11606.93
638.413	11583.2
638.767	11601.95
639.121	11549.53
639.474	11522.41
639.828	11516.76
640.181	11537.1
640.534	11544.78
640.888	11463.88
641.241	11537.55
641.594	11508.4
641.947	11561.5
642.301	11548.85
642.654	11546.36
643.007	11579.81
643.36	11510.43
643.713	11434.5
644.066	11483.54
644.419	11431.79
644.771	11362.64
645.124	11240.16
645.477	11209.65
645.83	11199.71
646.182	11182.76
646.535	11106.83
646.888	11087.84
647.24	11067.73
647.593	11120.16
647.945	11173.49
648.298	11022.54
648.65	10997.9
649.002	10942.76
649.355	11039.26
649.707	11065.7
650.059	11136.2
650.411	11249.65
650.763	11222.76
651.115	11356.31
651.467	11313.15
651.819	11335.52
652.171	11314.73
652.523	11296.65
652.875	11309.08
653.227	11187.05
653.578	11388.63
653.93	11320.15
654.282	11251.68
654.633	11259.82
654.985	11250.78
655.337	11329.42
655.688	11295.07
656.039	11351.34
656.391	11301.4
656.742	11268.4
657.094	11301.17
657.445	11362.64
657.796	11351.79
658.147	11286.03
658.498	11289.65
658.849	11307.95
659.2	11280.16
659.551	11305.01
659.902	11398.34
660.253	11328.97
660.604	11304.11
660.955	11323.54
661.306	11368.74
661.656	11324.9
662.007	11330.1
662.358	11337.78
662.708	11361.96
663.059	11331
663.409	11326.03
663.76	11349.76
664.11	11352.7
664.461	11404.22
664.811	11328.29
665.161	11361.06
665.511	11289.65
665.862	11347.95
666.212	11354.28
666.562	11240.61
666.912	11357.67
667.262	11331.45
667.612	11368.51
667.962	11424.56
668.312	11326.93
668.662	11353.83
669.011	11431.79
669.361	11322.87
669.711	11342.07
670.06	11313.6
670.41	11272.25
670.76	11269.99
671.109	11382.07
671.459	11345.92
671.808	11265.01
672.157	11381.62
672.507	11249.87
672.856	11239.03
673.205	11241.74
673.554	11319.02
673.904	11173.27
674.253	11346.59
674.602	11194.28
674.951	11108.41
675.3	11041.29
675.649	11101.4
675.998	11146.15
676.346	11175.75
676.695	11191.34
677.044	11101.85
677.393	11156.99
677.741	11177.56
678.09	11133.04
678.438	11088.52
678.787	11137.33
679.135	11183.66
679.484	11045.81
679.832	11074.29
680.181	11055.98
680.529	11103.89
680.877	10958.81
681.225	11012.37
681.573	11045.13
681.922	10993.38
682.27	10962.65
682.618	10879.71
682.966	10842.65
683.314	10895.98
683.661	10824.12
684.009	10778.47
684.357	10795.42
684.705	10768.3
685.053	10773.5
685.4	10709.77
685.748	10663
686.095	10744.12
686.443	10628.2
686.79	10634.07
687.138	10636.56
687.485	10619.83
687.832	10529.89
688.18	10552.49
688.527	10490.57
688.874	10481.98
689.221	10423
689.568	10411.93
689.915	10416.68
690.262	10399.05
690.609	10405.6
690.956	10321.54
691.303	10266.62
691.65	10250.8
691.997	10363.57
692.344	10198.15
692.69	10198.83
693.037	10204.48
693.383	10068.66
693.73	10164.93
694.077	10039.51
694.423	10012.17
694.769	9990.47
695.116	10031.83
695.462	10004.26
695.808	9966.07
696.155	9952.51
696.501	9866.18
696.847	9830.7
697.193	9767.65
697.539	9781.89
697.885	9736.47
698.231	9698.95
698.577	9674.32
698.923	9623.48
699.269	9530.14
699.614	9483.37
699.96	9533.31
700.306	9487.43
700.651	9453.54
700.997	9509.35
701.342	9396.59
701.688	9364.95
702.033	9373.54
702.379	9289.93
702.724	9283.6
703.069	9267.1
703.415	9160.21
703.76	9142.36
704.105	9138.74
704.45	9131.51
704.795	9025.07
705.14	9034.34
705.485	9062.81
705.83	9040.89
706.175	8995.7
706.52	8966.77
706.865	8954.79
707.209	8872.54
707.554	8874.79
707.899	8914.57
708.243	8858.75
708.588	8801.8
708.932	8714.12
709.277	8742.59
709.621	8753.67
709.966	8664.4
710.31	8728.13
710.654	8659.66
710.998	8653.56
711.342	8655.59
711.687	8583.05
712.031	8517.74
712.375	8521.81
712.719	8531.98
713.063	8502.6
713.407	8532.43
713.75	8492.43
714.094	8444.98
714.438	8408.37
714.782	8433.68
715.125	8434.13
715.469	8438.87
715.812	8415.15
716.156	8259.67
716.499	8363.62
716.843	8369.72
717.186	8327.92
717.53	8332.21
717.873	8370.63
718.216	8257.18
718.559	8225.09
718.902	8157.53
719.246	8270.07
719.589	8219.9
719.932	8160.01
720.275	8219.67
720.617	8228.48
720.96	8215.38
721.303	8179.67
721.646	8215.38
721.989	8122.27
722.331	8182.16
722.674	8221.03
723.016	8201.37
723.359	8101.26
723.701	8148.71
724.044	8141.71
724.386	8080.69
724.729	8099
725.071	8056.29
725.413	8051.09
725.755	8078.88
726.097	8030.3
726.439	7997.98
726.782	8044.08
727.124	8043.18
727.465	8067.13
727.807	8077.08
728.149	7987.81
728.491	8037.75
728.833	8051.31
729.175	7934.03
729.516	8017.64
729.858	8021.03
730.199	8004.31
730.541	7967.47
730.882	7938.55
731.224	7958.43
731.565	7912.33
731.906	7974.93
732.248	8034.37
732.589	7956.17
732.93	7900.81
733.271	7978.1
733.612	7988.49
733.953	7989.39
734.294	7934.93
734.635	7894.03
734.976	7925.44
735.317	7980.58
735.658	7984.87
735.999	7967.93
736.339	7974.25
736.68	8014.48
737.021	7996.63
737.361	7954.37
737.702	8011.99
738.042	7933.58
738.383	8021.03
738.723	7998.89
739.063	8002.73
739.404	8006.57
739.744	7963.41
740.084	7992.33
740.424	7996.4
740.764	7998.89
741.104	8060.8
741.444	7991.43
741.784	8122.72
742.124	8070.07
742.464	8096.06
742.804	8067.36
743.143	8131.09
743.483	8113.91
743.823	8101.26
744.162	8173.34
744.502	8221.25
744.841	8216.51
745.181	8302.15
745.52	8298.54
745.86	8295.38
746.199	8275.71
746.538	8420.8
746.877	8444.75
747.216	8461.7
747.556	8472.77
747.895	8592.77
748.234	8532.66
748.573	8655.59
748.911	8621.92
749.25	8745.31
749.589	8748.7
749.928	8864.4
750.267	8866.66
750.605	8980.78
750.944	9065.98
751.283	9074.34
751.621	9155.01
751.96	9230.04
752.298	9297.61
752.636	9404.72
752.975	9448.57
753.313	9503.93
753.651	9675.68
753.989	9719.07
754.327	9855.56
754.666	9986.63
755.004	10091.71
755.342	10178.72
755.679	10280.18
756.017	10351.37
756.355	10511.81
756.693	10645.14
757.031	10879.94
757.368	10939.83
757.706	11031.12
758.044	11206.94
758.381	11383.43
758.719	11506.59
759.056	11662.97
759.394	11702.52
759.731	11786.58
760.068	12061.15
760.405	12205.33
760.743	12339.11
761.08	12496.85
761.417	12645.54
761.754	12778.2
762.091	12985.65
762.428	13063.61
762.765	13173.66
763.102	13460.44
763.438	13583.82
763.775	13671.73
764.112	13851.84
764.449	14015.9
764.785	14059.52
765.122	14250.25
765.458	14421.32
765.795	14502.67
766.131	14688.2
766.467	14822.89
766.804	14872.15
767.14	14992.6
767.476	15113.5
767.812	15216.78
768.148	15366.83
768.485	15463.77
768.821	15573.15
769.157	15700.83
769.492	15841.84
769.828	15969.98
770.164	15981.73
770.5	16041.61
770.836	16200.93
771.171	16271.44
771.507	16462.62
771.842	16425.56
772.178	16514.14
772.513	16607.47
772.849	16753.23
773.184	16825.77
773.519	16954.81
773.855	16914.81
774.19	16966.33
774.525	17072.09
774.86	17179.89
775.195	17150.74
775.53	17231.41
775.865	17140.57
776.2	17194.12
776.535	17179.44
776.87	17428.69
777.205	17317.74
777.539	17418.75
777.874	17465.98
778.209	17461.46
778.543	17451.52
778.878	17444.97
779.212	17500.78
779.547	17519.77
779.881	17604.96
780.215	17556.83
780.55	17543.95
780.884	17483.38
781.218	17549.37
781.552	17604.73
781.886	17574.23
782.22	17492.87
782.554	17653.1
782.888	17498.3
783.222	17432.08
783.556	17481.8
783.889	17467.34
784.223	17350.5
784.557	17331.97
784.89	17509.14
785.224	17470.28
785.557	17361.13
785.891	17369.94
786.224	17335.14
786.558	17393.21
786.891	17293.78
787.224	17233.22
787.557	17210.62
787.891	17262.82
788.224	17298.75
788.557	17258.3
788.89	17177.4
789.223	17260.34
789.556	17117.97
789.888	17083.17
790.221	17084.07
790.554	17099.66
790.887	17078.2
791.219	16989.38
791.552	16983.06
791.884	16973.57
792.217	16939.67
792.549	16891.08
792.882	16815.38
793.214	16793.46
793.546	16787.13
793.879	16695.38
794.211	16667.13
794.543	16740.8
794.875	16699
795.207	16662.61
795.539	16574.25
795.871	16677.98
796.203	16468.95
796.535	16429.62
796.867	16443.41
797.198	16374.71
797.53	16331.55
797.862	16343.98
798.193	16287.71
798.525	16224.21
798.856	16274.15
799.188	16084.1
799.519	16020.14
799.85	15962.07
800.182	15927.49
800.513	16038.45
800.844	15903.08
801.175	15908.28
801.506	15961.16
801.837	15798.45
802.168	15859.24
802.499	15828.06
802.83	15695.86
803.161	15796.19
803.491	15666.48
803.822	15799.58
804.153	15560.49
804.483	15509.65
804.814	15508.07
805.145	15545.13
805.475	15421.52
805.805	15469.88
806.136	15302.2
806.466	15410.67
806.796	15396.21
807.126	15227.17
807.457	15294.51
807.787	15292.25
808.117	15187.4
808.447	15070.34
808.777	15176.32
809.107	15070.79
809.436	15012.94
809.766	14993.96
810.096	15063.78
810.426	14928.87
810.755	14872.38
811.085	14947.86
811.414	14802.77
811.744	14756
812.073	14776.79
812.403	14754.19
812.732	14722.1
813.061	14766.62
813.39	14664.47
813.719	14638.94
814.049	14699.5
814.378	14604.14
814.707	14553.52
815.036	14533.18
815.365	14425.16
815.693	14345.61
816.022	14349.45
816.351	14279.62
816.68	14321.21
817.008	14396.01
817.337	14200.3
817.665	14184.71
817.994	14236.69
818.322	14186.75
818.651	14147.2
818.979	14156.92
819.307	14251.38
819.636	14137.48
819.964	14031.5
820.292	14060.65
820.62	14102.23
820.948	14049.57
821.276	14053.42
821.604	13997.37
821.932	14074.43
822.259	14056.35
822.587	13991.72
822.915	13977.26
823.243	14009.58
823.57	13921.22
823.898	14024.72
824.225	14008.45
824.553	13955.79
824.88	14022.46
825.207	14059.74
825.535	14045.05
825.862	14007.99
826.189	14085.51
826.516	14092.06
826.843	14055.68
827.17	14078.27
827.497	14048.67
827.824	13983.14
828.151	14081.21
828.478	13989.01
828.805	14171.6
829.131	14068.56
829.458	13946.3
829.785	13965.28
830.111	14075.34
830.438	14043.47
830.764	13983.14
831.09	14120.08
831.417	13963.47
831.743	14060.2
832.069	13931.61
832.395	13895.23
832.722	13984.72
833.048	13958.73
833.374	13972.29
833.7	13865.62
834.026	13831.95
834.351	13863.82
834.677	13922.57
835.003	13905.62
835.329	13930.93
835.654	13849.81
835.98	13920.31
836.306	13815
836.631	13808.9
836.956	13816.13
837.282	13875.12
837.607	13815.91
837.932	13721.22
838.258	13788.79
838.583	13676.25
838.908	13652.52
839.233	13712.86
839.558	13608.91
839.883	13537.5
840.208	13580.89
840.533	13550.38
840.858	13605.52
841.182	13578.85
841.507	13512.64
841.832	13455.24
842.156	13418.63
842.481	13383.6
842.805	13375.69
843.13	13363.72
843.454	13335.69
843.778	13300.89
844.103	13244.85
844.427	13179.54
844.751	13192.42
845.075	13193.55
845.399	13167.34
845.723	13135.25
846.047	13138.41
846.371	12927.8
846.695	12949.49
847.019	12919.89
847.343	12835.14
847.666	12754.47
847.99	12733.22
848.313	12819.55
848.637	12569.61
848.96	12621.59
849.284	12568.26
849.607	12484.64
849.931	12448.26
850.254	12414.59
850.577	12412.1
850.9	12289.39
851.223	12233.12
851.546	12227.02
851.869	12075.84
852.192	12142.05
852.515	11990.42
852.838	11977.09
853.161	11944.32
853.483	11872.46
853.806	11888.27
854.129	11830.2
854.451	11769.86
854.774	11825.68
855.096	11758.56
855.419	11714.95
855.741	11732.8
856.063	11597.21
856.385	11538.91
856.708	11619.36
857.03	11571.67
857.352	11513.6
857.674	11462.3
857.996	11414.39
858.318	11321.28
858.64	11322.64
858.961	11323.09
859.283	11267.95
859.605	11134.62
859.926	11265.69
860.248	11278.8
860.57	11216.65
860.891	11151.8
861.212	11043.78
861.534	11062.53
861.855	11005.81
862.176	11028.41
862.498	11054.62
862.819	11078.13
863.14	10941.86
863.461	10930.79
863.782	10994.29
864.103	10924.46
864.424	10917
864.745	10908.19
865.065	10877.68
865.386	10825.03
865.707	10841.97
866.027	10868.19
866.348	10768.76
866.668	10805.37
866.989	10726.72
867.309	10715.42
867.63	10767.17
867.95	10733.96
868.27	10592.94
868.59	10625.03
868.91	10603.34
869.23	10655.77
869.55	10534.86
869.87	10596.11
870.19	10560.63
870.51	10621.87
870.83	10503.23
871.15	10462.1
871.469	10551.14
871.789	10609.89
872.109	10485.15
872.428	10411.03
872.748	10408.77
873.067	10483.11
873.386	10383.46
873.706	10355.21
874.025	10347.98
874.344	10303.23
874.663	10330.12
874.982	10243.57
875.301	10364.25
875.62	10270.01
875.939	10176.68
876.258	10250.35
876.577	10178.72
876.896	10220.52
877.214	10181.43
877.533	10175.55
877.852	10144.37
878.17	10073.18
878.489	10138.49
878.807	10089.45
879.125	10120.19
879.444	10156.34
879.762	9997.7
880.08	10059.85
880.398	10066.85
880.716	10019.17
881.034	9979.62
881.352	9942.34
881.67	9955.44
881.988	9919.06
882.306	9899.63
882.624	9856.24
882.941	9812.85
883.259	9807.88
883.577	9869.8
883.894	9753.19
884.212	9758.84
884.529	9777.6
884.846	9774.66
885.164	9665.73
885.481	9670.48
885.798	9683.81
886.115	9632.06
886.432	9655.34
886.75	9570.14
887.067	9628.22
887.383	9498.28
887.7	9546.42
888.017	9520.65
888.334	9479.98
888.651	9513.65
888.967	9470.26
889.284	9430.26
889.6	9358.85
889.917	9246.54
890.233	9334.67
890.55	9282.24
890.866	9305.74
891.182	9269.81
891.498	9173.77
891.815	9145.97
892.131	9111.85
892.447	9116.37
892.763	9050.38
893.079	9119.76
893.395	8975.58
893.71	8976.04
894.026	9020.78
894.342	8926.32
894.657	8886.55
894.973	8894.91
895.289	8882.03
895.604	8892.87
895.92	8802.03
896.235	8765.19
896.55	8728.81
896.865	8701.47
897.181	8703.95
897.496	8662.82
897.811	8650.39
898.126	8617.63
898.441	8568.59
898.756	8516.39
899.071	8515.93
899.386	8534.69
899.7	8379.44
900.015	8363.17
900.33	8399.78
900.644	8316.17
900.959	8317.3
901.273	8311.42
901.588	8277.07
901.902	8206.34
902.216	8236.85
902.531	8215.6
902.845	8129.96
903.159	8110.07
903.473	8084.08
903.787	8008.83
904.101	8021.48
904.415	7993.69
904.729	7957.53
905.042	7935.84
905.356	7853.35
905.67	7911.66
905.984	7869.85
906.297	7826.91
906.611	7815.61
906.924	7807.03
907.237	7730.42
907.551	7762.73
907.864	7684.32
908.177	7673.92
908.491	7589.4
908.804	7551.89
909.117	7560.71
909.43	7574.72
909.743	7473.02
910.056	7438.45
910.368	7388.05
910.681	7388.51
910.994	7381.73
911.307	7323.88
911.619	7334.5
911.932	7299.7
912.244	7192.58
912.557	7196.65
912.869	7153.94
913.181	7178.57
913.494	7117.55
913.806	7058.12
914.118	7052.02
914.43	7019.7
914.742	6994.17
915.054	6947.84
915.366	6928.63
915.678	6898.12
915.99	6947.61
916.302	6891.57
916.613	6781.29
916.925	6742.87
917.236	6747.17
917.548	6689.77
917.859	6736.09
918.171	6684.8
918.482	6689.09
918.794	6646.6
919.105	6617.68
919.416	6560.96
919.727	6629.43
920.038	6555.99
920.349	6480.06
920.66	6440.28
920.971	6460.17
921.282	6436.44
921.593	6399.38
921.903	6336.1
922.214	6376.33
922.525	6330.68
922.835	6270.57
923.146	6344.92
923.456	6234.86
923.767	6215.66
924.077	6213.17
924.387	6189.22
924.697	6136.56
925.008	6076.45
925.318	6054.53
925.628	6062.44
925.938	6079.39
926.248	5981.76
926.558	5959.39
926.867	5988.54
927.177	5966.17
927.487	5969.56
927.796	5893.4
928.106	5847.53
928.416	5862.9
928.725	5858.83
929.034	5788.1
929.344	5788.55
929.653	5792.62
929.962	5752.62
930.271	5713.97
930.581	5682.56
930.89	5692.51
931.199	5608.67
931.508	5587.42
931.817	5637.82
932.125	5598.72
932.434	5558.95
932.743	5535.22
933.051	5514.66
933.36	5494.32
933.669	5471.72
933.977	5413.64
934.286	5419.52
934.594	5403.25
934.902	5337.26
935.21	5322.57
935.519	5369.35
935.827	5270.37
936.135	5292.06
936.443	5252.29
936.751	5220.2
937.059	5230.82
937.367	5178.62
937.674	5173.42
937.982	5189.69
938.29	5118.51
938.597	5126.42
938.905	5068.57
939.213	5097.04
939.52	4979.98
939.827	4997.16
940.135	4975.01
940.442	5000.09
940.749	4967.55
941.056	4969.36
941.363	4925.52
941.67	4890.94
941.977	4848.23
942.284	4830.38
942.591	4810.04
942.898	4813.43
943.205	4801.46
943.511	4775.69
943.818	4774.56
944.125	4707.9
944.431	4699.09
944.738	4704.28
945.044	4663.61
945.35	4652.76
945.657	4619.31
945.963	4555.36
946.269	4599.43
946.575	4611.63
946.881	4543.84
947.187	4557.17
947.493	4499.77
947.799	4458.64
948.105	4448.02
948.41	4411.64
948.716	4416.83
949.022	4452.31
949.327	4411.86
949.633	4371.18
949.938	4359.89
950.244	4347.68
950.549	4339.55
950.854	4299.77
951.16	4284.18
951.465	4307.23
951.77	4247.8
952.075	4254.35
952.38	4225.2
952.685	4232.66
952.99	4156.5
953.294	4166.44
953.599	4123.73
953.904	4112.89
954.209	4128.25
954.513	4098.42
954.818	4044.64
955.122	4046.67
955.426	3997.18
955.731	3996.73
956.035	4004.87
956.339	3999.22
956.643	3940.69
956.948	3973.91
957.252	3941.82
957.556	3944.53
957.86	3899.11
958.163	3876.96
958.467	3845.1
958.771	3850.97
959.075	3815.49
959.378	3821.82
959.682	3809.17
959.985	3803.06
960.289	3728.04
960.592	3738.66
960.896	3694.82
961.199	3719.9
961.502	3724.42
961.805	3654.59
962.108	3635.38
962.411	3663.41
962.714	3641.94
963.017	3610.3
963.32	3635.84
963.623	3547.48
963.926	3568.49
964.228	3562.39
964.531	3586.8
964.833	3532.56
965.136	3522.85
965.438	3486.46
965.741	3458.21
966.043	3478.78
966.345	3430.42
966.648	3413.7
966.95	3432.23
967.252	3432.45
967.554	3420.48
967.856	3379.57
968.158	3378.89
968.46	3355.17
968.761	3337.54
969.063	3336.18
969.365	3305.45
969.666	3300.7
969.968	3254.38
970.269	3275.62
970.571	3236.07
970.872	3229.75
971.174	3231.33
971.475	3208.05
971.776	3157.88
972.077	3183.42
972.378	3161.5
972.679	3155.17
972.98	3109.3
973.281	3111.78
973.582	3102.97
973.883	3089.64
974.183	3052.35
974.484	3122.18
974.785	3041.28
975.085	3020.49
975.386	3043.31
975.686	3059.35
975.986	2989.53
976.287	2993.37
976.587	2991.79
976.887	2953.37
977.187	2968.28
977.487	2945.91
977.787	2960.15
978.087	2919.92
978.387	2874.73
978.687	2930.32
978.987	2867.04
979.286	2871.11
979.586	2837.67
979.885	2824.11
980.185	2835.63
980.484	2807.61
980.784	2804.9
981.083	2813.03
981.382	2771.23
981.682	2776.88
981.981	2772.81
982.28	2748.18
982.579	2715.41
982.878	2703.66
983.177	2703.21
983.475	2687.16
983.774	2686.48
984.073	2678.8
984.372	2655.07
984.67	2648.29
984.969	2656.2
985.267	2632.47
985.566	2630.21
985.864	2589.08
986.162	2581.4
986.461	2584.56
986.759	2554.06
987.057	2559.48
987.355	2544.11
987.653	2524
987.951	2544.11
988.249	2521.29
988.547	2515.87
988.844	2505.92
989.142	2456.66
989.44	2453.49
989.737	2396.32
990.035	2420.28
990.332	2421.86
990.63	2385.7
990.927	2378.47
991.224	2391.8
991.521	2390.22
991.819	2385.25
992.116	2350.45
992.413	2343.44
992.71	2305.7
993.006	2320.16
993.303	2327.62
993.6	2307.28
993.897	2255.31
994.193	2297.79
994.49	2250.56
994.787	2282.43
995.083	2246.49
995.379	2232.26
995.676	2242.43
995.972	2223.9
996.268	2202.88
996.565	2201.98
996.861	2199.04
997.157	2215.08
997.453	2177.57
997.749	2181.19
998.044	2135.31
998.34	2159.27
998.636	2126.5
998.932	2115.2
999.227	2120.4
999.523	2100.96
999.818	2058.48
1000.114	2046.5
1000.409	2046.5
1000.704	2040.4
1001	2068.65
1001.295	2037.23
1001.59	2035.65
1001.885	2032.04
1002.18	2007.63
1002.475	1971.25
1002.77	1969.89
1003.065	1948.42
1003.359	1939.16
1003.654	1957.69
1003.949	1929.21
1004.243	1926.73
1004.538	1930.8
1004.832	1902.32
1005.127	1916.56
1005.421	1877.46
1005.715	1874.98
1006.009	1834.98
1006.304	1834.53
1006.598	1829.56
1006.892	1833.62
1007.186	1807.64
1007.48	1818.48
1007.773	1799.73
1008.067	1811.93
1008.361	1793.17
1008.655	1761.31
1008.948	1734.64
1009.242	1749.11
1009.535	1728.09
1009.829	1708.66
1010.122	1738.94
1010.415	1698.94
1010.708	1703.91
1011.001	1690.8
1011.295	1665.94
1011.588	1649.67
1011.881	1634.99
1012.173	1638.83
1012.466	1674.98
1012.759	1644.93
1013.052	1624.36
1013.344	1640.41
1013.637	1613.06
1013.93	1583.24
1014.222	1586.62
1014.514	1607.64
1014.807	1543.69
1015.099	1582.56
1015.391	1548.21
1015.683	1509.56
1015.976	1562.9
1016.268	1548.43
1016.56	1486.51
1016.851	1505.5
1017.143	1509.11
1017.435	1488.32
1017.727	1491.26
1018.018	1463.69
1018.31	1462.56
1018.602	1440.19
1018.893	1444.71
1019.185	1438.83
1019.476	1428.89
1019.767	1416.46
1020.058	1429.11
1020.35	1377.36
1020.641	1377.36
1020.932	1371.04
1021.223	1346.41
1021.514	1357.48
1021.804	1332.39
1022.095	1319.74
1022.386	1297.14
1022.677	1310.7
1022.967	1318.61
1023.258	1322.23
1023.548	1292.4
1023.839	1288.33
1024.129	1271.38
1024.419	1242
1024.709	1244.49
1025	1250.81
1025.29	1234.54
1025.58	1223.47
1025.87	1251.72
1026.16	1225.73
1026.449	1189.57
1026.739	1194.32
1027.029	1187.31
1027.319	1185.05
1027.608	1182.34
1027.898	1199.29
1028.187	1163.36
1028.477	1151.38
1028.766	1172.85
1029.055	1152.74
1029.344	1124.04
1029.634	1134.89
1029.923	1113.19
1030.212	1100.31
1030.501	1119.52
1030.79	1084.27
1031.078	1087.66
1031.367	1062.57
1031.656	1070.25
1031.945	1062.57
1032.233	1057.83
1032.522	1073.87
1032.81	1050.14
1033.099	1050.14
1033.387	1014.44
1033.675	1049.24
1033.963	1017.83
1034.251	1035
1034.54	1012.18
1034.828	1018.28
1035.116	996.13
1035.403	1016.92
1035.691	1011.05
1035.979	998.17
1036.267	968.56
1036.554	972.18
1036.842	957.94
1037.129	948.45
1037.417	940.77
1037.704	957.49
1037.992	924.5
1038.279	941.44
1038.566	901.67
1038.853	901.67
1039.14	901.67
