Data from hue_240_FLMS001491_00006.txt Node
Date: Tue Feb 07 16:34:59 GMT 2017
User: dcchb
Spectrometer: FLMS00149
Trigger mode: 0
Integration Time (sec): 2.000000E-2
Scans to average: 10
Electric dark correction enabled: true
Nonlinearity correction enabled: false
Boxcar width: 0
XAxis mode: Wavelengths
Number of Pixels in Spectrum: 2048
>>>>>Begin Spectral Data<<<<<
341.393	-31.76
341.776	-31.76
342.16	-31.76
342.543	-51.65
342.927	-51.43
343.31	-86.45
343.693	-63.18
344.077	-65.89
344.46	-60.69
344.843	-47.36
345.226	-23.63
345.61	-37.87
345.993	-24.76
346.376	-4.19
346.759	4.39
347.142	9.36
347.525	45.07
347.908	57.27
348.291	85.97
348.674	82.58
349.057	129.36
349.44	126.2
349.823	124.62
350.206	142.02
350.588	182.92
350.971	202.81
351.354	197.38
351.737	234.67
352.119	240.54
352.502	251.17
352.884	254.78
353.267	275.12
353.65	269.47
354.032	297.04
354.414	304.5
354.797	293.2
355.179	317.83
355.562	308.79
355.944	321.67
356.326	325.29
356.709	319.64
357.091	323.48
357.473	344.95
357.855	329.81
358.238	337.49
358.62	339.3
359.002	313.76
359.384	326.19
359.766	330.94
360.148	350.82
360.53	323.25
360.912	314.44
361.294	321.45
361.676	311.5
362.057	330.49
362.439	320.99
362.821	326.19
363.203	318.73
363.584	314.44
363.966	318.28
364.348	286.42
364.729	305.63
365.111	309.47
365.493	309.02
365.874	297.04
366.256	306.08
366.637	304.05
367.019	295.23
367.4	307.89
367.781	296.81
368.163	300.66
368.544	285.97
368.925	303.37
369.306	320.99
369.688	297.72
370.069	295.01
370.45	302.46
370.831	306.76
371.212	309.7
371.593	298.62
371.974	289.81
372.355	306.08
372.736	288.9
373.117	308.34
373.498	300.66
373.879	315.8
374.26	301.79
374.641	316.02
375.021	296.81
375.402	300.88
375.783	318.51
376.163	315.34
376.544	309.47
376.925	315.12
377.305	319.19
377.686	323.93
378.066	311.73
378.447	304.72
378.827	313.08
379.208	322.58
379.588	320.54
379.968	322.8
380.349	324.16
380.729	301.79
381.109	316.47
381.489	322.58
381.87	335.68
382.25	324.61
382.63	318.28
383.01	328.9
383.39	336.14
383.77	332.52
384.15	318.73
384.53	322.58
384.91	351.5
385.29	324.61
385.67	333.65
386.049	353.31
386.429	332.75
386.809	356.02
387.189	349.69
387.568	331.16
387.948	363.71
388.328	358.06
388.707	351.73
389.087	346.3
389.466	339.75
389.846	372.07
390.225	369.58
390.605	353.76
390.984	360.77
391.363	357.38
391.743	340.88
392.122	374.78
392.501	343.59
392.881	368.68
393.26	359.19
393.639	366.42
394.018	356.7
394.397	353.76
394.776	375.46
395.155	375.23
395.534	372.74
395.913	372.07
396.292	402.57
396.671	371.61
397.05	391.95
397.429	382.01
397.808	379.75
398.186	389.92
398.565	391.05
398.944	400.77
399.323	385.4
399.701	401.67
400.08	392.86
400.458	393.99
400.837	412.74
401.215	385.63
401.594	414.1
401.972	413.2
402.351	419.07
402.729	411.61
403.107	424.27
403.486	427.88
403.864	419.3
404.242	422.69
404.62	436.7
404.999	419.07
405.377	445.51
405.755	424.95
406.133	445.06
406.511	432.63
406.889	438.28
407.267	452.97
407.645	457.71
408.023	454.32
408.401	472.4
408.779	462.69
409.156	457.94
409.534	484.83
409.912	481.89
410.29	487.09
410.667	506.53
411.045	501.78
411.422	485.51
411.8	506.75
412.178	516.92
412.555	499.52
412.933	518.5
413.31	519.86
413.687	535.23
414.065	552.17
414.442	552.4
414.819	552.85
415.197	555.11
415.574	551.95
415.951	562.8
416.328	574.55
416.705	601.44
417.082	612.29
417.46	615.9
417.837	604.83
418.214	593.98
418.591	613.42
418.967	619.97
419.344	649.8
419.721	661.78
420.098	649.57
420.475	645.05
420.852	668.78
421.228	656.13
421.605	668.56
421.982	688.67
422.358	683.02
422.735	695
423.111	702.23
423.488	721.44
423.864	723.47
424.241	735.22
424.617	749.23
424.994	738.61
425.37	769.8
425.746	761.66
426.123	788.78
426.499	788.78
426.875	784.71
427.251	815.44
427.627	819.96
428.003	828.33
428.379	838.04
428.756	829.46
429.132	856.12
429.507	867.42
429.883	885.27
430.259	886.18
430.635	883.24
431.011	894.99
431.387	907.42
431.763	915.56
432.138	933.18
432.514	943.12
432.89	949.68
433.265	992.16
433.641	1020.19
434.016	1013.41
434.392	1014.54
434.767	1045.27
435.143	1054.31
435.518	1033.52
435.894	1064.7
436.269	1079.39
436.644	1099.05
437.02	1115.32
437.395	1115.55
437.77	1164.14
438.145	1160.75
438.52	1184.25
438.895	1193.51
439.271	1188.32
439.646	1205.26
440.021	1243
440.395	1232.16
440.77	1221.99
441.145	1252.04
441.52	1276
441.895	1294.98
442.27	1309.67
442.645	1295.43
443.019	1309.44
443.394	1344.24
443.769	1354.87
444.143	1328.2
444.518	1373.62
444.892	1393.28
445.267	1387.41
445.641	1377.92
446.016	1380.18
446.39	1412.94
446.764	1406.84
447.139	1427.63
447.513	1469.66
447.887	1436.9
448.262	1459.04
448.636	1481.42
449.01	1470.57
449.384	1504.47
449.758	1510.79
450.132	1539.49
450.506	1520.51
450.88	1555.09
451.254	1538.82
451.628	1559.38
452.002	1598.25
452.376	1593.28
452.75	1619.72
453.123	1588.08
453.497	1636.89
453.871	1642.54
454.244	1682.54
454.618	1685.93
454.992	1695.2
455.365	1706.04
455.739	1704.91
456.112	1784.91
456.486	1735.65
456.859	1766.61
457.232	1792.14
457.606	1785.81
457.979	1839.37
458.352	1884.34
458.725	1897.9
459.099	1901.29
459.472	1943.55
459.845	1931.12
460.218	1957.11
460.591	1943.55
460.964	1996.43
461.337	2008.18
461.71	2024
462.083	2061.97
462.456	2063.55
462.829	2075.07
463.201	2105.35
463.574	2130.44
463.947	2157.1
464.32	2181.74
464.692	2198.01
465.065	2201.17
465.438	2274.62
465.81	2275.52
466.183	2298.57
466.555	2345.57
466.928	2386.7
467.3	2338.79
467.672	2377.21
468.045	2422.18
468.417	2453.82
468.789	2450.88
469.161	2472.8
469.534	2535.85
469.906	2590.99
470.278	2589.18
470.65	2653.14
471.022	2670.54
471.394	2679.12
471.766	2713.47
472.138	2743.08
472.51	2802.06
472.882	2839.8
473.253	2846.13
473.625	2877.31
473.997	2933.81
474.369	2985.78
474.74	3004.54
475.112	3074.14
475.484	3088.15
475.855	3113.46
476.227	3185.1
476.598	3214.03
476.97	3258.54
477.341	3261.26
477.713	3337.86
478.084	3401.37
478.455	3441.36
478.827	3473.45
479.198	3566.78
479.569	3570.85
479.94	3615.37
480.311	3670.96
480.682	3741.24
481.053	3760.45
481.424	3870.96
481.795	3898.3
482.166	3922.03
482.537	3966.77
482.908	4050.16
483.279	4050.16
483.65	4131.52
484.021	4217.62
484.391	4241.34
484.762	4295.58
485.133	4327.89
485.503	4331.28
485.874	4461.68
486.244	4493.77
486.615	4560.43
486.985	4574.67
487.356	4701.22
487.726	4700.09
488.097	4746.87
488.467	4833.42
488.837	4888.78
489.207	4923.13
489.578	5036.35
489.948	5000.19
490.318	5056.69
490.688	5109.34
491.058	5131.49
491.428	5229.34
491.798	5244.71
492.168	5396.12
492.538	5367.87
492.908	5399.05
493.278	5476.34
493.648	5461.42
494.017	5533.06
494.387	5562.66
494.757	5625.04
495.126	5662.55
495.496	5685.6
495.866	5688.76
496.235	5775.09
496.605	5748.65
496.974	5792.04
497.344	5894.41
497.713	5875.88
498.082	5909.55
498.452	6006.72
498.821	6027.51
499.19	5997.68
499.559	6002.88
499.928	5994.07
500.298	6059.6
500.667	6175.3
501.036	6104.35
501.405	6190.22
501.774	6195.42
502.143	6180.73
502.512	6224.79
502.88	6233.83
503.249	6307.73
503.618	6316.09
503.987	6375.3
504.356	6335.98
504.724	6398.12
505.093	6364.23
505.462	6366.71
505.83	6431.57
506.199	6468.4
506.567	6488.06
506.936	6534.16
507.304	6539.81
507.672	6585.69
508.041	6645.57
508.409	6601.28
508.777	6664.78
509.145	6732.35
509.514	6721.5
509.882	6775.97
510.25	6788.85
510.618	6741.62
510.986	6787.49
511.354	6877.88
511.722	6866.58
512.09	6862.07
512.458	6872.69
512.826	6914.72
513.193	6923.76
513.561	6928.5
513.929	6927.15
514.297	6994.27
514.664	6987.03
515.032	7055.05
515.4	7065
515.767	7012.12
516.135	7013.7
516.502	7040.59
516.869	7121.04
517.237	7117.43
517.604	7086.24
517.972	7130.98
518.339	7172.57
518.706	7171.44
519.073	7169.18
519.44	7191.1
519.808	7248.72
520.175	7165.79
520.542	7274.03
520.909	7214.37
521.276	7263.18
521.643	7302.05
522.009	7369.4
522.376	7356.52
522.743	7344.09
523.11	7418.43
523.477	7406.91
523.843	7420.02
524.21	7496.4
524.577	7530.07
524.943	7513.35
525.31	7513.57
525.676	7594.7
526.043	7583.85
526.409	7575.72
526.776	7669.95
527.142	7619.33
527.508	7684.19
527.874	7664.76
528.241	7735.04
528.607	7649.16
528.973	7673.34
529.339	7684.87
529.705	7710.4
530.071	7755.15
530.437	7766.67
530.803	7769.61
531.169	7774.36
531.535	7779.78
531.901	7795.37
532.267	7801.02
532.632	7811.42
532.998	7832.21
533.364	7827.92
533.73	7850.51
534.095	7807.13
534.461	7836.73
534.826	7839.44
535.192	7821.36
535.557	7902.94
535.923	7866.11
536.288	7826.56
536.653	7846.67
537.019	7866.33
537.384	7786.33
537.749	7882.38
538.114	7796.28
538.479	7783.17
538.845	7779.56
539.21	7773
539.575	7774.58
539.94	7816.62
540.305	7823.4
540.67	7812.1
541.034	7808.26
541.399	7803.74
541.764	7799.22
542.129	7745.43
542.494	7779.33
542.858	7762.61
543.223	7782.95
543.587	7734.58
543.952	7747.01
544.316	7705.21
544.681	7666.34
545.045	7772.1
545.41	7701.37
545.774	7723.51
546.138	7708.6
546.503	7691.42
546.867	7663.17
547.231	7736.39
547.595	7667.92
547.959	7636.28
548.324	7645.1
548.688	7668.82
549.052	7626.57
549.416	7684.42
549.779	7671.31
550.143	7648.49
550.507	7638.54
550.871	7647.13
551.235	7577.07
551.599	7699.56
551.962	7650.52
552.326	7599.22
552.689	7705.88
553.053	7570.07
553.417	7582.72
553.78	7737.3
554.143	7603.97
554.507	7699.56
554.87	7645.55
555.234	7689.84
555.597	7661.14
555.96	7650.97
556.323	7703.63
556.686	7626.34
557.05	7659.11
557.413	7681.93
557.776	7702.95
558.139	7638.77
558.502	7657.75
558.865	7726
559.228	7697.75
559.59	7707.24
559.953	7694.81
560.316	7798.54
560.679	7820.23
561.041	7757.41
561.404	7779.33
561.767	7782.49
562.129	7769.16
562.492	7892.32
562.854	7781.36
563.217	7830.18
563.579	7803.96
563.941	7928.7
564.304	7934.35
564.666	7929.16
565.028	7914.69
565.39	7966.22
565.753	7992.21
566.115	7994.24
566.477	7999.44
566.839	8023.16
567.201	8013.9
567.563	8015.71
567.925	8062.49
568.287	8090.06
568.648	8091.41
569.01	8120.11
569.372	8154.46
569.734	8068.14
570.095	8167.34
570.457	8168.25
570.819	8184.74
571.18	8190.39
571.542	8215.48
571.903	8302.93
572.265	8322.59
572.626	8292.99
572.987	8286.21
573.349	8367.34
573.71	8337.51
574.071	8343.16
574.432	8329.37
574.794	8442.81
575.155	8447.33
575.516	8447.11
575.877	8404.62
576.238	8476.71
576.599	8476.71
576.96	8532.3
577.32	8554
577.681	8538.18
578.042	8604.17
578.403	8578.4
578.763	8636.48
579.124	8538.41
579.485	8584.73
579.845	8630.38
580.206	8615.92
580.566	8689.14
580.927	8680.77
581.287	8714.67
581.648	8663.83
582.008	8715.58
582.368	8767.55
582.728	8745.86
583.089	8722.13
583.449	8774.11
583.809	8787.21
584.169	8826.31
584.529	8784.05
584.889	8874.44
585.249	8787.89
585.609	8831.28
585.969	8884.16
586.329	8892.29
586.688	8890.71
587.048	8853.65
587.408	8835.8
587.768	8879.41
588.127	8908.79
588.487	8875.57
588.846	8898.85
589.206	8834.67
589.565	8890.94
589.925	8965.06
590.284	8933.42
590.643	8945.85
591.003	8977.49
591.362	8999.18
591.721	9002.35
592.08	8982.46
592.44	9003.93
592.799	9046.41
593.158	9088
593.517	8998.28
593.876	9034.89
594.235	9030.14
594.593	9073.31
594.952	9103.14
595.311	9061.33
595.67	9049.13
596.029	9113.31
596.387	9120.54
596.746	9117.83
597.104	9098.39
597.463	9098.39
597.822	9158.28
598.18	9092.74
598.538	9148.78
598.897	9235.11
599.255	9091.84
599.613	9162.12
599.972	9180.65
600.33	9214.77
600.688	9190.82
601.046	9202.12
601.404	9156.92
601.762	9199.41
602.12	9218.61
602.478	9235.34
602.836	9245.28
603.194	9256.58
603.552	9254.09
603.91	9219.29
604.268	9233.53
604.625	9174.77
604.983	9223.13
605.341	9230.82
605.698	9267.2
606.056	9252.74
606.413	9322.34
606.771	9215.45
607.128	9299.52
607.485	9255.9
607.843	9322.34
608.2	9343.81
608.557	9358.04
608.914	9292.96
609.272	9335.22
609.629	9361.43
609.986	9439.4
610.343	9328.22
610.7	9411.83
611.057	9349.68
611.414	9431.26
611.771	9384.71
612.127	9425.61
612.484	9429.46
612.841	9462.45
613.198	9450.02
613.554	9435.78
613.911	9529.79
614.267	9443.47
614.624	9423.13
614.98	9457.93
615.337	9522.79
615.693	9533.41
616.05	9483.01
616.406	9476.69
616.762	9447.31
617.118	9538.15
617.475	9503.58
617.831	9539.51
618.187	9571.37
618.543	9609.34
618.899	9642.78
619.255	9555.33
619.611	9557.59
619.967	9579.28
620.323	9594.2
620.678	9649.34
621.034	9542.22
621.39	9559.85
621.746	9554.88
622.101	9675.78
622.457	9618.6
622.812	9607.76
623.168	9594.42
623.523	9626.29
623.879	9710.13
624.234	9550.81
624.589	9623.8
624.945	9598.26
625.3	9602.11
625.655	9632.61
626.01	9639.62
626.365	9633.07
626.72	9623.8
627.075	9618.38
627.43	9566.85
627.785	9578.6
628.14	9599.17
628.495	9585.16
628.85	9582.9
629.205	9487.08
629.559	9547.64
629.914	9558.72
630.269	9520.98
630.623	9531.37
630.978	9513.75
631.332	9516.91
631.687	9589.45
632.041	9483.69
632.396	9490.47
632.75	9418.16
633.104	9471.49
633.459	9408.21
633.813	9428.1
634.167	9451.6
634.521	9434.43
634.875	9482.11
635.229	9456.12
635.583	9392.17
635.937	9378.84
636.291	9355.33
636.645	9374.77
636.999	9370.47
637.352	9349.23
637.706	9378.84
638.06	9306.75
638.413	9307.65
638.767	9277.14
639.121	9292.28
639.474	9260.42
639.828	9235.56
640.181	9252.74
640.534	9268.33
640.888	9257.93
641.241	9196.47
641.594	9288.22
641.947	9254.32
642.301	9228.56
642.654	9278.5
643.007	9222.68
643.36	9160.08
643.713	9240.53
644.066	9233.08
644.419	9160.54
644.771	9036.25
645.124	8975.23
645.477	8923.03
645.83	8945.17
646.182	8909.92
646.535	8843.93
646.888	8873.76
647.24	8850.49
647.593	8968.68
647.945	8825.18
648.298	8877.61
648.65	8865.85
649.002	8791.73
649.355	8845.74
649.707	8818.62
650.059	8832.63
650.411	8945.85
650.763	8972.74
651.115	9052.06
651.467	9029.24
651.819	8981.78
652.171	9057.26
652.523	9003.48
652.875	9077.83
653.227	8942.69
653.578	8980.2
653.93	9099.97
654.282	9018.84
654.633	8962.35
654.985	8980.65
655.337	9010.26
655.688	8992.4
656.039	8994.89
656.391	8926.87
656.742	8996.7
657.094	8957.15
657.445	9013.65
657.796	9055.68
658.147	8941.78
658.498	8990.37
658.849	9084.15
659.2	8955.8
659.551	9017.49
659.902	8976.13
660.253	8943.82
660.604	9038.51
660.955	8901.11
661.306	8978.85
661.656	9017.49
662.007	8946.76
662.358	8968
662.708	8980.43
663.059	8947.89
663.409	8963.03
663.76	9032.63
664.11	8965.29
664.461	8957.15
664.811	8999.64
665.161	8982.24
665.511	9000.99
665.862	8977.26
666.212	9027.66
666.562	9039.18
666.912	8989.47
667.262	9001.67
667.612	8945.63
667.962	9000.09
668.312	9000.09
668.662	9031.05
669.011	8993.31
669.361	8920.99
669.711	8965.96
670.06	8912.18
670.41	8979.52
670.76	8862.24
671.109	8918.51
671.459	8977.94
671.808	8911.05
672.157	8914.89
672.507	8902.24
672.856	8855.91
673.205	8846.19
673.554	8947.66
673.904	8920.09
674.253	8898.4
674.602	8953.76
674.951	8776.82
675.3	8749.47
675.649	8918.28
675.998	8842.8
676.346	8844.84
676.695	8849.36
677.044	8849.36
677.393	8838.96
677.741	8796.25
678.09	8853.2
678.438	8817.49
678.787	8726.42
679.135	8785.4
679.484	8745.41
679.832	8801.45
680.181	8741.56
680.529	8744.05
680.877	8668.57
681.225	8657.5
681.573	8685.75
681.922	8659.76
682.27	8595.58
682.618	8587.22
682.966	8543.6
683.314	8624.05
683.661	8557.39
684.009	8472.42
684.357	8532.3
684.705	8487.56
685.053	8497.28
685.4	8506.54
685.748	8467.22
686.095	8424.74
686.443	8483.49
686.79	8429.93
687.138	8433.78
687.485	8423.61
687.832	8455.7
688.18	8357.17
688.527	8322.37
688.874	8297.06
689.221	8255.02
689.568	8280.56
689.915	8163.27
690.262	8191.3
690.609	8176.83
690.956	8131.18
691.303	8195.82
691.65	8114.24
691.997	8098.19
692.344	8063.62
692.69	8062.49
693.037	8043.96
693.383	7967.12
693.73	7976.84
694.077	7932.77
694.423	7907.24
694.769	7941.81
695.116	7911.3
695.462	7846.45
695.808	7809.16
696.155	7850.06
696.501	7721.25
696.847	7774.58
697.193	7715.6
697.539	7782.72
697.885	7657.07
698.231	7656.85
698.577	7598.77
698.923	7645.32
699.269	7561.48
699.614	7571.65
699.96	7486.91
700.306	7499.11
700.651	7513.8
700.997	7435.84
701.342	7401.03
701.688	7434.25
702.033	7348.15
702.379	7365.33
702.724	7316.52
703.069	7343.63
703.415	7320.58
703.76	7265.9
704.105	7257.99
704.45	7262.73
704.795	7186.8
705.14	7132.34
705.485	7137.76
705.83	7175.28
706.175	7131.44
706.52	7102.06
706.865	7064.09
707.209	7059.12
707.554	7038.56
707.899	7058.67
708.243	7001.72
708.588	7026.13
708.932	6984.55
709.277	6936.19
709.621	6943.42
709.966	6908.17
710.31	6875.4
710.654	6874.72
710.998	6853.03
711.342	6853.93
711.687	6861.84
712.031	6792.01
712.375	6817.77
712.719	6827.26
713.063	6818.9
713.407	6816.19
713.75	6742.75
714.094	6763.54
714.438	6746.36
714.782	6724.67
715.125	6639.47
715.469	6716.08
715.812	6656.42
716.156	6685.57
716.499	6650.55
716.843	6636.53
717.186	6593.15
717.53	6633.37
717.873	6659.81
718.216	6615.74
718.559	6599.02
718.902	6533.71
719.246	6559.02
719.589	6627.5
719.932	6553.37
720.275	6495.75
720.617	6537.33
720.96	6537.78
721.303	6541.17
721.646	6553.6
721.989	6516.99
722.331	6499.59
722.674	6482.19
723.016	6446.71
723.359	6489.65
723.701	6453.49
724.044	6404.22
724.386	6413.72
724.729	6467.73
725.071	6450.32
725.413	6390.44
725.755	6425.92
726.097	6396.09
726.439	6378.01
726.782	6306.37
727.124	6437.67
727.465	6362.42
727.807	6406.94
728.149	6330.33
728.491	6343.89
728.833	6328.97
729.175	6365.36
729.516	6332.81
729.858	6338.24
730.199	6371.68
730.541	6310.44
730.882	6335.53
731.224	6364.68
731.565	6349.99
731.906	6311.57
732.248	6381.4
732.589	6321.51
732.93	6276.09
733.271	6263.44
733.612	6340.5
733.953	6331.68
734.294	6281.52
734.635	6338.24
734.976	6318.12
735.317	6328.07
735.658	6341.63
735.999	6318.8
736.339	6332.59
736.68	6325.81
737.021	6307.73
737.361	6311.35
737.702	6313.38
738.042	6295.98
738.383	6350.89
738.723	6366.03
739.063	6299.14
739.404	6322.42
739.744	6341.4
740.084	6305.24
740.424	6347.95
740.764	6302.98
741.104	6371.23
741.444	6363.55
741.784	6359.93
742.124	6358.12
742.464	6392.02
742.804	6360.84
743.143	6303.21
743.483	6425.24
743.823	6399.25
744.162	6480.61
744.502	6458.23
744.841	6409.2
745.181	6513.37
745.52	6459.82
745.86	6520.61
746.199	6505.69
746.538	6490.55
746.877	6553.37
747.216	6629.08
747.556	6611.9
747.895	6664.78
748.234	6747.72
748.573	6667.27
748.911	6742.52
749.25	6790.2
749.589	6745.91
749.928	6850.77
750.267	6912.69
750.605	6938.22
750.944	6961.72
751.283	6991.78
751.621	7058.44
751.96	7095.28
752.298	7117.43
752.636	7210.3
752.975	7240.59
753.313	7286.23
753.651	7392.67
753.989	7496.17
754.327	7486.46
754.666	7564.42
755.004	7744.53
755.342	7759.89
755.679	7810.51
756.017	7878.31
756.355	7972.54
756.693	8065.65
757.031	8151.07
757.368	8165.31
757.706	8251.41
758.044	8312.65
758.381	8442.36
758.719	8477.39
759.056	8664.5
759.394	8705.41
759.731	8808.23
760.068	8925.29
760.405	8995.12
760.743	9028.56
761.08	9250.03
761.417	9335.9
761.754	9400.3
762.091	9517.36
762.428	9578.15
762.765	9663.35
763.102	9860.63
763.438	9920.06
763.775	9950.12
764.112	10042.32
764.449	10191.92
764.785	10242.99
765.122	10350.34
765.458	10379.04
765.795	10484.57
766.131	10550.56
766.467	10690.44
766.804	10692.02
767.14	10764.34
767.476	10835.29
767.812	10918.46
768.148	11011.79
768.485	11078.23
768.821	11061.28
769.157	11193.02
769.492	11253.59
769.828	11285.45
770.164	11294.04
770.5	11399.57
770.836	11465.11
771.171	11431.21
771.507	11625.33
771.842	11544.65
772.178	11603.18
772.513	11667.59
772.849	11685.89
773.184	11733.58
773.519	11789.39
773.855	11791.2
774.19	11803.4
774.525	11818.32
774.86	11948.71
775.195	11922.72
775.53	11902.16
775.865	11934.7
776.2	11943.51
776.535	11849.96
776.87	11938.54
777.205	12056.51
777.539	12025.09
777.874	12074.58
778.209	11988.94
778.543	12019.67
778.878	11929.28
779.212	12056.96
779.547	11985.32
779.881	12132.66
780.215	12007.47
780.55	12093.79
780.884	12073.45
781.218	12088.59
781.552	12079.78
781.886	12037.97
782.22	11970.41
782.554	12090.85
782.888	11881.37
783.222	11914.59
783.556	11918.66
783.889	11881.37
784.223	11801.82
784.557	11888.37
784.89	11917.98
785.224	11844.99
785.557	11793.24
785.891	11809.28
786.224	11828.49
786.558	11768.83
786.891	11679.11
787.224	11734.25
787.557	11680.24
787.891	11718.43
788.224	11741.03
788.557	11701.03
788.89	11749.62
789.223	11696.51
789.556	11602.96
789.888	11597.53
790.221	11577.2
790.554	11521.15
790.887	11500.59
791.219	11501.94
791.552	11520.25
791.884	11422.4
792.217	11447.71
792.549	11372
792.882	11346.24
793.214	11295.17
793.546	11306.92
793.879	11277.77
794.211	11219.46
794.543	11261.72
794.875	11143.53
795.207	11268.73
795.539	11204.1
795.871	11232.57
796.203	11101.05
796.535	11065.12
796.867	11055.4
797.198	11052.46
797.53	11003.88
797.862	10972.24
798.193	11000.94
798.525	10926.82
798.856	10899.93
799.188	10915.29
799.519	10830.77
799.85	10758.46
800.182	10810.66
800.513	10782.64
800.844	10678.91
801.175	10778.57
801.506	10775.41
801.837	10711.46
802.168	10622.42
802.499	10650.44
802.83	10619.48
803.161	10567.73
803.491	10592.59
803.822	10606.83
804.153	10539.71
804.483	10449.09
804.814	10465.36
805.145	10422.2
805.475	10451.12
805.805	10373.16
806.136	10347.62
806.466	10405.7
806.796	10352.82
807.126	10248.19
807.457	10290
807.787	10272.37
808.117	10284.35
808.447	10166.39
808.777	10203.9
809.107	10146.5
809.436	10096.1
809.766	10138.59
810.096	10119.61
810.426	10017.24
810.755	10070.12
811.085	10017.69
811.414	10070.12
811.744	9985.37
812.073	9920.06
812.403	9928.65
812.732	9907.18
813.061	9863.12
813.39	9860.4
813.719	9806.85
814.049	9881.65
814.378	9872.16
814.707	9739.73
815.036	9755.55
815.365	9721.2
815.693	9678.49
816.022	9710.58
816.351	9696.34
816.68	9661.31
817.008	9670.81
817.337	9557.36
817.665	9567.76
817.994	9587.19
818.322	9559.62
818.651	9500.64
818.979	9547.42
819.307	9552.16
819.636	9498.38
819.964	9510.58
820.292	9530.92
820.62	9508.32
820.948	9450.92
821.276	9520.98
821.604	9386.74
821.932	9438.04
822.259	9446.4
822.587	9420.64
822.915	9428.1
823.243	9501.32
823.57	9448.66
823.898	9402.11
824.225	9418.38
824.553	9422.22
824.88	9457.7
825.207	9447.31
825.535	9415.67
825.862	9438.95
826.189	9396.69
826.516	9476.01
826.843	9468.55
827.17	9423.58
827.497	9422.45
827.824	9472.17
828.151	9524.14
828.478	9496.12
828.805	9499.28
829.131	9408.21
829.458	9410.25
829.785	9372.28
830.111	9421.09
830.438	9457.03
830.764	9462.67
831.09	9426.74
831.417	9382
831.743	9476.46
832.069	9464.48
832.395	9406.63
832.722	9437.59
833.048	9443.01
833.374	9460.42
833.7	9415.44
834.026	9419.51
834.351	9404.15
834.677	9377.48
835.003	9452.73
835.329	9367.54
835.654	9460.42
835.98	9336.12
836.306	9351.72
836.631	9283.7
836.956	9320.31
837.282	9368.44
837.607	9267.2
837.932	9230.36
838.258	9272.62
838.583	9251.61
838.908	9157.82
839.233	9292.96
839.558	9127.54
839.883	9122.34
840.208	9110.82
840.533	9127.32
840.858	9089.8
841.182	9106.98
841.507	9078.73
841.832	9026.98
842.156	8997.83
842.481	9078.5
842.805	9091.39
843.13	9003.93
843.454	9005.74
843.778	8931.62
844.103	8927.55
844.427	8890.03
844.751	8875.35
845.075	8842.13
845.399	8851.17
845.723	8814.78
846.047	8856.36
846.371	8711.96
846.695	8780.88
847.019	8723.03
847.343	8668.12
847.666	8565.75
847.99	8601.23
848.313	8574.79
848.637	8500.67
848.96	8490.05
849.284	8447.33
849.607	8474.9
849.931	8460.44
850.254	8413.89
850.577	8341.35
850.9	8329.82
851.223	8241.92
851.546	8217.06
851.869	8183.84
852.192	8295.7
852.515	8144.29
852.838	8142.48
853.161	8140.45
853.483	8073.33
853.806	8090.51
854.129	8043.5
854.451	8027.68
854.774	7970.28
855.096	7938.87
855.419	7953.79
855.741	7911.53
856.063	7924.64
856.385	7875.82
856.708	7857.29
857.03	7775.71
857.352	7798.09
857.674	7776.17
857.996	7718.54
858.318	7667.69
858.64	7694.59
858.961	7724.42
859.283	7662.5
859.605	7585.21
859.926	7652.33
860.248	7591.76
860.57	7533.23
860.891	7569.39
861.212	7504.53
861.534	7528.26
861.855	7458.66
862.176	7468.83
862.498	7497.75
862.819	7484.42
863.14	7409.62
863.461	7412.33
863.782	7408.94
864.103	7436.29
864.424	7362.84
864.745	7432.22
865.065	7317.42
865.386	7306.57
865.707	7344.54
866.027	7381.83
866.348	7363.52
866.668	7363.3
866.989	7261.38
867.309	7266.35
867.63	7237.65
867.95	7238.78
868.27	7187.93
868.59	7228.61
868.91	7233.58
869.23	7236.29
869.55	7164.2
869.87	7194.26
870.19	7156.29
870.51	7182.06
870.83	7182.06
871.15	7146.35
871.469	7105.9
871.789	7142.06
872.109	7122.4
872.428	7065.22
872.748	7143.19
873.067	7081.04
873.386	7088.05
873.706	7042.17
874.025	7010.99
874.344	7036.98
874.663	6994.94
874.982	7028.39
875.301	7014.6
875.62	6963.31
875.939	7000.59
876.258	6947.94
876.577	6912.46
876.896	6990.88
877.214	6965.11
877.533	6926.92
877.852	6880.6
878.17	6943.42
878.489	6853.25
878.807	6816.64
879.125	6888.73
879.444	6835.4
879.762	6781.84
880.08	6788.62
880.398	6857.77
880.716	6772.8
881.034	6795.17
881.352	6829.52
881.67	6763.31
881.988	6756.08
882.306	6728.96
882.624	6711.56
882.941	6716.31
883.259	6668.85
883.577	6658
883.894	6621.85
884.212	6640.6
884.529	6656.87
884.846	6669.08
885.164	6627.5
885.481	6586.37
885.798	6632.24
886.115	6557.89
886.432	6533.26
886.75	6492.81
887.067	6557.67
887.383	6509.31
887.7	6511.34
888.017	6534.16
888.334	6462.75
888.651	6471.12
888.967	6476.76
889.284	6391.8
889.6	6422.53
889.917	6374.85
890.233	6355.86
890.55	6337.11
890.866	6352.7
891.182	6366.49
891.498	6357.9
891.815	6313.15
892.131	6283.1
892.447	6285.36
892.763	6228.64
893.079	6160.16
893.395	6171.69
893.71	6183.44
894.026	6193.38
894.342	6148.41
894.657	6097.79
894.973	6125.36
895.289	6099.15
895.604	6070.22
895.92	6017.79
896.235	5952.71
896.55	6007.62
896.865	5947.51
897.181	5938.02
897.496	5975.76
897.811	5908.42
898.126	5908.64
898.441	5868.19
898.756	5867.06
899.071	5830
899.386	5792.94
899.7	5737.58
900.015	5732.6
900.33	5718.37
900.644	5749.33
900.959	5763.11
901.273	5705.26
901.588	5679.5
901.902	5640.18
902.216	5638.14
902.531	5639.95
902.845	5579.39
903.159	5635.43
903.473	5573.74
903.787	5550.69
904.101	5537.58
904.415	5475.66
904.729	5487.86
905.042	5395.89
905.356	5376.91
905.67	5386.62
905.984	5432.05
906.297	5412.84
906.611	5353.18
906.924	5404.7
907.237	5342.11
907.551	5273.41
907.864	5238.83
908.177	5236.8
908.491	5312.5
908.804	5187.53
909.117	5220.3
909.43	5170.58
909.743	5216.23
910.056	5161.77
910.368	5097.82
910.681	5125.84
910.994	5127.65
911.307	5108.89
911.619	5057.37
911.932	5037.71
912.244	4999.29
912.557	5000.87
912.869	4948.44
913.181	4941.44
913.494	4954.32
913.806	4903.92
914.118	4873.19
914.43	4859.63
914.742	4856.24
915.054	4863.47
915.366	4835.23
915.678	4814.89
915.99	4775.57
916.302	4740.09
916.613	4765.17
916.925	4724.04
917.236	4685.85
917.548	4668.68
917.859	4672.52
918.171	4603.37
918.482	4651.28
918.794	4623.48
919.105	4600.2
919.416	4556.59
919.727	4575.35
920.038	4534.89
920.349	4555.69
920.66	4534.22
920.971	4520.88
921.282	4470.94
921.593	4455.12
921.903	4488.12
922.214	4396.14
922.525	4399.53
922.835	4374.22
923.146	4348.91
923.456	4343.26
923.767	4332.87
924.077	4313.88
924.387	4290.16
924.697	4241.12
925.008	4233.66
925.318	4232.3
925.628	4217.84
925.938	4232.98
926.248	4169.48
926.558	4169.93
926.867	4183.04
927.177	4145.75
927.487	4112.76
927.796	4120.44
928.106	4084.51
928.416	4045.87
928.725	4037.05
929.034	4057.39
929.344	4042.25
929.653	4040.44
929.962	3987.34
930.271	3980.11
930.581	3948.92
930.89	3927.68
931.199	3902.37
931.508	3894.01
931.817	3930.39
932.125	3904.4
932.434	3883.39
932.743	3844.07
933.051	3863.73
933.36	3818.98
933.669	3815.14
933.977	3816.95
934.286	3822.37
934.594	3751.86
934.902	3774.91
935.21	3752.54
935.519	3741.92
935.827	3715.93
936.135	3720.45
936.443	3628.93
936.751	3654.47
937.059	3695.82
937.367	3612.21
937.674	3655.82
937.982	3623.28
938.29	3626.67
938.597	3631.42
938.905	3536.73
939.213	3529.5
939.52	3542.38
939.827	3514.81
940.135	3529.5
940.442	3444.75
940.749	3468.03
941.056	3491.08
941.363	3452.44
941.67	3423.51
941.977	3424.19
942.284	3408.6
942.591	3391.2
942.898	3339.9
943.205	3376.96
943.511	3337.19
943.818	3336.06
944.125	3340.8
944.431	3287.47
944.738	3285.89
945.044	3300.58
945.35	3260.8
945.657	3266.45
945.963	3222.84
946.269	3178.55
946.575	3229.39
946.881	3212.9
947.187	3194.37
947.493	3184.65
947.799	3169.51
948.105	3122.05
948.41	3100.58
948.716	3144.65
949.022	3113.92
949.327	3105.55
949.633	3080.24
949.938	3057.87
950.244	3057.65
950.549	3025.1
950.854	3021.71
951.16	3004.99
951.465	2998.66
951.77	2972.45
952.075	3001.38
952.38	2967.48
952.685	2924.54
952.99	2915.05
953.294	2939.91
953.599	2934.48
953.904	2918.67
954.209	2878.44
954.513	2862.62
954.818	2906.01
955.122	2866.24
955.426	2867.14
955.731	2837.31
956.035	2812.91
956.339	2851.55
956.643	2808.39
956.948	2783.08
957.252	2780.82
957.556	2757.31
957.86	2781.95
958.163	2765.22
958.467	2756.41
958.771	2729.74
959.075	2719.8
959.378	2694.04
959.682	2697.2
959.985	2676.41
960.289	2648.84
960.592	2660.59
960.896	2647.94
961.199	2654.27
961.502	2636.19
961.805	2619.47
962.108	2647.03
962.411	2598.67
962.714	2567.49
963.017	2573.14
963.32	2584.66
963.623	2534.5
963.926	2518.45
964.228	2522.29
964.531	2505.8
964.833	2536.53
965.136	2501.95
965.438	2473.25
965.741	2428.06
966.043	2480.26
966.345	2458.57
966.648	2422.86
966.95	2439.58
967.252	2445.91
967.554	2412.92
967.856	2416.08
968.158	2372.24
968.46	2387.15
968.761	2397.1
969.063	2379.47
969.365	2365.91
969.666	2387.38
969.968	2318.91
970.269	2327.04
970.571	2324.33
970.872	2305.35
971.174	2281.62
971.475	2290.43
971.776	2276.88
972.077	2263.32
972.378	2281.39
972.679	2255.18
972.98	2221.96
973.281	2236.88
973.582	2242.07
973.883	2208.18
974.183	2223.09
974.484	2214.05
974.785	2179.7
975.085	2191.91
975.386	2179.7
975.686	2186.93
975.986	2139.03
976.287	2202.98
976.587	2127.73
976.887	2129.99
977.187	2094.51
977.487	2122.75
977.787	2089.54
978.087	2099.25
978.387	2121.4
978.687	2119.82
978.987	2065.81
979.286	2076.2
979.586	2071
979.885	2061.51
980.185	2024.23
980.484	2034.85
980.784	2021.29
981.083	2022.42
981.382	1976.32
981.682	2001.63
981.981	2010.22
982.28	1987.62
982.579	1962.31
982.878	1941.74
983.177	1964.12
983.475	1948.75
983.774	1926.15
984.073	1930.22
984.372	1911.91
984.67	1912.36
984.969	1927.96
985.267	1934.74
985.566	1893.16
985.864	1890.44
986.162	1885.47
986.461	1854.51
986.759	1873.72
987.057	1851.58
987.355	1829.43
987.653	1823.1
987.951	1809.32
988.249	1809.77
988.547	1800.05
988.844	1800.05
989.142	1787.85
989.44	1787.62
989.737	1772.03
990.035	1756.66
990.332	1751.01
990.63	1754.85
990.927	1770.9
991.224	1746.95
991.521	1718.7
991.819	1734.29
992.116	1697.68
992.413	1747.62
992.71	1688.87
993.006	1686.83
993.303	1694.74
993.6	1696.55
993.897	1673.28
994.193	1672.6
994.49	1643.45
994.787	1643.45
995.083	1646.38
995.379	1626.72
995.676	1626.27
995.972	1640.73
996.268	1615.65
996.565	1645.03
996.861	1610.23
997.157	1596.22
997.453	1597.35
997.749	1591.24
998.044	1553.28
998.34	1570.45
998.636	1595.76
998.932	1541.08
999.227	1549.44
999.523	1524.8
999.818	1513.05
1000.114	1526.16
1000.409	1494.07
1000.704	1484.13
1001	1483.9
1001.295	1519.38
1001.59	1490.91
1001.885	1487.74
1002.18	1447.52
1002.475	1487.97
1002.77	1438.71
1003.065	1452.72
1003.359	1417.01
1003.654	1434.41
1003.949	1436.9
1004.243	1433.51
1004.538	1405.94
1004.832	1413.85
1005.127	1396.9
1005.421	1395.99
1005.715	1399.38
1006.009	1404.58
1006.304	1399.61
1006.598	1362.32
1006.892	1356.22
1007.186	1349.89
1007.48	1339.27
1007.773	1345.37
1008.067	1312.38
1008.361	1334.3
1008.655	1315.54
1008.948	1291.36
1009.242	1299.05
1009.535	1294.08
1009.829	1294.3
1010.122	1292.27
1010.415	1288.43
1010.708	1272.83
1011.001	1250.01
1011.295	1271.7
1011.588	1250.46
1011.881	1236.45
1012.173	1222.44
1012.466	1260.86
1012.759	1228.32
1013.052	1235.09
1013.344	1185.38
1013.637	1181.31
1013.93	1227.86
1014.222	1200.29
1014.514	1207.07
1014.807	1193.97
1015.099	1150.13
1015.391	1180.63
1015.683	1147.41
1015.976	1172.05
1016.268	1159.39
1016.56	1140.18
1016.851	1123.23
1017.143	1138.6
1017.435	1122.33
1017.727	1092.73
1018.018	1101.54
1018.31	1080.97
1018.602	1075.55
1018.893	1100.86
1019.185	1061.99
1019.476	1081.43
1019.767	1100.41
1020.058	1075.1
1020.35	1052.05
1020.641	1071.48
1020.932	1047.08
1021.223	1027.64
1021.514	1031.26
1021.804	1021.99
1022.095	1011.37
1022.386	1014.31
1022.677	1010.47
1022.967	996
1023.258	977.93
1023.548	982.45
1023.839	982.67
1024.129	974.99
1024.419	991.03
1024.709	957.81
1025	961.66
1025.29	965.95
1025.58	941.77
1025.87	947.19
1026.16	904.26
1026.449	929.57
1026.739	924.59
1027.029	921.43
1027.319	935.44
1027.608	907.42
1027.898	907.42
1028.187	924.37
1028.477	883.01
1028.766	894.99
1029.055	884.6
1029.344	893.41
1029.634	883.69
1029.923	890.24
1030.212	881.43
1030.501	855.22
1030.79	874.43
1031.078	859.96
1031.367	845.73
1031.656	861.09
1031.945	837.59
1032.233	832.39
1032.522	818.61
1032.81	833.75
1033.099	803.47
1033.387	805.28
1033.675	808.89
1033.963	792.17
1034.251	799.85
1034.54	796.46
1034.828	797.59
1035.116	804.15
1035.403	792.62
1035.691	769.57
1035.979	766.41
1036.267	783.36
1036.554	786.07
1036.842	763.69
1037.129	766.86
1037.417	752.17
1037.704	785.39
1037.992	715.11
1038.279	744.94
1038.566	739.51
1038.853	739.51
1039.14	739.51
