Data from hue_22_FLMS001491_00042.txt Node
Date: Tue Feb 07 17:10:10 GMT 2017
User: dcchb
Spectrometer: FLMS00149
Trigger mode: 0
Integration Time (sec): 2.000000E-2
Scans to average: 10
Electric dark correction enabled: true
Nonlinearity correction enabled: false
Boxcar width: 0
XAxis mode: Wavelengths
Number of Pixels in Spectrum: 2048
>>>>>Begin Spectral Data<<<<<
341.393	0.96
341.776	0.96
342.16	0.96
342.543	-47.85
342.927	-73.84
343.31	-91.69
343.693	-75.42
344.077	-70.22
344.46	-58.25
344.843	-53.28
345.226	-51.92
345.61	-31.81
345.993	-19.83
346.376	7.06
346.759	24.69
347.142	31.02
347.525	51.58
347.908	47.29
348.291	75.31
348.674	93.16
349.057	122.31
349.44	132.48
349.823	144.69
350.206	159.15
350.588	187.62
350.971	203.21
351.354	219.49
351.737	254.06
352.119	251.12
352.502	267.85
352.884	272.37
353.267	275.98
353.65	292.93
354.032	306.04
354.414	321.63
354.797	318.69
355.179	313.49
355.562	343.1
355.944	318.69
356.326	327.51
356.709	326.6
357.091	315.3
357.473	348.3
357.855	356.66
358.238	348.3
358.62	323.21
359.002	341.97
359.384	344.45
359.766	342.19
360.148	350.1
360.53	343.32
360.912	318.92
361.294	323.66
361.676	327.96
362.057	338.13
362.439	318.69
362.821	346.49
363.203	319.82
363.584	317.79
363.966	317.79
364.348	331.57
364.729	327.51
365.111	329.09
365.493	305.59
365.874	316.21
366.256	310.1
366.637	306.26
367.019	315.08
367.4	320.95
367.781	315.53
368.163	313.95
368.544	326.15
368.925	307.85
369.306	318.24
369.688	289.31
370.069	308.07
370.45	313.27
370.831	310.78
371.212	325.7
371.593	329.09
371.974	296.77
372.355	322.31
372.736	321.63
373.117	322.76
373.498	335.64
373.879	336.32
374.26	322.53
374.641	322.08
375.021	304.68
375.402	321.4
375.783	315.75
376.163	335.87
376.544	316.43
376.925	330.9
377.305	334.28
377.686	313.72
378.066	319.14
378.447	338.13
378.827	307.17
379.208	329.09
379.588	326.15
379.968	327.96
380.349	337.9
380.729	341.74
381.109	324.57
381.489	321.86
381.87	346.26
382.25	337.22
382.63	344.45
383.01	341.06
383.39	330.67
383.77	323.21
384.15	351.01
384.53	338.8
384.91	326.6
385.29	343.55
385.67	349.43
386.049	348.75
386.429	365.47
386.809	329.54
387.189	349.88
387.568	348.75
387.948	343.55
388.328	354.62
388.707	348.97
389.087	354.85
389.466	351.69
389.846	344.45
390.225	355.08
390.605	356.43
390.984	359.6
391.363	376.54
391.743	366.6
392.122	361.4
392.501	356.88
392.881	364.57
393.26	365.24
393.639	381.52
394.018	393.27
394.397	367.73
394.776	372.48
395.155	384.91
395.534	381.97
395.913	360.5
396.292	379.48
396.671	386.04
397.05	351.69
397.429	389.42
397.808	402.31
398.186	401.18
398.565	395.98
398.944	381.06
399.323	367.05
399.701	390.55
400.08	400.95
400.458	393.94
400.837	387.39
401.215	391.91
401.594	414.96
401.972	388.29
402.351	401.85
402.729	385.58
403.107	412.02
403.486	414.96
403.864	396.88
404.242	401.85
404.62	414.73
404.999	397.56
405.377	434.85
405.755	417.45
406.133	413.38
406.511	409.54
406.889	410.89
407.267	427.84
407.645	426.26
408.023	420.16
408.401	430.55
408.779	431.23
409.156	441.85
409.534	452.25
409.912	451.57
410.29	455.41
410.667	443.21
411.045	453.15
411.422	434.85
411.8	470.78
412.178	454.51
412.555	474.62
412.933	445.69
413.31	476.43
413.687	464.9
414.065	470.78
414.442	473.49
414.819	490.67
415.197	489.99
415.574	485.24
415.951	479.37
416.328	495.41
416.705	482.53
417.082	479.82
417.46	487.05
417.837	493.83
418.214	492.02
418.591	474.39
418.967	503.32
419.344	495.41
419.721	529.31
420.098	504.68
420.475	525.01
420.852	520.04
421.228	504.45
421.605	536.09
421.982	517.11
422.358	536.99
422.735	527.5
423.111	521.85
423.488	515.3
423.864	534.51
424.241	559.82
424.617	550.32
424.994	548.97
425.37	556.65
425.746	554.17
426.123	537.22
426.499	548.52
426.875	547.16
427.251	572.92
427.627	565.01
428.003	562.75
428.379	599.14
428.756	582.64
429.132	581.74
429.507	600.27
429.883	593.04
430.259	611.57
430.635	600.94
431.011	614.96
431.387	624.67
431.763	622.19
432.138	645.92
432.514	631.68
432.89	637.33
433.265	632.58
433.641	624.45
434.016	680.72
434.392	638.91
434.767	670.55
435.143	659.02
435.518	677.33
435.894	696.54
436.269	696.54
436.644	681.85
437.02	694.05
437.395	685.91
437.77	682.52
438.145	699.93
438.52	730.66
438.895	725.46
439.271	725.91
439.646	749.19
440.021	725.24
440.395	713.71
440.77	729.53
441.145	716.87
441.52	732.24
441.895	753.26
442.27	751.9
442.645	765.01
443.019	759.13
443.394	774.5
443.769	793.03
444.143	775.63
444.518	765.91
444.892	772.69
445.267	781.96
445.641	783.31
446.016	795.06
446.39	804.33
446.764	800.26
447.139	809.75
447.513	813.14
447.887	789.87
448.262	803.65
448.636	816.08
449.01	813.59
449.384	813.14
449.758	831
450.132	842.07
450.506	823.54
450.88	853.37
451.254	851.33
451.628	877.1
452.002	846.81
452.376	867.83
452.75	888.39
453.123	857.66
453.497	913.25
453.871	877.32
454.244	913.03
454.618	919.81
454.992	901.28
455.365	950.54
455.739	957.32
456.112	944.89
456.486	958.68
456.859	959.13
457.232	983.99
457.606	990.99
457.979	971.56
458.352	1004.55
458.725	1031.67
459.099	1010.65
459.472	1049.97
459.845	1055.4
460.218	1045.45
460.591	1070.31
460.964	1072.8
461.337	1068.73
461.71	1095.17
462.083	1107.82
462.456	1101.95
462.829	1113.7
463.201	1116.64
463.574	1151.89
463.947	1162.74
464.32	1182.85
464.692	1181.27
465.065	1187.6
465.438	1207.26
465.81	1243.41
466.183	1230.76
466.555	1265.56
466.928	1267.14
467.3	1248.84
467.672	1304.88
468.045	1310.76
468.417	1328.61
468.789	1335.39
469.161	1334.26
469.534	1383.52
469.906	1406.8
470.278	1415.61
470.65	1419.68
471.022	1433.01
471.394	1458.1
471.766	1499.23
472.138	1493.35
472.51	1511.43
472.882	1540.13
473.253	1543.29
473.625	1593.46
473.997	1624.87
474.369	1611.77
474.74	1642.73
475.112	1657.41
475.484	1724.53
475.855	1745.77
476.227	1755.94
476.598	1787.58
476.97	1809.27
477.341	1860.12
477.713	1878.88
478.084	1891.31
478.455	1945.54
478.827	1970.4
479.198	2014.69
479.569	2041.36
479.94	2122.71
480.311	2116.61
480.682	2216.27
481.053	2224.63
481.424	2248.58
481.795	2276.61
482.166	2306.44
482.537	2347.57
482.908	2425.53
483.279	2460.78
483.65	2496.26
484.021	2537.62
484.391	2586.43
484.762	2591.63
485.133	2669.82
485.503	2640.89
485.874	2782.13
486.244	2787.33
486.615	2794.79
486.985	2878.17
487.356	2942.13
487.726	2950.26
488.097	3012.18
488.467	3049.47
488.837	3112.97
489.207	3113.65
489.578	3224.15
489.948	3265.51
490.318	3312.74
490.688	3317.26
491.058	3352.28
491.428	3361.32
491.798	3454.65
492.168	3536.01
492.538	3529.68
492.908	3583.01
493.278	3636.57
493.648	3644.25
494.017	3720.64
494.387	3763.8
494.757	3774.87
495.126	3822.33
495.496	3840.86
495.866	3886.73
496.235	3950.24
496.605	3953.4
496.974	3980.74
497.344	4026.17
497.713	4048.76
498.082	4094.41
498.452	4112.94
498.821	4190.45
499.19	4180.06
499.559	4220.06
499.928	4277.23
500.298	4271.13
500.667	4323.56
501.036	4331.92
501.405	4319.94
501.774	4375.53
502.143	4405.36
502.512	4401.75
502.88	4491.46
503.249	4455.31
503.618	4505.7
503.987	4549.54
504.356	4535.76
504.724	4594.51
505.093	4629.77
505.462	4641.06
505.83	4688.07
506.199	4677.45
506.567	4736.88
506.936	4714.51
507.304	4761.97
507.672	4770.33
508.041	4810.55
508.409	4858.23
508.777	4891.45
509.145	4919.48
509.514	4915.86
509.882	4958.8
510.25	4939.14
510.618	4980.94
510.986	5006.93
511.354	5060.71
511.722	5118.34
512.09	5086.02
512.458	5097.55
512.826	5104.56
513.193	5116.76
513.561	5180.71
513.929	5219.58
514.297	5254.61
514.664	5266.13
515.032	5255.06
515.4	5324.89
515.767	5330.31
516.135	5364.44
516.502	5313.14
516.869	5389.97
517.237	5395.39
517.604	5380.71
517.972	5417.54
518.339	5503.64
518.706	5468.16
519.073	5458.44
519.44	5549.97
519.808	5545.9
520.175	5527.82
520.542	5634.71
520.909	5660.47
521.276	5651.21
521.643	5689.17
522.009	5691.21
522.376	5755.61
522.743	5803.52
523.11	5818.66
523.477	5826.34
523.843	5850.98
524.21	5973.01
524.577	5929.62
524.943	6011.88
525.31	6002.16
525.676	6041.93
526.043	6064.3
526.409	6117.41
526.776	6168.03
527.142	6168.03
527.508	6225.43
527.874	6251.42
528.241	6207.8
528.607	6302.26
528.973	6361.92
529.339	6330.06
529.705	6396.27
530.071	6458.42
530.437	6456.16
530.803	6502.71
531.169	6547
531.535	6497.06
531.901	6540.22
532.267	6573.44
532.632	6614.12
532.998	6690.28
533.364	6696.38
533.73	6680.56
534.095	6687.11
534.461	6780.22
534.826	6860.67
535.192	6831.06
535.557	6901.34
535.923	6888.91
536.288	6911.74
536.653	6928.91
537.019	6969.82
537.384	6986.99
537.749	7010.72
538.114	7081
538.479	7049.14
538.845	7098.63
539.21	7071.28
539.575	7139.76
539.94	7123.71
540.305	7212.07
540.67	7202.8
541.034	7245.29
541.399	7255.68
541.764	7300.43
542.129	7353.31
542.494	7361.67
542.858	7392.86
543.223	7398.28
543.587	7410.71
543.952	7476.02
544.316	7485.06
544.681	7501.55
545.045	7507.43
545.41	7625.62
545.774	7629.46
546.138	7604.15
546.503	7663.13
546.867	7668.56
547.231	7743.13
547.595	7736.35
547.959	7786.52
548.324	7763.92
548.688	7785.61
549.052	7804.82
549.416	7867.87
549.779	7894.76
550.143	7909.68
550.507	7925.27
550.871	7939.73
551.235	7975.44
551.599	8085.27
551.962	8076.91
552.326	8090.01
552.689	8164.14
553.053	8092.95
553.417	8132.05
553.78	8264.02
554.143	8166.85
554.507	8198.94
554.87	8277.8
555.234	8377.24
555.597	8263.12
555.96	8344.47
556.323	8400.06
556.686	8407.29
557.05	8476.67
557.413	8480.51
557.776	8472.6
558.139	8568.64
558.502	8523
558.865	8501.53
559.228	8563.9
559.59	8628.76
559.953	8721.18
560.316	8704.01
560.679	8735.65
561.041	8791.69
561.404	8783.78
561.767	8857.45
562.129	8854.51
562.492	8884.57
562.854	8964.34
563.217	8875.3
563.579	8957.79
563.941	9019.48
564.304	9058.35
564.666	9058.12
565.028	9171.79
565.39	9143.54
565.753	9157.78
566.115	9173.6
566.477	9195.97
566.839	9256.54
567.201	9320.49
567.563	9334.27
567.925	9383.99
568.287	9411.56
568.648	9399.58
569.01	9513.25
569.372	9508.06
569.734	9510.31
570.095	9565.68
570.457	9679.12
570.819	9642.29
571.18	9686.81
571.542	9717.09
571.903	9699.91
572.265	9844.54
572.626	9854.03
572.987	9850.42
573.349	9952.34
573.71	9983.07
574.071	10030.3
574.432	10072.79
574.794	10247.02
575.155	10243.63
575.516	10281.14
575.877	10342.61
576.238	10346.45
576.599	10388.48
576.96	10574.47
577.32	10518.2
577.681	10685.2
578.042	10687.91
578.403	10818.3
578.763	10848.81
579.124	10951.86
579.485	11117.28
579.845	11282.92
580.206	11346.42
580.566	11411.96
580.927	11500.09
581.287	11683.37
581.648	11668.9
582.008	11908.22
582.368	12022.79
582.728	12152.28
583.089	12290.13
583.449	12456
583.809	12672.72
584.169	12750
584.529	12934.86
584.889	13222.08
585.249	13227.05
585.609	13407.16
585.969	13669.53
586.329	13847.15
586.688	14072.23
587.048	14258.44
587.408	14434.48
587.768	14673.12
588.127	14902.94
588.487	15157.85
588.846	15480.33
589.206	15556.71
589.565	15817.04
589.925	16210.93
590.284	16362.79
590.643	16658.15
591.003	16958.03
591.362	17288.64
591.721	17572.93
592.08	17826.93
592.44	18117.55
592.799	18375.62
593.158	18688.83
593.517	18915.94
593.876	19251.75
594.235	19446.1
594.593	19858.97
594.952	20139.87
595.311	20428.45
595.67	20790.47
596.029	21094.42
596.387	21474.29
596.746	21926.94
597.104	21891.91
597.463	22304.55
597.822	22817.54
598.18	23018.21
598.538	23163.06
598.897	23634.46
599.255	23798.75
599.613	24523.93
599.972	24619.97
600.33	24962.79
600.688	25194.65
601.046	25422.44
601.404	25912.6
601.762	26125.92
602.12	26490.66
602.478	26845.9
602.836	27100.59
603.194	27247.25
603.552	27536.73
603.91	27691.31
604.268	28205.19
604.625	28352.31
604.983	28790.26
605.341	28915.68
605.698	29296.91
606.056	29714.3
606.413	29774.64
606.771	30161.52
607.128	30438.35
607.485	30601.06
607.843	30855.29
608.2	31272
608.557	31595.84
608.914	31639.9
609.272	32036.28
609.629	32273.11
609.986	32638.75
610.343	32702.25
610.7	33017.04
611.057	33250.48
611.414	33390.36
611.771	33558.27
612.127	33876.23
612.484	34090.91
612.841	34455.65
613.198	34415.65
613.554	34742.42
613.911	35072.13
614.267	35047.27
614.624	35263.08
614.98	35429.86
615.337	35832.79
615.693	36044.08
616.05	36254.92
616.406	36359.1
616.762	36407.01
617.118	36599.09
617.475	36746.21
617.831	37033.43
618.187	37203.15
618.543	37299.64
618.899	37558.39
619.255	37646.07
619.611	37762.23
619.967	37952.05
620.323	38060.75
620.678	38173.52
621.034	38284.25
621.39	38259.84
621.746	38442.66
622.101	39003.32
622.457	38757.68
622.812	38952.7
623.168	39180.72
623.523	39195.64
623.879	39392.92
624.234	39303.43
624.589	39505.23
624.945	39495.52
625.3	39655.96
625.655	39726.7
626.01	39709.29
626.365	39882.4
626.72	39947.03
627.075	40137.53
627.43	40046.46
627.785	39955.39
628.14	40177.98
628.495	40344.98
628.85	40265.89
629.205	40225.44
629.559	40530.97
629.914	40379.79
630.269	40631.3
630.623	40463.63
630.978	40408.49
631.332	40618.42
631.687	40737.29
632.041	40631.3
632.396	40838.98
632.75	40779.78
633.104	40826.33
633.459	40582.72
633.813	40559.22
634.167	40639.67
634.521	40686.44
634.875	40791.3
635.229	40762.15
635.583	40728.03
635.937	40812.09
636.291	40821.13
636.645	40747.69
636.999	40683.51
637.352	40874.01
637.706	40575.94
638.06	40818.64
638.413	40732.32
638.767	40695.94
639.121	40788.59
639.474	40615.03
639.828	40676.28
640.181	40715.6
640.534	40787.91
640.888	40733
641.241	40599.89
641.594	40588.14
641.947	40838.98
642.301	40733.9
642.654	40720.34
643.007	40824.52
643.36	40596.28
643.713	40677.63
644.066	40711.3
644.419	40471.76
644.771	40308.6
645.124	39963.98
645.477	39975.28
645.83	39819.8
646.182	39584.1
646.535	39538.45
646.888	39637.43
647.24	39400.15
647.593	39470.66
647.945	39601.73
648.298	39372.58
648.65	39419.58
649.002	39196.54
649.355	39474.95
649.707	39443.99
650.059	39622.97
650.411	40111.54
650.763	39947.71
651.115	40445.09
651.467	40365.1
651.819	40218.21
652.171	40238.09
652.523	40220.47
652.875	40254.82
653.227	40086.23
653.578	40386.34
653.93	40191.09
654.282	40159.45
654.633	40034.71
654.985	40153.8
655.337	39997.87
655.688	40076.06
656.039	40209.39
656.391	39910.65
656.742	39994.49
657.094	40050.53
657.445	40167.36
657.796	39992.23
658.147	39953.81
658.498	40000.81
658.849	40098.66
659.2	39968.5
659.551	39904.09
659.902	40059.79
660.253	39945.9
660.604	40111.77
660.955	39850.08
661.306	40017.31
661.656	39918.33
662.007	39995.16
662.358	39958.55
662.708	39981.38
663.059	39953.81
663.409	39636.98
663.76	40058.44
664.11	39935.5
664.461	39981.38
664.811	39832.68
665.161	39931.44
665.511	39753.36
665.862	39856.41
666.212	39991.77
666.562	39876.52
666.912	39977.31
667.262	39676.98
667.612	39712.68
667.962	39827.03
668.312	39892.34
668.662	39921.49
669.011	39824.77
669.361	39715.4
669.711	39730.31
670.06	39754.27
670.41	39784.32
670.76	39611.22
671.109	39757.2
671.459	39687.6
671.808	39874.71
672.157	39744.32
672.507	39509.98
672.856	39606.92
673.205	39591.33
673.554	39728.28
673.904	39668.62
674.253	39848.95
674.602	39562.41
674.951	39004.23
675.3	39007.39
675.649	39547.04
675.998	39460.26
676.346	39460.04
676.695	39547.27
677.044	39243.77
677.393	39480.83
677.741	39513.37
678.09	39307.5
678.438	39064.34
678.787	39333.26
679.135	39383.2
679.484	38988.64
679.832	39241.96
680.181	39039.71
680.529	39055.75
680.877	39053.04
681.225	38985.92
681.573	39255.07
681.922	38931.69
682.27	38785.25
682.618	38838.58
682.966	38557.01
683.314	38773.05
683.661	38587.74
684.009	38582.09
684.357	38479.5
684.705	38458.48
685.053	38401.98
685.4	38431.81
685.748	38128.09
686.095	38203.35
686.443	38047.42
686.79	38129.68
687.138	38069.56
687.485	38127.19
687.832	38000.64
688.18	37974.2
688.527	37888.55
688.874	37688.78
689.221	37719.06
689.568	37603.14
689.915	37498.05
690.262	37553.87
690.609	37437.04
690.956	37329.02
691.303	37128.35
691.65	37211.73
691.997	37213.09
692.344	37013.55
692.69	36902.59
693.037	36967.67
693.383	36698.98
693.73	36726.77
694.077	36464.18
694.423	36518.42
694.769	36374.92
695.116	36370.63
695.462	36298.76
695.808	36153.91
696.155	36038.2
696.501	35922.5
696.847	35998.66
697.193	35724.77
697.539	35768.38
697.885	35680.93
698.231	35510.54
698.577	35549.63
698.923	35440.48
699.269	35302.18
699.614	35141.28
699.96	34962.08
700.306	34987.84
700.651	34920.04
700.997	34827.39
701.342	34773.61
701.688	34778.13
702.033	34668.07
702.379	34599.37
702.724	34417.91
703.069	34577.45
703.415	34173.85
703.76	34240.96
704.105	34051.14
704.45	34196.22
704.795	33910.13
705.14	33944.25
705.485	33891.37
705.83	33681.2
706.175	33763.01
706.52	33590.81
706.865	33396.47
707.209	33472.62
707.554	33319.86
707.899	33398.05
708.243	33245.28
708.588	33177.72
708.932	32919.64
709.277	33004.16
709.621	32993.09
709.966	32753.55
710.31	32849.59
710.654	32634.23
710.998	32561.46
711.342	32643.72
711.687	32549.71
712.031	32316.95
712.375	32291.86
712.719	32295.7
713.063	32293.44
713.407	32433.55
713.75	32232.66
714.094	32165.31
714.438	31960.57
714.782	32090.06
715.125	31960.35
715.469	32022.27
715.812	31894.13
716.156	31684.2
716.499	31565.33
716.843	31630.86
717.186	31465.44
717.53	31577.98
717.873	31636.51
718.216	31472.45
718.559	31356.75
718.902	31094.83
719.246	31255.05
719.589	31167.82
719.932	31065
720.275	30949.98
720.617	31086.02
720.96	30912.24
721.303	31002.63
721.646	31017.09
721.989	30742.3
722.331	30853.48
722.674	30736.42
723.016	30746.82
723.359	30696.2
723.701	30787.27
724.044	30514.73
724.386	30300.28
724.729	30400.39
725.071	30321.75
725.413	30453.04
725.755	30270.9
726.097	30258.24
726.439	30085.14
726.782	30192.48
727.124	30128.76
727.465	29904.13
727.807	29910.46
728.149	29923.11
728.491	29894.19
728.833	29884.47
729.175	29826.62
729.516	29825.03
729.858	29737.81
730.199	29861.64
730.541	29754.08
730.882	29707.52
731.224	29693.74
731.565	29550.01
731.906	29539.84
732.248	29599.96
732.589	29320.64
732.93	29304.82
733.271	29184.83
733.612	29326.29
733.953	29171.94
734.294	29182.57
734.635	29114.77
734.976	29198.84
735.317	29049.01
735.658	29017.37
735.999	29006.07
736.339	29028.45
736.68	29001.33
737.021	28845.63
737.361	28768.11
737.702	28909.13
738.042	28816.25
738.383	28750.71
738.723	28805.63
739.063	28617.61
739.404	28747.55
739.744	28587.33
740.084	28580.1
740.424	28590.27
740.764	28543.94
741.104	28520.44
741.444	28420.78
741.784	28330.84
742.124	28294.23
742.464	28343.72
742.804	28323.83
743.143	28334.23
743.483	28073.89
743.823	28075.25
744.162	28019.66
744.502	28000.45
744.841	28007.68
745.181	28119.77
745.52	27876.16
745.86	28002.48
746.199	27909.61
746.538	27926.55
746.877	27946.21
747.216	27836.84
747.556	27826.44
747.895	27830.51
748.234	27684.98
748.573	27720.23
748.911	27608.14
749.25	27791.42
749.589	27369.73
749.928	27561.37
750.267	27640.01
750.605	27573.12
750.944	27404.31
751.283	27436.4
751.621	27404.76
751.96	27265.78
752.298	27180.36
752.636	27280.24
752.975	27126.35
753.313	27007.26
753.651	27100.59
753.989	26903.76
754.327	26949.4
754.666	26789.18
755.004	26965.68
755.342	26818.56
755.679	26789.63
756.017	26692.01
756.355	26749.86
756.693	26644.33
757.031	26612.69
757.368	26444.56
757.706	26523.88
758.044	26447.5
758.381	26443.65
758.719	26398.01
759.056	26303.55
759.394	26298.57
759.731	26126.38
760.068	26051.35
760.405	25910.34
760.743	25822.43
761.08	25974.06
761.417	25771.13
761.754	25694.52
762.091	25646.61
762.428	25687.74
762.765	25476
763.102	25528.2
763.438	25392.84
763.775	25318.49
764.112	25244.59
764.449	25283.46
764.785	25148.77
765.122	25005.5
765.458	24890.25
765.795	24806.86
766.131	24902.45
766.467	24855.9
766.804	24691.61
767.14	24517.6
767.476	24534.33
767.812	24530.26
768.148	24328.91
768.485	24322.35
768.821	24220.66
769.157	24138.4
769.492	24093.43
769.828	24006.66
770.164	23816.38
770.5	23850.5
770.836	23729.15
771.171	23692.09
771.507	23602.15
771.842	23426.11
772.178	23478.76
772.513	23352.89
772.849	23400.8
773.184	23231.08
773.519	23200.12
773.855	23024.31
774.19	22992.22
774.525	22799.46
774.86	22987.47
775.195	22769.85
775.53	22697.76
775.865	22597.65
776.2	22495.96
776.535	22276.53
776.87	22330.77
777.205	22272.92
777.539	22104.33
777.874	22122.41
778.209	21978.91
778.543	21939.14
778.878	21801.97
779.212	21800.16
779.547	21709.99
779.881	21720.16
780.215	21476.33
780.55	21529.66
780.884	21605.59
781.218	21319.5
781.552	21380.74
781.886	21238.37
782.22	21083.8
782.554	21111.59
782.888	20966.51
783.222	20801.32
783.556	20712.05
783.889	20707.08
784.223	20440.65
784.557	20460.54
784.89	20546.63
785.224	20402.46
785.557	20315
785.891	20215.57
786.224	20192.29
786.558	20096.25
786.891	20023.71
787.224	19926.99
787.557	19927.22
787.891	19874.56
788.224	19848.12
788.557	19783.27
788.89	19775.36
789.223	19677.28
789.556	19555.25
789.888	19425.99
790.221	19431.41
790.554	19305.99
790.887	19222.38
791.219	19191.64
791.552	19133.79
791.884	19131.3
792.217	18938.99
792.549	19007.01
792.882	18882.95
793.214	18807.25
793.546	18765.89
793.879	18631.66
794.211	18532.45
794.543	18618.1
794.875	18484.32
795.207	18573.81
795.539	18438.44
795.871	18499.01
796.203	18231.89
796.535	18112.8
796.867	18089.52
797.198	18158.45
797.53	18060.37
797.862	17915.07
798.193	17947.16
798.525	17802.07
798.856	17827.16
799.188	17617.67
799.519	17683.89
799.85	17574.28
800.182	17575.19
800.513	17556.66
800.844	17354.18
801.175	17348.53
801.506	17428.98
801.837	17335.42
802.168	17313.73
802.499	17219.94
802.83	17172.03
803.161	17043.22
803.491	17065.82
803.822	17066.73
804.153	16954.41
804.483	16755.77
804.814	16842.78
805.145	16714.42
805.475	16734.08
805.805	16597.13
806.136	16622.44
806.466	16624.93
806.796	16588.09
807.126	16597.13
807.457	16393.07
807.787	16367.54
808.117	16341.1
808.447	16233.3
808.777	16346.75
809.107	16221.1
809.436	16141.33
809.766	16105.85
810.096	15960.31
810.426	16075.11
810.755	16021.56
811.085	15914.44
811.414	15988.79
811.744	15778.4
812.073	15826.53
812.403	15783.37
812.732	15769.81
813.061	15727.1
813.39	15617.72
813.719	15539.08
814.049	15628.8
814.378	15652.75
814.707	15487.78
815.036	15455.7
815.365	15445.53
815.693	15284.63
816.022	15292.54
816.351	15267
816.68	15158.53
817.008	15227.9
817.337	14989.27
817.665	15036.95
817.994	15042.82
818.322	15051.86
818.651	14989.27
818.979	14967.57
819.307	15004.41
819.636	14870.63
819.964	14836.05
820.292	14949.49
820.62	14873.34
820.948	14860.68
821.276	14871.98
821.604	14848.48
821.932	14856.62
822.259	14811.19
822.587	14711.08
822.915	14774.36
823.243	14871.3
823.57	14783.17
823.898	14766
824.225	14662.95
824.553	14677.18
824.88	14670.18
825.207	14871.53
825.535	14772.1
825.862	14766.22
826.189	14729.61
826.516	14709.95
826.843	14849.84
827.17	14700.01
827.497	14798.31
827.824	14814.81
828.151	14823.62
828.478	14657.3
828.805	14758.76
829.131	14700.46
829.458	14711.99
829.785	14639.9
830.111	14675.15
830.438	14657.52
830.764	14689.39
831.09	14685.77
831.417	14650.74
831.743	14683.96
832.069	14600.12
832.395	14602.16
832.722	14689.61
833.048	14568.26
833.374	14588.83
833.7	14483.74
834.026	14511.99
834.351	14584.08
834.677	14501.37
835.003	14538.88
835.329	14495.04
835.654	14416.17
835.98	14422.95
836.306	14399.68
836.631	14409.85
836.956	14407.59
837.282	14387.7
837.607	14377.98
837.932	14274.94
838.258	14293.92
838.583	14309.96
838.908	14239.91
839.233	14197.65
839.558	14203.52
839.883	14136.63
840.208	14147.03
840.533	14189.51
840.858	14053.92
841.182	14123.07
841.507	14108.61
841.832	14036.07
842.156	13992
842.481	13973.25
842.805	13935.06
843.13	13905.23
843.454	13867.04
843.778	13787.94
844.103	13759.47
844.427	13767.38
844.751	13792.24
845.075	13702.3
845.399	13629.08
845.723	13522.41
846.047	13549.53
846.371	13404.22
846.695	13421.62
847.019	13365.58
847.343	13361.74
847.666	13293.49
847.99	13197.22
848.313	13267.73
848.637	13204
848.96	13107.96
849.284	13044.01
849.607	12994.97
849.931	12919.94
850.254	12874.97
850.577	12749.33
850.9	12778.93
851.223	12729.21
851.546	12688.99
851.869	12507.3
852.192	12585.94
852.515	12512.95
852.838	12480.41
853.161	12526.96
853.483	12381.2
853.806	12314.53
854.129	12327.19
854.451	12254.42
854.774	12198.15
855.096	12193.63
855.419	12136.46
855.741	12121.09
856.063	12140.75
856.385	11941.21
856.708	12062.11
857.03	11950.7
857.352	11919.52
857.674	11903.02
857.996	11837.26
858.318	11780.54
858.64	11760.2
858.961	11752.74
859.283	11656.02
859.605	11636.36
859.926	11622.8
860.248	11651.28
860.57	11552.3
860.891	11567.44
861.212	11491.96
861.534	11437.5
861.855	11410.38
862.176	11390.94
862.498	11397.04
862.819	11398.17
863.14	11382.13
863.461	11362.7
863.782	11351.62
864.103	11353.43
864.424	11266.43
864.745	11230.27
865.065	11209.03
865.386	11146.88
865.707	11127.22
866.027	11218.52
866.348	11183.49
866.668	11164.73
866.989	11122.93
867.309	11028.47
867.63	11024.17
867.95	11034.34
868.27	11032.53
868.59	11058.07
868.91	10984.17
869.23	11028.92
869.55	10930.84
869.87	10994.34
870.19	10995.47
870.51	10913.44
870.83	10852.43
871.15	10855.36
871.469	10966.77
871.789	10915.02
872.109	10854.91
872.428	10771.3
872.748	10860.11
873.067	10790.06
873.386	10720.45
873.706	10730.85
874.025	10679.55
874.344	10602.94
874.663	10672.09
874.982	10636.84
875.301	10588.03
875.62	10538.31
875.939	10612.43
876.258	10572.66
876.577	10498.76
876.896	10585.09
877.214	10511.64
877.533	10445.43
877.852	10475.49
878.17	10505.77
878.489	10504.87
878.807	10487.46
879.125	10447.92
879.444	10382.61
879.762	10416.96
880.08	10394.36
880.398	10339.22
880.716	10312.33
881.034	10323.4
881.352	10270.75
881.67	10212.44
881.988	10269.62
882.306	10257.64
882.624	10182.16
882.941	10108.94
883.259	10152.33
883.577	10061.71
883.894	10088.83
884.212	10114.37
884.529	10052.9
884.846	10096.06
885.164	10039.34
885.481	9994.82
885.798	10021.49
886.115	9964.77
886.432	9952.34
886.75	9812
887.067	9882.73
887.383	9842.28
887.7	9875.05
888.017	9814.71
888.334	9836.18
888.651	9746.47
888.967	9738.78
889.284	9628.5
889.6	9676.86
889.917	9575.4
890.233	9670.54
890.55	9553.7
890.866	9524.33
891.182	9581.05
891.498	9530.2
891.815	9475.74
892.131	9430.54
892.447	9431.67
892.763	9459.02
893.079	9382.18
893.395	9325.69
893.71	9323.65
894.026	9298.34
894.342	9293.37
894.657	9198.01
894.973	9190.32
895.289	9173.15
895.604	9137.9
895.92	9059.03
896.235	9028.97
896.55	9036.43
896.865	9025.81
897.181	9032.81
897.496	9031.23
897.811	8999.82
898.126	8890.9
898.441	8827.62
898.756	8794.4
899.071	8784.23
899.386	8776.55
899.7	8744.91
900.015	8722.31
900.33	8686.83
900.644	8657.46
900.959	8649.32
901.273	8611.36
901.588	8578.14
901.902	8510.34
902.216	8510.34
902.531	8461.08
902.845	8414.3
903.159	8413.17
903.473	8362.32
903.787	8285.94
904.101	8291.36
904.415	8260.18
904.729	8266.05
905.042	8185.83
905.356	8163.46
905.67	8148.99
905.984	8129.33
906.297	8136.57
906.611	8051.37
906.924	8038.49
907.237	8021.54
907.551	7996.23
907.864	7880.53
908.177	7932.73
908.491	7918.04
908.804	7867.42
909.117	7800.08
909.43	7793.52
909.743	7739.97
910.056	7746.97
910.368	7707.88
910.681	7652.96
910.994	7627.43
911.307	7602.79
911.619	7578.84
911.932	7575.9
912.244	7541.78
912.557	7492.51
912.869	7464.94
913.181	7399.64
913.494	7406.64
913.806	7350.6
914.118	7341.33
914.43	7276.93
914.742	7317.83
915.054	7247.32
915.366	7190.15
915.678	7200.55
915.99	7147.89
916.302	7076.93
916.613	7057.27
916.925	7004.62
917.236	7031.74
917.548	7000.1
917.859	6957.61
918.171	6958.07
918.482	6980.89
918.794	6881.01
919.105	6827.67
919.416	6792.42
919.727	6832.42
920.038	6765.53
920.349	6730.5
920.66	6679.88
920.971	6649.15
921.282	6705.64
921.593	6587
921.903	6581.35
922.214	6573.67
922.525	6530.05
922.835	6494.57
923.146	6452.32
923.456	6462.94
923.767	6412.77
924.077	6473.78
924.387	6393.56
924.697	6307.01
925.008	6328.7
925.318	6288.7
925.628	6317.18
925.938	6233.11
926.248	6168.71
926.558	6168.93
926.867	6140.46
927.177	6129.84
927.487	6098.43
927.796	6065.43
928.106	6095.04
928.416	6048.71
928.725	6007.36
929.034	6003.74
929.344	5962.61
929.653	5969.39
929.962	5899.56
930.271	5870.64
930.581	5867.7
930.89	5873.8
931.199	5779.34
931.508	5800.36
931.817	5796.29
932.125	5747.48
932.434	5769.4
932.743	5681.26
933.051	5654.6
933.36	5617.31
933.669	5622.28
933.977	5590.19
934.286	5601.04
934.594	5551.32
934.902	5542.28
935.21	5534.15
935.519	5469.74
935.827	5445.56
936.135	5401.95
936.443	5433.36
936.751	5368.05
937.059	5349.52
937.367	5332.12
937.674	5342.97
937.982	5310.88
938.29	5263.87
938.597	5272.69
938.905	5195.85
939.213	5193.59
939.52	5177.32
939.827	5150.66
940.135	5173.71
940.442	5101.84
940.749	5086.02
941.056	5089.41
941.363	5016.2
941.67	5022.07
941.977	5010.32
942.284	4931
942.591	4956.54
942.898	4931.9
943.205	4933.26
943.511	4902.07
943.818	4900.04
944.125	4850.32
944.431	4842.42
944.738	4833.38
945.044	4803.32
945.35	4794.05
945.657	4741.17
945.963	4711.35
946.269	4705.7
946.575	4743.66
946.881	4697.11
947.187	4657.34
947.493	4641.52
947.799	4627.28
948.105	4607.84
948.41	4560.39
948.716	4524.01
949.022	4506.6
949.327	4520.84
949.633	4434.29
949.938	4488.3
950.244	4488.53
950.549	4402.2
950.854	4361.52
951.16	4430.45
951.465	4388.19
951.77	4342.32
952.075	4338.25
952.38	4308.42
952.685	4288.76
952.99	4293.28
953.294	4267.06
953.599	4247.63
953.904	4249.21
954.209	4172.38
954.513	4168.53
954.818	4137.35
955.122	4146.84
955.426	4169.89
955.731	4150.23
956.035	4132.83
956.339	4116.56
956.643	4090.34
956.948	4017.13
957.252	4046.28
957.556	4054.19
957.86	3996.34
958.163	3971.25
958.467	3980.97
958.771	3940.52
959.075	3893.29
959.378	3893.29
959.682	3911.82
959.985	3867.07
960.289	3824.36
960.592	3830.01
960.896	3827.3
961.199	3828.43
961.502	3791.14
961.805	3771.71
962.108	3736.68
962.411	3756.79
962.714	3752.05
963.017	3732.61
963.32	3685.84
963.623	3683.35
963.926	3677.7
964.228	3619.62
964.531	3619.17
964.833	3628.21
965.136	3592.96
965.438	3554.77
965.741	3564.71
966.043	3567.19
966.345	3555.67
966.648	3516.57
966.95	3526.74
967.252	3430.7
967.554	3449.23
967.856	3452.4
968.158	3417.14
968.46	3408.55
968.761	3413.98
969.063	3394.54
969.365	3375.33
969.666	3384.15
969.968	3336.24
970.269	3327.2
970.571	3361.32
970.872	3329.69
971.174	3276.58
971.475	3264.15
971.776	3289.69
972.077	3309.35
972.378	3191.39
972.679	3200.2
972.98	3220.54
973.281	3210.82
973.582	3203.14
973.883	3133.53
974.183	3171.72
974.484	3140.76
974.785	3148.22
975.085	3141.44
975.386	3150.93
975.686	3117.04
975.986	3097.38
976.287	3064.16
976.587	3029.81
976.887	3010.6
977.187	3017.38
977.487	3014.21
977.787	2983.25
978.087	2957.49
978.387	2967.21
978.687	2959.53
978.987	2942.13
979.286	2913.2
979.586	2954.1
979.885	2914.1
980.185	2900.77
980.484	2882.24
980.784	2847.89
981.083	2840.89
981.382	2807.21
981.682	2849.47
981.981	2818.06
982.28	2794.79
982.579	2768.35
982.878	2772.19
983.177	2738.29
983.475	2743.26
983.774	2757.5
984.073	2736.26
984.372	2707.33
984.67	2733.54
984.969	2649.25
985.267	2685.64
985.566	2675.47
985.864	2655.81
986.162	2621.23
986.461	2635.69
986.759	2597.5
987.057	2584.17
987.355	2611.51
987.653	2607.45
987.951	2574.23
988.249	2535.13
988.547	2556.83
988.844	2568.58
989.142	2541.46
989.44	2521.57
989.737	2524.06
990.035	2484.96
990.332	2486.32
990.63	2467.79
990.927	2469.6
991.224	2460.33
991.521	2429.82
991.819	2432.31
992.116	2438.41
992.413	2404.97
992.71	2392.31
993.006	2378.53
993.303	2369.49
993.6	2350.5
993.897	2363.38
994.193	2319.77
994.49	2328.81
994.787	2331.97
995.083	2309.83
995.379	2274.35
995.676	2298.53
995.972	2256.95
996.268	2268.47
996.565	2235.25
996.861	2209.49
997.157	2212.43
997.453	2223.5
997.749	2211.07
998.044	2176.95
998.34	2183.95
998.636	2159.1
998.932	2146.21
999.227	2143.73
999.523	2117.51
999.818	2095.37
1000.114	2124.29
1000.409	2113.45
1000.704	2090.17
1001	2087.91
1001.295	2064.63
1001.59	2080.23
1001.885	2044.3
1002.18	2029.61
1002.475	2040.91
1002.77	1998.42
1003.065	2012.43
1003.359	2004.3
1003.654	1964.98
1003.949	1954.58
1004.243	1948.93
1004.538	1956.16
1004.832	1975.15
1005.127	1949.61
1005.421	1904.87
1005.715	1923.4
1006.009	1896.28
1006.304	1875.26
1006.598	1895.83
1006.892	1895.37
1007.186	1811.99
1007.48	1840.46
1007.773	1840.23
1008.067	1851.99
1008.361	1824.64
1008.655	1786.22
1008.948	1794.13
1009.242	1802.04
1009.535	1767.92
1009.829	1763.85
1010.122	1758.43
1010.415	1729.95
1010.708	1731.08
1011.001	1740.12
1011.295	1721.59
1011.588	1717.53
1011.881	1684.98
1012.173	1669.17
1012.466	1694.7
1012.759	1666.91
1013.052	1675.72
1013.344	1641.37
1013.637	1649.96
1013.93	1655.15
1014.222	1601.14
1014.514	1628.94
1014.807	1613.8
1015.099	1581.03
1015.391	1596.17
1015.683	1569.51
1015.976	1603.18
1016.268	1574.93
1016.56	1542.16
1016.851	1549.17
1017.143	1533.12
1017.435	1535.38
1017.727	1491.54
1018.018	1518.89
1018.31	1492.67
1018.602	1490.86
1018.893	1454.93
1019.185	1468.27
1019.476	1475.27
1019.767	1470.07
1020.058	1431.43
1020.35	1416.52
1020.641	1402.28
1020.932	1414.71
1021.223	1417.87
1021.514	1405.22
1021.804	1387.14
1022.095	1376.97
1022.386	1372
1022.677	1351.21
1022.967	1360.47
1023.258	1353.69
1023.548	1333.35
1023.839	1321.38
1024.129	1327.93
1024.419	1306.69
1024.709	1307.14
1025	1282.28
1025.29	1293.13
1025.58	1301.04
1025.87	1254.71
1026.16	1248.84
1026.449	1264.66
1026.739	1238.67
1027.029	1226.46
1027.319	1236.86
1027.608	1221.95
1027.898	1208.16
1028.187	1198.44
1028.477	1171.55
1028.766	1154.83
1029.055	1193.7
1029.344	1187.37
1029.634	1164.77
1029.923	1158.9
1030.212	1134.04
1030.501	1138.33
1030.79	1144.66
1031.078	1125.45
1031.367	1117.09
1031.656	1122.51
1031.945	1094.72
1032.233	1119.35
1032.522	1077.32
1032.81	1097.88
1033.099	1083.87
1033.387	1076.64
1033.675	1073.02
1033.963	1050.2
1034.251	1045.45
1034.54	1033.02
1034.828	1033.7
1035.116	1037.54
1035.403	1044.55
1035.691	1006.81
1035.979	992.35
1036.267	991.44
1036.554	990.54
1036.842	984.44
1037.129	973.14
1037.417	976.98
1037.704	969.3
1037.992	975.17
1038.279	935.4
1038.566	959.81
1038.853	959.81
1039.14	959.81
