Data from hue_26_FLMS001491_00097.txt Node
Date: Tue Feb 07 17:14:51 GMT 2017
User: dcchb
Spectrometer: FLMS00149
Trigger mode: 0
Integration Time (sec): 2.000000E-2
Scans to average: 10
Electric dark correction enabled: true
Nonlinearity correction enabled: false
Boxcar width: 0
XAxis mode: Wavelengths
Number of Pixels in Spectrum: 2048
>>>>>Begin Spectral Data<<<<<
341.393	-9.29
341.776	-9.29
342.16	-9.29
342.543	-76.18
342.927	-64.43
343.31	-71.89
343.693	-74.83
344.077	-74.83
344.46	-65.79
344.843	-51.33
345.226	-33.25
345.61	-31.89
345.993	-21.27
346.376	-3.19
346.759	13.3
347.142	22.57
347.525	52.4
347.908	60.76
348.291	75.22
348.674	91.04
349.057	112.96
349.44	132.62
349.823	120.19
350.206	153.19
350.588	211.27
350.971	225.5
351.354	247.87
351.737	250.81
352.119	265.73
352.502	297.82
352.884	298.95
353.267	283.35
353.65	293.75
354.032	305.05
354.414	323.81
354.797	338.27
355.179	336.69
355.562	331.26
355.944	335.33
356.326	339.4
356.709	371.26
357.091	364.93
357.473	367.65
357.855	364.26
358.238	347.76
358.62	346.63
359.002	352.5
359.384	344.82
359.766	347.31
360.148	348.21
360.53	361.54
360.912	336.46
361.294	351.37
361.676	366.97
362.057	368.78
362.439	339.17
362.821	345.95
363.203	327.87
363.584	354.31
363.966	343.24
364.348	346.4
364.729	340.3
365.111	328.78
365.493	327.87
365.874	345.05
366.256	336.01
366.637	344.82
367.019	326.52
367.4	342.11
367.781	328.78
368.163	334.2
368.544	331.49
368.925	319.96
369.306	344.37
369.688	333.07
370.069	327.19
370.45	311.6
370.831	327.19
371.212	344.14
371.593	323.81
371.974	325.61
372.355	322.22
372.736	352.05
373.117	338.04
373.498	354.31
373.879	341.21
374.26	342.79
374.641	336.23
375.021	331.04
375.402	343.47
375.783	337.82
376.163	379.4
376.544	330.81
376.925	350.92
377.305	347.76
377.686	356.35
378.066	366.74
378.447	349.79
378.827	350.47
379.208	371.04
379.588	361.77
379.968	370.58
380.349	347.76
380.729	363.13
381.109	382.11
381.489	384.37
381.87	371.49
382.25	377.36
382.63	375.33
383.01	383.69
383.39	373.97
383.77	374.88
384.15	360.41
384.53	388.21
384.91	385.05
385.29	380.07
385.67	378.72
386.049	392.5
386.429	392.28
386.809	361.32
387.189	392.73
387.568	391.15
387.948	397.93
388.328	388.89
388.707	402
389.087	402.67
389.466	415.1
389.846	379.62
390.225	399.28
390.605	402.45
390.984	421.2
391.363	411.71
391.743	428.21
392.122	421.66
392.501	425.05
392.881	448.1
393.26	409.68
393.639	421.43
394.018	433.41
394.397	433.63
394.776	416.68
395.155	424.14
395.534	452.16
395.913	441.77
396.292	459.62
396.671	434.54
397.05	453.75
397.429	453.52
397.808	441.09
398.186	444.93
398.565	453.97
398.944	448.77
399.323	435.67
399.701	455.78
400.08	463.24
400.458	451.94
400.837	452.16
401.215	469.56
401.594	484.25
401.972	457.36
402.351	470.69
402.729	486.74
403.107	475.21
403.486	487.42
403.864	500.75
404.242	493.29
404.62	486.96
404.999	501.65
405.377	487.87
405.755	505.04
406.133	516.34
406.511	510.47
406.889	532.84
407.267	521.54
407.645	545.27
408.023	529.68
408.401	528.32
408.779	550.01
409.156	522.9
409.534	554.53
409.912	535.78
410.29	533.07
410.667	554.31
411.045	561.54
411.422	576.45
411.8	549.11
412.178	582.56
412.555	558.6
412.933	577.13
413.31	582.56
413.687	631.82
414.065	571.71
414.442	582.78
414.819	604.25
415.197	600.41
415.574	593.63
415.951	620.52
416.328	638.6
416.705	602.89
417.082	630.69
417.46	644.02
417.837	634.08
418.214	648.32
418.591	647.41
418.967	661.88
419.344	653.97
419.721	667.52
420.098	674.53
420.475	682.21
420.852	681.76
421.228	667.98
421.605	674.76
421.982	691.93
422.358	697.81
422.735	706.17
423.111	706.85
423.488	700.74
423.864	717.69
424.241	727.18
424.617	704.81
424.994	729.67
425.37	746.84
425.746	758.82
426.123	720.4
426.499	764.25
426.875	751.82
427.251	767.18
427.627	762.21
428.003	769.9
428.379	788.2
428.756	781.19
429.132	788.43
429.507	833.17
429.883	794.3
430.259	851.25
430.635	818.48
431.011	824.13
431.387	839.27
431.763	849.44
432.138	848.09
432.514	847.86
432.89	865.49
433.265	911.81
433.641	886.5
434.016	887.41
434.392	907.29
434.767	907.29
435.143	927.63
435.518	933.51
435.894	945.26
436.269	965.37
436.644	954.3
437.02	971.25
437.395	952.72
437.77	977.35
438.145	997.91
438.52	1035.42
438.895	1032.49
439.271	1013.28
439.646	1053.28
440.021	1054.63
440.395	1045.37
440.77	1034.97
441.145	1051.47
441.52	1052.6
441.895	1048.31
442.27	1100.28
442.645	1071.58
443.019	1064.35
443.394	1094.18
443.769	1087.85
444.143	1119.04
444.518	1101.64
444.892	1133.05
445.267	1119.72
445.641	1138.02
446.016	1173.27
446.39	1156.1
446.764	1168.75
447.139	1145.25
447.513	1174.18
447.887	1190.67
448.262	1164.23
448.636	1188.19
449.01	1199.26
449.384	1237.45
449.758	1202.2
450.132	1224.12
450.506	1247.85
450.88	1250.11
451.254	1248.53
451.628	1250.79
452.002	1284.01
452.376	1296.66
452.75	1295.98
453.123	1310.67
453.497	1338.02
453.871	1354.29
454.244	1357.22
454.618	1364.23
454.992	1389.31
455.365	1391.12
455.739	1387.05
456.112	1413.49
456.486	1447.62
456.859	1466.15
457.232	1493.72
457.606	1467.05
457.979	1472.93
458.352	1521.74
458.725	1522.64
459.099	1536.2
459.472	1577.33
459.845	1607.39
460.218	1593.15
460.591	1633.6
460.964	1614.84
461.337	1640.61
461.71	1668.4
462.083	1697.55
462.456	1699.36
462.829	1692.58
463.201	1769.19
463.574	1747.27
463.947	1756.08
464.32	1811.22
464.692	1823.65
465.065	1828.62
465.438	1851
465.81	1896.42
466.183	1889.64
466.555	1954.27
466.928	1944.78
467.3	1986.81
467.672	1988.62
468.045	2032.69
468.417	2032.46
468.789	2097.77
469.161	2090.09
469.534	2125.57
469.906	2167.15
470.278	2193.36
470.65	2206.47
471.022	2269.06
471.394	2299.8
471.766	2332.57
472.138	2393.36
472.51	2435.16
472.882	2472.22
473.253	2469.29
473.625	2529.17
473.997	2576.63
474.369	2637.64
474.74	2666.34
475.112	2661.14
475.484	2716.74
475.855	2772.78
476.227	2785.21
476.598	2878.09
476.97	2933
477.341	3001.02
477.713	3056.16
478.084	3092.55
478.455	3143.62
478.827	3205.31
479.198	3287.34
479.569	3313.56
479.94	3437.62
480.311	3486.43
480.682	3514.23
481.053	3586.77
481.424	3697.95
481.795	3711.51
482.166	3803.71
482.537	3819.31
482.908	3925.07
483.279	3985.4
483.65	4097.04
484.021	4170.94
484.391	4217.04
484.762	4293.19
485.133	4316.92
485.503	4410.48
485.874	4502.9
486.244	4542.23
486.615	4628.32
486.985	4729.34
487.356	4815.21
487.726	4827.87
488.097	4982.89
488.467	5022.89
488.837	5122.55
489.207	5161.87
489.578	5261.75
489.948	5316.22
490.318	5384.69
490.688	5447.74
491.058	5555.76
491.428	5654.06
491.798	5679.6
492.168	5809.08
492.538	5842.76
492.908	5912.13
493.278	5983.54
493.648	6025.58
494.017	6103.31
494.387	6208.85
494.757	6294.5
495.126	6337.88
495.496	6347.83
495.866	6438.45
496.235	6548.95
496.605	6521.61
496.974	6642.51
497.344	6637.99
497.713	6742.17
498.082	6800.47
498.452	6868.94
498.821	6925.67
499.19	6979.68
499.559	7090.41
499.928	7072.33
500.298	7093.34
500.667	7211.31
501.036	7232.1
501.405	7242.72
501.774	7294.92
502.143	7352.09
502.512	7375.82
502.88	7485.42
503.249	7422.6
503.618	7500.11
503.987	7634.35
504.356	7646.78
504.724	7692.65
505.093	7699.88
505.462	7776.49
505.83	7806.32
506.199	7881.57
506.567	8011.96
506.936	7921.57
507.304	8080.89
507.672	8107.78
508.041	8140.55
508.409	8212.86
508.777	8182.13
509.145	8276.59
509.514	8291.51
509.882	8359.53
510.25	8438.85
510.618	8390.03
510.986	8467.77
511.354	8549.35
511.722	8619.41
512.09	8641.33
512.458	8681.33
512.826	8747.76
513.193	8763.58
513.561	8802.45
513.929	8847.42
514.297	8893.75
514.664	8931.71
515.032	9038.83
515.4	9088.55
515.767	9085.38
516.135	9138.49
516.502	9065.5
516.869	9273.63
517.237	9249.9
517.604	9227.3
517.972	9301.65
518.339	9374.64
518.706	9338.48
519.073	9456.67
519.44	9558.36
519.808	9590.45
520.175	9526.5
520.542	9658.93
520.909	9739.38
521.276	9731.47
521.643	9762.88
522.009	9850.79
522.376	9928.3
522.743	9934.63
523.11	10105.24
523.477	10154.28
523.843	10163.32
524.21	10282.87
524.577	10316.08
524.943	10360.15
525.31	10408.51
525.676	10434.5
526.043	10541.16
526.409	10592.69
526.776	10688.05
527.142	10617.09
527.508	10742.97
527.874	10802.63
528.241	10906.13
528.607	10913.81
528.973	11027.25
529.339	10954.49
529.705	11171.2
530.071	11233.8
530.437	11213.46
530.803	11285.1
531.169	11419.33
531.535	11328.04
531.901	11386.79
532.267	11460.01
532.632	11580.68
532.998	11615.71
533.364	11704.07
533.73	11729.38
534.095	11846.67
534.461	11882.82
534.826	11855.93
535.192	11889.83
535.557	12113.78
535.923	12076.26
536.288	12120.56
536.653	12113.55
537.019	12259.08
537.384	12195.36
537.749	12279.65
538.114	12361.23
538.479	12306.54
538.845	12425.41
539.21	12404.84
539.575	12561.68
539.94	12496.82
540.305	12652.75
540.67	12616.59
541.034	12641.22
541.399	12716.47
541.764	12728.22
542.129	12791.05
542.494	12878.5
542.858	12857.03
543.223	12966.64
543.587	13080.31
543.952	13021.32
544.316	13109.91
544.681	13070.59
545.045	13229.68
545.41	13219.74
545.774	13347.64
546.138	13290.02
546.503	13484.81
546.867	13451.14
547.231	13619.73
547.595	13568.65
547.959	13676.9
548.324	13626.51
548.688	13673.51
549.052	13761.19
549.416	13811.13
549.779	13824.69
550.143	13834.41
550.507	13967.74
550.871	13981.98
551.235	13963.67
551.599	14119.15
551.962	14123.67
552.326	14189.88
552.689	14277.34
553.053	14206.15
553.417	14261.29
553.78	14403.66
554.143	14305.81
554.507	14487.95
554.87	14480.49
555.234	14677.78
555.597	14679.13
555.96	14669.64
556.323	14682.98
556.686	14777.44
557.05	14843.65
557.413	14838.23
557.776	14971.56
558.139	15005.68
558.502	15074.15
558.865	15094.26
559.228	15133.59
559.59	15151.21
559.953	15236.41
560.316	15375.61
560.679	15437.31
561.041	15507.13
561.404	15564.76
561.767	15557.3
562.129	15522.05
562.492	15821.7
562.854	15831.42
563.217	15758.2
563.579	15731.08
563.941	15898.54
564.304	15869.16
564.666	16023.73
565.028	15985.99
565.39	16073
565.753	16281.8
566.115	16251.97
566.477	16443.83
566.839	16425.98
567.201	16540.1
567.563	16523.15
567.925	16566.09
568.287	16575.58
568.648	16617.39
569.01	16808.57
569.372	16948
569.734	16834.11
570.095	16907.1
570.457	16976.93
570.819	17100.31
571.18	17091.73
571.542	17212.4
571.903	17280.2
572.265	17359.29
572.626	17438.38
572.987	17435.22
573.349	17641.99
573.71	17749.56
574.071	17705.04
574.432	17825.27
574.794	17928.99
575.155	17991.14
575.516	18030.01
575.877	18172.15
576.238	18300.73
576.599	18395.19
576.96	18489.2
577.32	18532.82
577.681	18706.15
578.042	18835.63
578.403	18857.33
578.763	19168.73
579.124	19221.39
579.485	19363.98
579.845	19577.31
580.206	19655.95
580.566	19811.88
580.927	20024.76
581.287	20171.87
581.648	20258.2
582.008	20715.81
582.368	20768.01
582.728	21018.18
583.089	21163.26
583.449	21316.02
583.809	21740.87
584.169	21891.37
584.529	22141.31
584.889	22358.93
585.249	22593.05
585.609	22756.89
585.969	23145.35
586.329	23343.09
586.688	23584.21
587.048	23789.85
587.408	23984.88
587.768	24446.33
588.127	24743.5
588.487	24999.54
588.846	25409.93
589.206	25604.04
589.565	25890.59
589.925	26408.32
590.284	26645.6
590.643	27081.52
591.003	27408.97
591.362	27768.96
591.721	28064.32
592.08	28453.91
592.44	28961.92
592.799	29193.1
593.158	29505.41
593.517	29943.14
593.876	30353.98
594.235	30697.7
594.593	31051.58
594.952	31511.91
595.311	31816.08
595.67	32194.61
596.029	32734.03
596.387	33012.89
596.746	33495.14
597.104	33649.71
597.463	34063.93
597.822	34615.56
598.18	34959.73
598.538	35224.81
598.897	35753.16
599.255	35830.22
599.613	36694.83
599.972	36856.86
600.33	37316.28
600.688	37509.72
601.046	38054.34
601.404	38411.17
601.762	38682.57
602.12	39220.64
602.478	39558.03
602.836	40019.71
603.194	40088.64
603.552	40365.92
603.91	40594.61
604.268	41080.02
604.625	41263.75
604.983	41700.57
605.341	41890.62
605.698	42297.62
606.056	42672.97
606.413	42838.85
606.771	43332.17
607.128	43606.51
607.485	43717.92
607.843	44034.52
608.2	44555.64
608.557	44842.18
608.914	44900.26
609.272	45330.98
609.629	45536.85
609.986	45862.04
610.343	45961.02
610.7	46467.22
611.057	46555.36
611.414	46631.29
611.771	46979.08
612.127	47469.23
612.484	47475.11
612.841	47774.53
613.198	47628.78
613.554	47839.84
613.911	48249.32
614.267	48559.15
614.624	48602.54
614.98	48801.63
615.337	49200.03
615.693	49242.52
616.05	49299.92
616.406	49608.38
616.762	49644.09
617.118	49717.31
617.475	49812.45
617.831	50093.57
618.187	50223.74
618.543	50359.55
618.899	50593.9
619.255	50641.35
619.611	50655.14
619.967	50996.6
620.323	51146.2
620.678	50998.86
621.034	50994.79
621.39	51199.53
621.746	51178.97
622.101	51549.58
622.457	51380.09
622.812	51645.17
623.168	51694.43
623.523	51743.7
623.879	51965.39
624.234	51855.56
624.589	51900.3
624.945	52002.9
625.3	52166.06
625.655	52283.57
626.01	52209.45
626.365	52385.71
626.72	52341.65
627.075	52305.49
627.43	52433.85
627.785	52379.61
628.14	52601.53
628.495	52724.69
628.85	52545.48
629.205	52576.67
629.559	52726.49
629.914	52685.82
630.269	52810.56
630.623	52642.88
630.978	52624.8
631.332	52770.34
631.687	52874.29
632.041	52697.12
632.396	52889.2
632.75	52726.72
633.104	52846.04
633.459	52736.21
633.813	52801.75
634.167	52756.1
634.521	52867.06
634.875	52855.76
635.229	52853.05
635.583	52806.72
635.937	52734.4
636.291	52726.04
636.645	52720.85
636.999	52733.5
637.352	52826.15
637.706	52740.51
638.06	52891.91
638.413	52774.18
638.767	52630.45
639.121	52760.17
639.474	52640.85
639.828	52673.84
640.181	52698.7
640.534	52765.36
640.888	52553.39
641.241	52519.49
641.594	52574.41
641.947	52682.43
642.301	52641.53
642.654	52734.63
643.007	52775.76
643.36	52613.05
643.713	52561.08
644.066	52720.85
644.419	52543.67
644.771	52328.09
645.124	51969.9
645.477	51944.14
645.83	51754.32
646.182	51745.05
646.535	51658.05
646.888	51713.64
647.24	51558.39
647.593	51684.04
647.945	51737.37
648.298	51507.54
648.65	51560.88
649.002	51413.54
649.355	51539.63
649.707	51522.01
650.059	51656.01
650.411	52012.84
650.763	52164.7
651.115	52367.86
651.467	52320.4
651.819	52253.29
652.171	52190.92
652.523	52166.51
652.875	52174.19
653.227	52059.85
653.578	52213.51
653.93	52131.71
654.282	51972.39
654.633	51933.52
654.985	51991.37
655.337	52104.14
655.688	52160.18
656.039	52252.84
656.391	51927.42
656.742	52020.07
657.094	51994.99
657.445	52157.7
657.796	52015.1
658.147	51945.27
658.498	51991.83
658.849	52113.4
659.2	52044.93
659.551	51905.95
659.902	52032.28
660.253	51987.98
660.604	51968.32
660.955	51850.81
661.306	51936.69
661.656	51789.8
662.007	51909.79
662.358	51937.36
662.708	51875.44
663.059	51963.58
663.409	51681.55
663.76	51979.85
664.11	51959.28
664.461	51904.14
664.811	52021.43
665.161	51879.51
665.511	51910.92
665.862	51889.23
666.212	51964.71
666.562	51941.88
666.912	51812.62
667.262	51760.42
667.612	51793.19
667.962	51877.93
668.312	51813.3
668.662	51839.29
669.011	51757.03
669.361	51696.24
669.711	51768.33
670.06	51671.61
670.41	51727.2
670.76	51568.33
671.109	51646.52
671.459	51586.41
671.808	51632.29
672.157	51586.19
672.507	51434.55
672.856	51481.33
673.205	51491.05
673.554	51708.22
673.904	51493.99
674.253	51747.99
674.602	51556.81
674.951	51230.72
675.3	50866.43
675.649	51558.62
675.998	51402.46
676.346	51532.18
676.695	51569.92
677.044	51322.92
677.393	51432.29
677.741	51437.72
678.09	51422.12
678.438	51246.76
678.787	51306.42
679.135	51342.58
679.484	51136.93
679.832	51234.56
680.181	51018.29
680.529	51123.6
680.877	51053.77
681.225	50937.62
681.573	51144.84
681.922	50975.13
682.27	50772.42
682.618	50758.19
682.966	50838.64
683.314	50795.92
683.661	50701.92
684.009	50496.72
684.357	50529.72
684.705	50372.43
685.053	50533.33
685.4	50504.18
685.748	50234.81
686.095	50345.09
686.443	50124.53
686.79	50104.42
687.138	50224.64
687.485	50124.3
687.832	49926.57
688.18	49925.66
688.527	49775.39
688.874	49792.79
689.221	49755.5
689.568	49701.26
689.915	49668.95
690.262	49634.6
690.609	49324.32
690.956	49381.27
691.303	49320.03
691.65	49103.99
691.997	49151.22
692.344	48846.6
692.69	48983.54
693.037	48877.56
693.383	48606.83
693.73	48777.22
694.077	48486.83
694.423	48504.23
694.769	48421.98
695.116	48281.87
695.462	48313.5
695.808	48134.07
696.155	48120.29
696.501	47879.39
696.847	47899.05
697.193	47702.67
697.539	47851.37
697.885	47474.66
698.231	47439.63
698.577	47464.71
698.923	47396.24
699.269	47123.03
699.614	47104.72
699.96	46962.13
700.306	47006.42
700.651	46844.16
700.997	46812.53
701.342	46599.2
701.688	46577.5
702.033	46399.66
702.379	46456.6
702.724	46354.69
703.069	46269.49
703.415	45940.01
703.76	45915.37
704.105	45948.37
704.45	45840.57
704.795	45759.67
705.14	45539.57
705.485	45580.69
705.83	45344.32
706.175	45415.5
706.52	45291.66
706.865	45215.73
707.209	45061.16
707.554	44849.19
707.899	44871.56
708.243	44596.54
708.588	44715.18
708.932	44320.61
709.277	44529.42
709.621	44480.84
709.966	44212.82
710.31	44301.18
710.654	43991.13
710.998	44027.74
711.342	44021.41
711.687	44060.06
712.031	43665.72
712.375	43551.59
712.719	43587.3
713.063	43556.34
713.407	43602.44
713.75	43357.7
714.094	43328.32
714.438	43133.53
714.782	43266.63
715.125	43091.27
715.469	43099.63
715.812	42914.1
716.156	42776.47
716.499	42807.89
716.843	42807.66
717.186	42548.23
717.53	42790.94
717.873	42721.11
718.216	42488.12
718.559	42415.35
718.902	42126.77
719.246	42302.36
719.589	42164.74
719.932	42035.7
720.275	42129.03
720.617	41944.63
720.96	41899.66
721.303	41754.81
721.646	41812.88
721.989	41539.9
722.331	41786.22
722.674	41592.78
723.016	41688.37
723.359	41465.55
723.701	41552.55
724.044	41299.45
724.386	41157.08
724.729	41236.85
725.071	41217.65
725.413	41203.63
725.755	40959.35
726.097	40882.51
726.439	40757.32
726.782	40750.99
727.124	40939.23
727.465	40630.54
727.807	40637.32
728.149	40436.87
728.491	40454.5
728.833	40434.61
729.175	40230.1
729.516	40195.53
729.858	40238.24
730.199	40319.36
730.541	40089.99
730.882	40142.87
731.224	40153.04
731.565	39944.01
731.906	40087.73
732.248	40015.42
732.589	39708.31
732.93	39682.54
733.271	39625.6
733.612	39591.93
733.953	39740.62
734.294	39511.25
734.635	39467.18
734.976	39610.46
735.317	39391.7
735.658	39401.65
735.999	39358.26
736.339	39310.8
736.68	39327.07
737.021	39260.86
737.361	39069.45
737.702	39134.08
738.042	38971.38
738.383	38839.18
738.723	38936.35
739.063	38856.35
739.404	38929.12
739.744	38643.25
740.084	38626.07
740.424	38678.5
740.764	38540.65
741.104	38704.72
741.444	38484.16
741.784	38396.25
742.124	38306.31
742.464	38283.26
742.804	38222.02
743.143	38205.52
743.483	38103.83
743.823	37845.3
744.162	37957.39
744.502	38106.31
744.841	37841.24
745.181	38052.3
745.52	37862.71
745.86	37817.06
746.199	37753.33
746.538	37778.64
746.877	37848.47
747.216	37707.68
747.556	37564.41
747.895	37629.04
748.234	37354.92
748.573	37368.48
748.911	37324.64
749.25	37386.33
749.589	37239.44
749.928	37317.63
750.267	37269.73
750.605	37213.46
750.944	37003.74
751.283	36792.9
751.621	37036.74
751.96	36762.62
752.298	36676.07
752.636	36813.92
752.975	36637.65
753.313	36551.55
753.651	36698.44
753.989	36470.88
754.327	36388.85
754.666	36167.61
755.004	36352.46
755.342	36151.56
755.679	36176.87
756.017	35999.7
756.355	36115.41
756.693	35795.87
757.031	35938.69
757.368	35583.44
757.706	35611.24
758.044	35485.82
758.381	35464.12
758.719	35344.13
759.056	35471.13
759.394	35317.24
759.731	35139.61
760.068	34977.13
760.405	35006.73
760.743	34864.37
761.08	34915.89
761.417	34747.53
761.754	34687.42
762.091	34617.14
762.428	34435.68
762.765	34305.06
763.102	34322.46
763.438	34135.35
763.775	34130.15
764.112	34126.53
764.449	34112.97
764.785	33837.27
765.122	33654.91
765.458	33581.46
765.795	33523.61
766.131	33560.67
766.467	33316.38
766.804	33158.42
767.14	33027.13
767.476	32995.26
767.812	32856.06
768.148	32907.13
768.485	32699
768.821	32496.07
769.157	32566.12
769.492	32386.92
769.828	32414.49
770.164	31874.39
770.5	31980.15
770.836	32118.68
771.171	31840.04
771.507	31695.64
771.842	31451.57
772.178	31539.93
772.513	31434.4
772.849	31337.45
773.184	31176.55
773.519	31048.42
773.855	30981.98
774.19	30903.11
774.525	30832.83
774.86	30773.17
775.195	30650.92
775.53	30544.03
775.865	30407.99
776.2	30202.79
776.535	30015.68
776.87	29931.61
777.205	29935.68
777.539	29762.58
777.874	29851.84
778.209	29617.5
778.543	29612.75
778.878	29355.81
779.212	29325.3
779.547	29179.77
779.881	29249.82
780.215	28996.05
780.55	29006.67
780.884	28778.88
781.218	28753.79
781.552	28740.01
781.886	28541.59
782.22	28480.58
782.554	28354.48
782.888	28007.82
783.222	27896.19
783.556	27900.48
783.889	27870.88
784.223	27688.74
784.557	27658.45
784.89	27569.87
785.224	27526.25
785.557	27393.6
785.891	27262.31
786.224	27154.74
786.558	27070.67
786.891	26936.66
787.224	26775.09
787.557	26747.52
787.891	26718.82
788.224	26609.89
788.557	26609.44
788.89	26583.23
789.223	26512.72
789.556	26322.22
789.888	26224.82
790.221	26119.51
790.554	25875
790.887	25739.18
791.219	25832.96
791.552	25785.06
791.884	25625.29
792.217	25599.3
792.549	25473.43
792.882	25360.21
793.214	25225.3
793.546	25220.1
793.879	25108.69
794.211	24959.09
794.543	24963.84
794.875	24901.01
795.207	24984.17
795.539	24732.2
795.871	24740.79
796.203	24564.3
796.535	24422.38
796.867	24440.69
797.198	24307.13
797.53	24240.24
797.862	24202.95
798.193	24223.74
798.525	23965.9
798.856	24002.5
799.188	23814.03
799.519	23719.57
799.85	23625.79
800.182	23599.13
800.513	23645.23
800.844	23346.02
801.175	23515.96
801.506	23438.9
801.837	23316.42
802.168	23261.96
802.499	23087.5
802.83	23040.95
803.161	22939.26
803.491	22944.45
803.822	22995.75
804.153	22844.12
804.483	22686.38
804.814	22591.02
805.145	22478.48
805.475	22503.56
805.805	22410.23
806.136	22346.73
806.466	22325.94
806.796	22297.24
807.126	22126.62
807.457	22091.37
807.787	22086.85
808.117	22012.05
808.447	21938.38
808.777	21884.37
809.107	21836.01
809.436	21599.86
809.766	21668.33
810.096	21636.24
810.426	21445.74
810.755	21550.82
811.085	21478.28
811.414	21525.06
811.744	21291.62
812.073	21259.75
812.403	21222.46
812.732	21060.43
813.061	21097.72
813.39	20998.52
813.719	20956.26
814.049	21094.56
814.378	21040.32
814.707	20902.02
815.036	20803.27
815.365	20801.91
815.693	20508.59
816.022	20601.01
816.351	20504.07
816.68	20407.12
817.008	20525.53
817.337	20328.48
817.665	20300
817.994	20338.87
818.322	20283.51
818.651	20180.91
818.979	19981.14
819.307	20222.04
819.636	20099.56
819.964	19930.07
820.292	19979.33
820.62	20040.8
820.948	19968.03
821.276	20037.86
821.604	19909.28
821.932	19901.37
822.259	19943.18
822.587	19813.91
822.915	19904.31
823.243	19862.73
823.57	19898.21
823.898	19928.71
824.225	19849.39
824.553	19728.04
824.88	19887.81
825.207	19839
825.535	19733.01
825.862	19842.84
826.189	19699.57
826.516	19901.37
826.843	19818.21
827.17	19778.43
827.497	19834.48
827.824	19736.4
828.151	19850.75
828.478	19735.72
828.805	19824.54
829.131	19779.56
829.458	19867.25
829.785	19687.59
830.111	19729.85
830.438	19862.95
830.764	19799.45
831.09	19754.48
831.417	19602.39
831.743	19757.42
832.069	19703.18
832.395	19623.41
832.722	19674.93
833.048	19649.4
833.374	19577.99
833.7	19549.97
834.026	19525.11
834.351	19634.94
834.677	19417.31
835.003	19572.34
835.329	19519.91
835.654	19424.32
835.98	19458.44
836.306	19489.4
836.631	19438.1
836.956	19356.75
837.282	19311.1
837.607	19271.1
837.932	19284.66
838.258	19294.15
838.583	19266.58
838.908	19100.49
839.233	19156.3
839.558	19130.09
839.883	18953.37
840.208	19014.16
840.533	19055.97
840.858	19031.56
841.182	18890.32
841.507	18944.11
841.832	18789.31
842.156	18815.07
842.481	18822.3
842.805	18773.04
843.13	18648.97
843.454	18706.15
843.778	18620.27
844.103	18517.9
844.427	18499.15
844.751	18454.85
845.075	18469.32
845.399	18395.19
845.723	18341.18
846.047	18370.34
846.371	18220.06
846.695	18125.6
847.019	17983.91
847.343	17921.99
847.666	17835.43
847.99	17791.59
848.313	17725.16
848.637	17631.37
848.96	17578.72
849.284	17489.46
849.607	17418.95
849.931	17358.16
850.254	17284.72
850.577	17068.45
850.9	17112.29
851.223	17015.57
851.546	16983.48
851.869	16875.91
852.192	16965.63
852.515	16725.86
852.838	16826.42
853.161	16655.35
853.483	16582.81
853.806	16498.97
854.129	16508.92
854.451	16457.17
854.774	16418.07
855.096	16337.4
855.419	16397.96
855.741	16262.37
856.063	16122.49
856.385	16154.35
856.708	16163.61
857.03	16000.45
857.352	16036.61
857.674	16009.27
857.996	15887.01
858.318	15829.84
858.64	15831.87
858.961	15763.17
859.283	15736.28
859.605	15600.92
859.926	15596.62
860.248	15555.49
860.57	15562.27
860.891	15542.39
861.212	15547.13
861.534	15421.04
861.855	15330.19
862.176	15434.82
862.498	15383.97
862.819	15410.41
863.14	15314.6
863.461	15195.96
863.782	15181.72
864.103	15215.84
864.424	15168.61
864.745	15165.9
865.065	15077.99
865.386	15078.67
865.707	14995.06
866.027	14977.21
866.348	15055.85
866.668	15022.4
866.989	14917.32
867.309	14829.41
867.63	14816.53
867.95	14879.13
868.27	14721.17
868.59	14797.1
868.91	14702.18
869.23	14600.04
869.55	14635.97
869.87	14733.37
870.19	14673.94
870.51	14692.92
870.83	14642.75
871.15	14594.16
871.469	14585.58
871.789	14560.04
872.109	14474.62
872.428	14436.2
872.748	14468.74
873.067	14387.84
873.386	14422.87
873.706	14380.84
874.025	14256.09
874.344	14333.15
874.663	14391.23
874.982	14193.72
875.301	14219.48
875.62	14198.47
875.939	14204.12
876.258	14160.5
876.577	14251.12
876.896	14162.76
877.214	14096.1
877.533	14133.84
877.852	14086.16
878.17	14087.51
878.489	14076.66
878.807	13993.28
879.125	14057.68
879.444	13995.76
879.762	13987.4
880.08	13886.16
880.398	13888.19
880.716	13893.17
881.034	13788.76
881.352	13816.78
881.67	13791.7
881.988	13808.87
882.306	13697.01
882.624	13704.7
882.941	13608.2
883.259	13490.92
883.577	13555.1
883.894	13564.13
884.212	13559.16
884.529	13541.54
884.846	13462.89
885.164	13445.04
885.481	13406.4
885.798	13450.69
886.115	13261.54
886.432	13306.29
886.75	13249.79
887.067	13259.51
887.383	13208.66
887.7	13250.92
888.017	13218.83
888.334	13170.25
888.651	13105.39
888.967	13048.89
889.284	12973.19
889.6	13019.97
889.917	12873.31
890.233	12933.42
890.55	12945.17
890.866	12898.39
891.182	12813.19
891.498	12730.94
891.815	12713.31
892.131	12731.61
892.447	12610.26
892.763	12572.75
893.079	12575.46
893.395	12530.49
893.71	12497.95
894.026	12444.62
894.342	12495.01
894.657	12319.87
894.973	12433.09
895.289	12297.5
895.604	12300.21
895.92	12101.35
896.235	12107.22
896.55	12095.92
896.865	12128.69
897.181	11972.54
897.496	12055.93
897.811	12005.31
898.126	11937.74
898.441	11956.27
898.756	11864.74
899.071	11778.42
899.386	11734.35
899.7	11677.4
900.015	11650.06
900.33	11579.1
900.644	11543.85
900.959	11576.39
901.273	11498.65
901.588	11423.85
901.902	11362.16
902.216	11445.09
902.531	11377.98
902.845	11263.4
903.159	11215.04
903.473	11168.49
903.787	11172.79
904.101	11102.5
904.415	11061.15
904.729	11044.65
905.042	10911.32
905.356	10888.05
905.67	10928.05
905.984	10905.67
906.297	10868.84
906.611	10772.8
906.924	10811.44
907.237	10733.93
907.551	10718.11
907.864	10703.87
908.177	10615.29
908.491	10671.1
908.804	10488.74
909.117	10507.94
909.43	10376.87
909.743	10325.8
910.056	10388.85
910.368	10310.44
910.681	10266.59
910.994	10188.63
911.307	10184.79
911.619	10083.1
911.932	10197.67
912.244	10054.85
912.557	10058.46
912.869	9929.43
913.181	9884.68
913.494	9912.25
913.806	9890.56
914.118	9848.98
914.43	9774.18
914.742	9672.49
915.054	9672.26
915.366	9628.65
915.678	9601.53
915.99	9506.84
916.302	9485.82
916.613	9543.9
916.925	9476.56
917.236	9416.67
917.548	9319.05
917.859	9350.23
918.171	9261.2
918.482	9211.03
918.794	9157.25
919.105	9214.87
919.416	9082.44
919.727	9088.77
920.038	9085.16
920.349	8995.67
920.66	8974.2
920.971	8932.17
921.282	8925.61
921.593	8800.42
921.903	8780.31
922.214	8723.36
922.525	8766.75
922.835	8698.5
923.146	8661.89
923.456	8620.08
923.767	8627.99
924.077	8629.8
924.387	8494.44
924.697	8499.86
925.008	8495.57
925.318	8398.39
925.628	8412.86
925.938	8341.67
926.248	8300.09
926.558	8287.89
926.867	8312.52
927.177	8176.48
927.487	8197.04
927.796	8109.36
928.106	8086.09
928.416	8069.14
928.725	8061.68
929.034	7946.66
929.344	7967.45
929.653	7950.05
929.962	7867.34
930.271	7815.13
930.581	7814.91
930.89	7718.19
931.199	7699.66
931.508	7738.75
931.817	7677.06
932.125	7637.96
932.434	7647
932.743	7530.4
933.051	7523.62
933.36	7471.19
933.669	7490.62
933.977	7412.88
934.286	7383.73
934.594	7353.68
934.902	7326.33
935.21	7307.35
935.519	7271.87
935.827	7199.1
936.135	7194.81
936.443	7180.35
936.751	7089.28
937.059	7146
937.367	7056.51
937.674	7037.07
937.982	7062.16
938.29	6945.1
938.597	6899.68
938.905	6859.68
939.213	6850.41
939.52	6856.06
939.827	6829.17
940.135	6747.82
940.442	6786.69
940.749	6770.87
941.056	6723.64
941.363	6688.61
941.67	6633.7
941.977	6649.29
942.284	6550.31
942.591	6568.16
942.898	6527.26
943.205	6540.59
943.511	6490.2
943.818	6474.38
944.125	6402.97
944.431	6353.93
944.738	6371.56
945.044	6343.99
945.35	6313.93
945.657	6235.74
945.963	6282.07
946.269	6195.74
946.575	6216.08
946.881	6099.7
947.187	6144.22
947.493	6128.62
947.799	6130.21
948.105	6049.53
948.41	6091.79
948.716	6059.25
949.022	6002.53
949.327	5978.12
949.633	5874.62
949.938	5921.85
950.244	5909.19
950.549	5917.1
950.854	5902.42
951.16	5771.35
951.465	5798.92
951.77	5754.62
952.075	5746.04
952.38	5744.23
952.685	5681.63
952.99	5591.92
953.294	5595.08
953.599	5573.84
953.904	5600.28
954.209	5534.97
954.513	5558.47
954.818	5466.27
955.122	5483.44
955.426	5493.61
955.731	5407.74
956.035	5393.95
956.339	5318.48
956.643	5383.11
956.948	5313.5
957.252	5335.88
957.556	5240.51
957.86	5208.87
958.163	5273.73
958.467	5180.4
958.771	5192.6
959.075	5149.67
959.378	5113.28
959.682	5111.7
959.985	5105.37
960.289	5035.09
960.592	5040.07
960.896	4997.81
961.199	4996.45
961.502	4964.14
961.805	4931.82
962.108	4956
962.411	4923.01
962.714	4838.71
963.017	4865.15
963.32	4889.11
963.623	4814.31
963.926	4831.26
964.228	4826.29
964.531	4792.39
964.833	4789.22
965.136	4704.03
965.438	4697.7
965.741	4689.79
966.043	4637.82
966.345	4630.81
966.648	4689.57
966.95	4590.59
967.252	4583.58
967.554	4551.72
967.856	4578.16
968.158	4494.77
968.46	4519.17
968.761	4514.43
969.063	4480.76
969.365	4497.48
969.666	4455.9
969.968	4389.01
970.269	4421.55
970.571	4364.15
970.872	4382.23
971.174	4345.39
971.475	4331.16
971.776	4292.97
972.077	4291.61
972.378	4233.98
972.679	4221.56
972.98	4195.12
973.281	4202.57
973.582	4168.68
973.883	4123.48
974.183	4101.56
974.484	4103.14
974.785	4087.77
975.085	4083.93
975.386	4094.33
975.686	3998.51
975.986	3979.98
976.287	3976.14
976.587	3965.97
976.887	3967.33
977.187	3953.77
977.487	3946.53
977.787	3882.13
978.087	3848.91
978.387	3876.71
978.687	3832.19
978.987	3840.77
979.286	3824.96
979.586	3830.61
979.885	3767.78
980.185	3763.94
980.484	3742.02
980.784	3765.97
981.083	3712.87
981.382	3708.35
981.682	3676.71
981.981	3726.65
982.28	3662.02
982.579	3650.95
982.878	3596.94
983.177	3589.93
983.475	3589.48
983.774	3536.38
984.073	3554.68
984.372	3522.82
984.67	3549.71
984.969	3550.39
985.267	3519.65
985.566	3494.57
985.864	3473.1
986.162	3427.9
986.461	3421.12
986.759	3410.96
987.057	3435.36
987.355	3378.41
987.653	3358.08
987.951	3388.13
988.249	3346.1
988.547	3298.64
988.844	3337.96
989.142	3283.5
989.44	3285.31
989.737	3261.13
990.035	3219.32
990.332	3231.07
990.63	3190.4
990.927	3224.97
991.224	3160.34
991.521	3153.11
991.819	3139.78
992.116	3145.2
992.413	3114.92
992.71	3085.99
993.006	3099.33
993.303	3079.44
993.6	3077.63
993.897	3020.68
994.193	3024.07
994.49	3036.5
994.787	3041.02
995.083	2999.44
995.379	2997.41
995.676	2962.83
995.972	3006.22
996.268	2922.38
996.565	2911.53
996.861	2884.87
997.157	2912.21
997.453	2843.06
997.749	2872.89
998.044	2800.12
998.34	2853.91
998.636	2812.78
998.932	2829.05
999.227	2772.33
999.523	2812.78
999.818	2740.92
1000.114	2735.49
1000.409	2695.95
1000.704	2714.25
1001	2695.49
1001.295	2706.34
1001.59	2712.89
1001.885	2684.87
1002.18	2589.73
1002.475	2601.49
1002.77	2608.72
1003.065	2580.02
1003.359	2539.79
1003.654	2550.19
1003.949	2557.87
1004.243	2518.55
1004.538	2522.84
1004.832	2528.27
1005.127	2507.93
1005.421	2492.56
1005.715	2442.17
1006.009	2450.53
1006.304	2444.2
1006.598	2352.23
1006.892	2404.65
1007.186	2398.55
1007.48	2370.3
1007.773	2384.09
1008.067	2334.37
1008.361	2331.89
1008.655	2317.65
1008.948	2312.91
1009.242	2311.1
1009.535	2293.92
1009.829	2268.61
1010.122	2244.21
1010.415	2225.9
1010.708	2235.39
1011.001	2216.64
1011.295	2189.97
1011.588	2196.3
1011.881	2147.26
1012.173	2147.49
1012.466	2154.49
1012.759	2145.45
1013.052	2100.26
1013.344	2089.18
1013.637	2055.51
1013.93	2088.05
1014.222	2055.28
1014.514	2053.25
1014.807	2033.36
1015.099	2035.17
1015.391	2008.73
1015.683	1991.33
1015.976	1990.2
1016.268	1979.13
1016.56	1973.71
1016.851	1945.01
1017.143	1950.88
1017.435	1931.67
1017.727	1902.97
1018.018	1896.19
1018.31	1898.9
1018.602	1891.45
1018.893	1864.1
1019.185	1848.06
1019.476	1857.78
1019.767	1850.54
1020.058	1842.64
1020.35	1799.25
1020.641	1775.29
1020.932	1773.48
1021.223	1748.63
1021.514	1768.29
1021.804	1710.89
1022.095	1713.82
1022.386	1722.64
1022.677	1706.82
1022.967	1693.94
1023.258	1670.89
1023.548	1670.66
1023.839	1652.81
1024.129	1620.27
1024.419	1617.1
1024.709	1625.92
1025	1616.43
1025.29	1611.23
1025.58	1596.54
1025.87	1606.03
1026.16	1571.46
1026.449	1589.08
1026.739	1561.74
1027.029	1550.44
1027.319	1510.44
1027.608	1512.7
1027.898	1538.69
1028.187	1534.62
1028.477	1480.16
1028.766	1450.78
1029.055	1468.41
1029.344	1461.18
1029.634	1455.53
1029.923	1456.2
1030.212	1430.89
1030.501	1429.99
1030.79	1412.14
1031.078	1391.8
1031.367	1376.43
1031.656	1381.18
1031.945	1378.01
1032.233	1375.75
1032.522	1359.03
1032.81	1332.59
1033.099	1346.83
1033.387	1323.55
1033.675	1309.77
1033.963	1300.95
1034.251	1306.6
1034.54	1284.23
1034.828	1244.23
1035.116	1267.96
1035.403	1245.81
1035.691	1199.04
1035.979	1289.2
1036.267	1223.89
1036.554	1192.71
1036.842	1220.5
1037.129	1220.5
1037.417	1185.25
1037.704	1177.57
1037.992	1196.55
1038.279	1159.94
1038.566	1190.22
1038.853	1190.22
1039.14	1190.22
