Data from hue_160_FLMS001491_00026.txt Node
Date: Tue Feb 07 16:50:58 GMT 2017
User: dcchb
Spectrometer: FLMS00149
Trigger mode: 0
Integration Time (sec): 2.000000E-2
Scans to average: 10
Electric dark correction enabled: true
Nonlinearity correction enabled: false
Boxcar width: 0
XAxis mode: Wavelengths
Number of Pixels in Spectrum: 2048
>>>>>Begin Spectral Data<<<<<
341.393	-1.21
341.776	-1.21
342.16	-1.21
342.543	-59.29
342.927	-86.64
343.31	-65.17
343.693	-83.47
344.077	-83.47
344.46	-59.29
344.843	-38.95
345.226	-53.42
345.61	-15
345.993	-27.88
346.376	9.18
346.759	27.26
347.142	28.39
347.525	55.51
347.908	41.72
348.291	57.31
348.674	95.51
349.057	111.78
349.44	123.53
349.823	139.57
350.206	158.33
350.588	184.32
350.971	193.58
351.354	221.6
351.737	229.06
352.119	241.04
352.502	250.76
352.884	259.8
353.267	290.76
353.65	284.43
354.032	281.49
354.414	306.12
354.797	295.73
355.179	325.56
355.562	321.04
355.944	319.68
356.326	311.77
356.709	329.85
357.091	313.81
357.473	314.03
357.855	328.72
358.238	326.01
358.62	356.52
359.002	351.77
359.384	320.58
359.766	344.31
360.148	331.21
360.53	307.25
360.912	317.87
361.294	354.71
361.676	329.85
362.057	321.49
362.439	322.17
362.821	322.62
363.203	308.16
363.584	307.48
363.966	330.3
364.348	292.79
364.729	310.19
365.111	318.78
365.493	300.92
365.874	290.08
366.256	306.12
366.637	306.8
367.019	319.45
367.4	333.01
367.781	302.28
368.163	306.35
368.544	317.87
368.925	297.08
369.306	304.77
369.688	293.24
370.069	300.02
370.45	306.8
370.831	293.69
371.212	300.47
371.593	298.44
371.974	308.83
372.355	321.71
372.736	297.76
373.117	307.7
373.498	297.53
373.879	316.74
374.26	330.53
374.641	316.74
375.021	313.58
375.402	321.71
375.783	302.05
376.163	319.91
376.544	313.58
376.925	316.07
377.305	309.74
377.686	324.65
378.066	317.87
378.447	322.39
378.827	335.05
379.208	319.45
379.588	322.62
379.968	315.61
380.349	325.56
380.729	333.01
381.109	323.75
381.489	330.98
381.87	315.16
382.25	326.69
382.63	306.12
383.01	322.84
383.39	333.01
383.77	341.38
384.15	358.1
384.53	352.45
384.91	327.14
385.29	356.97
385.67	343.18
386.049	351.77
386.429	327.59
386.809	342.51
387.189	351.09
387.568	349.51
387.948	344.99
388.328	337.08
388.707	371.2
389.087	320.36
389.466	360.58
389.846	346.57
390.225	361.26
390.605	373.46
390.984	357.42
391.363	347.48
391.743	367.36
392.122	360.13
392.501	347.02
392.881	373.24
393.26	365.78
393.639	359.45
394.018	353.13
394.397	358.55
394.776	364.65
395.155	365.78
395.534	368.04
395.913	359
396.292	389.74
396.671	378.21
397.05	382.28
397.429	387.02
397.808	366.01
398.186	371.2
398.565	392.9
398.944	393.8
399.323	391.32
399.701	395.61
400.08	369.85
400.458	369.62
400.837	401.71
401.215	378.21
401.594	397.87
401.972	403.29
402.351	387.48
402.729	388.61
403.107	413.69
403.486	415.27
403.864	393.13
404.242	420.02
404.62	415.72
404.999	418.66
405.377	403.29
405.755	418.44
406.133	425.67
406.511	411.43
406.889	441.03
407.267	427.25
407.645	434.93
408.023	414.37
408.401	439.68
408.779	450.07
409.156	452.11
409.534	434.48
409.912	434.03
410.29	445.33
410.667	442.16
411.045	434.48
411.422	450.52
411.8	460.24
412.178	467.25
412.555	458.21
412.933	490.3
413.31	469.28
413.687	467.7
414.065	480.81
414.442	475.16
414.819	474.93
415.197	491.65
415.574	482.84
415.951	499.79
416.328	487.59
416.705	530.3
417.082	464.31
417.46	521.71
417.837	520.81
418.214	504.08
418.591	510.18
418.967	497.98
419.344	520.13
419.721	531.2
420.098	523.74
420.475	538.88
420.852	541.37
421.228	550.18
421.605	551.09
421.982	531.88
422.358	539.11
422.735	543.63
423.111	541.37
423.488	558.09
423.864	578.43
424.241	582.05
424.617	573.91
424.994	587.92
425.37	579.11
425.746	591.31
426.123	587.02
426.499	569.84
426.875	603.06
427.251	579.56
427.627	601.26
428.003	616.17
428.379	603.74
428.756	627.92
429.132	626.57
429.507	619.33
429.883	635.83
430.259	657.53
430.635	665.43
431.011	651.88
431.387	661.14
431.763	677.86
432.138	674.25
432.514	690.07
432.89	686
433.265	688.26
433.641	709.28
434.016	720.57
434.392	716.73
434.767	699.78
435.143	709.05
435.518	718.77
435.894	758.09
436.269	743.4
436.644	769.39
437.02	756.51
437.395	737.07
437.77	765.77
438.145	777.52
438.52	778.43
438.895	809.39
439.271	780.69
439.646	805.32
440.021	791.98
440.395	812.78
440.77	811.19
441.145	816.16
441.52	835.6
441.895	842.6
442.27	853.45
442.645	833.34
443.019	843.73
443.394	861.59
443.769	862.04
444.143	869.5
444.518	862.27
444.892	878.54
445.267	900.46
445.641	881.25
446.016	906.56
446.39	899.1
446.764	919.89
447.139	910.85
447.513	926.9
447.887	939.33
448.262	929.83
448.636	943.17
449.01	957.63
449.384	965.99
449.758	947.01
450.132	959.66
450.506	978.65
450.88	970.29
451.254	1011.19
451.628	1018.65
452.002	1026.1
452.376	1007.8
452.75	1042.37
453.123	1033.79
453.497	1043.73
453.871	1031.3
454.244	1065.2
454.618	1075.14
454.992	1067.23
455.365	1108.36
455.739	1128.7
456.112	1142.94
456.486	1144.29
456.859	1160.11
457.232	1174.35
457.606	1197.17
457.979	1200.56
458.352	1218.19
458.725	1213.89
459.099	1236.72
459.472	1260.45
459.845	1274.23
460.218	1247.57
460.591	1289.15
460.964	1295.02
461.337	1342.7
461.71	1336.15
462.083	1395.36
462.456	1391.29
462.829	1394
463.201	1405.75
463.574	1433.78
463.947	1445.53
464.32	1450.05
464.692	1492.98
465.065	1488.92
465.438	1537.28
465.81	1522.59
466.183	1572.98
466.555	1610.72
466.928	1632.41
467.3	1615.24
467.672	1672.87
468.045	1694.56
468.417	1695.24
468.789	1721.23
469.161	1757.16
469.534	1798.06
469.906	1852.97
470.278	1852.52
470.65	1903.37
471.022	1907.66
471.394	1935.23
471.766	2013.42
472.138	1989.02
472.51	2087.54
472.882	2117.37
473.253	2158.5
473.625	2187.43
473.997	2266.75
474.369	2289.12
474.74	2379.29
475.112	2376.8
475.484	2419.51
475.855	2517.14
476.227	2535.22
476.598	2610.92
476.97	2661.99
477.341	2770.24
477.713	2828.09
478.084	2871.48
478.455	2927.75
478.827	3010.01
479.198	3109.89
479.569	3180.85
479.94	3257.91
480.311	3368.87
480.682	3418.58
481.053	3519.82
481.424	3621.06
481.795	3710.1
482.166	3797.1
482.537	3881.4
482.908	3965.23
483.279	4076.87
483.65	4181.27
484.021	4297.2
484.391	4445.22
484.762	4486.35
485.133	4554.6
485.503	4658.78
485.874	4785.1
486.244	4898.54
486.615	5059.9
486.985	5150.29
487.356	5271.87
487.726	5424.86
488.097	5557.51
488.467	5611.52
488.837	5795.47
489.207	5873.43
489.578	6066.65
489.948	6113.2
490.318	6266.64
490.688	6374.89
491.058	6529.24
491.428	6657.82
491.798	6722.68
492.168	6917.93
492.538	7032.95
492.908	7164.92
493.278	7315.66
493.648	7414.64
494.017	7540.51
494.387	7689.66
494.757	7778.92
495.126	7909.31
495.496	7971.23
495.866	8049.2
496.235	8225.69
496.605	8337.1
496.974	8359.02
497.344	8542.97
497.713	8654.15
498.082	8757.65
498.452	8893.69
498.821	8944.31
499.19	9025.89
499.559	9165.55
499.928	9242.84
500.298	9317.18
500.667	9426.56
501.036	9479.21
501.405	9561.7
501.774	9592.66
502.143	9708.59
502.512	9791.97
502.88	9906.55
503.249	9960.33
503.618	10007.34
503.987	10087.33
504.356	10199.87
504.724	10276.03
505.093	10276.48
505.462	10308.34
505.83	10418.4
506.199	10449.36
506.567	10659.97
506.936	10640.09
507.304	10765.06
507.672	10806.18
508.041	10906.52
508.409	10946.29
508.777	10972.51
509.145	11113.75
509.514	11020.19
509.882	11118.49
510.25	11231.48
510.618	11284.36
510.986	11259.05
511.354	11393.97
511.722	11388.32
512.09	11503.34
512.458	11467.64
512.826	11567.75
513.193	11623.34
513.561	11622.66
513.929	11675.99
514.297	11716.9
514.664	11797.12
515.032	11753.5
515.4	11828.53
515.767	11913.95
516.135	11900.39
516.502	11844.12
516.869	12013.16
517.237	12070.78
517.604	12070.78
517.972	12139.71
518.339	12049.54
518.706	12132.25
519.073	12162.76
519.44	12197.33
519.808	12254.06
520.175	12230.33
520.542	12339.03
520.909	12311
521.276	12366.37
521.643	12409.98
522.009	12408.85
522.376	12486.37
522.743	12493.6
523.11	12497.89
523.477	12556.42
523.843	12601.39
524.21	12673.48
524.577	12678.68
524.943	12638.9
525.31	12736.76
525.676	12766.36
526.043	12798.22
526.409	12842.06
526.776	12861.5
527.142	12838.9
527.508	12847.04
527.874	12920.48
528.241	12941.27
528.607	12882.97
528.973	12885.9
529.339	12882.74
529.705	12992.12
530.071	12980.59
530.437	12974.72
530.803	12964.55
531.169	13066.24
531.535	12929.29
531.901	12894.72
532.267	12861.27
532.632	12899.69
532.998	12901.72
533.364	12898.56
533.73	12937.43
534.095	12949.86
534.461	12929.74
534.826	12847.71
535.192	12919.8
535.557	12902.63
535.923	12833.25
536.288	12873.93
536.653	12752.8
537.019	12756.42
537.384	12691.78
537.749	12798
538.114	12663.31
538.479	12632.13
538.845	12562.75
539.21	12596.87
539.575	12594.16
539.94	12501.96
540.305	12612.24
540.67	12480.27
541.034	12427.84
541.399	12428.74
541.764	12429.64
542.129	12373.15
542.494	12331.34
542.858	12354.17
543.223	12339.7
543.587	12357.1
543.952	12223.32
544.316	12230.33
544.681	12164.34
545.045	12204.34
545.41	12163.21
545.774	12081.41
546.138	12024.91
546.503	12047.96
546.867	12030.56
547.231	11988.75
547.595	11899.72
547.959	11908.53
548.324	11934.52
548.688	11845.48
549.052	11831.47
549.416	11812.03
549.779	11751.47
550.143	11717.57
550.507	11805.93
550.871	11687.29
551.235	11641.64
551.599	11659.72
551.962	11630.12
552.326	11613.62
552.689	11586.28
553.053	11514.64
553.417	11514.41
553.78	11617.46
554.143	11459.05
554.507	11451.82
554.87	11445.72
555.234	11464.92
555.597	11360.52
555.96	11397.58
556.323	11422.89
556.686	11401.2
557.05	11392.84
557.413	11297.25
557.776	11424.7
558.139	11320.3
558.502	11286.17
558.865	11305.38
559.228	11377.7
559.59	11346.28
559.953	11314.65
560.316	11389.9
560.679	11403.68
561.041	11291.14
561.404	11321.43
561.767	11303.12
562.129	11274.65
562.492	11428.99
562.854	11317.13
563.217	11266.51
563.579	11338.37
563.941	11344.93
564.304	11386.28
564.666	11369.11
565.028	11391.93
565.39	11461.76
565.753	11454.53
566.115	11388.32
566.477	11442.55
566.839	11474.87
567.201	11520.97
567.563	11434.64
567.925	11527.07
568.287	11465.83
568.648	11446.39
569.01	11498.82
569.372	11464.25
569.734	11504.02
570.095	11545.15
570.457	11503.79
570.819	11516.9
571.18	11543.11
571.542	11515.77
571.903	11548.76
572.265	11581.08
572.626	11591.02
572.987	11560.74
573.349	11615.43
573.71	11606.84
574.071	11589.22
574.432	11686.16
574.794	11724.35
575.155	11633.28
575.516	11651.36
575.877	11712.83
576.238	11609.55
576.599	11672.83
576.96	11704.24
577.32	11674.41
577.681	11716.9
578.042	11678.03
578.403	11701.08
578.763	11691.59
579.124	11607.07
579.485	11788.76
579.845	11730.45
580.206	11746.05
580.566	11703.79
580.927	11720.51
581.287	11706.73
581.648	11688.2
582.008	11663.34
582.368	11664.02
582.728	11725.26
583.089	11643.68
583.449	11611.36
583.809	11692.04
584.169	11691.13
584.529	11653.62
584.889	11722.54
585.249	11696.56
585.609	11624.69
585.969	11700.85
586.329	11619.95
586.688	11616.33
587.048	11544.02
587.408	11566.16
587.768	11609.1
588.127	11478.26
588.487	11530.46
588.846	11616.78
589.206	11478.03
589.565	11505.83
589.925	11615.66
590.284	11538.82
590.643	11519.16
591.003	11571.36
591.362	11546.96
591.721	11520.29
592.08	11563.9
592.44	11511.7
592.799	11518.93
593.158	11424.7
593.517	11532.72
593.876	11417.92
594.235	11449.33
594.593	11503.57
594.952	11487.52
595.311	11479.84
595.67	11487.97
596.029	11490.01
596.387	11523.23
596.746	11493.85
597.104	11410.91
597.463	11379.73
597.822	11427.19
598.18	11400.97
598.538	11396.45
598.897	11456.34
599.255	11333.4
599.613	11497.69
599.972	11478.26
600.33	11426.96
600.688	11399.39
601.046	11413.4
601.404	11459.73
601.762	11383.34
602.12	11522.1
602.478	11489.56
602.836	11484.81
603.194	11342.67
603.552	11402.33
603.91	11391.48
604.268	11516.45
604.625	11333.4
604.983	11464.47
605.341	11430.35
605.698	11427.64
606.056	11387.19
606.413	11433.29
606.771	11504.92
607.128	11454.76
607.485	11346.06
607.843	11427.19
608.2	11442.78
608.557	11433.51
608.914	11426.28
609.272	11450.24
609.629	11498.6
609.986	11538.37
610.343	11451.37
610.7	11631.02
611.057	11511.48
611.414	11505.6
611.771	11488.2
612.127	11551.93
612.484	11485.94
612.841	11591.7
613.198	11523
613.554	11592.6
613.911	11585.6
614.267	11551.93
614.624	11662.43
614.98	11598.03
615.337	11635.77
615.693	11575.2
616.05	11683.9
616.406	11642.77
616.762	11683.22
617.118	11626.05
617.475	11630.34
617.831	11674.64
618.187	11691.13
618.543	11826.04
618.899	11681.19
619.255	11717.57
619.611	11671.02
619.967	11772.04
620.323	11808.64
620.678	11727.52
621.034	11695.43
621.39	11710.79
621.746	11629.21
622.101	11871.69
622.457	11844.35
622.812	11664.02
623.168	11783.79
623.523	11688.65
623.879	11711.25
624.234	11716.9
624.589	11762.32
624.945	11695.43
625.3	11813.16
625.655	11752.37
626.01	11751.02
626.365	11759.61
626.72	11694.75
627.075	11721.87
627.43	11731.13
627.785	11690
628.14	11678.93
628.495	11762.77
628.85	11728.19
629.205	11697.01
629.559	11767.52
629.914	11711.25
630.269	11667.18
630.623	11671.92
630.978	11609.33
631.332	11625.6
631.687	11653.62
632.041	11674.64
632.396	11655.2
632.75	11555.77
633.104	11613.62
633.459	11508.77
633.813	11569.78
634.167	11542.89
634.521	11545.6
634.875	11509.44
635.229	11529.56
635.583	11486.84
635.937	11605.03
636.291	11436.45
636.645	11471.48
636.999	11521.87
637.352	11454.76
637.706	11363.01
638.06	11432.38
638.413	11423.12
638.767	11405.94
639.121	11424.25
639.474	11284.36
639.828	11364.81
640.181	11422.67
640.534	11358.49
640.888	11313.06
641.241	11279.17
641.594	11300.41
641.947	11273.52
642.301	11279.84
642.654	11308.77
643.007	11237.36
643.36	11238.49
643.713	11269.45
644.066	11279.17
644.419	11196.91
644.771	11095.22
645.124	11016.35
645.477	10984.03
645.83	10935.67
646.182	10902.23
646.535	10867.43
646.888	10922.11
647.24	10874.66
647.593	10877.82
647.945	10848.67
648.298	10842.12
648.65	10798.95
649.002	10810.25
649.355	10878.5
649.707	10857.71
650.059	10908.78
650.411	11038.95
650.763	11000.76
651.115	11150.58
651.467	11146.29
651.819	11133.86
652.171	11107.87
652.523	11032.62
652.875	11066.52
653.227	11018.83
653.578	11081.21
653.93	11138.83
654.282	11101.09
654.633	11109.68
654.985	11072.17
655.337	11113.75
655.688	11130.7
656.039	11145.38
656.391	11020.87
656.742	11136.8
657.094	11091.38
657.445	11200.98
657.796	11095.22
658.147	11073.52
658.498	11031.26
658.849	11146.29
659.2	11058.38
659.551	11047.08
659.902	11125.72
660.253	11146.51
660.604	11119.17
660.955	11069.45
661.306	11078.27
661.656	11179.73
662.007	11083.01
662.358	11091.6
662.708	11118.94
663.059	11095.22
663.409	11049.79
663.76	11189.23
664.11	11169.57
664.461	11141.09
664.811	11219.28
665.161	11156.01
665.511	11136.8
665.862	11180.86
666.212	11209.79
666.562	11270.58
666.912	11151.94
667.262	11150.36
667.612	11088.21
667.962	11119.62
668.312	11149.68
668.662	11195.78
669.011	11199.62
669.361	11068.55
669.711	11131.83
670.06	11127.98
670.41	11101.77
670.76	11144.48
671.109	11107.19
671.459	11060.64
671.808	11041.66
672.157	11083.92
672.507	11098.61
672.856	11106.97
673.205	11045.27
673.554	11171.6
673.904	11112.39
674.253	11129.11
674.602	11125.05
674.951	10931.38
675.3	10798.5
675.649	11093.18
675.998	11089.57
676.346	11035.11
676.695	11049.57
677.044	10922.79
677.393	11065.16
677.741	11032.62
678.09	11000.08
678.438	10897.26
678.787	10974.09
679.135	10937.48
679.484	10883.02
679.832	10883.47
680.181	10855.68
680.529	10935.45
680.877	10810.7
681.225	10800.76
681.573	10916.69
681.922	10789.91
682.27	10836.69
682.618	10767.32
682.966	10728.45
683.314	10796.69
683.661	10758.5
684.009	10612.29
684.357	10593.76
684.705	10631.5
685.053	10624.04
685.4	10604.61
685.748	10562.35
686.095	10460.43
686.443	10476.7
686.79	10445.06
687.138	10436.03
687.485	10451.84
687.832	10397.38
688.18	10435.8
688.527	10387.89
688.874	10433.31
689.221	10332.52
689.568	10341.34
689.915	10236.71
690.262	10293.66
690.609	10238.29
690.956	10217.73
691.303	10150.83
691.65	10064.74
691.997	10166.43
692.344	10093.66
692.69	10049.82
693.037	10027.67
693.383	9978.86
693.73	10011.4
694.077	9885.76
694.423	9896.83
694.769	9854.12
695.116	9806.66
695.462	9843.05
695.808	9730.51
696.155	9848.02
696.501	9707
696.847	9656.84
697.193	9654.35
697.539	9661.13
697.885	9625.42
698.231	9474.92
698.577	9567.57
698.923	9441.93
699.269	9446.45
699.614	9372.1
699.96	9372.55
700.306	9351.08
700.651	9350.63
700.997	9264.3
701.342	9167.58
701.688	9235.83
702.033	9171.88
702.379	9132.33
702.724	9105.21
703.069	9111.09
703.415	9034.48
703.76	9008.27
704.105	9010.3
704.45	8978.66
704.795	8919.68
705.14	8889.4
705.485	8876.29
705.83	8846.24
706.175	8860.7
706.52	8841.72
706.865	8848.5
707.209	8789.97
707.554	8682.85
707.899	8723.3
708.243	8663.87
708.588	8644.89
708.932	8574.61
709.277	8607.6
709.621	8597.88
709.966	8525.79
710.31	8556.98
710.654	8497.09
710.998	8486.25
711.342	8502.52
711.687	8531.67
712.031	8392.24
712.375	8439.92
712.719	8401.73
713.063	8375.51
713.407	8420.26
713.75	8404.89
714.094	8385.01
714.438	8329.19
714.782	8335.74
715.125	8263.88
715.469	8265.91
715.812	8244.67
716.156	8217.1
716.499	8185.91
716.843	8198.34
717.186	8219.81
717.53	8232.92
717.873	8212.58
718.216	8233.37
718.559	8228.17
718.902	8110.66
719.246	8088.97
719.589	8111.34
719.932	8050.1
720.275	8069.99
720.617	8095.07
720.96	8074.96
721.303	8081.96
721.646	8074.73
721.989	7996.77
722.331	8050.33
722.674	7996.09
723.016	8017.78
723.359	8040.16
723.701	8040.16
724.044	8019.59
724.386	7969.65
724.729	7986.15
725.071	7995.64
725.413	7955.64
725.755	7962.64
726.097	7888.75
726.439	7864.79
726.782	7921.74
727.124	7930.33
727.465	7932.81
727.807	7934.17
728.149	7937.79
728.491	7895.75
728.833	7891.91
729.175	7882.65
729.516	7891.23
729.858	7871.8
730.199	7802.65
730.541	7829.54
730.882	7883.32
731.224	7902.31
731.565	7813.5
731.906	7888.07
732.248	7877.9
732.589	7795.87
732.93	7800.39
733.271	7821.63
733.612	7864.79
733.953	7851.91
734.294	7888.75
734.635	7804.91
734.976	7891.01
735.317	7780.73
735.658	7820.05
735.999	7818.92
736.339	7881.52
736.68	7848.3
737.021	7865.47
737.361	7860.27
737.702	7865.47
738.042	7834.96
738.383	7839.03
738.723	7864.34
739.063	7833.16
739.404	7841.29
739.744	7909.76
740.084	7896.2
740.424	7947.73
740.764	7933.94
741.104	8027.5
741.444	7940.5
741.784	7980.95
742.124	8001.74
742.464	7952.02
742.804	8054.39
743.143	8012.59
743.483	8098.46
743.823	8031.79
744.162	8110.21
744.502	8134.84
744.841	8138.91
745.181	8182.3
745.52	8245.35
745.86	8264.1
746.199	8215.97
746.538	8262.75
746.877	8355.85
747.216	8408.96
747.556	8416.64
747.895	8501.16
748.234	8517.43
748.573	8519.24
748.911	8548.39
749.25	8656.86
749.589	8721.49
749.928	8768.72
750.267	8917.42
750.605	8844.43
750.944	8999
751.283	8951.54
751.621	9086.68
751.96	9130.75
752.298	9318.99
752.636	9384.75
752.975	9453.9
753.313	9506.11
753.651	9690.73
753.989	9756.27
754.327	9768.7
754.666	9886.21
755.004	10038.75
755.342	10170.27
755.679	10317.84
756.017	10314.22
756.355	10501.11
756.693	10629.01
757.031	10725.73
757.368	10881.66
757.706	11033.52
758.044	11127.76
758.381	11355.77
758.719	11448.88
759.056	11648.42
759.394	11774.75
759.731	11827.4
760.068	12015.19
760.405	12105.81
760.743	12344
761.08	12489.98
761.417	12641.84
761.754	12804.55
762.091	12899.24
762.428	13128.61
762.765	13167.25
763.102	13384.42
763.438	13544.19
763.775	13691.76
764.112	13800.46
764.449	14002.03
764.785	14135.14
765.122	14239.54
765.458	14353.21
765.795	14531.51
766.131	14731.28
766.467	14837.04
766.804	14924.72
767.14	15026.19
767.476	15306.86
767.812	15330.81
768.148	15567.42
768.485	15491.26
768.821	15736.9
769.157	15801.08
769.492	15961.76
769.828	16100.73
770.164	16091.47
770.5	16185.03
770.836	16420.05
771.171	16337.34
771.507	16556.54
771.842	16542.31
772.178	16687.84
772.513	16753.15
772.849	16860.04
773.184	16877.21
773.519	17062.97
773.855	16969.19
774.19	17143.87
774.525	17152.68
774.86	17296.86
775.195	17386.8
775.53	17421.6
775.865	17325.11
776.2	17399.01
776.535	17396.07
776.87	17417.31
777.205	17515.84
777.539	17431.1
777.874	17599
778.209	17539.57
778.543	17652.33
778.878	17491.43
779.212	17694.59
779.547	17670.64
779.881	17752.67
780.215	17704.31
780.55	17787.02
780.884	17622.73
781.218	17670.64
781.552	17790.18
781.886	17799.9
782.22	17734.14
782.554	17717.64
782.888	17686.68
783.222	17596.97
783.556	17560.58
783.889	17732.56
784.223	17663.18
784.557	17593.8
784.89	17628.6
785.224	17598.55
785.557	17562.62
785.891	17616.85
786.224	17518.1
786.558	17642.84
786.891	17471.32
787.224	17476.52
787.557	17432
787.891	17411.21
788.224	17496.63
788.557	17512.9
788.89	17406.46
789.223	17453.92
789.556	17315.84
789.888	17231.33
790.221	17236.75
790.554	17159.01
790.887	17277.43
791.219	17213.7
791.552	17273.36
791.884	17014.38
792.217	17126.24
792.549	17064.78
792.882	17079.69
793.214	16993.82
793.546	17001.05
793.879	16914.05
794.211	16886.7
794.543	16944.55
794.875	16964.67
795.207	16888.06
795.539	16776.65
795.871	16826.14
796.203	16685.8
796.535	16583.66
796.867	16658.46
797.198	16681.28
797.53	16539.37
797.862	16542.76
798.193	16609.65
798.525	16446.04
798.856	16533.27
799.188	16300.5
799.519	16314.74
799.85	16237
800.182	16259.6
800.513	16234.52
800.844	16145.93
801.175	16200.85
801.506	16196.55
801.837	16058.25
802.168	16147.74
802.499	16021.19
802.83	16022.32
803.161	15943.22
803.491	15974.41
803.822	15968.76
804.153	15830.91
804.483	15745.94
804.814	15669.56
805.145	15703.46
805.475	15638.15
805.805	15599.73
806.136	15686.28
806.466	15703.46
806.796	15640.41
807.126	15385.05
807.457	15537.36
807.787	15427.53
808.117	15415.78
808.447	15359.06
808.777	15385.73
809.107	15226.18
809.436	15259.85
809.766	15212.17
810.096	15139.18
810.426	15104.38
810.755	15148.22
811.085	15088.56
811.414	15093.08
811.744	15000.88
812.073	15014.21
812.403	15007.88
812.732	14873.42
813.061	14935.34
813.39	14921.56
813.719	14884.72
814.049	14834.78
814.378	14816.47
814.707	14753.2
815.036	14774.22
815.365	14686.53
815.693	14549.82
816.022	14617.61
816.351	14601.79
816.68	14578.74
817.008	14567.67
817.337	14503.71
817.665	14396.37
817.994	14451.74
818.322	14409.93
818.651	14338.07
818.979	14324.96
819.307	14364.51
819.636	14340.1
819.964	14237.28
820.292	14333.32
820.62	14257.17
820.948	14312.76
821.276	14341.91
821.604	14252.87
821.932	14295.13
822.259	14270.73
822.587	14241.57
822.915	14259.43
823.243	14239.77
823.57	14178.75
823.898	14260.33
824.225	14133.55
824.553	14151.86
824.88	14227.56
825.207	14163.84
825.535	14191.41
825.862	14150.05
826.189	14108.7
826.516	14173.33
826.843	14231.18
827.17	14208.36
827.497	14296.04
827.824	14227.56
828.151	14344.4
828.478	14282.93
828.805	14387.56
829.131	14229.15
829.458	14253.33
829.785	14182.59
830.111	14211.07
830.438	14302.59
830.764	14227.34
831.09	14254.91
831.417	14231.41
831.743	14286.32
832.069	14189.15
832.395	14148.24
832.722	14275.92
833.048	14182.37
833.374	14215.59
833.7	14144.63
834.026	14142.59
834.351	14156.15
834.677	14139.88
835.003	14157.28
835.329	14102.14
835.654	14170.84
835.98	14005.42
836.306	14094.01
836.631	14038.64
836.956	14043.16
837.282	14019.89
837.607	14004.52
837.932	14055.59
838.258	13942.15
838.583	13940.11
838.908	13910.28
839.233	13941.47
839.558	13787.58
839.883	13799.33
840.208	13776.28
840.533	13781.7
840.858	13785.99
841.182	13763.62
841.507	13717.29
841.832	13674.81
842.156	13669.39
842.481	13672.55
842.805	13534.7
843.13	13608.15
843.454	13514.59
843.778	13547.36
844.103	13450.64
844.427	13449.51
844.751	13430.3
845.075	13420.81
845.399	13328.83
845.723	13273.01
846.047	13344.42
846.371	13255.84
846.695	13199.34
847.019	13104.88
847.343	13059.68
847.666	12981.27
847.99	13046.58
848.313	12972.23
848.637	12812.91
848.96	12822.63
849.284	12730.2
849.607	12772.01
849.931	12729.07
850.254	12613.14
850.577	12557.1
850.9	12453.37
851.223	12491.11
851.546	12394.17
851.869	12301.06
852.192	12455.18
852.515	12195.75
852.838	12208.41
853.161	12144.23
853.483	12132.7
853.806	12058.81
854.129	12083.21
854.451	11991.92
854.774	11912.6
855.096	11900.17
855.419	11912.14
855.741	11820.85
856.063	11789.21
856.385	11762.09
856.708	11746.27
857.03	11716.22
857.352	11682.32
857.674	11594.41
857.996	11616.78
858.318	11554.41
858.64	11526.62
858.961	11456.34
859.283	11428.99
859.605	11373.18
859.926	11432.83
860.248	11382.67
860.57	11343.57
860.891	11405.72
861.212	11271.03
861.534	11319.17
861.855	11238.72
862.176	11263.35
862.498	11193.07
862.819	11200.07
863.14	11185.84
863.461	11167.08
863.782	11186.51
864.103	11104.93
864.424	11094.09
864.745	11130.47
865.065	11030.59
865.386	10952.85
865.707	10997.59
866.027	10986.29
866.348	10964.82
866.668	10982
866.989	10905.39
867.309	10847.77
867.63	10875.34
867.95	10862
868.27	10772.51
868.59	10785.62
868.91	10764.15
869.23	10799.18
869.55	10723.25
869.87	10813.87
870.19	10807.09
870.51	10714.89
870.83	10702.46
871.15	10682.12
871.469	10625.85
871.789	10669.01
872.109	10628.56
872.428	10621.33
872.748	10637.38
873.067	10571.84
873.386	10598.73
873.706	10582.46
874.025	10496.81
874.344	10495.46
874.663	10539.75
874.982	10485.97
875.301	10509.7
875.62	10398.96
875.939	10408.91
876.258	10443.48
876.577	10417.27
876.896	10407.33
877.214	10375.91
877.533	10356.03
877.852	10336.59
878.17	10320.32
878.489	10307.44
878.807	10332.75
879.125	10253.43
879.444	10143.83
879.762	10186.31
880.08	10201
880.398	10201.23
880.716	10198.29
881.034	10118.07
881.352	10082.14
881.67	10103.38
881.988	10142.47
882.306	10069.03
882.624	9981.8
882.941	9973.66
883.259	9904.06
883.577	9935.25
883.894	9881.01
884.212	9956.94
884.529	9889.15
884.846	9902.71
885.164	9901.12
885.481	9823.16
885.798	9897.73
886.115	9733.9
886.432	9781.8
886.75	9716.72
887.067	9664.75
887.383	9720.34
887.7	9731.41
888.017	9708.36
888.334	9626.1
888.651	9623.17
888.967	9584.75
889.284	9587.01
889.6	9562.6
889.917	9505.43
890.233	9425.66
890.55	9411.65
890.866	9411.19
891.182	9382.72
891.498	9335.26
891.815	9328.94
892.131	9320.57
892.447	9328.48
892.763	9195.15
893.079	9165.32
893.395	9126.23
893.71	9106.79
894.026	9060.47
894.342	9176.17
894.657	8998.32
894.973	9043.52
895.289	9028.6
895.604	9042.62
895.92	8963.07
896.235	8881.26
896.55	8895.95
896.865	8860.93
897.181	8775.73
897.496	8842.62
897.811	8777.31
898.126	8721.04
898.441	8725.11
898.756	8669.97
899.071	8651.67
899.386	8613.93
899.7	8561.5
900.015	8537.32
900.33	8392.24
900.644	8467.26
900.959	8495.06
901.273	8484.89
901.588	8357.66
901.902	8376.42
902.216	8343.88
902.531	8302.97
902.845	8251
903.159	8251.45
903.473	8173.94
903.787	8167.38
904.101	8130.55
904.415	8111.79
904.729	8091.45
905.042	8019.14
905.356	8025.92
905.67	7970.1
905.984	7989.99
906.297	7944.57
906.611	7955.41
906.924	7860.5
907.237	7815.08
907.551	7908.18
907.864	7784.34
908.177	7757.9
908.491	7787.06
908.804	7676.78
909.117	7679.71
909.43	7612.37
909.743	7578.25
910.056	7531.69
910.368	7539.38
910.681	7479.04
910.994	7475.2
911.307	7446.73
911.619	7367.86
911.932	7444.01
912.244	7363.34
912.557	7292.6
912.869	7316.11
913.181	7234.98
913.494	7255.54
913.806	7136.22
914.118	7177.81
914.43	7092.38
914.742	7103.23
915.054	7081.99
915.366	7010.8
915.678	7045.15
915.99	7005.83
916.302	7016
916.613	6890.58
916.925	6943.24
917.236	6897.14
917.548	6813.97
917.859	6867.08
918.171	6810.13
918.482	6834.99
918.794	6720.19
919.105	6749.34
919.416	6700.53
919.727	6674.09
920.038	6646.52
920.349	6632.06
920.66	6579.18
920.971	6550.48
921.282	6537.6
921.593	6527.2
921.903	6474.77
922.214	6459.63
922.525	6432.51
922.835	6382.8
923.146	6325.85
923.456	6356.36
923.767	6317.26
924.077	6251.05
924.387	6248.56
924.697	6236.36
925.008	6233.2
925.318	6193.88
925.628	6194.1
925.938	6127.89
926.248	6101.22
926.558	6079.76
926.867	6035.24
927.177	6046.99
927.487	5994.33
927.796	5935.35
928.106	5938.29
928.416	5955.92
928.725	5899.2
929.034	5868.01
929.344	5910.95
929.653	5818.75
929.962	5826.65
930.271	5788.46
930.581	5780.55
930.89	5684.96
931.199	5718.86
931.508	5710.5
931.817	5694.91
932.125	5652.2
932.434	5657.85
932.743	5559.09
933.051	5550.05
933.36	5592.99
933.669	5494.46
933.977	5537.85
934.286	5518.87
934.594	5508.47
934.902	5412.43
935.21	5394.58
935.519	5420.34
935.827	5359.55
936.135	5401.58
936.443	5329.49
936.751	5331.98
937.059	5322.26
937.367	5267.35
937.674	5299.89
937.982	5249.04
938.29	5159.1
938.597	5213.34
938.905	5110.06
939.213	5172.43
939.52	5115.94
939.827	5169.5
940.135	5040.01
940.442	5053.34
940.749	5061.48
941.056	5038.43
941.363	4971.08
941.67	4989.84
941.977	4969.73
942.284	4909.62
942.591	4920.46
942.898	4908.94
943.205	4932.67
943.511	4824.65
943.818	4861.48
944.125	4809.05
944.431	4785.78
944.738	4778.09
945.044	4767.02
945.35	4728.6
945.657	4696.97
945.963	4677.98
946.269	4638.21
946.575	4666.23
946.881	4581.04
947.187	4640.02
947.493	4612.68
947.799	4569.51
948.105	4520.93
948.41	4497.65
948.716	4538.55
949.022	4534.94
949.327	4455.62
949.633	4456.07
949.938	4431.89
950.244	4441.83
950.549	4389.4
950.854	4344.43
951.16	4342.4
951.465	4343.53
951.77	4310.76
952.075	4269.86
952.38	4292.01
952.685	4267.83
952.99	4231.22
953.294	4213.14
953.599	4193.03
953.904	4170.65
954.209	4170.88
954.513	4198.45
954.818	4144.21
955.122	4147.83
955.426	4075.06
955.731	4105.12
956.035	4058.11
956.339	4018.57
956.643	3993.48
956.948	4005.91
957.252	3996.87
957.556	3986.48
957.86	3968.17
958.163	3964.78
958.467	3898.34
958.771	3889.3
959.075	3913.48
959.378	3878.23
959.682	3844.11
959.985	3825.58
960.289	3798.91
960.592	3802.75
960.896	3790.32
961.199	3776.09
961.502	3788.52
961.805	3711.46
962.108	3727.73
962.411	3704.45
962.714	3707.61
963.017	3685.69
963.32	3684.34
963.623	3674.62
963.926	3645.47
964.228	3631.23
964.531	3611.35
964.833	3579.93
965.136	3570.44
965.438	3547.17
965.741	3546.71
966.043	3517.34
966.345	3520.73
966.648	3513.72
966.95	3492.48
967.252	3456.77
967.554	3461.52
967.856	3453.16
968.158	3404.8
968.46	3399.83
968.761	3408.19
969.063	3370.67
969.365	3379.94
969.666	3347.17
969.968	3285.93
970.269	3313.27
970.571	3326.38
970.872	3347.85
971.174	3285.7
971.475	3249.1
971.776	3207.29
972.077	3226.05
972.378	3243.45
972.679	3188.31
972.98	3178.36
973.281	3185.37
973.582	3148.31
973.883	3114.18
974.183	3145.37
974.484	3110.34
974.785	3119.38
975.085	3090.68
975.386	3074.41
975.686	3120.51
975.986	3039.38
976.287	3065.15
976.587	2999.84
976.887	3046.84
977.187	2987.41
977.487	2977.01
977.787	2981.08
978.087	2980.18
978.387	2957.13
978.687	2939.5
978.987	2944.7
979.286	2895.66
979.586	2899.05
979.885	2889.1
980.185	2862.44
980.484	2849.56
980.784	2823.57
981.083	2842.78
981.382	2795.55
981.682	2827.41
981.981	2791.03
982.28	2752.16
982.579	2749.9
982.878	2777.92
983.177	2758.26
983.475	2734.98
983.774	2706.28
984.073	2713.29
984.372	2689.79
984.67	2670.58
984.969	2707.19
985.267	2713.06
985.566	2683.46
985.864	2615.44
986.162	2640.52
986.461	2622.67
986.759	2605.27
987.057	2599.85
987.355	2573.86
987.653	2571.83
987.951	2633.29
988.249	2556.46
988.547	2569.11
988.844	2507.42
989.142	2532.96
989.44	2486.18
989.737	2497.7
990.035	2495.67
990.332	2447.08
990.63	2460.64
990.927	2424.71
991.224	2414.32
991.521	2407.31
991.819	2443.01
992.116	2367.99
992.413	2392.62
992.71	2382.45
993.006	2353.07
993.303	2353.07
993.6	2346.07
993.897	2298.61
994.193	2367.31
994.49	2337.48
994.787	2291.61
995.083	2283.25
995.379	2257.26
995.676	2252.96
995.972	2222.91
996.268	2247.77
996.565	2225.17
996.861	2189.46
997.157	2206.41
997.453	2184.72
997.749	2189.01
998.044	2167.09
998.34	2172.29
998.636	2138.39
998.932	2141.1
999.227	2119.18
999.523	2122.8
999.818	2151.95
1000.114	2116.24
1000.409	2103.14
1000.704	2071.05
1001	2087.54
1001.295	2084.15
1001.59	2045.96
1001.885	2028.56
1002.18	2043.48
1002.475	1978.39
1002.77	2010.26
1003.065	1965.29
1003.359	1963.25
1003.654	1954.89
1003.949	1960.32
1004.243	1943.37
1004.538	1919.86
1004.832	1922.8
1005.127	1937.04
1005.421	1919.19
1005.715	1904.72
1006.009	1859.98
1006.304	1856.59
1006.598	1878.96
1006.892	1859.53
1007.186	1844.39
1007.48	1810.26
1007.773	1808.23
1008.067	1815.69
1008.361	1802.13
1008.655	1799.64
1008.948	1762.81
1009.242	1746.08
1009.535	1743.15
1009.829	1764.16
1010.122	1723.03
1010.415	1715.12
1010.708	1716.48
1011.001	1702.24
1011.295	1674.45
1011.588	1688.01
1011.881	1658.85
1012.173	1664.5
1012.466	1647.1
1012.759	1655.24
1013.052	1650.49
1013.344	1641.91
1013.637	1644.62
1013.93	1603.04
1014.222	1575.24
1014.514	1602.81
1014.807	1578.18
1015.099	1565.52
1015.391	1561
1015.683	1569.14
1015.976	1539.31
1016.268	1528.01
1016.56	1521.23
1016.851	1542.02
1017.143	1538.18
1017.435	1492.76
1017.727	1494.11
1018.018	1488.69
1018.31	1458.41
1018.602	1487.79
1018.893	1464.51
1019.185	1470.16
1019.476	1447.56
1019.767	1451.85
1020.058	1421.12
1020.35	1424.96
1020.641	1413.89
1020.932	1394
1021.223	1377.96
1021.514	1390.84
1021.804	1352.87
1022.095	1337.73
1022.386	1334.12
1022.677	1332.76
1022.967	1345.42
1023.258	1337.73
1023.548	1315.81
1023.839	1318.3
1024.129	1296.6
1024.419	1304.51
1024.709	1283.95
1025	1261.35
1025.29	1251.63
1025.58	1277.17
1025.87	1253.67
1026.16	1220.67
1026.449	1237.17
1026.739	1227
1027.029	1191.3
1027.319	1216.15
1027.608	1198.98
1027.898	1189.94
1028.187	1180.45
1028.477	1147.46
1028.766	1158.53
1029.055	1165.76
1029.344	1163.27
1029.634	1126.67
1029.923	1176.61
1030.212	1117.63
1030.501	1112.65
1030.79	1126.67
1031.078	1108.59
1031.367	1107.68
1031.656	1118.98
1031.945	1089.6
1032.233	1063.39
1032.522	1064.52
1032.81	1067.23
1033.099	1033.56
1033.387	1077.4
1033.675	1025.2
1033.963	1053.45
1034.251	1052.99
1034.54	1034.01
1034.828	1018.65
1035.116	1026.1
1035.403	1004.86
1035.691	1019.55
1035.979	979.1
1036.267	1006.89
1036.554	974.8
1036.842	986.1
1037.129	953.79
1037.417	973
1037.704	976.16
1037.992	982.49
1038.279	945.88
1038.566	966.67
1038.853	966.67
1039.14	966.67
