Data from hue_350_FLMS001491_16.txt Node
Date: Mon Feb 06 15:37:40 GMT 2017
User: dcchb
Spectrometer: FLMS00149
Trigger mode: 0
Integration Time (sec): 2.000000E-2
Scans to average: 10
Electric dark correction enabled: true
Nonlinearity correction enabled: false
Boxcar width: 0
XAxis mode: Wavelengths
Number of Pixels in Spectrum: 2048
>>>>>Begin Spectral Data<<<<<
341.393	-35.47
341.776	-35.47
342.16	-35.47
342.543	-65.07
342.927	-57.16
343.31	-70.94
343.693	-63.49
344.077	-58.29
344.46	-80.66
344.843	-46.54
345.226	-30.49
345.61	-24.62
345.993	-21.45
346.376	19.45
346.759	-6.31
347.142	8.83
347.525	34.14
347.908	62.84
348.291	83.63
348.674	89.73
349.057	104.19
349.44	133.57
349.823	142.38
350.206	162.5
350.588	205.88
350.971	207.24
351.354	242.04
351.737	220.8
352.119	258.31
352.502	255.15
352.884	286.33
353.267	286.33
353.65	286.33
354.032	297.86
354.414	307.58
354.797	340.12
355.179	330.63
355.562	323.62
355.944	321.59
356.326	317.75
356.709	347.35
357.091	335.82
357.473	335.15
357.855	357.74
358.238	339.67
358.62	342.15
359.002	350.29
359.384	345.99
359.766	344.86
360.148	348.93
360.53	334.92
360.912	320.46
361.294	353
361.676	329.95
362.057	338.08
362.439	348.71
362.821	336.73
363.203	320.01
363.584	312.1
363.966	327.01
364.348	324.98
364.729	331.53
365.111	325.66
365.493	328.37
365.874	345.99
366.256	311.42
366.637	296.73
367.019	304.86
367.4	306.67
367.781	304.19
368.163	327.69
368.544	303.73
368.925	300.35
369.306	305.54
369.688	318.65
370.069	309.16
370.45	301.93
370.831	330.17
371.212	298.76
371.593	308.25
371.974	342.6
372.355	324.3
372.736	323.62
373.117	326.33
373.498	320.46
373.879	306.67
374.26	312.77
374.641	330.63
375.021	306.45
375.402	315.49
375.783	310.74
376.163	326.56
376.544	340.12
376.925	301.7
377.305	330.17
377.686	333.11
378.066	329.05
378.447	326.11
378.827	343.06
379.208	322.49
379.588	322.72
379.968	335.82
380.349	317.52
380.729	324.3
381.109	350.74
381.489	338.99
381.87	322.94
382.25	321.59
382.63	357.97
383.01	331.53
383.39	315.26
383.77	314.58
384.15	338.08
384.53	328.82
384.91	335.15
385.29	347.12
385.67	334.02
386.049	346.45
386.429	343.28
386.809	354.81
387.189	337.63
387.568	359.55
387.948	338.76
388.328	359.33
388.707	371.53
389.087	361.36
389.466	349.38
389.846	363.17
390.225	371.08
390.605	360.91
390.984	364.3
391.363	342.15
391.743	368.82
392.122	393.22
392.501	362.26
392.881	368.37
393.26	374.02
393.639	382.83
394.018	343.73
394.397	374.24
394.776	372.66
395.155	376.95
395.534	371.76
395.913	359.78
396.292	407.01
396.671	368.37
397.05	374.92
397.429	377.86
397.808	364.75
398.186	357.29
398.565	384.86
398.944	404.3
399.323	386.22
399.701	394.58
400.08	374.47
400.458	360.68
400.837	372.21
401.215	424.41
401.594	381.7
401.972	374.47
402.351	396.16
402.729	395.71
403.107	397.97
403.486	403.39
403.864	402.49
404.242	426.44
404.62	412.88
404.999	402.04
405.377	412.88
405.755	416.95
406.133	408.59
406.511	422.6
406.889	421.92
407.267	440.45
407.645	431.19
408.023	421.92
408.401	427.57
408.779	421.02
409.156	440.91
409.534	430.96
409.912	438.19
410.29	443.39
410.667	449.95
411.045	451.98
411.422	446.1
411.8	459.66
412.178	467.8
412.555	475.03
412.933	456.05
413.31	489.49
413.687	472.32
414.065	468.25
414.442	475.71
414.819	494.69
415.197	455.14
415.574	505.09
415.951	481.81
416.328	494.01
416.705	511.87
417.082	530.4
417.46	511.19
417.837	512.32
418.214	517.51
418.591	507.35
418.967	523.84
419.344	521.81
419.721	541.47
420.098	512.77
420.475	538.76
420.852	542.37
421.228	546.44
421.605	547.34
421.982	530.62
422.358	542.82
422.735	552.54
423.111	546.21
423.488	587.12
423.864	548.7
424.241	569.26
424.617	572.2
424.994	578.08
425.37	571.52
425.746	591.64
426.123	572.65
426.499	575.59
426.875	604.97
427.251	607.23
427.627	618.08
428.003	596.83
428.379	628.92
428.756	629.38
429.132	613.33
429.507	611.3
429.883	616.95
430.259	636.83
430.635	625.08
431.011	644.74
431.387	643.39
431.763	661.69
432.138	661.01
432.514	674.8
432.89	665.31
433.265	691.97
433.641	668.02
434.016	687.91
434.392	730.39
434.767	703.27
435.143	688.13
435.518	711.63
435.894	721.35
436.269	731.75
436.644	740.79
437.02	712.31
437.395	756.38
437.77	746.66
438.145	747.79
438.52	754.8
438.895	762.71
439.271	777.17
439.646	794.8
440.021	770.16
440.395	766.1
440.77	770.39
441.145	813.1
441.52	764.97
441.895	790.5
442.27	806.77
442.645	798.19
443.019	814.46
443.394	813.78
443.769	818.75
444.143	813.55
444.518	825.98
444.892	854.45
445.267	836.15
445.641	823.27
446.016	847.45
446.39	847.68
446.764	861.69
447.139	872.08
447.513	849.26
447.887	862.14
448.262	864.4
448.636	862.59
449.01	866.43
449.384	876.83
449.758	891.97
450.132	904.17
450.506	915.7
450.88	923.61
451.254	890.84
451.628	891.52
452.002	912.76
452.376	910.72
452.75	928.35
453.123	940.1
453.497	971.74
453.871	937.39
454.244	966.54
454.618	978.75
454.992	974
455.365	987.33
455.739	1010.84
456.112	1007.9
456.486	1000.21
456.859	1009.93
457.232	1008.58
457.606	1018.97
457.979	1034.11
458.352	1070.95
458.725	1065.75
459.099	1078.86
459.472	1092.19
459.845	1092.19
460.218	1103.26
460.591	1115.01
460.964	1113.43
461.337	1121.11
461.71	1151.62
462.083	1152.53
462.456	1171.28
462.829	1185.75
463.201	1206.76
463.574	1177.38
463.947	1197.27
464.32	1250.6
464.692	1251.73
465.065	1263.71
465.438	1257.16
465.81	1250.83
466.183	1297.38
466.555	1303.93
466.928	1290.15
467.3	1310.71
467.672	1333.31
468.045	1353.42
468.417	1355.91
468.789	1385.06
469.161	1395.68
469.534	1402.69
469.906	1435
470.278	1437.04
470.65	1435.46
471.022	1514.32
471.394	1494.21
471.766	1526.53
472.138	1565.4
472.51	1567.88
472.882	1605.17
473.253	1619.41
473.625	1638.62
473.997	1664.6
474.369	1672.06
474.74	1684.26
475.112	1732.4
475.484	1760.65
475.855	1790.25
476.227	1817.37
476.598	1853.07
476.97	1849.23
477.341	1890.36
477.713	1917.03
478.084	1959.96
478.455	1985.27
478.827	2010.58
479.198	2068.89
479.569	2072.95
479.94	2112.73
480.311	2162.22
480.682	2178.94
481.053	2220.97
481.424	2292.16
481.795	2294.87
482.166	2299.39
482.537	2396.11
482.908	2400.85
483.279	2402.21
483.65	2493.51
484.021	2532.15
484.391	2545.03
484.762	2568.76
485.133	2596.33
485.503	2631.13
485.874	2712.03
486.244	2739.38
486.615	2789.55
486.985	2853.72
487.356	2893.95
487.726	2881.29
488.097	2996.09
488.467	2993.16
488.837	3018.92
489.207	3065.02
489.578	3144.11
489.948	3188.4
490.318	3207.84
490.688	3226.14
491.058	3281.96
491.428	3293.26
491.798	3322.19
492.168	3424.33
492.538	3413.26
492.908	3501.17
493.278	3495.06
493.648	3510.66
494.017	3552.01
494.387	3576.64
494.757	3614.16
495.126	3683.31
495.496	3693.02
495.866	3695.74
496.235	3767.6
496.605	3786.81
496.974	3798.11
497.344	3859.12
497.713	3879.23
498.082	3884.66
498.452	3918.1
498.821	3915.17
499.19	3968.27
499.559	3984.54
499.928	4019.57
500.298	4011.66
500.667	4065.22
501.036	4086.23
501.405	4138.89
501.774	4138.44
502.143	4165.55
502.512	4227.93
502.88	4239
503.249	4231.09
503.618	4211.2
503.987	4227.02
504.356	4323.74
504.724	4349.5
505.093	4333.69
505.462	4320.58
505.83	4381.14
506.199	4381.14
506.567	4416.4
506.936	4466.56
507.304	4472.66
507.672	4470.41
508.041	4543.17
508.409	4556.28
508.777	4591.31
509.145	4598.99
509.514	4613.9
509.882	4648.48
510.25	4680.34
510.618	4702.72
510.986	4621.59
511.354	4695.03
511.722	4765.54
512.09	4758.99
512.458	4769.15
512.826	4855.48
513.193	4814.35
513.561	4814.8
513.929	4860.9
514.297	4883.05
514.664	4831.98
515.032	4950.84
515.4	4929.38
515.767	4948.36
516.135	4978.64
516.502	4968.47
516.869	5035.14
517.237	5062.25
517.604	5047.34
517.972	5072.65
518.339	5132.99
518.706	5106.09
519.073	5097.96
519.44	5140.44
519.808	5163.27
520.175	5119.43
520.542	5216.15
520.909	5221.57
521.276	5246.66
521.643	5290.27
522.009	5274
522.376	5297.95
522.743	5322.36
523.11	5334.56
523.477	5365.07
523.843	5413.43
524.21	5448.23
524.577	5481.68
524.943	5511.28
525.31	5513.54
525.676	5575.69
526.043	5610.26
526.409	5630.37
526.776	5681.67
527.142	5654.1
527.508	5669.7
527.874	5714.89
528.241	5818.39
528.607	5822.46
528.973	5854.78
529.339	5822.46
529.705	5936.58
530.071	5960.08
530.437	5865.85
530.803	5975.45
531.169	6024.71
531.535	6033.08
531.901	6015.45
532.267	6048.89
532.632	6094.77
532.998	6119.85
533.364	6151.49
533.73	6164.37
534.095	6202.34
534.461	6218.83
534.826	6274.43
535.192	6304.03
535.557	6322.56
535.923	6321.43
536.288	6341.32
536.653	6404.82
537.019	6338.6
537.384	6414.76
537.749	6419.96
538.114	6487.08
538.479	6483.46
538.845	6498.83
539.21	6526.4
539.575	6641.2
539.94	6546.96
540.305	6621.53
540.67	6609.33
541.034	6690.91
541.399	6709.44
541.764	6757.8
542.129	6758.93
542.494	6799.84
542.858	6796.9
543.223	6820.63
543.587	6892.26
543.952	6858.59
544.316	6919.83
544.681	6889.78
545.045	6968.87
545.41	6995.31
545.774	7026.95
546.138	6982.66
546.503	7055.2
546.867	7055.42
547.231	7143.78
547.595	7158.24
547.959	7165.7
548.324	7209.09
548.688	7189.2
549.052	7283.66
549.416	7307.62
549.779	7289.54
550.143	7295.42
550.507	7377.9
550.871	7389.88
551.235	7348.3
551.599	7477.56
551.962	7461.74
552.326	7430.55
552.689	7510.55
553.053	7461.96
553.417	7487.73
553.78	7555.75
554.143	7536.31
554.507	7655.18
554.87	7568.63
555.234	7714.39
555.597	7625.58
555.96	7652.69
556.323	7706.25
556.686	7712.13
557.05	7770.21
557.413	7810.43
557.776	7819.47
558.139	7826.25
558.502	7865.8
558.865	7869.19
559.228	7972.69
559.59	8001.84
559.953	7960.03
560.316	8079.35
560.679	8025.11
561.041	8137.43
561.404	8178.1
561.767	8235.28
562.129	8137.88
562.492	8212.91
562.854	8195.28
563.217	8242.06
563.579	8254.49
563.941	8258.33
564.304	8294.49
564.666	8387.36
565.028	8408.83
565.39	8446.57
565.753	8483.18
566.115	8437.76
566.477	8485.89
566.839	8529.06
567.201	8594.14
567.563	8522.73
567.925	8670.97
568.287	8698.09
568.648	8650.86
569.01	8735.83
569.372	8843.85
569.734	8798.43
570.095	8858.99
570.457	8867.58
570.819	8895.37
571.18	8900.8
571.542	8931.3
571.903	8967.69
572.265	9041.58
572.626	9058.31
572.987	9097.18
573.349	9124.52
573.71	9261.24
574.071	9320.45
574.432	9301.46
574.794	9419.2
575.155	9433.89
575.516	9451.74
575.877	9559.08
576.238	9628.69
576.599	9616.71
576.96	9767.67
577.32	9825.52
577.681	9853.99
578.042	9974.67
578.403	10060.99
578.763	10191.16
579.124	10238.16
579.485	10315.22
579.845	10450.81
580.206	10531.49
580.566	10696.23
580.927	10763.8
581.287	10912.95
581.648	10941.65
582.008	11161.75
582.368	11265.03
582.728	11359.94
583.089	11501.63
583.449	11584.12
583.809	11769.87
584.169	11983.88
584.529	12066.14
584.889	12339.35
585.249	12441.04
585.609	12679.45
585.969	12893.23
586.329	13028.37
586.688	13263.85
587.048	13476.27
587.408	13651.41
587.768	13897.73
588.127	14048.91
588.487	14252.29
588.846	14615.9
589.206	14759.85
589.565	15029.22
589.925	15384.24
590.284	15560.28
590.643	15795.98
591.003	16085.47
591.362	16373.37
591.721	16571.33
592.08	16924.31
592.44	17130.19
592.799	17378.99
593.158	17691.98
593.517	17964.74
593.876	18230.27
594.235	18492.86
594.593	18757.49
594.952	19227.53
595.311	19439.73
595.67	19626.84
596.029	20019.37
596.387	20364
596.746	20703.65
597.104	20870.88
597.463	21079.23
597.822	21514.48
598.18	21697.97
598.538	21956.27
598.897	22278.98
599.255	22459.08
599.613	22966.87
599.972	23143.81
600.33	23506.06
600.688	23629.22
601.046	24062.88
601.404	24386.04
601.762	24601.18
602.12	24960.26
602.478	25113.93
602.836	25416.52
603.194	25582.17
603.552	25891.99
603.91	26055.83
604.268	26492.88
604.625	26698.75
604.983	27100.32
605.341	27061.68
605.698	27614.66
606.056	27792.28
606.413	27994.53
606.771	28279.27
607.128	28514.52
607.485	28789.31
607.843	28968.52
608.2	29316.98
608.557	29538.45
608.914	29627.03
609.272	29956.74
609.629	30244.87
609.986	30477.18
610.343	30603.73
610.7	30858.41
611.057	31188.35
611.414	31375.69
611.771	31558.28
612.127	31855.45
612.484	31914.2
612.841	32190.35
613.198	32344.7
613.554	32475.32
613.911	32769.77
614.267	32965.02
614.624	32973.84
614.98	33388.06
615.337	33471.45
615.693	33620.37
616.05	33698.34
616.406	34031.89
616.762	34055.16
617.118	34230.75
617.475	34337.64
617.831	34573.57
618.187	34755.48
618.543	34842.26
618.899	35171.29
619.255	35230.73
619.611	35171.74
619.967	35491.06
620.323	35726.76
620.678	35710.94
621.034	35692.41
621.39	35848.34
621.746	35878.84
622.101	36463.01
622.457	36259.4
622.812	36409
623.168	36526.29
623.523	36601.31
623.879	36691.25
624.234	36590.69
624.589	36753.4
624.945	36948.2
625.3	37081.75
625.655	37104.12
626.01	37213.95
626.365	37272.48
626.72	37279.71
627.075	37445.58
627.43	37524
627.785	37507.5
628.14	37684.22
628.495	37662.75
628.85	37617.78
629.205	37588.63
629.559	37792.69
629.914	37825.91
630.269	37911.56
630.623	37754.05
630.978	37842.18
631.332	38087.83
631.687	38085.57
632.041	37989.3
632.396	38095.96
632.75	37996.53
633.104	38020.48
633.459	37995.85
633.813	38029.75
634.167	38054.15
634.521	38068.39
634.875	38114.49
635.229	38095.96
635.583	38091.67
635.937	37938.45
636.291	37971.45
636.645	38065.45
636.999	37890.32
637.352	38072.46
637.706	37981.16
638.06	38025.45
638.413	38217.09
638.767	38016.19
639.121	38042.4
639.474	37813.94
639.828	37978.9
640.181	37979.13
640.534	38107.94
640.888	37933.93
641.241	37840.6
641.594	37944.55
641.947	38164.21
642.301	38019.58
642.654	38002.4
643.007	37995.17
643.36	37962.63
643.713	37804.44
644.066	38104.1
644.419	37828.17
644.771	37644
645.124	37385.47
645.477	37298.24
645.83	37033.62
646.182	37001.53
646.535	36858.48
646.888	36999.49
647.24	36736.22
647.593	36874.75
647.945	36729.44
648.298	36770.8
648.65	36765.83
649.002	36508.66
649.355	36807.41
649.707	36693.51
650.059	36936.9
650.411	37269.54
650.763	37326.04
651.115	37696.65
651.467	37588.18
651.819	37536.65
652.171	37592.02
652.523	37426.37
652.875	37494.17
653.227	37322.65
653.578	37626.37
653.93	37556.77
654.282	37349.99
654.633	37237.23
654.985	37331.46
655.337	37472.02
655.688	37409.88
656.039	37342.54
656.391	37175.99
656.742	37216.89
657.094	37232.93
657.445	37321.07
657.796	37281.07
658.147	37170.34
658.498	37167.62
658.849	37320.16
659.2	37204.46
659.551	37093.28
659.902	37321.29
660.253	37148.42
660.604	37332.37
660.955	37335.98
661.306	37253.5
661.656	37104.35
662.007	37122.43
662.358	37213.05
662.708	37190.67
663.059	37163.33
663.409	36973.05
663.76	37275.19
664.11	37185.03
664.461	37161.97
664.811	37165.82
665.161	37015.54
665.511	37072.49
665.862	37083.56
666.212	36979.61
666.562	37273.84
666.912	37178.02
667.262	37041.98
667.612	37100.28
667.962	37045.37
668.312	37018.25
668.662	37265.7
669.011	37041.98
669.361	36977.8
669.711	37004.01
670.06	36892.38
670.41	36856.45
670.76	36912.72
671.109	36997.01
671.459	36962.66
671.808	36832.49
672.157	36978.48
672.507	36770.57
672.856	36823.45
673.205	36832.04
673.554	37034.52
673.904	36884.24
674.253	36946.61
674.602	36708.2
674.951	36411.71
675.3	36106.18
675.649	36766.28
675.998	36632.05
676.346	36728.99
676.695	36765.38
677.044	36589.56
677.393	36599.73
677.741	36736.68
678.09	36554.31
678.438	36513.4
678.787	36552.5
679.135	36547.75
679.484	36314.77
679.832	36620.52
680.181	36267.99
680.529	36385.95
680.877	36239.51
681.225	36172.62
681.573	36454.87
681.922	36180.98
682.27	36050.14
682.618	36138.05
682.966	36017.37
683.314	36093.75
683.661	35942.35
684.009	35704.39
684.357	35683.14
684.705	35635.24
685.053	35786.19
685.4	35590.72
685.748	35508.68
686.095	35551.17
686.443	35371.51
686.79	35291.52
687.138	35376.94
687.485	35332.19
687.832	35225.75
688.18	35268.92
688.527	35006.1
688.874	35117.73
689.221	34932.65
689.568	34952.09
689.915	34907.57
690.262	34922.03
690.609	34799.55
690.956	34661.48
691.303	34649.05
691.65	34443.18
691.997	34542.61
692.344	34479.33
692.69	34287.93
693.037	34244.76
693.383	34019.46
693.73	33907.37
694.077	33934.04
694.423	33970.87
694.769	33902.63
695.116	33841.84
695.462	33715.06
695.808	33721.16
696.155	33642.29
696.501	33305.35
696.847	33471.22
697.193	33107.17
697.539	33263.77
697.885	33104.45
698.231	33025.81
698.577	32954.85
698.923	32897.68
699.269	32727.52
699.614	32606.16
699.96	32572.04
700.306	32553.06
700.651	32450.23
700.997	32299.96
701.342	32284.81
701.688	32378.15
702.033	32185.61
702.379	32163.91
702.724	32032.62
703.069	31970.7
703.415	31745.85
703.76	31668.56
704.105	31681.22
704.45	31685.51
704.795	31454.1
705.14	31437.83
705.485	31346.76
705.83	31205.07
706.175	31311.51
706.52	31335.01
706.865	31038.29
707.209	31062.02
707.554	30917.39
707.899	30881.01
708.243	30721.01
708.588	30665.42
708.932	30536.39
709.277	30429.72
709.621	30675.37
709.966	30286.9
710.31	30474.02
710.654	30222.27
710.998	30164.64
711.342	30161.25
711.687	30189.73
712.031	30053.69
712.375	29949.74
712.719	29988.15
713.063	29922.17
713.407	29982.95
713.75	29817.31
714.094	29692.34
714.438	29618.22
714.782	29825.67
715.125	29495.28
715.469	29515.62
715.812	29445.79
716.156	29327.38
716.499	29345.46
716.843	29401.95
717.186	29168.51
717.53	29342.97
717.873	29278.79
718.216	29164.22
718.559	29143.43
718.902	28938.46
719.246	29063.66
719.589	28818.01
719.932	28727.39
720.275	28878.35
720.617	28728.75
720.96	28770.11
721.303	28660.05
721.646	28616.44
721.989	28462.99
722.331	28678.81
722.674	28524.91
723.016	28434.97
723.359	28313.62
723.701	28470.45
724.044	28231.81
724.386	28150.23
724.729	28234.07
725.071	28187.97
725.413	28110.24
725.755	28173.96
726.097	28010.8
726.439	27806.29
726.782	27863.46
727.124	27957.7
727.465	27819.85
727.807	27842.45
728.149	27687.65
728.491	27669.12
728.833	27813.52
729.175	27548.89
729.516	27520.87
729.858	27601.32
730.199	27382.57
730.541	27500.76
730.882	27404.94
731.224	27478.84
731.565	27392.97
731.906	27329.24
732.248	27355.68
732.589	27168.11
732.93	27073.88
733.271	27151.39
733.612	27149.58
733.953	27080.21
734.294	26978.74
734.635	27011.51
734.976	27099.41
735.317	26857.84
735.658	26931.96
735.999	26860.55
736.339	26939.42
736.68	26787.56
737.021	26758.63
737.361	26661.23
737.702	26677.28
738.042	26747.56
738.383	26599.77
738.723	26687.22
739.063	26401.35
739.404	26501.69
739.744	26413.1
740.084	26379.66
740.424	26491.07
740.764	26429.15
741.104	26409.26
741.444	26166.56
741.784	26186.44
742.124	26306.44
742.464	26128.82
742.804	26029.39
743.143	26043.62
743.483	26129.27
743.823	25825.55
744.162	25856.28
744.502	25886.11
744.841	25800.69
745.181	25986.22
745.52	25802.95
745.86	25886.34
746.199	25777.42
746.538	25733.57
746.877	25808.6
747.216	25598.66
747.556	25603.86
747.895	25534.48
748.234	25561.15
748.573	25468.5
748.911	25478.21
749.25	25463.75
749.589	25266.47
749.928	25333.81
750.267	25393.47
750.605	25303.53
750.944	25249.97
751.283	25153.25
751.621	25166.58
751.96	24997.77
752.298	24964.33
752.636	25057.21
752.975	24863.99
753.313	24783.77
753.651	24948.06
753.989	24824.45
754.327	24710.32
754.666	24607.5
755.004	24710.32
755.342	24553.72
755.679	24554.85
756.017	24377.45
756.355	24433.5
756.693	24468.3
757.031	24342.88
757.368	24275.31
757.706	24170.45
758.044	24148.53
758.381	24199.38
758.719	24068.76
759.056	24118.25
759.394	23974.98
759.731	23812.72
760.068	23807.75
760.405	23759.84
760.743	23700.86
761.08	23635.78
761.417	23620.41
761.754	23515.55
762.091	23449.12
762.428	23448.21
762.765	23156.24
763.102	23316.24
763.438	23154.89
763.775	23094.55
764.112	23106.53
764.449	23148.11
764.785	23018.17
765.122	22845.52
765.458	22739.3
765.795	22786.31
766.131	22658.85
766.467	22698.63
766.804	22571.85
767.14	22412.31
767.476	22464.06
767.812	22287.34
768.148	22386.09
768.485	22137.51
768.821	22156.95
769.157	21994.46
769.492	22009.83
769.828	22050.06
770.164	21841.7
770.5	21694.81
770.836	21704.75
771.171	21600.12
771.507	21556.06
771.842	21422.73
772.178	21383.86
772.513	21210.53
772.849	21232.22
773.184	21170.98
773.519	21072.45
773.855	21062.96
774.19	20950.65
774.525	20914.49
774.86	20855.96
775.195	20894.61
775.53	20726.7
775.865	20524.45
776.2	20403.77
776.535	20246.94
776.87	20288.52
777.205	20200.39
777.539	20195.64
777.874	20175.75
778.209	20013.95
778.543	19967.62
778.878	19922.2
779.212	19786.61
779.547	19771.92
779.881	19788.19
780.215	19594.75
780.55	19647.86
780.884	19499.84
781.218	19457.81
781.552	19450.12
781.886	19344.82
782.22	19201.32
782.554	19096.46
782.888	18951.61
783.222	19006.75
783.556	18856.47
783.889	18784.83
784.223	18687.43
784.557	18661.67
784.89	18695.79
785.224	18643.37
785.557	18510.94
785.891	18424.61
786.224	18477.27
786.558	18316.82
786.891	18310.95
787.224	18115.02
787.557	18046.77
787.891	18087.9
788.224	18055.13
788.557	18121.12
788.89	18028.69
789.223	17917.74
789.556	17785.08
789.888	17743.5
790.221	17606.78
790.554	17588.93
790.887	17549.38
791.219	17470.29
791.552	17402.72
791.884	17385.32
792.217	17336.51
792.549	17116.63
792.882	17157.3
793.214	17015.16
793.546	17074.14
793.879	16961.15
794.211	16884.77
794.543	16890.19
794.875	16887.93
795.207	16847.71
795.539	16750.08
795.871	16715.73
796.203	16507.6
796.535	16515.29
796.867	16424.22
797.198	16372.01
797.53	16365.23
797.862	16249.53
798.193	16256.54
798.525	16155.07
798.856	16280.72
799.188	16031.68
799.519	15974.74
799.85	15917.79
800.182	15969.09
800.513	15899.71
800.844	15788.53
801.175	15862.65
801.506	15801.86
801.837	15689.55
802.168	15746.04
802.499	15705.36
802.83	15574.75
803.161	15529.1
803.491	15493.17
803.822	15486.39
804.153	15365.49
804.483	15340.18
804.814	15184.7
805.145	15193.96
805.475	15226.05
805.805	15212.27
806.136	15138.6
806.466	15197.58
806.796	15129.11
807.126	14911.71
807.457	14928.21
807.787	14930.69
808.117	14885.5
808.447	14768.67
808.777	14760.53
809.107	14673.98
809.436	14673.07
809.766	14767.31
810.096	14655.9
810.426	14600.76
810.755	14593.3
811.085	14493.87
811.414	14462.01
811.744	14457.71
812.073	14324.84
812.403	14381.78
812.732	14223.59
813.061	14345.85
813.39	14201
813.719	14223.82
814.049	14257.72
814.378	14141.11
814.707	14102.69
815.036	14066.54
815.365	13986.54
815.693	13927.33
816.022	14022.47
816.351	13855.92
816.68	13694.34
817.008	13756.49
817.337	13716.26
817.665	13742.93
817.994	13706.32
818.322	13706.09
818.651	13671.07
818.979	13508.81
819.307	13619.09
819.636	13553.33
819.964	13563.5
820.292	13597.17
820.62	13515.14
820.948	13491.86
821.276	13530.05
821.604	13414.58
821.932	13581.13
822.259	13454.58
822.587	13446.44
822.915	13394.92
823.243	13455.71
823.57	13542.71
823.898	13414.58
824.225	13318.31
824.553	13319.44
824.88	13414.12
825.207	13409.38
825.535	13432.66
825.862	13343.84
826.189	13261.59
826.516	13380.68
826.843	13488.7
827.17	13433.79
827.497	13408.7
827.824	13455.71
828.151	13456.61
828.478	13362.15
828.805	13417.29
829.131	13352.66
829.458	13269.72
829.785	13216.16
830.111	13333.45
830.438	13351.75
830.764	13340.68
831.09	13334.58
831.417	13267.46
831.743	13283.28
832.069	13370.96
832.395	13288.48
832.722	13324.18
833.048	13278.99
833.374	13247.58
833.7	13205.54
834.026	13214.36
834.351	13251.19
834.677	13199.22
835.003	13206.45
835.329	13113.12
835.654	13075.83
835.98	13072.21
836.306	13042.38
836.631	13067.92
836.956	13094.81
837.282	13065.66
837.607	12999.67
837.932	12975.27
838.258	13004.19
838.583	12944.98
838.908	12937.98
839.233	12885.78
839.558	12871.31
839.883	12819.34
840.208	12886.23
840.533	12852.33
840.858	12828.38
841.182	12845.33
841.507	12825.44
841.832	12677.19
842.156	12745.67
842.481	12676.07
842.805	12700.7
843.13	12608.5
843.454	12667.03
843.778	12504.77
844.103	12530.76
844.427	12482.62
844.751	12492.34
845.075	12463.64
845.399	12429.97
845.723	12343.19
846.047	12336.19
846.371	12340.93
846.695	12265.91
847.019	12147.27
847.343	12147.04
847.666	12091.9
847.99	12062.07
848.313	12002.64
848.637	12002.64
848.96	11949.76
849.284	11870.21
849.607	11815.52
849.931	11752.93
850.254	11624.79
850.577	11685.58
850.9	11523.1
851.223	11538.24
851.546	11484.91
851.869	11437.68
852.192	11522.2
852.515	11354.97
852.838	11289.66
853.161	11303.22
853.483	11272.94
853.806	11193.39
854.129	11192.04
854.451	11077.69
854.774	11087.63
855.096	10995.66
855.419	10919.73
855.741	10920.63
856.063	10880.41
856.385	10933.51
856.708	10902.33
857.03	10779.62
857.352	10834.08
857.674	10801.76
857.996	10733.52
858.318	10721.77
858.64	10766.74
858.961	10702.11
859.283	10560.41
859.605	10607.87
859.926	10578.49
860.248	10554.09
860.57	10488.55
860.891	10524.48
861.212	10409.23
861.534	10466.63
861.855	10465.73
862.176	10401.32
862.498	10409.46
862.819	10449.68
863.14	10328.33
863.461	10263.02
863.782	10308.67
864.103	10356.35
864.424	10234.32
864.745	10208.33
865.065	10208.56
865.386	10220.08
865.707	10187.09
866.027	10147.32
866.348	10146.64
866.668	10184.38
866.989	10169.01
867.309	9982.12
867.63	10092.86
867.95	10042.91
868.27	9996.36
868.59	10019.41
868.91	10063.93
869.23	9979.64
869.55	9926.76
869.87	10065.06
870.19	9984.61
870.51	9913.88
870.83	9940.54
871.15	9794.11
871.469	9841.79
871.789	9873.65
872.109	9886.31
872.428	9767.67
872.748	9770.6
873.067	9816.03
873.386	9779.42
873.706	9828.91
874.025	9761.11
874.344	9714.56
874.663	9729.25
874.982	9680.21
875.301	9618.97
875.62	9623.49
875.939	9632.08
876.258	9598.86
876.577	9567.67
876.896	9557.95
877.214	9571.29
877.533	9568.8
877.852	9538.97
878.17	9575.58
878.489	9557.5
878.807	9504.85
879.125	9470.95
879.444	9418.07
879.762	9427.56
880.08	9429.6
880.398	9440.67
880.716	9374.23
881.034	9420.11
881.352	9372.65
881.67	9315.25
881.988	9338.53
882.306	9299.43
882.624	9287
882.941	9210.85
883.259	9154.8
883.577	9251.52
883.894	9187.57
884.212	9170.39
884.529	9120
884.846	9046.1
885.164	9091.98
885.481	9051.08
885.798	9057.63
886.115	9033.22
886.432	9039.1
886.75	8963.85
887.067	9050.85
887.383	8947.12
887.7	9000.46
888.017	8904.19
888.334	8941.93
888.651	8900.35
888.967	8835.71
889.284	8805.66
889.6	8803.17
889.917	8705.55
890.233	8694.47
890.55	8733.57
890.866	8717.3
891.182	8697.41
891.498	8721.59
891.815	8644.31
892.131	8577.64
892.447	8570.86
892.763	8536.06
893.079	8521.37
893.395	8499.9
893.71	8453.8
894.026	8494.71
894.342	8420.36
894.657	8449.06
894.973	8367.03
895.289	8429.85
895.604	8376.52
895.92	8305.56
896.235	8253.13
896.55	8243.41
896.865	8237.99
897.181	8253.81
897.496	8177.88
897.811	8109.18
898.126	8091.33
898.441	8064.21
898.756	8054.72
899.071	7998.9
899.386	8005.45
899.7	7996.87
900.015	7893.82
900.33	7844.78
900.644	7852.46
900.959	7860.15
901.273	7877.77
901.588	7807.94
901.902	7787.61
902.216	7718.23
902.531	7674.16
902.845	7598.01
903.159	7682.07
903.473	7680.94
903.787	7576.54
904.101	7546.26
904.415	7576.31
904.729	7558.23
905.042	7491.12
905.356	7448.18
905.67	7423.77
905.984	7458.12
906.297	7356.2
906.611	7350.33
906.924	7345.13
907.237	7322.99
907.551	7290.9
907.864	7201.41
908.177	7180.39
908.491	7205.02
908.804	7097.45
909.117	7143.78
909.43	7094.06
909.743	7044.57
910.056	7052.94
910.368	7008.64
910.681	6942.88
910.994	6938.36
911.307	6952.83
911.619	6808.65
911.932	6832.38
912.244	6797.35
912.557	6806.39
912.869	6800.29
913.181	6716.9
913.494	6723.68
913.806	6713.06
914.118	6678.48
914.43	6670.35
914.742	6620.86
915.054	6557.81
915.366	6562.1
915.678	6555.77
915.99	6464.02
916.302	6419.51
916.613	6456.34
916.925	6449.11
917.236	6389.9
917.548	6419.73
917.859	6392.39
918.171	6334.99
918.482	6331.6
918.794	6289.34
919.105	6316.23
919.416	6229.91
919.727	6231.26
920.038	6237.59
920.349	6122.79
920.66	6139.97
920.971	6069.91
921.282	6070.81
921.593	6042.79
921.903	6030.59
922.214	6028.1
922.525	5903.14
922.835	5953.98
923.146	5939.07
923.456	5924.83
923.767	5883.7
924.077	5864.94
924.387	5805.51
924.697	5791.73
925.008	5780.43
925.318	5755.79
925.628	5744.04
925.938	5642.58
926.248	5671.73
926.558	5595.12
926.867	5640.54
927.177	5625.63
927.487	5567.78
927.796	5576.36
928.106	5514.45
928.416	5472.41
928.725	5511.73
929.034	5453.66
929.344	5449.81
929.653	5429.7
929.962	5369.36
930.271	5320.1
930.581	5335.69
930.89	5313.77
931.199	5286.65
931.508	5249.82
931.817	5248.69
932.125	5262.7
932.434	5224.51
932.743	5187.22
933.051	5185.87
933.36	5190.16
933.669	5055.47
933.977	5140.67
934.286	5096.6
934.594	5060.22
934.902	5028.58
935.21	4996.49
935.519	5059.32
935.827	4994.01
936.135	4917.85
936.443	4956.04
936.751	4889.6
937.059	4868.13
937.367	4846.44
937.674	4891.64
937.982	4832.43
938.29	4865.87
938.597	4774.13
938.905	4732.55
939.213	4723.05
939.52	4667.46
939.827	4718.99
940.135	4702.26
940.442	4669.5
940.749	4641.25
941.056	4630.85
941.363	4566.9
941.67	4574.81
941.977	4557.41
942.284	4510.63
942.591	4527.13
942.898	4505.21
943.205	4499.56
943.511	4460.91
943.818	4479.44
944.125	4416.85
944.431	4385.21
944.738	4364.19
945.044	4360.58
945.35	4384.08
945.657	4354.25
945.963	4343.85
946.269	4263.4
946.575	4253.91
946.881	4250.3
947.187	4244.2
947.493	4215.95
947.799	4205.1
948.105	4205.1
948.41	4144.54
948.716	4150.19
949.022	4137.53
949.327	4128.49
949.633	4117.65
949.938	4075.16
950.244	4043.52
950.549	4024.77
950.854	4073.58
951.16	4032.68
951.465	3976.41
951.77	3980.7
952.075	3958.1
952.38	3937.99
952.685	3929.85
952.99	3890.53
953.294	3880.59
953.599	3880.59
953.904	3833.81
954.209	3861.61
954.513	3803.76
954.818	3824.77
955.122	3815.96
955.426	3800.37
955.731	3782.29
956.035	3740.71
956.339	3730.54
956.643	3733.25
956.948	3708.84
957.252	3699.58
957.556	3699.58
957.86	3634.27
958.163	3660.03
958.467	3631.78
958.771	3649.18
959.075	3598.11
959.378	3578
959.682	3549.98
959.985	3550.66
960.289	3500.49
960.592	3506.14
960.896	3468.4
961.199	3440.38
961.502	3458.45
961.805	3453.93
962.108	3413.94
962.411	3412.81
962.714	3419.81
963.017	3409.87
963.32	3410.32
963.623	3385.46
963.926	3403.99
964.228	3323.09
964.531	3315.63
964.833	3367.84
965.136	3325.12
965.438	3273.15
965.741	3296.65
966.043	3311.57
966.345	3233.6
966.648	3234.73
966.95	3236.31
967.252	3158.35
967.554	3164.68
967.856	3146.6
968.158	3153.6
968.46	3152.93
968.761	3150.89
969.063	3114.96
969.365	3127.39
969.666	3110.44
969.968	3072.25
970.269	3083.77
970.571	3085.13
970.872	3046.71
971.174	3015.3
971.475	3031.35
971.776	3031.12
972.077	2968.07
972.378	2957.9
972.679	2980.73
972.98	2936.21
973.281	2927.85
973.582	2916.32
973.883	2936.66
974.183	2921.52
974.484	2865.25
974.785	2872.03
975.085	2851.01
975.386	2864.8
975.686	2821.41
975.986	2802.88
976.287	2785.7
976.587	2788.42
976.887	2781.18
977.187	2789.55
977.487	2751.35
977.787	2741.41
978.087	2737.12
978.387	2714.75
978.687	2709.32
978.987	2703.45
979.286	2660.51
979.586	2688.08
979.885	2661.41
980.185	2634.3
980.484	2667.97
980.784	2616.44
981.083	2584.35
981.382	2625.93
981.682	2583
981.981	2541.42
982.28	2616.89
982.579	2554.3
982.878	2535.99
983.177	2555.88
983.475	2549.55
983.774	2540.29
984.073	2531.02
984.372	2501.64
984.67	2507.52
984.969	2460.51
985.267	2472.72
985.566	2457.58
985.864	2417.58
986.162	2414.87
986.461	2394.53
986.759	2426.62
987.057	2395.66
987.355	2391.14
987.653	2428.65
987.951	2363.34
988.249	2339.84
988.547	2366.05
988.844	2330.35
989.142	2320.18
989.44	2325.38
989.737	2300.07
990.035	2276.34
990.332	2312.5
990.63	2268.43
990.927	2287.41
991.224	2255.1
991.521	2262.55
991.819	2177.58
992.116	2238.83
992.413	2208.77
992.71	2222.33
993.006	2172.84
993.303	2143.23
993.6	2180.52
993.897	2175.55
994.193	2156.57
994.49	2168.77
994.787	2142.56
995.083	2095.55
995.379	2085.83
995.676	2115.44
995.972	2112.5
996.268	2065.95
996.565	2065.5
996.861	2071.6
997.157	2062.33
997.453	2049
997.749	2029.79
998.044	2041.54
998.34	1989.11
998.636	2019.4
998.932	1968.78
999.227	1990.47
999.523	1983.69
999.818	1966.52
1000.114	1950.47
1000.409	1936.23
1000.704	1931.04
1001	1912.73
1001.295	1941.21
1001.59	1914.99
1001.885	1894.43
1002.18	1887.42
1002.475	1887.2
1002.77	1873.86
1003.065	1834.32
1003.359	1852.39
1003.654	1826.41
1003.949	1842.45
1004.243	1804.03
1004.538	1820.53
1004.832	1818.95
1005.127	1787.54
1005.421	1773.53
1005.715	1790.25
1006.009	1745.05
1006.304	1747.76
1006.598	1724.04
1006.892	1756.8
1007.186	1707.77
1007.48	1691.5
1007.773	1696.24
1008.067	1672.96
1008.361	1693.75
1008.655	1656.47
1008.948	1650.37
1009.242	1651.72
1009.535	1655.34
1009.829	1650.14
1010.122	1635.68
1010.415	1611.72
1010.708	1621.67
1011.001	1613.08
1011.295	1542.12
1011.588	1595.23
1011.881	1572.85
1012.173	1569.01
1012.466	1595.45
1012.759	1569.69
1013.052	1558.62
1013.344	1531.73
1013.637	1516.58
1013.93	1533.53
1014.222	1524.49
1014.514	1495.57
1014.807	1482.91
1015.099	1482.91
1015.391	1482.01
1015.683	1470.71
1015.976	1472.29
1016.268	1437.49
1016.56	1437.49
1016.851	1418.96
1017.143	1426.87
1017.435	1397.94
1017.727	1406.08
1018.018	1413.54
1018.31	1389.36
1018.602	1400.43
1018.893	1366.98
1019.185	1381.22
1019.476	1345.52
1019.767	1327.89
1020.058	1346.19
1020.35	1345.74
1020.641	1329.7
1020.932	1337.61
1021.223	1308
1021.514	1296.7
1021.804	1320.66
1022.095	1272.3
1022.386	1259.42
1022.677	1261.68
1022.967	1227.78
1023.258	1278.62
1023.548	1231.39
1023.839	1233.2
1024.129	1219.64
1024.419	1230.49
1024.709	1200.89
1025	1213.32
1025.29	1180.55
1025.58	1176.48
1025.87	1177.16
1026.16	1162.24
1026.449	1158.63
1026.739	1134.22
1027.029	1160.66
1027.319	1155.69
1027.608	1140.55
1027.898	1139.42
1028.187	1128.35
1028.477	1151.17
1028.766	1128.8
1029.055	1108.46
1029.344	1112.53
1029.634	1091.28
1029.923	1060.33
1030.212	1060.33
1030.501	1079.08
1030.79	1046.31
1031.078	1047.9
1031.367	1030.04
1031.656	1056.48
1031.945	1039.53
1032.233	1000.21
1032.522	1028.46
1032.81	994.11
1033.099	999.31
1033.387	990.5
1033.675	1010.84
1033.963	1012.87
1034.251	996.15
1034.54	970.16
1034.828	928.58
1035.116	931.74
1035.403	938.29
1035.691	941.68
1035.979	924.74
1036.267	940.33
1036.554	934.45
1036.842	936.94
1037.129	897.62
1037.417	943.49
1037.704	910.95
1037.992	897.84
1038.279	915.47
1038.566	885.87
1038.853	885.87
1039.14	885.87
