Data from hue_100_FLMS001491_00007.txt Node
Date: Tue Feb 07 17:02:34 GMT 2017
User: dcchb
Spectrometer: FLMS00149
Trigger mode: 0
Integration Time (sec): 2.000000E-2
Scans to average: 10
Electric dark correction enabled: true
Nonlinearity correction enabled: false
Boxcar width: 0
XAxis mode: Wavelengths
Number of Pixels in Spectrum: 2048
>>>>>Begin Spectral Data<<<<<
341.393	-5.28
341.776	-5.28
342.16	-5.28
342.543	-52.96
342.927	-71.95
343.31	-73.76
343.693	-63.36
344.077	-51.83
344.46	-51.38
344.843	-49.12
345.226	-37.15
345.61	-25.39
345.993	-22.68
346.376	1.05
346.759	0.14
347.142	25
347.525	33.36
347.908	54.38
348.291	61.83
348.674	97.99
349.057	100.93
349.44	123.3
349.823	146.13
350.206	152
350.588	205.79
350.971	208.27
351.354	225.22
351.737	241.49
352.119	267.25
352.502	254.37
352.884	288.72
353.267	286.91
353.65	299.57
354.032	304.99
354.414	299.57
354.797	328.49
355.179	321.71
355.562	334.37
355.944	350.64
356.326	338.21
356.709	334.37
357.091	329.62
357.473	349.51
357.855	340.02
358.238	371.43
358.62	335.05
359.002	352.9
359.384	328.49
359.766	331.43
360.148	369.85
360.53	342.05
360.912	363.75
361.294	346.57
361.676	348.83
362.057	335.05
362.439	326.46
362.821	329.62
363.203	316.97
363.584	326.91
363.966	344.99
364.348	330.08
364.729	316.29
365.111	344.09
365.493	338.44
365.874	339.12
366.256	331.21
366.637	311.77
367.019	333.24
367.4	327.14
367.781	314.71
368.163	335.05
368.544	309.06
368.925	338.21
369.306	328.49
369.688	321.71
370.069	320.13
370.45	312.68
370.831	323.52
371.212	314.48
371.593	321.04
371.974	308.83
372.355	315.61
372.736	318.32
373.117	319.45
373.498	316.52
373.879	309.06
374.26	324.88
374.641	313.58
375.021	298.89
375.402	323.75
375.783	350.41
376.163	306.35
376.544	318.78
376.925	334.6
377.305	340.02
377.686	341.15
378.066	338.66
378.447	337.76
378.827	357.65
379.208	353.58
379.588	333.01
379.968	342.51
380.349	319.45
380.729	353.8
381.109	339.12
381.489	367.36
381.87	365.78
382.25	358.78
382.63	332.79
383.01	361.49
383.39	346.12
383.77	318.55
384.15	366.01
384.53	366.91
384.91	366.69
385.29	354.03
385.67	369.62
386.049	361.49
386.429	352.22
386.809	366.23
387.189	376.4
387.568	368.49
387.948	364.2
388.328	406.23
388.707	374.59
389.087	391.09
389.466	371.43
389.846	375.72
390.225	354.71
390.605	391.77
390.984	371.88
391.363	383.63
391.743	400.13
392.122	394.03
392.501	388.83
392.881	386.12
393.26	376.85
393.639	413.92
394.018	414.14
394.397	402.62
394.776	392
395.155	392.22
395.534	385.67
395.913	424.99
396.292	410.75
396.671	385.67
397.05	404.88
397.429	402.16
397.808	422.73
398.186	413.46
398.565	405.33
398.944	424.99
399.323	427.93
399.701	417.31
400.08	411.66
400.458	420.92
400.837	417.53
401.215	426.8
401.594	426.8
401.972	444.65
402.351	434.48
402.729	430.41
403.107	429.28
403.486	457.76
403.864	455.5
404.242	456.17
404.62	454.82
404.999	438.55
405.377	443.75
405.755	443.07
406.133	448.94
406.511	470.19
406.889	471.09
407.267	481.94
407.645	464.31
408.023	470.86
408.401	452.33
408.779	486.68
409.156	505.66
409.534	495.27
409.912	468.83
410.29	483.74
410.667	495.04
411.045	469.73
411.422	506.34
411.8	514.25
412.178	511.09
412.555	534.14
412.933	510.18
413.31	516.51
413.687	512.44
414.065	525.78
414.442	548.83
414.819	550.41
415.197	521.71
415.574	561.03
415.951	547.92
416.328	545.44
416.705	544.08
417.082	566.23
417.46	564.65
417.837	571.88
418.214	567.13
418.591	568.94
418.967	573.46
419.344	577.75
419.721	581.37
420.098	575.27
420.475	588.83
420.852	591.99
421.228	590.41
421.605	591.31
421.982	596.28
422.358	592.44
422.735	615.04
423.111	612.1
423.488	630.63
423.864	613.01
424.241	640.35
424.617	640.8
424.994	635.38
425.37	632.22
425.746	677.41
426.123	645.32
426.499	671.31
426.875	675.6
427.251	665.66
427.627	671.99
428.003	709.5
428.379	683.97
428.756	704.08
429.132	678.32
429.507	704.08
429.883	702.72
430.259	720.35
430.635	706.79
431.011	733
431.387	737.3
431.763	726.68
432.138	754.7
432.514	767.8
432.89	756.96
433.265	768.71
433.641	772.55
434.016	780.23
434.392	798.76
434.767	794.02
435.143	802.83
435.518	820.01
435.894	816.62
436.269	820.01
436.644	843.73
437.02	865.66
437.395	869.27
437.77	833.34
438.145	867.01
438.52	865.2
438.895	884.64
439.271	882.38
439.646	902.04
440.021	879.21
440.395	891.42
440.77	902.49
441.145	933
441.52	932.09
441.895	910.63
442.27	931.42
442.645	916.95
443.019	973
443.394	967.35
443.769	966.9
444.143	984.07
444.518	957.4
444.892	982.04
445.267	977.97
445.641	998.08
446.016	1001.7
446.39	1017.97
446.764	987.69
447.139	1011.41
447.513	1019.78
447.887	1007.8
448.262	1013
448.636	1027.91
449.01	1050.96
449.384	1053.22
449.758	1083.05
450.132	1084.41
450.506	1083.73
450.88	1108.59
451.254	1092.54
451.628	1087.34
452.002	1143.39
452.376	1127.12
452.75	1110.17
453.123	1173.22
453.497	1161.01
453.871	1155.37
454.244	1210.73
454.618	1213.44
454.992	1217.74
455.365	1231.52
455.739	1248.02
456.112	1254.57
456.486	1260.9
456.859	1256.15
457.232	1305.19
457.606	1331.63
457.979	1323.5
458.352	1367.34
458.725	1369.37
459.099	1367.11
459.472	1387.68
459.845	1397.62
460.218	1392.2
460.591	1439.88
460.964	1462.93
461.337	1476.26
461.71	1488.01
462.083	1521.01
462.456	1511.51
462.829	1512.42
463.201	1518.75
463.574	1563.04
463.947	1599.42
464.32	1643.26
464.692	1651.62
465.065	1640.32
465.438	1702.7
465.81	1721
466.183	1760.09
466.555	1791.96
466.928	1789.7
467.3	1817.27
467.672	1779.08
468.045	1853.88
468.417	1887.32
468.789	1899.98
469.161	1949.69
469.534	1998.73
469.906	2036.02
470.278	2022.46
470.65	2103.14
471.022	2128.9
471.394	2186.75
471.766	2198.05
472.138	2215.9
472.51	2273.3
472.882	2350.81
473.253	2390.36
473.625	2449.12
473.997	2491.15
474.369	2488.21
474.74	2534.09
475.112	2632.39
475.484	2702.22
475.855	2751.03
476.227	2783.8
476.598	2863.79
476.97	2913.28
477.341	3030.57
477.713	3059.27
478.084	3130.91
478.455	3255.2
478.827	3313.5
479.198	3425.81
479.569	3438.47
479.94	3569.31
480.311	3686.6
480.682	3718.24
481.053	3885.24
481.424	3944.9
481.795	4056.53
482.166	4132.24
482.537	4286.81
482.908	4407.26
483.279	4475.28
483.65	4551.21
484.021	4697.87
484.391	4862.39
484.762	4906.45
485.133	4996.17
485.503	5177.41
485.874	5344.41
486.244	5426.67
486.615	5553.44
486.985	5643.61
487.356	5841.57
487.726	5903.49
488.097	6152.75
488.467	6211.5
488.837	6427.09
489.207	6446.53
489.578	6726.52
489.948	6780.3
490.318	6977.36
490.688	7053.74
491.058	7303
491.428	7437.23
491.798	7558.36
492.168	7766.26
492.538	7844.23
492.908	8053.26
493.278	8174.84
493.648	8301.39
494.017	8434.72
494.387	8586.36
494.757	8759.68
495.126	8803.07
495.496	9006.91
495.866	9083.07
496.235	9228.15
496.605	9393.57
496.974	9478.99
497.344	9691.19
497.713	9773.67
498.082	9954.46
498.452	10061.12
498.821	10181.57
499.19	10203.04
499.559	10467.89
499.928	10504.05
500.298	10666.08
500.667	10783.36
501.036	10820.2
501.405	10963.92
501.774	11016.12
502.143	11307.41
502.512	11291.82
502.88	11502.21
503.249	11497.24
503.618	11597.8
503.987	11653.85
504.356	11772.71
504.724	11813.84
505.093	11932.48
505.462	12045.7
505.83	12088.86
506.199	12227.16
506.567	12461.51
506.936	12446.14
507.304	12615.85
507.672	12753.7
508.041	12896.75
508.409	12836.19
508.777	12993.7
509.145	13076.63
509.514	12995.96
509.882	13161.38
510.25	13214.26
510.618	13256.97
510.986	13356.85
511.354	13453.8
511.722	13496.28
512.09	13656.96
512.458	13601.37
512.826	13724.53
513.193	13807.91
513.561	13864.18
513.929	14011.75
514.297	14084.29
514.664	14109.6
515.032	14249.94
515.4	14204.51
515.767	14388.24
516.135	14406.09
516.502	14330.39
516.869	14566.99
517.237	14563.83
517.604	14526.54
517.972	14540.32
518.339	14708.23
518.706	14608.8
519.073	14686.53
519.44	14773.54
519.808	14931.05
520.175	14842.24
520.542	14996.13
520.909	15050.14
521.276	15020.31
521.643	15089.69
522.009	15163.81
522.376	15281.32
522.743	15262.56
523.11	15337.14
523.477	15493.52
523.843	15553.86
524.21	15621.65
524.577	15662.33
524.943	15664.14
525.31	15690.12
525.676	15825.26
526.043	15846.96
526.409	15721.08
526.776	15933.73
527.142	15990
527.508	15959.27
527.874	16001.08
528.241	16063.22
528.607	16118.81
528.973	16186.16
529.339	16026.39
529.705	16171.92
530.071	16271.58
530.437	16243.1
530.803	16260.28
531.169	16345.7
531.535	16195.65
531.901	16242.2
532.267	16265.7
532.632	16332.14
532.998	16304.35
533.364	16325.81
533.73	16333.95
534.095	16382.76
534.461	16260.73
534.826	16310.67
535.192	16282.88
535.557	16415.53
535.923	16275.42
536.288	16302.99
536.653	16316.1
537.019	16325.81
537.384	16239.94
537.749	16324.91
538.114	16230.22
538.479	16270.22
538.845	16343.44
539.21	16141.64
539.575	16149.32
539.94	16192.71
540.305	16163.78
540.67	16125.37
541.034	16119.72
541.399	16111.36
541.764	16173.28
542.129	16145.48
542.494	16074.75
542.858	16091.24
543.223	15977.12
543.587	16010.79
543.952	15928.76
544.316	15949.78
544.681	15865.49
545.045	15954.3
545.41	15917.24
545.774	15863.9
546.138	15838.14
546.503	15783.23
546.867	15768.77
547.231	15851.48
547.595	15773.51
547.959	15778.03
548.324	15710.91
548.688	15639.05
549.052	15625.27
549.416	15674.76
549.779	15597.47
550.143	15520.19
550.507	15650.35
550.871	15603.57
551.235	15503.69
551.599	15576.45
551.962	15512.73
552.326	15447.19
552.689	15453.07
553.053	15397.93
553.417	15348.89
553.78	15526.29
554.143	15347.08
554.507	15413.75
554.87	15452.16
555.234	15589.56
555.597	15383.01
555.96	15355.9
556.323	15380.98
556.686	15433.18
557.05	15452.39
557.413	15428.44
557.776	15354.31
558.139	15425.05
558.502	15391.37
558.865	15380.3
559.228	15514.99
559.59	15375.33
559.953	15513.41
560.316	15541.88
560.679	15470.92
561.041	15508.43
561.404	15578.26
561.767	15536.46
562.129	15419.17
562.492	15655.55
562.854	15486.29
563.217	15577.81
563.579	15525.16
563.941	15555.44
564.304	15606.74
564.666	15755.21
565.028	15688.54
565.39	15702.78
565.753	15702.1
566.115	15734.19
566.477	15839.27
566.839	15780.74
567.201	15828.88
567.563	15721.54
567.925	15846.73
568.287	15762.66
568.648	15834.08
569.01	15845.6
569.372	15981.87
569.734	15881.76
570.095	16008.99
570.457	16021.87
570.819	16074.75
571.18	15992.94
571.542	16075.88
571.903	16170.56
572.265	16116.78
572.626	16067.97
572.987	16074.97
573.349	16122.88
573.71	16277
574.071	16167.4
574.432	16198.59
574.794	16257.34
575.155	16133.73
575.516	16230.45
575.877	16271.8
576.238	16198.36
576.599	16275.42
576.96	16322.65
577.32	16289.43
577.681	16414.85
578.042	16336.66
578.403	16313.16
578.763	16418.69
579.124	16319.03
579.485	16493.94
579.845	16381.18
580.206	16458.01
580.566	16374.17
580.927	16345.7
581.287	16399.03
581.648	16420.27
582.008	16502.53
582.368	16382.76
582.728	16421.18
583.089	16381.41
583.449	16370.56
583.809	16395.64
584.169	16458.92
584.529	16366.49
584.889	16493.94
585.249	16356.55
585.609	16215.08
585.969	16274.97
586.329	16247.17
586.688	16276.55
587.048	16274.97
587.408	16326.94
587.768	16212.14
588.127	16269.32
588.487	16177.34
588.846	16310.9
589.206	16109.77
589.565	16170.11
589.925	16207.17
590.284	16165.59
590.643	16222.99
591.003	16218.47
591.362	16319.26
591.721	16211.01
592.08	16149.55
592.44	16121.75
592.799	16196.55
593.158	16195.2
593.517	16264.57
593.876	16056.89
594.235	16175.54
594.593	16077.91
594.952	16156.55
595.311	16083.56
595.67	16260.73
596.029	16206.49
596.387	16157.46
596.746	16210.56
597.104	16127.63
597.463	16105.03
597.822	16176.21
598.18	16064.13
598.538	16156.1
598.897	16172.82
599.255	16069.32
599.613	16208.3
599.972	16073.62
600.33	16119.94
600.688	16047.63
601.046	16175.54
601.404	16150.68
601.762	16086.05
602.12	16177.12
602.478	16187.29
602.836	16187.51
603.194	16078.14
603.552	16098.48
603.91	16079.49
604.268	16172.6
604.625	16105.03
604.983	16180.28
605.341	16121.3
605.698	16241.07
606.056	16203.78
606.413	16178.7
606.771	16184.8
607.128	16187.96
607.485	16131.02
607.843	16178.92
608.2	16172.37
608.557	16248.08
608.914	16126.5
609.272	16223.9
609.629	16243.78
609.986	16385.02
610.343	16355.42
610.7	16493.94
611.057	16387.96
611.414	16374.63
611.771	16279.04
612.127	16444.45
612.484	16342.08
612.841	16414.62
613.198	16404.46
613.554	16419.6
613.911	16531.68
614.267	16337.34
614.624	16352.03
614.98	16435.87
615.337	16535.98
615.693	16579.59
616.05	16441.52
616.406	16585.92
616.762	16507.28
617.118	16517.22
617.475	16526.03
617.831	16578.24
618.187	16552.93
618.543	16506.6
618.899	16597.9
619.255	16708.18
619.611	16548.63
619.967	16651
620.323	16636.54
620.678	16589.08
621.034	16604.22
621.39	16649.42
621.746	16716.09
622.101	16723.54
622.457	16725.8
622.812	16665.01
623.168	16647.61
623.523	16700.95
623.879	16677.89
624.234	16667.5
624.589	16696.65
624.945	16582.98
625.3	16656.65
625.655	16677.22
626.01	16613.94
626.365	16609.42
626.72	16661.17
627.075	16543.66
627.43	16509.99
627.785	16581.17
628.14	16593.38
628.495	16555.41
628.85	16559.93
629.205	16611
629.559	16614.39
629.914	16431.35
630.269	16524.45
630.623	16516.32
630.978	16415.53
631.332	16560.16
631.687	16524.68
632.041	16499.59
632.396	16535.98
632.75	16356.32
633.104	16491.01
633.459	16361.74
633.813	16432.48
634.167	16397.22
634.521	16432.48
634.875	16357
635.229	16412.82
635.583	16321.97
635.937	16309.32
636.291	16196.1
636.645	16284.01
636.999	16242.43
637.352	16166.72
637.706	16127.85
638.06	16247.62
638.413	16132.15
638.767	16147.51
639.121	16258.24
639.474	16057.35
639.828	16020.06
640.181	16117.01
640.534	16063.67
640.888	15987.52
641.241	15941.19
641.594	16013.51
641.947	15991.36
642.301	16047.4
642.654	15952.26
643.007	15919.5
643.36	15939.38
643.713	15902.32
644.066	15938.03
644.419	15808.54
644.771	15741.2
645.124	15637.24
645.477	15679.5
645.83	15576
646.182	15426.85
646.535	15446.74
646.888	15501.88
647.24	15348.21
647.593	15470.02
647.945	15342.34
648.298	15363.81
648.65	15334.88
649.002	15284.71
649.355	15394.99
649.707	15428.66
650.059	15441.54
650.411	15601.31
650.763	15681.08
651.115	15726.73
651.467	15671.82
651.819	15661.2
652.171	15755.89
652.523	15633.4
652.875	15653.29
653.227	15641.99
653.578	15717.47
653.93	15783.91
654.282	15653.51
654.633	15526.96
654.985	15711.37
655.337	15709.33
655.688	15713.17
656.039	15757.24
656.391	15585.27
656.742	15705.72
657.094	15657.58
657.445	15651.93
657.796	15731.7
658.147	15681.76
658.498	15595.44
658.849	15630.92
659.2	15671.59
659.551	15694.19
659.902	15645.61
660.253	15686.06
660.604	15650.13
660.955	15639.96
661.306	15687.41
661.656	15674.31
662.007	15599.05
662.358	15681.76
662.708	15679.95
663.059	15726.96
663.409	15589.34
663.76	15684.47
664.11	15684.47
664.461	15736.9
664.811	15749.11
665.161	15695.77
665.511	15576.91
665.862	15712.04
666.212	15734.42
666.562	15769.22
666.912	15731.93
667.262	15699.39
667.612	15804.7
667.962	15813.06
668.312	15698.94
668.662	15730.58
669.011	15620.52
669.361	15637.02
669.711	15648.32
670.06	15660.97
670.41	15652.39
670.76	15583.91
671.109	15677.7
671.459	15609.67
671.808	15564.48
672.157	15633.85
672.507	15552.27
672.856	15517.47
673.205	15513.86
673.554	15559.51
673.904	15497.36
674.253	15533.07
674.602	15511.15
674.951	15299.85
675.3	15297.59
675.649	15495.1
675.998	15369.68
676.346	15371.94
676.695	15451.94
677.044	15297.82
677.393	15416.69
677.741	15358.16
678.09	15398.15
678.438	15363.58
678.787	15263.47
679.135	15307.99
679.484	15314.54
679.832	15237.25
680.181	15205.62
680.529	15226.86
680.877	15112.74
681.225	15135.11
681.573	15220.76
681.922	15074.77
682.27	15040.65
682.618	14991.39
682.966	14997.71
683.314	15032.74
683.661	14998.39
684.009	14864.61
684.357	14876.81
684.705	14887.89
685.053	14847.21
685.4	14799.98
685.748	14773.99
686.095	14807.21
686.443	14647.67
686.79	14644.05
687.138	14709.58
687.485	14700.77
687.832	14603.83
688.18	14517.73
688.527	14541.91
688.874	14542.13
689.221	14495.81
689.568	14461.23
689.915	14366.32
690.262	14384.17
690.609	14268.01
690.956	14329.48
691.303	14301.46
691.65	14226.43
691.997	14209.03
692.344	14076.83
692.69	14159.09
693.037	14042.71
693.383	13894.01
693.73	13947.57
694.077	13907.57
694.423	13918.19
694.769	13793.68
695.116	13849.49
695.462	13716.84
695.808	13672.78
696.155	13621.25
696.501	13576.51
696.847	13610.4
697.193	13476.62
697.539	13406.79
697.885	13389.62
698.231	13404.31
698.577	13372.22
698.923	13322.73
699.269	13172.22
699.614	13077.09
699.96	13119.34
700.306	13090.42
700.651	13012.68
700.997	12988.95
701.342	12953.47
701.688	12881.16
702.033	12863.76
702.379	12921.16
702.724	12821.27
703.069	12821.27
703.415	12712.35
703.76	12676.42
704.105	12739.47
704.45	12647.94
704.795	12611.34
705.14	12530.66
705.485	12527.04
705.83	12448.18
706.175	12424.45
706.52	12429.64
706.865	12321.85
707.209	12355.07
707.554	12247.05
707.899	12333.38
708.243	12189.43
708.588	12187.17
708.932	12085.7
709.277	12057.23
709.621	12130.9
709.966	12015.42
710.31	12086.38
710.654	11933.84
710.998	11976.78
711.342	11966.61
711.687	11867.85
712.031	11785.82
712.375	11786.05
712.719	11865.14
713.063	11818.81
713.407	11852.03
713.75	11769.32
714.094	11723
714.438	11667.86
714.782	11695.43
715.125	11622.43
715.469	11611.36
715.812	11497.01
716.156	11475.32
716.499	11495.88
716.843	11508.77
717.186	11437.81
717.53	11525.04
717.873	11537.24
718.216	11471.03
718.559	11409.78
718.902	11387.86
719.246	11351.26
719.589	11393.06
719.932	11355.1
720.275	11367.53
720.617	11380.18
720.96	11341.31
721.303	11331.37
721.646	11324.14
721.989	11197.81
722.331	11239.39
722.674	11227.64
723.016	11282.56
723.359	11230.13
723.701	11237.59
724.044	11147.64
724.386	11172.73
724.729	11180.41
725.071	11120.98
725.413	11117.59
725.755	11146.29
726.097	11050.7
726.439	11084.82
726.782	11050.7
727.124	11059.74
727.465	11022.45
727.807	11004.6
728.149	11063.58
728.491	10979.97
728.833	10999.63
729.175	10974.77
729.516	11003.92
729.858	10973.64
730.199	10928.44
730.541	10918.5
730.882	10905.84
731.224	10944.03
731.565	10913.53
731.906	10916.46
732.248	10915.33
732.589	10839.18
732.93	10838.27
733.271	10967.31
733.612	10857.48
733.953	10889.12
734.294	10848.44
734.635	10815.68
734.976	10938.61
735.317	10765.06
735.658	10830.82
735.999	10840.53
736.339	10842.79
736.68	10863.81
737.021	10871.27
737.361	10851.61
737.702	11003.47
738.042	10889.8
738.383	10877.14
738.723	10886.86
739.063	10809.8
739.404	10897.71
739.744	10933.41
740.084	10904.94
740.424	10845.05
740.764	10895.22
741.104	11005.28
741.444	10974.09
741.784	10918.72
742.124	10972.28
742.464	11038.27
742.804	10932.51
743.143	10989.46
743.483	11052.96
743.823	11052.51
744.162	11066.52
744.502	11116.69
744.841	11134.99
745.181	11184.93
745.52	11169.11
745.86	11278.26
746.199	11266.74
746.538	11344.93
746.877	11334.31
747.216	11433.51
747.556	11402.55
747.895	11428.77
748.234	11442.78
748.573	11494.53
748.911	11587.41
749.25	11715.09
749.589	11815.88
749.928	11776.55
750.267	11901.07
750.605	11954.18
750.944	11977.45
751.283	12067.85
751.621	12188.52
751.96	12200.95
752.298	12417.22
752.636	12431.45
752.975	12470.77
753.313	12486.14
753.651	12765
753.989	12753.25
754.327	12962.06
754.666	12943.08
755.004	13143.98
755.342	13220.13
755.679	13427.81
756.017	13389.39
756.355	13698.31
756.693	13675.04
757.031	13900.34
757.368	13995.48
757.706	14164.51
758.044	14240.67
758.381	14495.35
758.719	14593.2
759.056	14732.64
759.394	14850.15
759.731	14959.75
760.068	15217.59
760.405	15258.95
760.743	15513.18
761.08	15678.37
761.417	15784.13
761.754	15969.44
762.091	16055.76
762.428	16336.66
762.765	16373.95
763.102	16563.1
763.438	16690.78
763.775	16803.32
764.112	17018.45
764.449	17244.66
764.785	17371.21
765.122	17441.49
765.458	17564.43
765.795	17719.45
766.131	17909.95
766.467	17975.04
766.804	18160.57
767.14	18199.89
767.476	18394.69
767.812	18531.86
768.148	18637.62
768.485	18737.5
768.821	18772.08
769.157	18833.77
769.492	18990.83
769.828	19198.96
770.164	19130.94
770.5	19214.78
770.836	19391.5
771.171	19425.62
771.507	19550.59
771.842	19457.48
772.178	19714.65
772.513	19816.57
772.849	19878.26
773.184	19834.87
773.519	19950.58
773.855	20074.42
774.19	20071.03
774.525	20199.16
774.86	20161.19
775.195	20201.42
775.53	20382.66
775.865	20247.52
776.2	20257.01
776.535	20169.1
776.87	20313.51
777.205	20392.15
777.539	20273.73
777.874	20396.22
778.209	20341.75
778.543	20426.72
778.878	20392.37
779.212	20413.62
779.547	20381.75
779.881	20525.48
780.215	20410
780.55	20565.02
780.884	20475.31
781.218	20405.93
781.552	20561.18
781.886	20462.43
782.22	20365.71
782.554	20442.77
782.888	20287.97
783.222	20268.08
783.556	20281.19
783.889	20360.06
784.223	20159.61
784.557	20177.24
784.89	20243.45
785.224	20097.69
785.557	20130.91
785.891	20086.62
786.224	20010.24
786.558	20087.75
786.891	19912.16
787.224	19892.27
787.557	19979.28
787.891	19952.38
788.224	19903.35
788.557	19948.54
788.89	19883.69
789.223	19855.21
789.556	19747.87
789.888	19624.48
790.221	19727.98
790.554	19636.24
790.887	19635.56
791.219	19524.37
791.552	19472.62
791.884	19428.33
792.217	19376.35
792.549	19402.12
792.882	19386.52
793.214	19291.84
793.546	19325.06
793.879	19204.83
794.211	19126.42
794.543	19161.22
794.875	19171.61
795.207	19200.54
795.539	19000.55
795.871	19119.19
796.203	18980.89
796.535	18943.15
796.867	18810.95
797.198	18685.98
797.53	18790.83
797.862	18576.38
798.193	18749.7
798.525	18591.97
798.856	18578.18
799.188	18433.78
799.519	18387.23
799.85	18363.05
800.182	18386.32
800.513	18382.48
800.844	18240.34
801.175	18305.2
801.506	18270.4
801.837	18104.3
802.168	18060.01
802.499	18197.18
802.83	17975.94
803.161	17955.83
803.491	17947.24
803.822	17981.59
804.153	17879.9
804.483	17777.53
804.814	17701.37
805.145	17726.23
805.475	17751.09
805.805	17623.63
806.136	17637.19
806.466	17614.59
806.796	17565.33
807.126	17540.02
807.457	17370.98
807.787	17380.7
808.117	17298.9
808.447	17278.56
808.777	17334.83
809.107	17231.33
809.436	17259.57
809.766	17192.01
810.096	17201.5
810.426	17070.2
810.755	17085.79
811.085	17006.02
811.414	17003.08
811.744	16882.64
812.073	16909.53
812.403	16911.79
812.732	16821.17
813.061	16931.67
813.39	16645.58
813.719	16746.37
814.049	16791.56
814.378	16735.07
814.707	16556.54
815.036	16640.38
815.365	16507.05
815.693	16440.16
816.022	16523.32
816.351	16411.69
816.68	16303.44
817.008	16404.68
817.337	16197.23
817.665	16263.67
817.994	16265.48
818.322	16159.04
818.651	16139.15
818.979	16079.94
819.307	16187.96
819.636	16127.17
819.964	16051.24
820.292	16128.98
820.62	16044.47
820.948	16045.6
821.276	16076.1
821.604	16012.38
821.932	16024.13
822.259	16016.67
822.587	16036.56
822.915	15890.57
823.243	15997.01
823.57	15967.18
823.898	16002.66
824.225	15878.82
824.553	15950.68
824.88	15948.2
825.207	15979.83
825.535	16014.41
825.862	16012.15
826.189	15886.96
826.516	15984.35
826.843	16058.25
827.17	15971.92
827.497	16030.68
827.824	16019.61
828.151	16010.34
828.478	16020.51
828.805	16023.22
829.131	15994.07
829.458	15999.04
829.785	15901.42
830.111	15958.37
830.438	16055.09
830.764	15928.08
831.09	16018.25
831.417	15990.91
831.743	15931.25
832.069	15961.53
832.395	15879.27
832.722	15940.06
833.048	15850.8
833.374	15912.27
833.7	15805.15
834.026	15879.05
834.351	15829.78
834.677	15894.64
835.003	15840.4
835.329	15799.95
835.654	15778.48
835.98	15652.16
836.306	15822.1
836.631	15591.82
836.956	15825.04
837.282	15708.2
837.607	15655.77
837.932	15668.88
838.258	15641.99
838.583	15615.1
838.908	15518.38
839.233	15563.35
839.558	15587.53
839.883	15477.47
840.208	15436.57
840.533	15427.98
840.858	15444.93
841.182	15459.85
841.507	15374.88
841.832	15342.56
842.156	15283.13
842.481	15216.92
842.805	15162.68
843.13	15136.24
843.454	15084.49
843.778	15161.32
844.103	15133.53
844.427	15088.11
844.751	15081.1
845.075	15002.91
845.399	14913.87
845.723	14892.41
846.047	14878.39
846.371	14787.1
846.695	14780.32
847.019	14688.34
847.343	14672.07
847.666	14502.36
847.99	14383.49
848.313	14451.51
848.637	14437.5
848.96	14369.71
849.284	14312.08
849.607	14121.58
849.931	14198.19
850.254	14107.34
850.577	14046.78
850.9	13937.85
851.223	13970.4
851.546	13811.76
851.869	13773.56
852.192	13814.02
852.515	13717.97
852.838	13571.54
853.161	13551.2
853.483	13543.06
853.806	13469.62
854.129	13500.58
854.451	13411.54
854.774	13365.21
855.096	13289.96
855.419	13278.44
855.741	13197.76
856.063	13236.18
856.385	13259.23
856.708	13174.94
857.03	13030.53
857.352	13070.98
857.674	13029.18
857.996	12990.53
858.318	12916.86
858.64	12945.79
858.961	12827.15
859.283	12778.11
859.605	12732.24
859.926	12782.63
860.248	12661.73
860.57	12639.81
860.891	12711.45
861.212	12575.63
861.534	12577.44
861.855	12493.82
862.176	12613.14
862.498	12569.53
862.819	12518
863.14	12479.36
863.461	12403.66
863.782	12345.35
864.103	12492.47
864.424	12369.31
864.745	12346.71
865.065	12348.52
865.386	12375.86
865.707	12322.3
866.027	12268.07
866.348	12235.3
866.668	12172.25
866.989	12228.29
867.309	12172.25
867.63	12129.77
867.95	12124.79
868.27	12113.5
868.59	12056.77
868.91	12113.04
869.23	11982.2
869.55	11950.34
869.87	12056.1
870.19	11997.11
870.51	11996.21
870.83	12090.67
871.15	11909.43
871.469	11884.12
871.789	11968.19
872.109	11879.38
872.428	11805.25
872.748	11861.98
873.067	11876.89
873.386	11834.86
873.706	11780.17
874.025	11806.84
874.344	11663.79
874.663	11697.01
874.982	11673.05
875.301	11645.03
875.62	11666.05
875.939	11604.36
876.258	11666.95
876.577	11591.47
876.896	11574.98
877.214	11515.77
877.533	11530.46
877.852	11564.36
878.17	11516.22
878.489	11533.85
878.807	11530.23
879.125	11483.46
879.444	11508.77
879.762	11397.36
880.08	11361.42
880.398	11295.44
880.716	11318.26
881.034	11332.72
881.352	11296.79
881.67	11271.26
881.988	11277.13
882.306	11165.27
882.624	11183.35
882.941	11076.91
883.259	11117.82
883.577	11089.12
883.894	11060.19
884.212	11088.44
884.529	11038.04
884.846	11025.16
885.164	10953.98
885.481	10939.29
885.798	10896.35
886.115	10866.52
886.432	10939.74
886.75	10889.8
887.067	10854.09
887.383	10775
887.7	10736.58
888.017	10793.76
888.334	10761.89
888.651	10717.15
888.967	10649.8
889.284	10671.05
889.6	10620.2
889.917	10439.64
890.233	10570.26
890.55	10500.43
890.866	10521.9
891.182	10436.03
891.498	10459.53
891.815	10376.14
892.131	10293.43
892.447	10321.9
892.763	10295.92
893.079	10222.92
893.395	10204.62
893.71	10224.28
894.026	10199.42
894.342	10124.39
894.657	10129.59
894.973	10054.79
895.289	10047.33
895.604	10120.1
895.92	9961.69
896.235	9983.16
896.55	9939.54
896.865	9908.58
897.181	9797.85
897.496	9838.07
897.811	9809.6
898.126	9726.89
898.441	9766.89
898.756	9716.72
899.071	9645.31
899.386	9616.39
899.7	9646.22
900.015	9532.55
900.33	9482.6
900.644	9513.79
900.959	9484.19
901.273	9473.11
901.588	9405.77
901.902	9331.87
902.216	9283.29
902.531	9243.74
902.845	9257.75
903.159	9227.92
903.473	9165.32
903.787	9114.25
904.101	9071.09
904.415	9052.33
904.729	9033.58
905.042	9010.07
905.356	8984.99
905.67	8956.97
905.984	8936.63
906.297	8877.2
906.611	8810.76
906.924	8869.74
907.237	8726.69
907.551	8755.62
907.864	8639.01
908.177	8688.27
908.491	8645.34
908.804	8615.06
909.117	8601.5
909.43	8430.88
909.743	8396.3
910.056	8456.19
910.368	8357.21
910.681	8360.83
910.994	8349.75
911.307	8345.68
911.619	8260.49
911.932	8219.59
912.244	8178.01
912.557	8174.16
912.869	8161.06
913.181	8124
913.494	8035.86
913.806	7975.98
914.118	7993.15
914.43	7898.69
914.742	7973.94
915.054	7912.7
915.366	7869.31
915.678	7799.26
915.99	7744.57
916.302	7744.34
916.613	7667.28
916.925	7672.48
917.236	7706.15
917.548	7637.23
917.859	7618.7
918.171	7578.47
918.482	7566.04
918.794	7519.04
919.105	7522.66
919.416	7411.02
919.727	7391.36
920.038	7388.2
920.349	7393.39
920.66	7290.12
920.971	7323.56
921.282	7295.54
921.593	7195.66
921.903	7134.42
922.214	7195.88
922.525	7185.26
922.835	7069.79
923.146	7031.59
923.456	7044.93
923.767	7023.01
924.077	7001.31
924.387	6953.4
924.697	6946.85
925.008	6894.2
925.318	6831.37
925.628	6900.52
925.938	6822.79
926.248	6841.09
926.558	6773.97
926.867	6758.16
927.177	6648.55
927.487	6753.41
927.796	6582.12
928.106	6612.62
928.416	6624.6
928.725	6613.53
929.034	6638.38
929.344	6533.75
929.653	6480.42
929.962	6487.43
930.271	6416.02
930.581	6433.19
930.89	6355.68
931.199	6367.66
931.508	6370.37
931.817	6291.05
932.125	6335.79
932.434	6285.4
932.743	6251.28
933.051	6246.08
933.36	6216.47
933.669	6123.37
933.977	6098.96
934.286	6109.13
934.594	6068
934.902	6065.74
935.21	5999.08
935.519	6004.73
935.827	5981.45
936.135	5943.49
936.443	5912.98
936.751	5929.02
937.059	5891.74
937.367	5841.12
937.674	5825.3
937.982	5802.93
938.29	5827.33
938.597	5791.18
938.905	5679.77
939.213	5670.5
939.52	5617.62
939.827	5681.57
940.135	5646.77
940.442	5627.11
940.749	5567.68
941.056	5586.66
941.363	5535.14
941.67	5549.6
941.977	5449.26
942.284	5454.01
942.591	5439.77
942.898	5404.29
943.205	5364.52
943.511	5392.09
943.818	5336.27
944.125	5287.69
944.431	5326.33
944.738	5268.03
945.044	5263.96
945.35	5230.51
945.657	5165.88
945.963	5129.95
946.269	5122.27
946.575	5162.04
946.881	5116.62
947.187	5108.26
947.493	5069.39
947.799	5009.28
948.105	5044.3
948.41	5026
948.716	4981.25
949.022	4939.9
949.327	4948.26
949.633	4902.39
949.938	4918.43
950.244	4921.37
950.549	4858.54
950.854	4871.88
951.16	4800.69
951.465	4761.15
951.77	4744.65
952.075	4745.33
952.38	4724.08
952.685	4766.8
952.99	4649.28
953.294	4682.28
953.599	4643.86
953.904	4641.83
954.209	4626.01
954.513	4585.56
954.818	4548.95
955.122	4541.49
955.426	4529.29
955.731	4476.86
956.035	4496.29
956.339	4450.87
956.643	4450.42
956.948	4440.02
957.252	4433.02
957.556	4423.98
957.86	4373.36
958.163	4381.27
958.467	4342.4
958.771	4299.46
959.075	4325.45
959.378	4311.44
959.682	4275.51
959.985	4210.88
960.289	4213.82
960.592	4234.38
960.896	4177.43
961.199	4148.28
961.502	4162.97
961.805	4139.69
962.108	4089.75
962.411	4094.27
962.714	4093.14
963.017	4061.28
963.32	4040.94
963.623	4042.29
963.926	4060.37
964.228	4008.4
964.531	3988.06
964.833	3952.81
965.136	3947.38
965.438	3976.76
965.741	3947.83
966.043	3916.2
966.345	3891.56
966.648	3890.43
966.95	3867.16
967.252	3831.9
967.554	3763.21
967.856	3825.13
968.158	3760.49
968.46	3738.57
968.761	3746.71
969.063	3721.63
969.365	3722.98
969.666	3680.95
969.968	3674.17
970.269	3679.37
970.571	3689.08
970.872	3639.82
971.174	3616.32
971.475	3625.36
971.776	3564.34
972.077	3537.68
972.378	3548.07
972.679	3501.97
972.98	3520.73
973.281	3540.84
973.582	3479.15
973.883	3479.82
974.183	3454.29
974.484	3421.97
974.785	3396.21
975.085	3401.41
975.386	3381.07
975.686	3391.69
975.986	3397.34
976.287	3377.45
976.587	3329.77
976.887	3309.21
977.187	3300.85
977.487	3322.54
977.787	3250.45
978.087	3248.87
978.387	3214.07
978.687	3252.03
978.987	3220.85
979.286	3212.26
979.586	3210.68
979.885	3138.59
980.185	3133.84
980.484	3111.7
980.784	3150.11
981.083	3145.6
981.382	3130.45
981.682	3080.29
981.981	3106.73
982.28	3054.07
982.579	3073.51
982.878	3043.23
983.177	3023.34
983.475	3039.61
983.774	2983.34
984.073	2973.17
984.372	2960.06
984.67	2933.4
984.969	2935.66
985.267	2955.32
985.566	2914.87
985.864	2902.66
986.162	2866.28
986.461	2883.68
986.759	2868.09
987.057	2838.03
987.355	2840.97
987.653	2826.28
987.951	2818.37
988.249	2796.68
988.547	2801.88
988.844	2778.37
989.142	2756.23
989.44	2737.02
989.737	2715.55
990.035	2738.15
990.332	2714.87
990.63	2713.74
990.927	2665.38
991.224	2667.87
991.521	2653.63
991.819	2630.35
992.116	2661.31
992.413	2591.26
992.71	2619.73
993.006	2562.33
993.303	2567.98
993.6	2572.95
993.897	2583.8
994.193	2551.71
994.49	2565.72
994.787	2515.33
995.083	2527.53
995.379	2490.25
995.676	2490.25
995.972	2460.87
996.268	2466.97
996.565	2462.9
996.861	2433.52
997.157	2433.07
997.453	2397.82
997.749	2432.17
998.044	2377.93
998.34	2390.81
998.636	2386.75
998.932	2356.69
999.227	2308.56
999.523	2356.24
999.818	2321.21
1000.114	2292.28
1000.409	2294.54
1000.704	2301.55
1001	2264.04
1001.295	2290.48
1001.59	2250.25
1001.885	2231.04
1002.18	2223.59
1002.475	2223.13
1002.77	2179.74
1003.065	2172.06
1003.359	2182.91
1003.654	2176.36
1003.949	2133.87
1004.243	2112.63
1004.538	2122.57
1004.832	2089.8
1005.127	2106.53
1005.421	2094.1
1005.715	2067.43
1006.009	2051.84
1006.304	2056.36
1006.598	2010.94
1006.892	2026.08
1007.186	1985.4
1007.48	1985.85
1007.773	1965.74
1008.067	1954.67
1008.361	1954.89
1008.655	1931.84
1008.948	1951.28
1009.242	1912.18
1009.535	1905.18
1009.829	1940.43
1010.122	1898.62
1010.415	1879.19
1010.708	1886.87
1011.001	1862.24
1011.295	1845.74
1011.588	1826.31
1011.881	1822.92
1012.173	1821.34
1012.466	1811.17
1012.759	1806.42
1013.052	1804.84
1013.344	1774.56
1013.637	1767.78
1013.93	1789.7
1014.222	1735.01
1014.514	1761
1014.807	1713.77
1015.099	1713.54
1015.391	1719.64
1015.683	1718.74
1015.976	1690.04
1016.268	1676.03
1016.56	1677.39
1016.851	1655.46
1017.143	1664.96
1017.435	1653.66
1017.727	1638.97
1018.018	1629.02
1018.31	1630.38
1018.602	1580.66
1018.893	1593.09
1019.185	1562.81
1019.476	1554.22
1019.767	1578.86
1020.058	1581.79
1020.35	1550.61
1020.641	1499.08
1020.932	1504.73
1021.223	1510.16
1021.514	1502.7
1021.804	1491.4
1022.095	1483.94
1022.386	1479.88
1022.677	1464.74
1022.967	1476.49
1023.258	1426.77
1023.548	1438.07
1023.839	1395.13
1024.129	1420.89
1024.419	1401.91
1024.709	1371.18
1025	1362.82
1025.29	1381.57
1025.58	1358.98
1025.87	1340.9
1026.16	1349.94
1026.449	1332.54
1026.739	1332.08
1027.029	1341.35
1027.319	1303.84
1027.608	1323.27
1027.898	1285.98
1028.187	1279.43
1028.477	1296.38
1028.766	1241.92
1029.055	1248.47
1029.344	1275.36
1029.634	1249.15
1029.923	1239.88
1030.212	1241.69
1030.501	1236.27
1030.79	1220.9
1031.078	1229.04
1031.367	1208.92
1031.656	1198.75
1031.945	1183.84
1032.233	1196.27
1032.522	1170.73
1032.81	1187.23
1033.099	1137.06
1033.387	1132.31
1033.675	1157.4
1033.963	1118.98
1034.251	1133.44
1034.54	1128.7
1034.828	1081.02
1035.116	1116.72
1035.403	1095.48
1035.691	1098.19
1035.979	1079.89
1036.267	1068.14
1036.554	1067.01
1036.842	1036.72
1037.129	1024.75
1037.417	1056.84
1037.704	1030.85
1037.992	1015.26
1038.279	1014.35
1038.566	1014.35
1038.853	1014.35
1039.14	1014.35
