Data from hue_36_FLMS001491_00076.txt Node
Date: Tue Feb 07 17:30:16 GMT 2017
User: dcchb
Spectrometer: FLMS00149
Trigger mode: 0
Integration Time (sec): 2.000000E-2
Scans to average: 10
Electric dark correction enabled: true
Nonlinearity correction enabled: false
Boxcar width: 0
XAxis mode: Wavelengths
Number of Pixels in Spectrum: 2048
>>>>>Begin Spectral Data<<<<<
341.393	-0.61
341.776	-0.61
342.16	-0.61
342.543	-78.12
342.927	-72.92
343.31	-67.72
343.693	-69.98
344.077	-74.5
344.46	-67.5
344.843	-49.19
345.226	-43.09
345.61	-33.83
345.993	-31.79
346.376	-9.19
346.759	10.47
347.142	55.44
347.525	38.94
347.908	53.63
348.291	71.71
348.674	113.51
349.057	103.12
349.44	114.64
349.823	152.38
350.206	199.16
350.588	212.49
350.971	221.08
351.354	215.88
351.737	231.02
352.119	256.56
352.502	256.79
352.884	258.59
353.267	293.17
353.65	287.97
354.032	289.78
354.414	311.02
354.797	348.31
355.179	322.55
355.562	333.85
355.944	330.46
356.326	348.08
356.709	358.25
357.091	345.15
357.473	348.08
357.855	346.5
358.238	332.94
358.62	352.6
359.002	354.41
359.384	345.6
359.766	346.95
360.148	373.17
360.53	353.51
360.912	350.8
361.294	340.17
361.676	344.69
362.057	347.86
362.439	344.69
362.821	320.06
363.203	345.82
363.584	339.04
363.966	331.81
364.348	336.33
364.729	322.32
365.111	322.1
365.493	325.94
365.874	290.01
366.256	327.07
366.637	318.03
367.019	327.52
367.4	325.03
367.781	327.07
368.163	315.99
368.544	307.41
368.925	352.15
369.306	336.33
369.688	322.55
370.069	310.57
370.45	320.51
370.831	313.06
371.212	326.39
371.593	322.77
371.974	342.66
372.355	327.97
372.736	338.82
373.117	308.09
373.498	339.5
373.879	322.1
374.26	314.64
374.641	327.52
375.021	338.59
375.402	348.76
375.783	325.03
376.163	341.98
376.544	344.47
376.925	335.66
377.305	309.67
377.686	332.04
378.066	333.62
378.447	306.28
378.827	350.12
379.208	332.94
379.588	333.85
379.968	348.31
380.349	359.38
380.729	355.32
381.109	356.22
381.489	328.65
381.87	343.56
382.25	347.41
382.63	337.24
383.01	359.38
383.39	366.61
383.77	353.06
384.15	350.34
384.53	367.97
384.91	352.15
385.29	355.77
385.67	377.46
386.049	364.35
386.429	367.97
386.809	369.78
387.189	369.55
387.568	386.5
387.948	368.2
388.328	354.19
388.707	377.46
389.087	349.44
389.466	363
389.846	362.77
390.225	360.51
390.605	390.12
390.984	363.68
391.363	374.52
391.743	368.42
392.122	395.31
392.501	374.07
392.881	401.64
393.26	386.28
393.639	370.46
394.018	360.06
394.397	388.99
394.776	390.79
395.155	381.76
395.534	390.12
395.913	390.34
396.292	390.12
396.671	404.35
397.05	376.78
397.429	393.28
397.808	398.25
398.186	396.9
398.565	381.53
398.944	387.63
399.323	408.87
399.701	404.35
400.08	394.41
400.458	396.67
400.837	405.71
401.215	384.24
401.594	415.2
401.972	398.93
402.351	411.13
402.729	406.16
403.107	404.81
403.486	411.59
403.864	420.85
404.242	419.72
404.62	421.3
404.999	426.27
405.377	404.35
405.755	409.78
406.133	441.64
406.511	435.77
406.889	428.31
407.267	438.48
407.645	422.66
408.023	426.27
408.401	431.02
408.779	438.7
409.156	442.77
409.534	438.48
409.912	447.29
410.29	466.27
410.667	440.74
411.045	451.81
411.422	449.1
411.8	480.28
412.178	449.32
412.555	480.28
412.933	479.15
413.31	473.5
413.687	471.7
414.065	490.45
414.442	473.96
414.819	479.61
415.197	494.75
415.574	497.01
415.951	493.39
416.328	508.08
416.705	470.57
417.082	492.71
417.46	485.03
417.837	516.67
418.214	520.96
418.591	511.92
418.967	519.15
419.344	518.25
419.721	509.21
420.098	503.56
420.475	508.53
420.852	552.6
421.228	522.99
421.605	532.49
421.982	532.71
422.358	557.57
422.735	523.22
423.111	540.17
423.488	543.33
423.864	558.93
424.241	551.92
424.617	553.28
424.994	558.25
425.37	545.14
425.746	539.04
426.123	564.8
426.499	584.01
426.875	564.58
427.251	570.45
427.627	588.3
428.003	574.74
428.379	586.72
428.756	593.5
429.132	605.48
429.507	588.3
429.883	612.71
430.259	611.81
430.635	613.39
431.011	637.34
431.387	625.59
431.763	635.53
432.138	645.25
432.514	647.51
432.89	673.27
433.265	650
433.641	663.33
434.016	652.71
434.392	679.37
434.767	709.88
435.143	716.89
435.518	719.6
435.894	689.77
436.269	682.09
436.644	708.07
437.02	703.33
437.395	719.37
437.77	721.86
438.145	701.97
438.52	718.47
438.895	746.72
439.271	725.48
439.646	760.28
440.021	730.67
440.395	743.55
440.77	733.61
441.145	776.1
441.52	734.51
441.895	765.02
442.27	746.27
442.645	764.57
443.019	764.57
443.394	786.72
443.769	784.91
444.143	774.29
444.518	806.15
444.892	787.85
445.267	818.81
445.641	781.52
446.016	791.91
446.39	821.97
446.764	800.28
447.139	822.42
447.513	810.67
447.887	836.21
448.262	815.42
448.636	836.88
449.01	848.64
449.384	838.47
449.758	859.03
450.132	855.19
450.506	833.72
450.88	877.79
451.254	873.04
451.628	881.4
452.002	873.95
452.376	892.25
452.75	900.61
453.123	885.02
453.497	913.94
453.871	915.75
454.244	889.76
454.618	934.06
454.992	951.01
455.365	938.35
455.739	946.71
456.112	961.85
456.486	987.16
456.859	980.61
457.232	993.49
457.606	981.97
457.979	1002.3
458.352	1050.44
458.725	1013.83
459.099	1049.53
459.472	1051.34
459.845	1059.03
460.218	1059.93
460.591	1101.96
460.964	1067.16
461.337	1091.12
461.71	1124.33
462.083	1145.35
462.456	1128.18
462.829	1153.94
463.201	1159.59
463.574	1153.49
463.947	1177.21
464.32	1215.63
464.692	1207.5
465.065	1260.83
465.438	1250.89
465.81	1263.31
466.183	1279.36
466.555	1334.5
466.928	1271.45
467.3	1328.85
467.672	1355.29
468.045	1393.71
468.417	1351.22
468.789	1382.86
469.161	1435.74
469.534	1425.8
469.906	1465.34
470.278	1466.47
470.65	1500.82
471.022	1492.91
471.394	1581.95
471.766	1574.04
472.138	1594.15
472.51	1610.65
472.882	1679.12
473.253	1688.39
473.625	1758.44
473.997	1780.36
474.369	1769.29
474.74	1804.09
475.112	1830.76
475.484	1884.77
475.855	1925.67
476.227	1941.71
476.598	1969.28
476.97	2045.89
477.341	2090.64
477.713	2134.03
478.084	2141.03
478.455	2237.07
478.827	2267.36
479.198	2350.07
479.569	2338.54
479.94	2454.47
480.311	2482.49
480.682	2541.92
481.053	2645.88
481.424	2682.94
481.795	2753.67
482.166	2793.44
482.537	2901.92
482.908	2977.39
483.279	3037.28
483.65	3114.11
484.021	3172.19
484.391	3240.66
484.762	3340.32
485.133	3376.03
485.503	3483.82
485.874	3571.95
486.244	3656.92
486.615	3758.84
486.985	3848.78
487.356	3942.11
487.726	4000.42
488.097	4146.63
488.467	4180.98
488.837	4328.77
489.207	4406.73
489.578	4498.48
489.948	4579.39
490.318	4663
490.688	4753.84
491.058	4883.33
491.428	4941.41
491.798	5014.63
492.168	5206.49
492.538	5302.76
492.908	5374.84
493.278	5472.24
493.648	5562.18
494.017	5656.42
494.387	5815.51
494.757	5876.53
495.126	5952.46
495.496	6020.48
495.866	6093.02
496.235	6238.78
496.605	6312.67
496.974	6377.3
497.344	6511.54
497.713	6525.1
498.082	6673.34
498.452	6740.01
498.821	6794.69
499.19	6917.85
499.559	6984.07
499.928	7086.21
500.298	7145.87
500.667	7293.89
501.036	7293.21
501.405	7335.24
501.774	7434.68
502.143	7527.33
502.512	7643.71
502.88	7706.08
503.249	7730.26
503.618	7829.92
503.987	7883.93
504.356	8101.1
504.724	8061.33
505.093	8119.41
505.462	8242.57
505.83	8265.84
506.199	8434.43
506.567	8514.2
506.936	8504.71
507.304	8636.91
507.672	8683.01
508.041	8739.05
508.409	8772.27
508.777	8889.78
509.145	8970.46
509.514	9082.54
509.882	9070.57
510.25	9160.73
510.618	9190.34
510.986	9270.34
511.354	9359.15
511.722	9469.43
512.09	9516.2
512.458	9562.31
512.826	9630.33
513.193	9615.86
513.561	9724.79
513.929	9818.57
514.297	9890.66
514.664	9940.83
515.032	9984.44
515.4	10069.18
515.767	10105.57
516.135	10185.57
516.502	10208.16
516.869	10399.8
517.237	10351.21
517.604	10360.02
517.972	10522.96
518.339	10558.66
518.706	10631.2
519.073	10632.33
519.44	10733.57
519.808	10836.4
520.175	10794.59
520.542	10965.66
520.909	10974.02
521.276	11025.32
521.643	11130.63
522.009	11183.51
522.376	11274.58
522.743	11338.3
523.11	11468.02
523.477	11488.36
523.843	11546.89
524.21	11657.84
524.577	11722.7
524.943	11833.66
525.31	11879.53
525.676	11990.49
526.043	12053.54
526.409	12081.33
526.776	12211.95
527.142	12352.51
527.508	12361.1
527.874	12394.1
528.241	12565.84
528.607	12609
528.973	12640.64
529.339	12665.05
529.705	12809.9
530.071	12915.44
530.437	12915.44
530.803	13002.67
531.169	13047.41
531.535	13072.95
531.901	13147.3
532.267	13228.42
532.632	13297.8
532.998	13308.65
533.364	13443.33
533.73	13394.97
534.095	13534.63
534.461	13621.41
534.826	13629.77
535.192	13719.94
535.557	13784.34
535.923	13839.48
536.288	13975.07
536.653	13949.08
537.019	13935.52
537.384	14035.41
537.749	14127.61
538.114	14143.65
538.479	14182.52
538.845	14304.78
539.21	14252.13
539.575	14294.38
539.94	14345.23
540.305	14514.94
540.67	14434.49
541.034	14543.19
541.399	14652.34
541.764	14673.81
542.129	14821.6
542.494	14796.74
542.858	14833.58
543.223	14920.13
543.587	14976.4
543.952	15053.01
544.316	15029.73
544.681	15086.68
545.045	15123.74
545.41	15216.85
545.774	15304.75
546.138	15356.05
546.503	15347.46
546.867	15355.37
547.231	15486.44
547.595	15617.29
547.959	15541.36
548.324	15556.27
548.688	15688.92
549.052	15695.7
549.416	15791.07
549.779	15785.42
550.143	15901.8
550.507	16002.36
550.871	16008.24
551.235	16003.49
551.599	16175.46
551.962	16194.9
552.326	16273.09
552.689	16276.48
553.053	16279.42
553.417	16253.88
553.78	16489.13
554.143	16399.41
554.507	16622.68
554.87	16622.23
555.234	16720.08
555.597	16683.25
555.96	16786.07
556.323	16799.18
556.686	16816.8
557.05	17044.14
557.413	16949.23
557.776	17032.39
558.139	17161.43
558.502	17239.84
558.865	17253.63
559.228	17397.81
559.59	17335.43
559.953	17433.51
560.316	17591.02
560.679	17592.38
561.041	17678.48
561.404	17754.63
561.767	17864.91
562.129	17832.82
562.492	17981.74
562.854	17967.06
563.217	17984.68
563.579	18099.71
563.941	18149.65
564.304	18219.48
564.666	18318.23
565.028	18411.56
565.39	18471.68
565.753	18601.84
566.115	18660.82
566.477	18730.65
566.839	18784.66
567.201	18878.9
567.563	18903.53
567.925	19050.64
568.287	19144.43
568.648	19087.03
569.01	19221.94
569.372	19378.77
569.734	19251.77
570.095	19468.94
570.457	19571.08
570.819	19619.22
571.18	19576.28
571.542	19676.62
571.903	19770.17
572.265	19900.11
572.626	19916.38
572.987	19985.08
573.349	20160.22
573.71	20276.15
574.071	20302.81
574.432	20414.68
574.794	20551.39
575.155	20635.91
575.516	20559.98
575.877	20810.37
576.238	20804.5
576.599	21006.3
576.96	21108.89
577.32	21168.33
577.681	21320.19
578.042	21475.21
578.403	21547.98
578.763	21617.81
579.124	21672.72
579.485	22018.02
579.845	22218.47
580.206	22150.9
580.566	22288.75
580.927	22433.83
581.287	22722.64
581.648	22768.06
582.008	22952.01
582.368	23039.24
582.728	23271.1
583.089	23407.59
583.449	23613.91
583.809	23742.95
584.169	23901.59
584.529	24123.73
584.889	24442.37
585.249	24536.6
585.609	24672.42
585.969	25010.49
586.329	24986.76
586.688	25442.11
587.048	25451.83
587.408	25719.85
587.768	25887.53
588.127	26086.84
588.487	26324.58
588.846	26722.98
589.206	26702.87
589.565	26765.47
589.925	27228.28
590.284	27358
590.643	27629.85
591.003	27828.27
591.362	28190.97
591.721	28331.3
592.08	28584.86
592.44	29040.89
592.799	29116.14
593.158	29185.07
593.517	29407.88
593.876	29799.74
594.235	29919.06
594.593	30168.54
594.952	30441.76
595.311	30507.52
595.67	30905.02
596.029	31244.22
596.387	31289.42
596.746	31705.45
597.104	31614.38
597.463	31856.41
597.822	32231.77
598.18	32244.19
598.538	32520.8
598.897	32829.04
599.255	32844.63
599.613	33407.78
599.972	33329.59
600.33	33640.77
600.688	33655.23
601.046	34081.21
601.404	34323.01
601.762	34395.1
602.12	34613.62
602.478	34861.75
602.836	35098.36
603.194	34955.76
603.552	35225.81
603.91	35348.75
604.268	35752.12
604.625	35751.67
604.983	35968.62
605.341	35974.72
605.698	36265.78
606.056	36468.72
606.413	36589.62
606.771	36762.04
607.128	36975.37
607.485	36934.24
607.843	37122.26
608.2	37570.16
608.557	37677.27
608.914	37541
609.272	38031.16
609.629	38162.01
609.986	38390.7
610.343	38248.33
610.7	38629.79
611.057	38613.97
611.414	38696
611.771	38980.97
612.127	39128.76
612.484	39182.77
612.841	39454.4
613.198	39410.11
613.554	39489.65
613.911	39749.99
614.267	39840.83
614.624	40014.61
614.98	40114.5
615.337	40112.01
615.693	40298.45
616.05	40412.34
616.406	40652.79
616.762	40612.79
617.118	40764.87
617.475	40781.82
617.831	40847.58
618.187	41113.57
618.543	41100.68
618.899	41431.52
619.255	41296.16
619.611	41372.77
619.967	41648.02
620.323	41623.61
620.678	41578.64
621.034	41603.5
621.39	41590.62
621.746	41688.24
622.101	42245.51
622.457	41917.16
622.812	42088
623.168	42166.87
623.523	42165.97
623.879	42283.48
624.234	42062.69
624.589	42446.86
624.945	42441.67
625.3	42531.38
625.655	42560.76
626.01	42564.83
626.365	42742.45
626.72	42591.27
627.075	42606.18
627.43	42514.88
627.785	42605.28
628.14	42820.64
628.495	42662.9
628.85	42817.48
629.205	42600.31
629.559	42852.73
629.914	42718.5
630.269	42826.97
630.623	42760.53
630.978	42703.81
631.332	42968.43
631.687	43024.48
632.041	42845.95
632.396	42983.35
632.75	42782.45
633.104	42771.6
633.459	42723.69
633.813	42793.97
634.167	42790.58
634.521	42926.85
634.875	42942.22
635.229	42827.42
635.583	42800.53
635.937	42821.09
636.291	42679.17
636.645	42698.61
636.999	42725.27
637.352	42806.85
637.706	42602.57
638.06	42788.55
638.413	42591.27
638.767	42493.42
639.121	42752.17
639.474	42320.99
639.828	42504.72
640.181	42479.63
640.534	42533.64
640.888	42445.06
641.241	42390.82
641.594	42349.69
641.947	42457.49
642.301	42302.69
642.654	42536.13
643.007	42432.4
643.36	42301.33
643.713	42362.12
644.066	42459.75
644.419	42233.99
644.771	41934.56
645.124	41652.76
645.477	41614.34
645.83	41347.01
646.182	41307.23
646.535	41066.56
646.888	41318.31
647.24	41111.53
647.593	41334.35
647.945	41275.14
648.298	40997.41
648.65	40947.92
649.002	40858.21
649.355	40950.63
649.707	41004.19
650.059	41180.68
650.411	41528.47
650.763	41695.25
651.115	41896.6
651.467	41824.73
651.819	41876.48
652.171	41738.41
652.523	41742.93
652.875	41690.73
653.227	41464.07
653.578	41779.09
653.93	41754.45
654.282	41665.64
654.633	41420.9
654.985	41689.6
655.337	41517.62
655.688	41588.13
656.039	41671.29
656.391	41407.57
656.742	41362.15
657.094	41462.03
657.445	41680.33
657.796	41434.91
658.147	41471.97
658.498	41453.67
658.849	41560.33
659.2	41486.89
659.551	41406.21
659.902	41568.92
660.253	41550.84
660.604	41539.09
660.955	41261.13
661.306	41388.13
661.656	41338.42
662.007	41399.89
662.358	41332.77
662.708	41286.67
663.059	41162.38
663.409	41075.83
663.76	41271.75
664.11	41326.44
664.461	41407.12
664.811	41422.94
665.161	41183.62
665.511	41208.25
665.862	41144.07
666.212	41282.15
666.562	41169.16
666.912	41163.96
667.262	41012.55
667.612	41272.43
667.962	41212.55
668.312	41124.64
668.662	41289.15
669.011	41220.46
669.361	41138.65
669.711	41088.03
670.06	41186.78
670.41	41004.19
670.76	40968.48
671.109	41070.63
671.459	41036.51
671.808	40943.4
672.157	41196.05
672.507	40880.8
672.856	40978.65
673.205	41012.1
673.554	41046.45
673.904	40944.76
674.253	41231.98
674.602	41033.34
674.951	40455.5
675.3	40264.77
675.649	40768.72
675.998	40958.77
676.346	40930.75
676.695	40884.42
677.044	40688.49
677.393	40630.19
677.741	40768.72
678.09	40683.29
678.438	40599.68
678.787	40703.86
679.135	40627.25
679.484	40450.98
679.832	40554.03
680.181	40411.66
680.529	40464.77
680.877	40424.54
681.225	40322.17
681.573	40486.46
681.922	40361.5
682.27	40182.29
682.618	40042.41
682.966	40199.47
683.314	40065.01
683.661	39999.02
684.009	39873.82
684.357	39933.71
684.705	39720.38
685.053	39750.21
685.4	39774.62
685.748	39571.91
686.095	39527.17
686.443	39440.39
686.79	39499.82
687.138	39611.01
687.485	39409.2
687.832	39316.78
688.18	39301.64
688.527	38925.15
688.874	39032.94
689.221	39001.76
689.568	38971.7
689.915	38832.5
690.262	38861.87
690.609	38748.43
690.956	38688.77
691.303	38639.73
691.65	38524.26
691.997	38415.78
692.344	38220.99
692.69	38295.11
693.037	38433.64
693.383	37978.73
693.73	38145.06
694.077	37808.79
694.423	37896.02
694.769	37635.24
695.116	37668.91
695.462	37504.4
695.808	37586.43
696.155	37457.84
696.501	37338.52
696.847	37298.52
697.193	37064.18
697.539	37152.99
697.885	36930.17
698.231	36805.66
698.577	36973.79
698.923	36818.54
699.269	36583.74
699.614	36530.41
699.96	36376.97
700.306	36351.43
700.651	36245.45
700.997	36035.06
701.342	36076.64
701.688	35976.53
702.033	35974.49
702.379	35849.3
702.724	35715.29
703.069	35789.86
703.415	35420.83
703.76	35411.34
704.105	35496.76
704.45	35339.03
704.795	35071.92
705.14	35082.99
705.485	35100.39
705.83	34952.15
706.175	34890
706.52	34817.01
706.865	34684.13
707.209	34680.97
707.554	34546.73
707.899	34673.74
708.243	34462.44
708.588	34394.19
708.932	34177.48
709.277	34154.88
709.621	34149.91
709.966	33991.27
710.31	34097.93
710.654	33671.05
710.998	33888.22
711.342	33666.53
711.687	33676.93
712.031	33544.73
712.375	33492.3
712.719	33581.56
713.063	33516.25
713.407	33585.85
713.75	33312.87
714.094	33348.57
714.438	33114.45
714.782	33157.62
715.125	33076.49
715.469	33125.3
715.812	32918.53
716.156	32818.64
716.499	32741.58
716.843	32860.68
717.186	32680.79
717.53	32743.39
717.873	32741.58
718.216	32621.59
718.559	32491.65
718.902	32356.28
719.246	32397.18
719.589	32288.71
719.932	32209.39
720.275	32233.57
720.617	32182.05
720.96	32101.6
721.303	32040.81
721.646	32111.54
721.989	31858.89
722.331	32003.75
722.674	31768.5
723.016	31886.46
723.359	31753.59
723.701	31907.03
724.044	31721.5
724.386	31459.36
724.729	31773.92
725.071	31556.08
725.413	31566.7
725.755	31467.04
726.097	31389.3
726.439	31137.78
726.782	31144.11
727.124	31312.02
727.465	31074.28
727.807	31101.4
728.149	30968.97
728.491	31033.38
728.833	31058.24
729.175	31014.17
729.516	31022.76
729.858	30681.07
730.199	30791.35
730.541	30771.92
730.882	30769.43
731.224	30848.07
731.565	30563.56
731.906	30603.33
732.248	30552.94
732.589	30484.47
732.93	30415.09
733.271	30265.72
733.612	30501.19
733.953	30378.71
734.294	30138.94
734.635	30176.68
734.976	30225.26
735.317	30178.26
735.658	30150.46
735.999	29975.78
736.339	29888.55
736.68	29989.56
737.021	29928.78
737.361	29770.59
737.702	29971.03
738.042	29880.19
738.383	29743.92
738.723	29826.18
739.063	29613.53
739.404	29738.95
739.744	29508.22
740.084	29486.07
740.424	29611.95
740.764	29557.71
741.104	29590.48
741.444	29391.39
741.784	29343.03
742.124	29344.16
742.464	29255.8
742.804	29232.52
743.143	29256.93
743.483	29229.36
743.823	28924.28
744.162	28883.15
744.502	29111.85
744.841	28879.09
745.181	28881.8
745.52	28811.97
745.86	28873.66
746.199	28781.69
746.538	28828.47
746.877	28829.37
747.216	28844.96
747.556	28661.69
747.895	28640.9
748.234	28486.1
748.573	28467.34
748.911	28433.9
749.25	28487.68
749.589	28287.46
749.928	28484.07
750.267	28384.41
750.605	28254.47
750.944	28198.2
751.283	28138.31
751.621	28119.33
751.96	28000.46
752.298	28043.4
752.636	27930.86
752.975	27870.07
753.313	27790.75
753.651	27895.83
753.989	27778.32
754.327	27751.88
754.666	27416.98
755.004	27595.5
755.342	27731.09
755.679	27489.29
756.017	27482.06
756.355	27437.77
756.693	27264.89
757.031	27373.59
757.368	27139.92
757.706	27024.9
758.044	26964.56
758.381	27048.85
758.719	26924.11
759.056	26942.41
759.394	26910.1
759.731	26678.01
760.068	26603.44
760.405	26555.76
760.743	26484.12
761.08	26500.16
761.417	26514.4
761.754	26421.75
762.091	26342.43
762.428	26106.05
762.765	25963
763.102	26167.74
763.438	25915.55
763.775	25765.95
764.112	25830.8
764.449	25840.07
764.785	25670.13
765.122	25454.09
765.458	25386.75
765.795	25334.55
766.131	25260.2
766.467	25312.17
766.804	25196.47
767.14	25052.52
767.476	24958.28
767.812	24898.17
768.148	24875.12
768.485	24810.72
768.821	24577.5
769.157	24603.04
769.492	24493.66
769.828	24470.39
770.164	24231.98
770.5	24266.55
770.836	24224.52
771.171	24231.98
771.507	24118.31
771.842	23923.28
772.178	23864.98
772.513	23738.2
772.849	23784.53
773.184	23648.71
773.519	23683.74
773.855	23567.13
774.19	23446.23
774.525	23379.79
774.86	23300.02
775.195	23159.46
775.53	23233.81
775.865	23082.4
776.2	22944.1
776.535	22803.76
776.87	22716.31
777.205	22657.78
777.539	22525.35
777.874	22556.31
778.209	22435.41
778.543	22366.26
778.878	22262.31
779.212	22253.5
779.547	22031.36
779.881	22155.65
780.215	21924.24
780.55	22085.37
780.884	21807.41
781.218	21856.45
781.552	21755.2
781.886	21680.4
782.22	21550.46
782.554	21493.74
782.888	21347.53
783.222	21242.45
783.556	21062.12
783.889	21161.55
784.223	20910.48
784.557	20955
784.89	20886.98
785.224	20803.37
785.557	20684.95
785.891	20617.16
786.224	20505.29
786.558	20560.43
786.891	20412.42
787.224	20333.77
787.557	20237.73
787.891	20258.97
788.224	20232.76
788.557	20068.92
788.89	20094.46
789.223	19957.29
789.556	19935.59
789.888	19848.59
790.221	19738.76
790.554	19605.88
790.887	19666.22
791.219	19556.17
791.552	19502.83
791.884	19412.67
792.217	19318.88
792.549	19209.28
792.882	19139.91
793.214	19126.12
793.546	19083.86
793.879	18969.06
794.211	18833.7
794.543	18925.22
794.875	18836.86
795.207	18816.75
795.539	18787.37
795.871	18739.01
796.203	18516.42
796.535	18466.48
796.867	18440.49
797.198	18370.44
797.53	18311.45
797.862	18214.28
798.193	18253.6
798.525	18172.47
798.856	18207.73
799.188	17985.81
799.519	17899.94
799.85	17796.21
800.182	17880.28
800.513	17768.19
800.844	17642.54
801.175	17749.43
801.506	17599.38
801.837	17555.99
802.168	17571.13
802.499	17478.48
802.83	17351.7
803.161	17318.03
803.491	17386.28
803.822	17321.42
804.153	17276
804.483	17062.45
804.814	17118.94
805.145	17062.22
805.475	17169.34
805.805	17016.57
806.136	17015.67
806.466	16921.21
806.796	16850.93
807.126	16794.66
807.457	16795.56
807.787	16741.78
808.117	16731.61
808.447	16612.06
808.777	16686.19
809.107	16575.45
809.436	16401.9
809.766	16414.1
810.096	16413.42
810.426	16373.65
810.755	16297.72
811.085	16288.68
811.414	16170.72
811.744	16137.95
812.073	16113.32
812.403	16086.65
812.732	15954.91
813.061	16052.08
813.39	15856.15
813.719	15922.14
814.049	15891.18
814.378	15830.84
814.707	15796.49
815.036	15691.86
815.365	15647.12
815.693	15545.2
816.022	15587.23
816.351	15464.07
816.68	15456.61
817.008	15457.97
817.337	15370.51
817.665	15295.04
817.994	15381.81
818.322	15318.31
818.651	15210.29
818.979	15189.28
819.307	15246.9
819.636	15266.79
819.964	15092.78
820.292	15153.57
820.62	15047.58
820.948	15034.7
821.276	15082.39
821.604	15085.55
821.932	15040.81
822.259	15017.75
822.587	15032.9
822.915	14996.06
823.243	15072.22
823.57	14991.54
823.898	15069.28
824.225	14871.77
824.553	15009.62
824.88	14986.8
825.207	14983.18
825.535	14941.15
825.862	14981.37
826.189	14924.65
826.516	15010.98
826.843	15057.98
827.17	15035.16
827.497	15000.81
827.824	15020.47
828.151	15008.94
828.478	14986.8
828.805	15021.37
829.131	15003.52
829.458	14927.36
829.785	14855.73
830.111	14887.59
830.438	14984.99
830.764	14939.34
831.09	14915.61
831.417	14880.58
831.743	14852.34
832.069	14862.05
832.395	14854.82
832.722	14882.84
833.048	14795.84
833.374	14823.64
833.7	14713.36
834.026	14799.68
834.351	14766.24
834.677	14792.9
835.003	14720.81
835.329	14766.46
835.654	14854.14
835.98	14627.26
836.306	14680.59
836.631	14596.75
836.956	14595.85
837.282	14590.87
837.607	14547.94
837.932	14571.21
838.258	14613.25
838.583	14512.46
838.908	14438.11
839.233	14472.91
839.558	14545.9
839.883	14443.08
840.208	14312.46
840.533	14359.69
840.858	14380.94
841.182	14389.75
841.507	14317.21
841.832	14167.61
842.156	14267.72
842.481	14232.46
842.805	14154.73
843.13	14191.11
843.454	14106.59
843.778	14030.89
844.103	14019.14
844.427	13968.06
844.751	13942.08
845.075	13888.97
845.399	13961.29
845.723	13837.45
846.047	13867.28
846.371	13746.15
846.695	13768.97
847.019	13616.66
847.343	13548.87
847.666	13549.32
847.99	13496.66
848.313	13463.9
848.637	13367.18
848.96	13348.19
849.284	13277.24
849.607	13153.62
849.931	13103.91
850.254	13060.07
850.577	12999.05
850.9	12876.79
851.223	12942.56
851.546	12889.68
851.869	12840.86
852.192	12908.43
852.515	12694.65
852.838	12683.13
853.161	12644.48
853.483	12650.36
853.806	12546.18
854.129	12511.83
854.451	12513.19
854.774	12418.5
855.096	12340.54
855.419	12367.43
855.741	12300.09
856.063	12284.95
856.385	12270.71
856.708	12160.2
857.03	12119.98
857.352	12133.54
857.674	12067.32
857.996	12021.45
858.318	12039.3
858.64	11991.85
858.961	11940.55
859.283	11908.46
859.605	11799.08
859.926	11842.25
860.248	11858.97
860.57	11793.88
860.891	11771.29
861.212	11692.87
861.534	11643.61
861.855	11638.18
862.176	11628.01
862.498	11625.98
862.819	11652.42
863.14	11582.36
863.461	11552.99
863.782	11552.31
864.103	11550.28
864.424	11518.86
864.745	11521.12
865.065	11438.64
865.386	11367.46
865.707	11403.84
866.027	11423.73
866.348	11381.92
866.668	11348.47
866.989	11316.38
867.309	11286.1
867.63	11338.98
867.95	11257.85
868.27	11169.49
868.59	11207.91
868.91	11171.75
869.23	11138.76
869.55	11134.02
869.87	11155.03
870.19	11099.67
870.51	11164.52
870.83	11107.12
871.15	11098.31
871.469	11025.32
871.789	11082.94
872.109	10983.51
872.428	10900.8
872.748	11001.36
873.067	10959.1
873.386	10953.23
873.706	10939.44
874.025	10896.06
874.344	10851.54
874.663	10852.44
874.982	10844.08
875.301	10795.04
875.62	10792.33
875.939	10758.21
876.258	10696.06
876.577	10767.25
876.896	10703.29
877.214	10703.52
877.533	10667.81
877.852	10653.58
878.17	10682.5
878.489	10647.7
878.807	10584.2
879.125	10585.78
879.444	10681.82
879.762	10573.35
880.08	10522.05
880.398	10496.74
880.716	10456.52
881.034	10531.77
881.352	10457.87
881.67	10446.8
881.988	10412.23
882.306	10452
882.624	10336.75
882.941	10298.33
883.259	10252.68
883.577	10299.46
883.894	10288.61
884.212	10191.89
884.529	10208.84
884.846	10168.62
885.164	10106.47
885.481	10181.05
885.798	10193.7
886.115	10083.65
886.432	10037.32
886.75	10037.09
887.067	10087.71
887.383	10031.9
887.7	10021.5
888.017	9968.62
888.334	10014.5
888.651	9939.7
888.967	9865.12
889.284	9873.94
889.6	9828.51
889.917	9765.46
890.233	9790.77
890.55	9726.82
890.866	9774.73
891.182	9722.75
891.498	9725.46
891.815	9706.03
892.131	9654.73
892.447	9578.58
892.763	9569.54
893.079	9475.98
893.395	9490.67
893.71	9452.93
894.026	9454.96
894.342	9398.92
894.657	9404.57
894.973	9370.22
895.289	9359.82
895.604	9358.24
895.92	9242.09
896.235	9181.52
896.55	9186.95
896.865	9172.26
897.181	9172.94
897.496	9130.9
897.811	9084.58
898.126	9074.18
898.441	9019.72
898.756	8989.44
899.071	8918.71
899.386	8911.25
899.7	8880.52
900.015	8802.1
900.33	8802.1
900.644	8758.03
900.959	8793.51
901.273	8729.56
901.588	8740.41
901.902	8689.11
902.216	8651.59
902.531	8640.75
902.845	8556.23
903.159	8496.57
903.473	8515.33
903.787	8470.36
904.101	8396.01
904.415	8433.07
904.729	8314.2
905.042	8372.28
905.356	8339.96
905.67	8266.97
905.984	8331.38
906.297	8292.06
906.611	8173.64
906.924	8182.23
907.237	8159.4
907.551	8140.65
907.864	8102.68
908.177	8031.5
908.491	8044.83
908.804	7990.59
909.117	7982.23
909.43	7921.22
909.743	7871.28
910.056	7847.77
910.368	7854.78
910.681	7789.47
910.994	7755.8
911.307	7698.63
911.619	7710.6
911.932	7719.19
912.244	7600.1
912.557	7662.24
912.869	7642.81
913.181	7555.35
913.494	7591.28
913.806	7512.42
914.118	7463.38
914.43	7433.77
914.742	7408.92
915.054	7357.39
915.366	7353.78
915.678	7350.16
915.99	7245.76
916.302	7156.49
916.613	7215.93
916.925	7212.54
917.236	7151.75
917.548	7101.13
917.859	7125.31
918.171	7078.3
918.482	7030.85
918.794	6982.26
919.105	6956.95
919.416	6914.01
919.727	6996.72
920.038	6908.14
920.349	6844.41
920.66	6814.35
920.971	6781.36
921.282	6794.92
921.593	6713.79
921.903	6732.55
922.214	6703.85
922.525	6679.44
922.835	6630.18
923.146	6590.63
923.456	6511.76
923.767	6507.47
924.077	6529.62
924.387	6485.55
924.697	6420.47
925.008	6441.03
925.318	6387.7
925.628	6412.11
925.938	6361.94
926.248	6285.56
926.558	6284.88
926.867	6248.27
927.177	6261.83
927.487	6178.89
927.796	6192.45
928.106	6168.95
928.416	6124.2
928.725	6070.65
929.034	5998.1
929.344	6058.44
929.653	6038.33
929.962	5950.2
930.271	5900.71
930.581	5946.13
930.89	5954.49
931.199	5884.44
931.508	5879.69
931.817	5916.53
932.125	5796.98
932.434	5795.17
932.743	5752.01
933.051	5743.87
933.36	5691.22
933.669	5710.65
933.977	5680.83
934.286	5706.59
934.594	5591.79
934.902	5570.09
935.21	5620.49
935.519	5590.43
935.827	5557.21
936.135	5543.88
936.443	5474.73
936.751	5476.31
937.059	5444.67
937.367	5424.33
937.674	5403.77
937.982	5361.96
938.29	5346.6
938.597	5383.21
938.905	5293.49
939.213	5317.67
939.52	5252.59
939.827	5230.67
940.135	5224.57
940.442	5222.98
940.749	5200.39
941.056	5199.26
941.363	5082.65
941.67	5150.44
941.977	5064.8
942.284	5046.94
942.591	5054.85
942.898	5049.43
943.205	4955.19
943.511	4961.52
943.818	4958.13
944.125	4985.25
944.431	4919.72
944.738	4903.67
945.044	4902.31
945.35	4864.12
945.657	4888.08
945.963	4859.38
946.269	4759.49
946.575	4769.89
946.881	4787.06
947.187	4747.52
947.493	4697.57
947.799	4695.77
948.105	4704.13
948.41	4651.7
948.716	4646.73
949.022	4608.09
949.327	4573.96
949.633	4575.54
949.938	4554.3
950.244	4559.95
950.549	4510.46
950.854	4494.87
951.16	4480.86
951.465	4421.65
951.77	4482.21
952.075	4419.16
952.38	4388.66
952.685	4412.38
952.99	4360.18
953.294	4340.3
953.599	4267.76
953.904	4310.01
954.209	4270.92
954.513	4277.7
954.818	4237.02
955.122	4255.33
955.426	4194.76
955.731	4178.49
956.035	4147.08
956.339	4183.46
956.643	4138.94
956.948	4123.13
957.252	4069.34
957.556	4109.79
957.86	4093.75
958.163	4021.21
958.467	4052.17
958.771	4042.9
959.075	4011.49
959.378	3946.63
959.682	3947.09
959.985	3931.94
960.289	3926.07
960.592	3880.87
960.896	3902.79
961.199	3886.75
961.502	3853.53
961.805	3845.39
962.108	3820.54
962.411	3824.6
962.714	3738.28
963.017	3771.95
963.32	3792.97
963.623	3751.61
963.926	3687.66
964.228	3717.49
964.531	3701.89
964.833	3670.03
965.136	3641.56
965.438	3650.6
965.741	3621.67
966.043	3563.82
966.345	3564.95
966.648	3606.98
966.95	3588.68
967.252	3544.38
967.554	3587.32
967.856	3506.65
968.158	3472.97
968.46	3488.11
968.761	3478.85
969.063	3424.84
969.365	3447.89
969.666	3402.02
969.968	3440.21
970.269	3357.72
970.571	3371.28
970.872	3362.47
971.174	3332.19
971.475	3350.72
971.776	3321.34
972.077	3309.81
972.378	3298.74
972.679	3279.76
972.98	3283.6
973.281	3299.87
973.582	3232.3
973.883	3207.22
974.183	3222.58
974.484	3210.83
974.785	3157.28
975.085	3201.79
975.386	3190.95
975.686	3158.41
975.986	3112.53
976.287	3107.11
976.587	3099.88
976.887	3071.18
977.187	3076.37
977.487	3055.13
977.787	3005.19
978.087	3038.63
978.387	3020.33
978.687	2978.52
978.987	2997.28
979.286	2971.07
979.586	2996.38
979.885	2966.77
980.185	2938.07
980.484	2952.99
980.784	2879.77
981.083	2887.23
981.382	2867.79
981.682	2873.89
981.981	2882.48
982.28	2835.7
982.579	2844.74
982.878	2834.35
983.177	2856.04
983.475	2828.92
983.774	2810.62
984.073	2774.91
984.372	2775.36
984.67	2732.65
984.969	2754.57
985.267	2720.23
985.566	2733.56
985.864	2702.15
986.162	2666.22
986.461	2706.89
986.759	2653.33
987.057	2610.85
987.355	2632.32
987.653	2595.71
987.951	2623.73
988.249	2611.3
988.547	2603.84
988.844	2610.4
989.142	2589.83
989.44	2557.29
989.737	2553.45
990.035	2534.92
990.332	2520.68
990.63	2499.44
990.927	2477.29
991.224	2510.74
991.521	2492.89
991.819	2450.4
992.116	2457.18
992.413	2472.55
992.71	2443.85
993.006	2428.71
993.303	2403.85
993.6	2433
993.897	2403.85
994.193	2395.94
994.49	2372.44
994.787	2363.85
995.083	2338.77
995.379	2326.79
995.676	2308.26
995.972	2275.49
996.268	2336.51
996.565	2281.59
996.861	2255.15
997.157	2277.07
997.453	2263.51
997.749	2276.39
998.044	2247.24
998.34	2205.21
998.636	2221.48
998.932	2197.3
999.227	2196.17
999.523	2193.23
999.818	2183.74
1000.114	2152.56
1000.409	2148.49
1000.704	2127.92
1001	2108.72
1001.295	2131.09
1001.59	2110.75
1001.885	2106.46
1002.18	2107.36
1002.475	2037.76
1002.77	2064.65
1003.065	2066.23
1003.359	2054.93
1003.654	2030.3
1003.949	1989.4
1004.243	2006.57
1004.538	1984.88
1004.832	1960.02
1005.127	1964.31
1005.421	1948.04
1005.715	1971.32
1006.009	1939.45
1006.304	1925.22
1006.598	1934.48
1006.892	1918.89
1007.186	1862.62
1007.48	1867.37
1007.773	1865.78
1008.067	1874.15
1008.361	1833.02
1008.655	1849.51
1008.948	1812.45
1009.242	1820.59
1009.535	1815.39
1009.829	1797.76
1010.122	1785.11
1010.415	1776.07
1010.708	1766.58
1011.001	1769.06
1011.295	1718.22
1011.588	1771.32
1011.881	1717.99
1012.173	1698.33
1012.466	1714.15
1012.759	1688.61
1013.052	1688.16
1013.344	1689.52
1013.637	1680.93
1013.93	1643.87
1014.222	1652.91
1014.514	1647.94
1014.807	1621.95
1015.099	1654.04
1015.391	1601.38
1015.683	1589.63
1015.976	1609.52
1016.268	1574.72
1016.56	1557.54
1016.851	1520.71
1017.143	1563.19
1017.435	1549.86
1017.727	1549.63
1018.018	1539.92
1018.31	1534.72
1018.602	1528.84
1018.893	1486.59
1019.185	1503.08
1019.476	1463.99
1019.767	1480.71
1020.058	1507.15
1020.35	1469.64
1020.641	1431.22
1020.932	1463.31
1021.223	1409.75
1021.514	1426.02
1021.804	1397.32
1022.095	1383.99
1022.386	1372.69
1022.677	1368.85
1022.967	1346.25
1023.258	1339.7
1023.548	1351
1023.839	1350.32
1024.129	1321.84
1024.419	1347.83
1024.709	1312.13
1025	1295.18
1025.29	1304.22
1025.58	1287.95
1025.87	1269.19
1026.16	1284.78
1026.449	1270.77
1026.739	1215.86
1027.029	1279.13
1027.319	1237.78
1027.608	1247.95
1027.898	1238
1028.187	1215.18
1028.477	1210.66
1028.766	1208.85
1029.055	1169.08
1029.344	1189.19
1029.634	1196.2
1029.923	1176.99
1030.212	1143.77
1030.501	1172.92
1030.79	1106.26
1031.078	1146.71
1031.367	1150.55
1031.656	1117.33
1031.945	1125.92
1032.233	1117.33
1032.522	1092.7
1032.81	1084.11
1033.099	1092.7
1033.387	1088.4
1033.675	1077.33
1033.963	1071
1034.251	1081.4
1034.54	1058.8
1034.828	1027.39
1035.116	1036.43
1035.403	1020.38
1035.691	1017.44
1035.979	1033.04
1036.267	1013.83
1036.554	999.37
1036.842	1003.43
1037.129	991.23
1037.417	983.55
1037.704	991.68
1037.992	992.59
1038.279	987.84
1038.566	976.32
1038.853	976.32
1039.14	976.32
