Data from hue_270_FLMS001491_00023.txt Node
Date: Tue Feb 07 15:56:58 GMT 2017
User: dcchb
Spectrometer: FLMS00149
Trigger mode: 0
Integration Time (sec): 2.000000E-2
Scans to average: 10
Electric dark correction enabled: true
Nonlinearity correction enabled: false
Boxcar width: 0
XAxis mode: Wavelengths
Number of Pixels in Spectrum: 2048
>>>>>Begin Spectral Data<<<<<
341.393	0.9
341.776	0.9
342.16	0.9
342.543	-69.38
342.927	-65.99
343.31	-74.8
343.693	-61.92
344.077	-48.13
344.46	-61.92
344.843	-55.37
345.226	-37.51
345.61	-22.6
345.993	-25.31
346.376	-4.07
346.759	21.24
347.142	9.94
347.525	48.59
347.908	45.65
348.291	83.61
348.674	77.51
349.057	105.08
349.44	115.48
349.823	129.04
350.206	141.47
350.588	175.14
350.971	186.89
351.354	215.81
351.737	241.8
352.119	251.97
352.502	279.09
352.884	255.59
353.267	263.27
353.65	288.58
354.032	296.49
354.414	303.04
354.797	297.85
355.179	297.85
355.562	298.3
355.944	305.3
356.326	325.42
356.709	315.92
357.091	310.5
357.473	327.9
357.855	348.24
358.238	317.73
358.62	350.95
359.002	342.59
359.384	335.36
359.766	352.31
360.148	332.42
360.53	320.9
360.912	324.06
361.294	308.01
361.676	315.47
362.057	352.08
362.439	336.94
362.821	319.54
363.203	350.95
363.584	323.16
363.966	304.4
364.348	308.01
364.729	335.81
365.111	312.76
365.493	315.7
365.874	312.99
366.256	320.22
366.637	314.57
367.019	318.18
367.4	327
367.781	322.25
368.163	332.65
368.544	294
368.925	314.57
369.306	307.11
369.688	304.62
370.069	317.28
370.45	303.72
370.831	314.57
371.212	321.35
371.593	297.17
371.974	309.82
372.355	320.22
372.736	300.56
373.117	304.17
373.498	307.56
373.879	328.58
374.26	317.05
374.641	296.72
375.021	299.43
375.402	317.51
375.783	329.93
376.163	338.52
376.544	323.61
376.925	312.76
377.305	331.74
377.686	341.01
378.066	315.7
378.447	338.52
378.827	341.91
379.208	338.52
379.588	312.76
379.968	361.8
380.349	338.3
380.729	329.26
381.109	332.87
381.489	330.16
381.87	329.03
382.25	322.7
382.63	336.94
383.01	335.36
383.39	345.98
383.77	336.26
384.15	344.17
384.53	364.96
384.91	337.84
385.29	332.19
385.67	355.7
386.049	336.49
386.429	355.02
386.809	348.01
387.189	365.64
387.568	367.67
387.948	362.02
388.328	378.3
388.707	369.48
389.087	358.63
389.466	375.13
389.846	358.41
390.225	369.93
390.605	366.77
390.984	371.52
391.363	361.12
391.743	377.17
392.122	378.52
392.501	403.83
392.881	400.89
393.26	380.33
393.639	375.36
394.018	400.22
394.397	384.17
394.776	397.96
395.155	387.33
395.534	403.83
395.913	399.99
396.292	388.69
396.671	405.87
397.05	398.18
397.429	395.24
397.808	401.8
398.186	410.61
398.565	398.63
398.944	409.71
399.323	407.67
399.701	408.8
400.08	393.66
400.458	440.44
400.837	414.23
401.215	423.27
401.594	428.92
401.972	432.98
402.351	442.7
402.729	428.24
403.107	450.16
403.486	445.41
403.864	460.78
404.242	454.9
404.62	453.77
404.999	456.26
405.377	448.8
405.755	467.56
406.133	453.77
406.511	461.23
406.889	463.94
407.267	490.16
407.645	491.96
408.023	501.46
408.401	489.25
408.779	503.72
409.156	511.17
409.534	513.66
409.912	521.79
410.29	513.21
410.667	519.31
411.045	519.53
411.422	522.92
411.8	534.22
412.178	552.3
412.555	577.84
412.933	578.29
413.31	550.04
413.687	576.48
414.065	576.93
414.442	609.02
414.819	583.71
415.197	602.92
415.574	607.22
415.951	620.1
416.328	638.18
416.705	639.53
417.082	644.05
417.46	639.31
417.837	649.93
418.214	661.23
418.591	658.74
418.967	676.82
419.344	678.4
419.721	693.09
420.098	682.02
420.475	715.24
420.852	721.11
421.228	726.08
421.605	729.92
421.982	732.64
422.358	767.44
422.735	765.4
423.111	776.48
423.488	785.29
423.864	810.83
424.241	800.2
424.617	796.82
424.994	808.79
425.37	836.59
425.746	852.18
426.123	853.31
426.499	873.65
426.875	857.83
427.251	910.48
427.627	892.63
428.003	901.67
428.379	906.87
428.756	939.86
429.132	932.4
429.507	947.55
429.883	955.68
430.259	967.88
430.635	986.41
431.011	985.96
431.387	1036.36
431.763	1025.28
432.138	1037.49
432.514	1043.81
432.89	1068.22
433.265	1066.86
433.641	1077.71
434.016	1098.95
434.392	1121.1
434.767	1137.6
435.143	1168.56
435.518	1169.91
435.894	1179.63
436.269	1200.87
436.644	1203.13
437.02	1240.42
437.395	1271.83
437.77	1287.2
438.145	1296.69
438.52	1289.23
438.895	1329.23
439.271	1300.3
439.646	1343.02
440.021	1378.04
440.395	1376.24
440.77	1374.65
441.145	1365.84
441.52	1413.3
441.895	1437.7
442.27	1423.69
442.645	1461.66
443.019	1466.4
443.394	1465.72
443.769	1492.84
444.143	1482.45
444.518	1489
444.892	1519.28
445.267	1526.97
445.641	1547.08
446.016	1533.07
446.39	1529.68
446.764	1547.76
447.139	1539.85
447.513	1578.26
447.887	1547.08
448.262	1617.13
448.636	1616.68
449.01	1613.52
449.384	1642.89
449.758	1636.12
450.132	1666.17
450.506	1678.6
450.88	1662.33
451.254	1674.76
451.628	1674.98
452.002	1703.91
452.376	1731.25
452.75	1750.24
453.123	1756.11
453.497	1767.86
453.871	1783.23
454.244	1831.14
454.618	1847.18
454.992	1830.23
455.365	1839.95
455.739	1900.74
456.112	1900.74
456.486	1903.23
456.859	1917.69
457.232	1946.62
457.606	1926.28
457.979	1987.29
458.352	1992.49
458.725	2033.39
459.099	2011.25
459.472	2096.67
459.845	2101.64
460.218	2122.88
460.591	2092.15
460.964	2122.2
461.337	2153.84
461.71	2208.3
462.083	2207.4
462.456	2229.55
462.829	2224.8
463.201	2267.06
463.574	2279.04
463.947	2294.4
464.32	2333.05
464.692	2363.33
465.065	2388.86
465.438	2373.5
465.81	2401.74
466.183	2444.23
466.555	2495.08
466.928	2484.45
467.3	2503.44
467.672	2538.01
468.045	2612.36
468.417	2594.73
468.789	2582.53
469.161	2627.5
469.534	2644.68
469.906	2724.9
470.278	2711.57
470.65	2776.65
471.022	2821.39
471.394	2865.91
471.766	2837.21
472.138	2895.74
472.51	2917.44
472.882	2939.36
473.253	3015.97
473.625	3029.3
473.997	3047.15
474.369	3102.07
474.74	3144.32
475.112	3179.58
475.484	3217.54
475.855	3280.37
476.227	3292.12
476.598	3336.86
476.97	3385.45
477.341	3436.07
477.713	3498.89
478.084	3441.72
478.455	3576.4
478.827	3630.19
479.198	3649.4
479.569	3655.27
479.94	3797.41
480.311	3792.67
480.682	3867.02
481.053	3905.43
481.424	3976.84
481.795	4045.77
482.166	4006.9
482.537	4065.66
482.908	4138.87
483.279	4192.88
483.65	4288.47
484.021	4271.53
484.391	4325.76
484.762	4373.22
485.133	4436.27
485.503	4438.53
485.874	4535.25
486.244	4569.15
486.615	4636.49
486.985	4637.39
487.356	4723.72
487.726	4771.63
488.097	4852.75
488.467	4820.66
488.837	4928.01
489.207	4971.62
489.578	5037.38
489.948	5029.25
490.318	5117.83
490.688	5121.45
491.058	5247.32
491.428	5272.4
491.798	5373.42
492.168	5379.97
492.538	5355.79
492.908	5476.69
493.278	5489.8
493.648	5551.72
494.017	5543.58
494.387	5646.41
494.757	5640.53
495.126	5712.39
495.496	5709.68
495.866	5715.1
496.235	5749.23
496.605	5843.69
496.974	5852.05
497.344	5903.12
497.713	5925.04
498.082	5945.61
498.452	5933.18
498.821	6033.29
499.19	6030.8
499.559	6139.95
499.928	6136.56
500.298	6090.46
500.667	6118.94
501.036	6141.53
501.405	6213.17
501.774	6200.74
502.143	6217.24
502.512	6272.6
502.88	6316.9
503.249	6336.78
503.618	6326.16
503.987	6380.85
504.356	6406.84
504.724	6449.32
505.093	6433.28
505.462	6394.18
505.83	6497.91
506.199	6536.78
506.567	6555.53
506.936	6529.77
507.304	6616.1
507.672	6607.06
508.041	6664.91
508.409	6676.89
508.777	6684.8
509.145	6793.49
509.514	6688.86
509.882	6773.61
510.25	6762.08
510.618	6779.71
510.986	6757.79
511.354	6825.36
511.722	6890.44
512.09	6935.64
512.458	6900.61
512.826	6973.15
513.193	6938.57
513.561	6921.85
513.929	6996.65
514.297	7018.12
514.664	7066.48
515.032	7025.58
515.4	7125.46
515.767	7105.35
516.135	7118.46
516.502	7077.55
516.869	7190.32
517.237	7107.38
517.604	7159.36
517.972	7238.91
518.339	7256.53
518.706	7229.64
519.073	7220.6
519.44	7256.76
519.808	7265.8
520.175	7357.77
520.542	7428.28
520.909	7368.39
521.276	7410.65
521.643	7400.48
522.009	7467.37
522.376	7418.11
522.743	7499.01
523.11	7508.96
523.477	7587.82
523.843	7550.99
524.21	7621.72
524.577	7640.93
524.943	7634.15
525.31	7761.38
525.676	7774.71
526.043	7791.21
526.409	7853.35
526.776	7835.95
527.142	7867.14
527.508	7883.86
527.874	7914.37
528.241	7975.16
528.607	7986.46
528.973	8009.73
529.339	7928.83
529.705	8014.03
530.071	8021.94
530.437	8059.68
530.803	8128.6
531.169	8101.93
531.535	8128.37
531.901	8116.4
532.267	8145.55
532.632	8148.71
532.998	8162.05
533.364	8275.04
533.73	8224.87
534.095	8263.06
534.461	8277.97
534.826	8274.81
535.192	8323.85
535.557	8340.35
535.923	8352.1
536.288	8352.32
536.653	8396.62
537.019	8280.01
537.384	8326.79
537.749	8404.3
538.114	8419.21
538.479	8429.83
538.845	8433.9
539.21	8365.88
539.575	8427.35
539.94	8442.26
540.305	8500.79
540.67	8379.89
541.034	8506.89
541.399	8534.69
541.764	8485.88
542.129	8546.44
542.494	8492.66
542.858	8526.1
543.223	8528.36
543.587	8529.04
543.952	8572.88
544.316	8613.11
544.681	8645.42
545.045	8658.98
545.41	8686.1
545.774	8642.94
546.138	8680.9
546.503	8650.17
546.867	8658.08
547.231	8701.69
547.595	8740.79
547.959	8804.51
548.324	8724.52
548.688	8717.06
549.052	8718.87
549.416	8768.13
549.779	8712.31
550.143	8785.98
550.507	8840.45
550.871	8831.41
551.235	8807.45
551.599	8877.28
551.962	8846.1
552.326	8913.89
552.689	8888.58
553.053	8861.91
553.417	8864.17
553.78	8968.13
554.143	8957.73
554.507	8984.85
554.87	8902.14
555.234	9101.23
555.597	8923.38
555.96	8978.3
556.323	8988.92
556.686	9069.37
557.05	9098.29
557.413	9141.23
557.776	9115.01
558.139	9173.77
558.502	9182.13
558.865	9189.59
559.228	9258.29
559.59	9296.25
559.953	9203.15
560.316	9287.67
560.679	9278.85
561.041	9285.63
561.404	9384.61
561.767	9490.82
562.129	9359.3
562.492	9499.86
562.854	9492.63
563.217	9461.22
563.579	9519.3
563.941	9538.05
564.304	9671.38
564.666	9669.35
565.028	9696.69
565.39	9733.98
565.753	9818.5
566.115	9770.14
566.477	9813.75
566.839	9884.03
567.201	9907.99
567.563	9906.41
567.925	9978.04
568.287	9982.11
568.648	9932.17
569.01	10002.67
569.372	10071.37
569.734	10057.14
570.095	10166.51
570.457	10152.05
570.819	10169.22
571.18	10173.52
571.542	10253.74
571.903	10294.19
572.265	10327.41
572.626	10330.58
572.987	10388.43
573.349	10409.9
573.71	10497.8
574.071	10466.39
574.432	10488.09
574.794	10635.2
575.155	10538.03
575.516	10555.65
575.877	10678.59
576.238	10726.05
576.599	10698.48
576.96	10704.58
577.32	10756.55
577.681	10816.66
578.042	10840.62
578.403	10756.55
578.763	10895.08
579.124	10941.41
579.485	10879.71
579.845	10956.77
580.206	10870.45
580.566	10987.73
580.927	11018.24
581.287	11053.04
581.648	11043.78
582.008	11217.11
582.368	11153.61
582.728	11221.85
583.089	11160.16
583.449	11232.02
583.809	11261.62
584.169	11280.16
584.529	11315.41
584.889	11434.5
585.249	11321.51
585.609	11321.06
585.969	11408.97
586.329	11412.13
586.688	11440.83
587.048	11468.17
587.408	11479.25
587.768	11479.25
588.127	11532.35
588.487	11575.74
588.846	11571.67
589.206	11522.41
589.565	11640.82
589.925	11640.82
590.284	11752.69
590.643	11736.64
591.003	11824.32
591.362	11753.14
591.721	11762.85
592.08	11844.89
592.44	11825.45
592.799	11881.04
593.158	11805.57
593.517	11881.95
593.876	11869.74
594.235	11945.22
594.593	11937.31
594.952	12022.28
595.311	12017.99
595.67	12030.42
596.029	12047.14
596.387	12084.43
596.746	12106.57
597.104	12030.42
597.463	12058.89
597.822	12142.51
598.18	12073.58
598.538	12040.36
598.897	12188.61
599.255	11978.44
599.613	12259.56
599.972	12140.02
600.33	12234.25
600.688	12210.98
601.046	12226.57
601.404	12309.28
601.762	12263.18
602.12	12334.59
602.478	12277.42
602.836	12299.56
603.194	12297.98
603.552	12358.09
603.91	12239.68
604.268	12362.61
604.625	12290.52
604.983	12389.73
605.341	12350.18
605.698	12389.96
606.056	12452.33
606.413	12368.04
606.771	12415.94
607.128	12474.02
607.485	12385.66
607.843	12442.38
608.2	12493.23
608.557	12530.07
608.914	12465.43
609.272	12577.75
609.629	12472.21
609.986	12672.21
610.343	12597.41
610.7	12583.4
611.057	12650.06
611.414	12631.76
611.771	12666.56
612.127	12692.55
612.484	12681.93
612.841	12775.71
613.198	12700.91
613.554	12666.79
613.911	12741.13
614.267	12737.52
614.624	12731.19
614.98	12740.46
615.337	12764.86
615.693	12817.97
616.05	12752.43
616.406	12830.62
616.762	12912.2
617.118	12803.73
617.475	12804.18
617.831	12867.68
618.187	12890.28
618.543	12841.7
618.899	12971.86
619.255	12876.95
619.611	12855.71
619.967	12905.88
620.323	13041.92
620.678	12953.56
621.034	12907.91
621.39	12915.14
621.746	12869.49
622.101	12939.77
622.457	12847.35
622.812	12979.32
623.168	12959.43
623.523	12917.63
623.879	12966.66
624.234	12930.51
624.589	12899.77
624.945	12987
625.3	12949.49
625.655	12969.38
626.01	12926.44
626.365	12945.2
626.72	12937.74
627.075	12996.04
627.43	12948.81
627.785	12927.12
628.14	12922.6
628.495	12964.4
628.85	12964.4
629.205	12871.3
629.559	12970.51
629.914	12849.61
630.269	12918.08
630.623	12880.57
630.978	12903.84
631.332	12878.53
631.687	12940.68
632.041	12929.38
632.396	12839.66
632.75	12796.05
633.104	12848.93
633.459	12725.54
633.813	12714.69
634.167	12736.61
634.521	12761.7
634.875	12724.19
635.229	12699.33
635.583	12671.08
635.937	12707.69
636.291	12567.58
636.645	12700.46
636.999	12663.85
637.352	12658.88
637.706	12580.46
638.06	12587.47
638.413	12551.08
638.767	12509.05
639.121	12584.75
639.474	12535.26
639.828	12493
640.181	12583.17
640.534	12510.41
640.888	12495.49
641.241	12475.38
641.594	12441.71
641.947	12559.44
642.301	12458.88
642.654	12402.84
643.007	12466.79
643.36	12394.02
643.713	12309.05
644.066	12454.14
644.419	12394.25
644.771	12313.8
645.124	12196.29
645.477	12152.22
645.83	12163.75
646.182	12086.24
646.535	12004.66
646.888	12062.96
647.24	12015.05
647.593	12088.5
647.945	11986.8
648.298	11907.94
648.65	11923.53
649.002	11863.87
649.355	11954.04
649.707	11890.99
650.059	12009.4
650.411	12186.35
650.763	12195.84
651.115	12359.22
651.467	12250.3
651.819	12258.21
652.171	12220.47
652.523	12157.65
652.875	12170.75
653.227	12124.65
653.578	12255.05
653.93	12221.37
654.282	12149.06
654.633	12110.42
654.985	12133.24
655.337	12213.69
655.688	12160.81
656.039	12227.02
656.391	12077.87
656.742	12109.51
657.094	12107.7
657.445	12176.85
657.796	12177.31
658.147	12155.61
658.498	12098.89
658.849	12169.62
659.2	12190.19
659.551	12121.26
659.902	12185.44
660.253	12127.59
660.604	12148.61
660.955	12073.35
661.306	12184.76
661.656	12231.99
662.007	12187.25
662.358	12118.1
662.708	12122.62
663.059	12195.39
663.409	12084.88
663.76	12262.5
664.11	12217.31
664.461	12220.92
664.811	12160.13
665.161	12218.89
665.511	12134.82
665.862	12162.84
666.212	12130.98
666.562	12233.35
666.912	12162.62
667.262	12179.79
667.612	12144.77
667.962	12245.33
668.312	12196.97
668.662	12270.41
669.011	12168.49
669.361	12128.27
669.711	12135.27
670.06	12107.03
670.41	12067.48
670.76	12123.07
671.109	12167.14
671.459	12210.07
671.808	12094.37
672.157	12114.48
672.507	12076.29
672.856	12046.01
673.205	12039.23
673.554	12097.76
673.904	12079.46
674.253	12134.82
674.602	12006.24
674.951	11855.06
675.3	11817.09
675.649	12023.64
675.998	11973.47
676.346	11975.28
676.695	12032.68
677.044	11821.61
677.393	11906.58
677.741	11949.52
678.09	11914.94
678.438	11850.54
678.787	11950.42
679.135	11925.79
679.484	11832.68
679.832	11827.71
680.181	11784.55
680.529	11817.99
680.877	11823.64
681.225	11736.87
681.573	11870.87
681.922	11693.48
682.27	11669.52
682.618	11644.21
682.966	11648.51
683.314	11696.19
683.661	11653.93
684.009	11582.07
684.357	11553.14
684.705	11582.52
685.053	11496.19
685.4	11500.71
685.748	11483.31
686.095	11443.31
686.443	11379.14
686.79	11393.15
687.138	11396.54
687.485	11406.48
687.832	11463.88
688.18	11357.22
688.527	11289.65
688.874	11260.95
689.221	11193.38
689.568	11207.84
689.915	11175.3
690.262	11135.75
690.609	11116.32
690.956	11114.74
691.303	11080.16
691.65	11013.95
691.997	10987.51
692.344	10994.51
692.69	10939.37
693.037	10918.13
693.383	10869.09
693.73	10916.32
694.077	10770.79
694.423	10823.9
694.769	10750.23
695.116	10720.4
695.462	10769.66
695.808	10661.41
696.155	10737.12
696.501	10597.69
696.847	10490.8
697.193	10540.74
697.539	10532.83
697.885	10390.01
698.231	10434.3
698.577	10407.41
698.923	10350.91
699.269	10291.93
699.614	10213.29
699.96	10217.81
700.306	10229.34
700.651	10147.76
700.997	10144.14
701.342	10034.99
701.688	10114.54
702.033	9964.03
702.379	9978.27
702.724	9979.17
703.069	9937.37
703.415	9861.21
703.76	9849.68
704.105	9872.51
704.45	9820.08
704.795	9818.72
705.14	9781.21
705.485	9776.47
705.83	9715.22
706.175	9675.9
706.52	9579.64
706.865	9589.35
707.209	9557.49
707.554	9519.52
707.899	9612.18
708.243	9571.27
708.588	9493.99
708.932	9440.66
709.277	9474.33
709.621	9482.91
709.966	9345.52
710.31	9379.87
710.654	9278.85
710.998	9322.24
711.342	9302.13
711.687	9285.86
712.031	9272.98
712.375	9181
712.719	9243.15
713.063	9174.22
713.407	9244.05
713.75	9156.37
714.094	9166.09
714.438	9081.57
714.782	9120.21
715.125	9135.13
715.469	9005.64
715.812	9048.12
716.156	9064.85
716.499	8984.85
716.843	9039.08
717.186	8991.63
717.53	9005.64
717.873	9056.94
718.216	8946.43
718.559	8974
718.902	8916.38
719.246	8961.8
719.589	8912.31
719.932	8822.37
720.275	8823.95
720.617	8891.29
720.96	8889.48
721.303	8823.27
721.646	8824.17
721.989	8796.83
722.331	8793.89
722.674	8799.09
723.016	8772.65
723.359	8776.49
723.701	8810.39
724.044	8704.86
724.386	8682.26
724.729	8741.92
725.071	8708.02
725.413	8723.16
725.755	8636.61
726.097	8681.81
726.439	8673.67
726.782	8675.03
727.124	8645.42
727.465	8592.32
727.807	8636.61
728.149	8608.81
728.491	8620.11
728.833	8560.9
729.175	8591.64
729.516	8581.47
729.858	8525.43
730.199	8601.13
730.541	8565.88
730.882	8477.74
731.224	8549.38
731.565	8543.96
731.906	8539.21
732.248	8555.48
732.589	8497.86
732.93	8463.28
733.271	8463.96
733.612	8520.91
733.953	8545.99
734.294	8553
734.635	8499.44
734.976	8476.61
735.317	8468.48
735.658	8495.14
735.999	8544.63
736.339	8508.93
736.68	8532.21
737.021	8452.43
737.361	8474.58
737.702	8515.03
738.042	8546.44
738.383	8480.45
738.723	8462.38
739.063	8445.2
739.404	8537.18
739.744	8559.1
740.084	8497.4
740.424	8510.96
740.764	8560.9
741.104	8576.05
741.444	8496.5
741.784	8577.85
742.124	8585.31
742.464	8574.01
742.804	8546.22
743.143	8593.9
743.483	8713.22
743.823	8590.73
744.162	8562.49
744.502	8660.11
744.841	8602.71
745.181	8717.51
745.52	8702.6
745.86	8810.16
746.199	8733.1
746.538	8790.73
746.877	8776.04
747.216	8841.35
747.556	8912.99
747.895	8945.75
748.234	8963.83
748.573	8945.75
748.911	9013.55
749.25	9098.74
749.589	9123.6
749.928	9204.5
750.267	9226.88
750.605	9348.91
750.944	9372.86
751.283	9388.91
751.621	9488.79
751.96	9551.61
752.298	9643.36
752.636	9673.42
752.975	9781.44
753.313	9831.61
753.651	9985.05
753.989	10027.31
754.327	10120.19
754.666	10201.99
755.004	10334.87
755.342	10397.69
755.679	10447.18
756.017	10556.78
756.355	10662.77
756.693	10841.52
757.031	10996.55
757.368	11037.68
757.706	11145.7
758.044	11331
758.381	11495.97
758.719	11530.32
759.056	11693.48
759.394	11843.08
759.731	11917.88
760.068	12163.52
760.405	12238.1
760.743	12370.07
761.08	12657.07
761.417	12727.8
761.754	12854.13
762.091	12935.25
762.428	13178.18
762.765	13156.26
763.102	13427.67
763.438	13507.44
763.775	13685.29
764.112	13868.79
764.449	14115.34
764.785	14191.94
765.122	14224.26
765.458	14354.42
765.795	14528.43
766.131	14654.98
766.467	14854.75
766.804	14896.33
767.14	14990.57
767.476	15224.91
767.812	15262.42
768.148	15517.56
768.485	15496.09
768.821	15485.92
769.157	15726.14
769.492	15852.92
769.828	15978.11
770.164	15959.58
770.5	16088.39
770.836	16296.75
771.171	16299.01
771.507	16383.3
771.842	16478.21
772.178	16726.34
772.513	16667.36
772.849	16818.99
773.184	16824.64
773.519	16989.84
773.855	16921.14
774.19	16992.55
774.525	17164.52
774.86	17230.28
775.195	17302.14
775.53	17284.52
775.865	17335.59
776.2	17390.96
776.535	17435.25
776.87	17399.54
777.205	17550.27
777.539	17503.49
777.874	17588.24
778.209	17563.83
778.543	17615.36
778.878	17677.5
779.212	17682.47
779.547	17697.39
779.881	17855.58
780.215	17641.57
780.55	17835.69
780.884	17750.72
781.218	17794.33
781.552	17728.57
781.886	17828.01
782.22	17779.87
782.554	17619.88
782.888	17650.38
783.222	17735.13
783.556	17677.05
783.889	17647.22
784.223	17679.76
784.557	17650.84
784.89	17674.56
785.224	17728.57
785.557	17626.2
785.891	17639.99
786.224	17706.88
786.558	17666.2
786.891	17564.06
787.224	17518.64
787.557	17480.9
787.891	17554.79
788.224	17491.52
788.557	17564.28
788.89	17508.69
789.223	17504.62
789.556	17388.47
789.888	17342.59
790.221	17307.57
790.554	17269.15
790.887	17285.65
791.219	17296.27
791.552	17251.3
791.884	17278.19
792.217	17202.49
792.549	17196.38
792.882	17076.84
793.214	16991.87
793.546	17120.45
793.879	17019.44
794.211	16836.62
794.543	16997.75
794.875	16962.27
795.207	17047.91
795.539	16961.36
795.871	16917.3
796.203	16757.07
796.535	16685.21
796.867	16785.1
797.198	16622.16
797.53	16702.39
797.862	16599.79
798.193	16610.18
798.525	16518.44
798.856	16641.14
799.188	16470.3
799.519	16388.95
799.85	16375.84
800.182	16389.4
800.513	16337.65
800.844	16200.25
801.175	16314.15
801.506	16249.74
801.837	16106.47
802.168	16217.2
802.499	16151.21
802.83	16047.71
803.161	16030.99
803.491	15980.82
803.822	16026.25
804.153	15898.11
804.483	15852.01
804.814	15776.31
805.145	15799.81
805.475	15784.22
805.805	15705.8
806.136	15783.77
806.466	15766.59
806.796	15685.24
807.126	15548.52
807.457	15539.03
807.787	15610.21
808.117	15559.59
808.447	15480.04
808.777	15539.7
809.107	15396.88
809.436	15424.91
809.766	15439.14
810.096	15311.69
810.426	15257.45
810.755	15334.29
811.085	15290.22
811.414	15195.08
811.744	15116.89
812.073	15111.92
812.403	15119.83
812.732	15046.84
813.061	15055.42
813.39	15053.84
813.719	14997.12
814.049	15074.18
814.378	15004.58
814.707	14901.08
815.036	14903.11
815.365	14746.05
815.693	14731.59
816.022	14752.15
816.351	14725.94
816.68	14608.43
817.008	14639.39
817.337	14517.81
817.665	14469.9
817.994	14626.51
818.322	14577.02
818.651	14470.58
818.979	14414.99
819.307	14523.69
819.636	14468.55
819.964	14410.92
820.292	14369.79
820.62	14447.53
820.948	14396.91
821.276	14420.19
821.604	14320.98
821.932	14359.62
822.259	14372.73
822.587	14357.59
822.915	14340.87
823.243	14461.09
823.57	14311.26
823.898	14370.47
824.225	14294.54
824.553	14311.71
824.88	14415.21
825.207	14378.6
825.535	14333.18
825.862	14459.96
826.189	14409.56
826.516	14439.85
826.843	14438.26
827.17	14480.52
827.497	14471.71
827.824	14377.7
828.151	14543.35
828.478	14454.99
828.805	14531.6
829.131	14451.82
829.458	14380.19
829.785	14383.35
830.111	14370.02
830.438	14446.85
830.764	14403.46
831.09	14451.37
831.417	14327.53
831.743	14402.79
832.069	14365.72
832.395	14405.5
832.722	14305.84
833.048	14293.41
833.374	14354.2
833.7	14280.3
834.026	14261.32
834.351	14400.07
834.677	14337.48
835.003	14300.19
835.329	14278.49
835.654	14283.47
835.98	14189.23
836.306	14216.8
836.631	14148.55
836.956	14196.24
837.282	14270.36
837.607	14133.64
837.932	14054.09
838.258	14062.91
838.583	14159.18
838.908	14006.19
839.233	14103.36
839.558	13963.7
839.883	13927.09
840.208	13925.96
840.533	13887.77
840.858	13938.84
841.182	13980.65
841.507	13836.7
841.832	13887.32
842.156	13813.87
842.481	13829.24
842.805	13776.13
843.13	13709.24
843.454	13758.06
843.778	13766.64
844.103	13611.62
844.427	13547.44
844.751	13633.54
845.075	13499.98
845.399	13568.46
845.723	13468.35
846.047	13443.71
846.371	13405.52
846.695	13305.19
847.019	13239.43
847.343	13253.66
847.666	13090.28
847.99	13031.97
848.313	13128.69
848.637	13033.78
848.96	12926.67
849.284	12989.49
849.607	12788.14
849.931	12842.15
850.254	12763.73
850.577	12660.23
850.9	12606.22
851.223	12647.8
851.546	12550.18
851.869	12489.39
852.192	12538.88
852.515	12386.34
852.838	12345.21
853.161	12364.65
853.483	12269.28
853.806	12217.98
854.129	12202.17
854.451	12149.29
854.774	12115.16
855.096	12048.95
855.419	12074.94
855.741	12054.82
856.063	11861.84
856.385	11926.01
856.708	11909.07
857.03	11870.42
857.352	11817.77
857.674	11833.81
857.996	11722.63
858.318	11707.94
858.64	11626.13
858.961	11635.17
859.283	11587.49
859.605	11550.66
859.926	11534.16
860.248	11620.26
860.57	11488.51
860.891	11502.75
861.212	11471.56
861.534	11368.51
861.855	11365.8
862.176	11379.59
862.498	11384.33
862.819	11397.44
863.14	11247.61
863.461	11246.94
863.782	11160.61
864.103	11219.14
864.424	11152.93
864.745	11209.42
865.065	11139.14
865.386	11105.24
865.707	11132.59
866.027	11124.45
866.348	11097.79
866.668	11096.21
866.989	11114.06
867.309	11004.23
867.63	11008.3
867.95	11025.47
868.27	10905.02
868.59	10959.49
868.91	10934.4
869.23	10941.86
869.55	10843.1
869.87	10903.22
870.19	10867.06
870.51	10901.86
870.83	10941.18
871.15	10836.33
871.469	10797.91
871.789	10799.72
872.109	10724.24
872.428	10728.98
872.748	10681.3
873.067	10757.46
873.386	10760.62
873.706	10748.42
874.025	10623
874.344	10666.39
874.663	10606.05
874.982	10557.46
875.301	10601.08
875.62	10583.68
875.939	10537.35
876.258	10602.89
876.577	10528.31
876.896	10556.11
877.214	10532.83
877.533	10518.14
877.852	10440.86
878.17	10453.06
878.489	10497.8
878.807	10436.79
879.125	10373.51
879.444	10421.19
879.762	10335.1
880.08	10383.68
880.398	10308.88
880.716	10321.76
881.034	10269.33
881.352	10295.55
881.67	10180.52
881.988	10230.69
882.306	10247.64
882.624	10244.93
882.941	10113.86
883.259	10161.54
883.577	10097.59
883.894	10044.26
884.212	10085.16
884.529	10063.24
884.846	10014.65
885.164	9972.39
885.481	9969
885.798	9940.53
886.115	9863.24
886.432	9870.25
886.75	9877.71
887.067	9832.28
887.383	9816.01
887.7	9772.17
888.017	9778.73
888.334	9727.43
888.651	9766.3
888.967	9701.21
889.284	9592.97
889.6	9604.95
889.917	9610.82
890.233	9596.81
890.55	9535.57
890.866	9468.23
891.182	9477.26
891.498	9412.63
891.815	9416.02
892.131	9388
892.447	9385.74
892.763	9338.06
893.079	9347.78
893.395	9277.27
893.71	9265.29
894.026	9229.81
894.342	9227.33
894.657	9143.04
894.973	9110.04
895.289	9134.68
895.604	9108.91
895.92	9062.59
896.235	9051.29
896.55	9035.24
896.865	8967
897.181	8945.53
897.496	8892.65
897.811	8876.83
898.126	8812.2
898.441	8842.25
898.756	8800.9
899.071	8785.53
899.386	8777.4
899.7	8621.02
900.015	8620.79
900.33	8568.36
900.644	8549.83
900.959	8559.77
901.273	8547.35
901.588	8509.83
901.902	8437.74
902.216	8492.43
902.531	8466.44
902.845	8381.7
903.159	8280.69
903.473	8290.4
903.787	8265.32
904.101	8167.02
904.415	8176.73
904.729	8223.74
905.042	8161.59
905.356	8122.5
905.67	8095.61
905.984	8086.12
906.297	8067.36
906.611	7965.44
906.924	8079.56
907.237	7971.09
907.551	7880.7
907.864	7865.56
908.177	7854.93
908.491	7822.39
908.804	7826.69
909.117	7717.99
909.43	7732.68
909.743	7670.76
910.056	7666.92
910.368	7590.53
910.681	7576.07
910.994	7604.55
911.307	7612.68
911.619	7528.84
911.932	7518.9
912.244	7461.5
912.557	7433.7
912.869	7352.12
913.181	7352.12
913.494	7339.02
913.806	7275.97
914.118	7227.38
914.43	7167.95
914.742	7174.27
915.054	7101.28
915.366	7095.41
915.678	7125.69
915.99	7098.57
916.302	7039.14
916.613	7016.76
916.925	6993.26
917.236	6988.52
917.548	6914.39
917.859	6919.14
918.171	6880.72
918.482	6808.63
918.794	6814.96
919.105	6814.96
919.416	6769.31
919.727	6676.43
920.038	6690.9
920.349	6669.88
920.66	6651.35
920.971	6608.64
921.282	6650.45
921.593	6566.61
921.903	6489.77
922.214	6518.92
922.525	6535.2
922.835	6415.65
923.146	6419.49
923.456	6374.07
923.767	6352.38
924.077	6378.59
924.387	6336.78
924.697	6276.45
925.008	6242.32
925.318	6260.17
925.628	6238.71
925.938	6166.39
926.248	6166.62
926.558	6157.35
926.867	6155.54
927.177	6097.92
927.487	6070.57
927.796	5972.72
928.106	6011.14
928.416	6038.94
928.725	6010.69
929.034	5928.43
929.344	5928.21
929.653	5923.46
929.962	5843.91
930.271	5813.41
930.581	5813.18
930.89	5807.08
931.199	5739.74
931.508	5756.68
931.817	5762.79
932.125	5733.86
932.434	5755.55
932.743	5630.13
933.051	5661.32
933.36	5576.8
933.669	5579.06
933.977	5612.51
934.286	5594.43
934.594	5554.43
934.902	5423.13
935.21	5453.87
935.519	5460.65
935.827	5404.15
936.135	5387.43
936.443	5355.34
936.751	5358.5
937.059	5355.79
937.367	5361.21
937.674	5352.85
937.982	5347.66
938.29	5230.14
938.597	5241.9
938.905	5198.51
939.213	5201.45
939.52	5181.11
939.827	5172.52
940.135	5101.56
940.442	5122.58
940.749	5107.66
941.056	5108.11
941.363	5058.17
941.67	5046.65
941.977	4976.14
942.284	4979.53
942.591	4954.9
942.898	4916.93
943.205	4943.6
943.511	4906.54
943.818	4892.07
944.125	4852.3
944.431	4856.6
944.738	4815.24
945.044	4779.08
945.35	4766.65
945.657	4743.38
945.963	4737.73
946.269	4711.97
946.575	4714.68
946.881	4652.98
947.187	4659.99
947.493	4633.78
947.799	4621.12
948.105	4538.41
948.41	4560.78
948.716	4520.56
949.022	4567.11
949.327	4514.68
949.633	4452.76
949.938	4461.13
950.244	4426.1
950.549	4426.55
950.854	4419.77
951.16	4396.49
951.465	4349.26
951.77	4337.51
952.075	4285.54
952.38	4320.34
952.685	4325.08
952.99	4282.83
953.294	4261.36
953.599	4288.02
953.904	4227.23
954.209	4147.69
954.513	4156.95
954.818	4150.4
955.122	4166.9
955.426	4111.76
955.731	4092.77
956.035	4071.31
956.339	4116.05
956.643	4082.83
956.948	4065.43
957.252	4038.76
957.556	4017.75
957.86	4036.73
958.163	3995.38
958.467	3958.77
958.771	3988.37
959.075	3944.3
959.378	3933.23
959.682	3904.53
959.985	3882.61
960.289	3882.38
960.592	3834.02
960.896	3848.71
961.199	3802.84
961.502	3822.72
961.805	3796.74
962.108	3779.34
962.411	3763.74
962.714	3730.75
963.017	3745.66
963.32	3727.36
963.623	3707.93
963.926	3693.91
964.228	3641.03
964.531	3623.18
964.833	3650.98
965.136	3587.02
965.438	3583.63
965.741	3575.05
966.043	3564.43
966.345	3573.01
966.648	3490.76
966.95	3507.48
967.252	3472.45
967.554	3477.42
967.856	3491.89
968.158	3441.27
968.46	3423.64
968.761	3396.97
969.063	3430.19
969.365	3409.63
969.666	3396.29
969.968	3350.65
970.269	3343.87
970.571	3382.74
970.872	3322.85
971.174	3291.89
971.475	3289.86
971.776	3318.56
972.077	3289.63
972.378	3239.69
972.679	3226.13
972.98	3254.38
973.281	3237.2
973.582	3224.32
973.883	3162.63
974.183	3174.83
974.484	3127.83
974.785	3107.71
975.085	3109.52
975.386	3138
975.686	3112.91
975.986	3058.9
976.287	3080.82
976.587	3036.3
976.887	3054.61
977.187	3033.14
977.487	3027.49
977.787	2973.48
978.087	2956.08
978.387	2983.65
978.687	2953.14
978.987	2953.59
979.286	2936.19
979.586	2888.96
979.885	2912.69
980.185	2910.21
980.484	2894.84
980.784	2883.09
981.083	2818.68
981.382	2842.19
981.682	2841.28
981.981	2806.03
982.28	2832.69
982.579	2788.63
982.878	2778.91
983.177	2757.67
983.475	2761.28
983.774	2762.64
984.073	2710.21
984.372	2737.33
984.67	2705.24
984.969	2681.51
985.267	2683.77
985.566	2679.03
985.864	2623.66
986.162	2657.56
986.461	2618.46
986.759	2596.32
987.057	2608.29
987.355	2561.51
987.653	2596.32
987.951	2577.33
988.249	2553.83
988.547	2536.88
988.844	2495.75
989.142	2552.93
989.44	2488.52
989.737	2462.31
990.035	2500.95
990.332	2484
990.63	2471.35
990.927	2471.8
991.224	2433.83
991.521	2428.64
991.819	2406.49
992.116	2361.97
992.413	2405.81
992.71	2374.17
993.006	2403.55
993.303	2371.24
993.6	2340.28
993.897	2371.92
994.193	2324.46
994.49	2335.08
994.787	2327.62
995.083	2292.6
995.379	2307.96
995.676	2268.87
995.972	2271.13
996.268	2279.71
996.565	2265.25
996.861	2220.96
997.157	2219.6
997.453	2208.53
997.749	2213.73
998.044	2174.63
998.34	2157.46
998.636	2181.19
998.932	2158.36
999.227	2140.73
999.523	2109.78
999.818	2137.57
1000.114	2081.75
1000.409	2079.95
1000.704	2088.76
1001	2076.56
1001.295	2034.75
1001.59	2072.04
1001.885	2024.81
1002.18	2003.11
1002.475	2044.47
1002.77	2009.66
1003.065	2022.09
1003.359	1987.74
1003.654	1981.87
1003.949	2004.24
1004.243	1981.42
1004.538	1940.06
1004.832	1924.47
1005.127	1933.96
1005.421	1911.36
1005.715	1916.79
1006.009	1881.53
1006.304	1878.37
1006.598	1843.79
1006.892	1869.33
1007.186	1840.86
1007.48	1820.29
1007.773	1839.05
1008.067	1830.91
1008.361	1828.88
1008.655	1777.13
1008.948	1772.16
1009.242	1740.75
1009.535	1751.82
1009.829	1760.63
1010.122	1717.24
1010.415	1749.33
1010.708	1736
1011.001	1736.23
1011.295	1717.69
1011.588	1711.59
1011.881	1670.69
1012.173	1632.5
1012.466	1670.92
1012.759	1658.26
1013.052	1634.53
1013.344	1648.77
1013.637	1630.24
1013.93	1631.6
1014.222	1627.53
1014.514	1576.91
1014.807	1601.77
1015.099	1596.79
1015.391	1548.89
1015.683	1576.91
1015.976	1535.33
1016.268	1543.24
1016.56	1534.42
1016.851	1531.94
1017.143	1529.68
1017.435	1481.09
1017.727	1520.86
1018.018	1486.51
1018.31	1510.92
1018.602	1447.42
1018.893	1454.43
1019.185	1429.79
1019.476	1429.79
1019.767	1448.1
1020.058	1444.03
1020.35	1412.62
1020.641	1374.88
1020.932	1379.4
1021.223	1383.92
1021.514	1373.52
1021.804	1354.99
1022.095	1345.05
1022.386	1342.34
1022.677	1329.46
1022.967	1336.01
1023.258	1329
1023.548	1338.27
1023.839	1286.75
1024.129	1291.94
1024.419	1297.37
1024.709	1280.42
1025	1261.66
1025.29	1303.92
1025.58	1214.21
1025.87	1203.58
1026.16	1242.45
1026.449	1245.84
1026.739	1233.87
1027.029	1235.22
1027.319	1190.48
1027.608	1206.07
1027.898	1193.19
1028.187	1205.84
1028.477	1174.21
1028.766	1167.88
1029.055	1174.43
1029.344	1131.72
1029.634	1164.49
1029.923	1123.81
1030.212	1146.18
1030.501	1164.72
1030.79	1114.32
1031.078	1098.73
1031.367	1097.82
1031.656	1101.21
1031.945	1119.29
1032.233	1096.69
1032.522	1077.49
1032.81	1073.42
1033.099	1054.44
1033.387	1067.09
1033.675	1060.99
1033.963	1049.24
1034.251	1024.15
1034.54	1008.34
1034.828	1023.02
1035.116	1019.63
1035.403	1009.01
1035.691	1020.54
1035.979	987.32
1036.267	969.01
1036.554	992.06
1036.842	970.6
1037.129	959.07
1037.417	959.52
1037.704	963.59
1037.992	946.42
1038.279	936.7
1038.566	953.42
1038.853	953.42
1039.14	953.42
