Data from hue_160_FLMS001491_00089.txt Node
Date: Tue Feb 07 16:51:49 GMT 2017
User: dcchb
Spectrometer: FLMS00149
Trigger mode: 0
Integration Time (sec): 2.000000E-2
Scans to average: 10
Electric dark correction enabled: true
Nonlinearity correction enabled: false
Boxcar width: 0
XAxis mode: Wavelengths
Number of Pixels in Spectrum: 2048
>>>>>Begin Spectral Data<<<<<
341.393	-9.76
341.776	-9.76
342.16	-9.76
342.543	-61.51
342.927	-59.02
343.31	-52.7
343.693	-60.15
344.077	-75.97
344.46	-70.32
344.843	-36.2
345.226	-48.18
345.61	-30.32
345.993	-16.99
346.376	-5.92
346.759	-3.21
347.142	30.01
347.525	44.02
347.908	69.33
348.291	74.08
348.674	86.96
349.057	95.55
349.44	156.34
349.823	148.65
350.206	162.44
350.588	211.7
350.971	226.84
351.354	203.79
351.737	237.01
352.119	237.01
352.502	268.43
352.884	274.53
353.267	278.59
353.65	291.93
354.032	278.37
354.414	301.87
354.797	311.81
355.179	316.56
355.562	317.01
355.944	303.68
356.326	320.85
356.709	347.52
357.091	331.02
357.473	346.39
357.855	349.55
358.238	346.16
358.62	339.16
359.002	341.19
359.384	326.95
359.766	331.7
360.148	334.64
360.53	340.29
360.912	334.64
361.294	318.82
361.676	320.63
362.057	337.8
362.439	355.65
362.821	324.47
363.203	330.57
363.584	333.51
363.966	321.76
364.348	335.09
364.729	343.45
365.111	311.81
365.493	332.6
365.874	308.65
366.256	319.05
366.637	310.91
367.019	323.34
367.4	340.29
367.781	308.65
368.163	310.01
368.544	299.16
368.925	326.28
369.306	323.11
369.688	315.2
370.069	293.28
370.45	327.41
370.831	310.46
371.212	337.12
371.593	320.63
371.974	319.27
372.355	323.34
372.736	297.58
373.117	312.94
373.498	303.45
373.879	328.08
374.26	330.12
374.641	319.72
375.021	318.37
375.402	311.81
375.783	304.81
376.163	329.67
376.544	317.69
376.925	312.04
377.305	320.18
377.686	326.5
378.066	327.18
378.447	305.71
378.827	340.29
379.208	326.28
379.588	333.28
379.968	327.41
380.349	343.9
380.729	328.54
381.109	327.41
381.489	351.36
381.87	323.34
382.25	344.36
382.63	358.59
383.01	340.06
383.39	328.08
383.77	337.58
384.15	329.21
384.53	336.45
384.91	351.36
385.29	334.64
385.67	353.62
386.049	353.85
386.429	334.86
386.809	359.95
387.189	353.39
387.568	342.32
387.948	373.51
388.328	368.31
388.707	383
389.087	374.19
389.466	357.24
389.846	380.06
390.225	379.16
390.605	380.06
390.984	355.88
391.363	334.64
391.743	349.1
392.122	367.41
392.501	388.42
392.881	378.7
393.26	381.42
393.639	382.09
394.018	389.78
394.397	409.44
394.776	382.32
395.155	387.97
395.534	380.74
395.913	385.94
396.292	374.41
396.671	408.76
397.05	382.09
397.429	385.03
397.808	403.56
398.186	399.04
398.565	392.04
398.944	376.9
399.323	390.91
399.701	393.62
400.08	411.25
400.458	403.11
400.837	431.36
401.215	405.37
401.594	415.09
401.972	387.97
402.351	425.26
402.729	410.12
403.107	416.67
403.486	420.51
403.864	417.57
404.242	427.74
404.62	423.68
404.999	422.32
405.377	409.44
405.755	436.1
406.133	437.01
406.511	434.75
406.889	426.16
407.267	456.22
407.645	427.29
408.023	449.21
408.401	453.96
408.779	428.19
409.156	458.7
409.534	471.58
409.912	426.16
410.29	466.61
410.667	457.57
411.045	469.78
411.422	471.81
411.8	479.49
412.178	494.86
412.555	490.79
412.933	486.05
413.31	484.46
413.687	485.37
414.065	507.97
414.442	492.15
414.819	498.25
415.197	514.07
415.574	496.22
415.951	535.08
416.328	519.49
416.705	531.24
417.082	527.18
417.46	529.89
417.837	529.44
418.214	533.28
418.591	538.25
418.967	532.15
419.344	546.84
419.721	538.25
420.098	550
420.475	549.1
420.852	546.16
421.228	549.1
421.605	558.81
421.982	551.58
422.358	565.37
422.735	579.6
423.111	578.02
423.488	571.69
423.864	566.5
424.241	588.42
424.617	578.7
424.994	589.77
425.37	635.87
425.746	614.86
426.123	606.72
426.499	627.29
426.875	634.97
427.251	611.69
427.627	676.78
428.003	635.65
428.379	651.24
428.756	632.94
429.132	633.61
429.507	640.62
429.883	668.87
430.259	674.06
430.635	673.16
431.011	701.63
431.387	700.96
431.763	692.59
432.138	668.64
432.514	691.24
432.89	709.09
433.265	722.65
433.641	685.82
434.016	721.52
434.392	728.07
434.767	744.12
435.143	748.41
435.518	781.63
435.894	774.17
436.269	777.79
436.644	789.99
437.02	773.04
437.395	818.92
437.77	787.73
438.145	821.63
438.52	828.86
438.895	822.31
439.271	794.51
439.646	845.13
440.021	847.62
440.395	842.65
440.77	854.17
441.145	845.13
441.52	864.57
441.895	855.75
442.27	895.3
442.645	880.16
443.019	891.01
443.394	901.63
443.769	913.83
444.143	908.86
444.518	932.14
444.892	910.67
445.267	909.76
445.641	947.05
446.016	955.19
446.39	928.29
446.764	958.35
447.139	964.9
447.513	977.79
447.887	961.06
448.262	967.84
448.636	981.17
449.01	965.58
449.384	1006.03
449.758	981.63
450.132	1009.65
450.506	999.48
450.88	1028.18
451.254	1013.94
451.628	1044.68
452.002	1070.21
452.376	1072.47
452.75	1050.33
453.123	1058.69
453.497	1093.49
453.871	1081.29
454.244	1133.04
454.618	1131.45
454.992	1143.66
455.365	1155.63
455.739	1161.96
456.112	1173.49
456.486	1188.17
456.859	1178.68
457.232	1238.12
457.606	1258.23
457.979	1242.18
458.352	1266.82
458.725	1279.02
459.099	1253.03
459.472	1314.27
459.845	1328.06
460.218	1350.2
460.591	1359.47
460.964	1362.18
461.337	1400.15
461.71	1395.63
462.083	1422.29
462.456	1445.8
462.829	1424.33
463.201	1444.21
463.574	1478.11
463.947	1505
464.32	1548.62
464.692	1539.13
465.065	1584.77
465.438	1591.1
465.81	1643.53
466.183	1628.39
466.555	1685.34
466.928	1707.26
467.3	1723.08
467.672	1728.95
468.045	1804.66
468.417	1779.12
468.789	1794.94
469.161	1852.56
469.534	1879.68
469.906	1935.5
470.278	1958.1
470.65	1952.22
471.022	2027.93
471.394	2079.45
471.766	2084.87
472.138	2149.96
472.51	2181.82
472.882	2270.86
473.253	2254.36
473.625	2292.55
473.997	2336.85
474.369	2422.04
474.74	2423.4
475.112	2495.49
475.484	2525.54
475.855	2608.7
476.227	2653
476.598	2750.39
476.97	2765.31
477.341	2850.28
477.713	2929.15
478.084	2979.54
478.455	3099.54
478.827	3123.94
479.198	3248.69
479.569	3269.48
479.94	3382.02
480.311	3451.84
480.682	3575
481.053	3645.06
481.424	3761.44
481.795	3786.75
482.166	3920.98
482.537	4010.02
482.908	4128.66
483.279	4240.98
483.65	4325.04
484.021	4497.69
484.391	4550.35
484.762	4600.51
485.133	4748.31
485.503	4805.26
485.874	4964.35
486.244	5066.27
486.615	5234.17
486.985	5323.89
487.356	5449.31
487.726	5529.98
488.097	5697.21
488.467	5734.5
488.837	5969.29
489.207	6056.07
489.578	6217.87
489.948	6323.41
490.318	6427.81
490.688	6529.73
491.058	6717.52
491.428	6836.16
491.798	7033.22
492.168	7086.78
492.538	7173.1
492.908	7396.83
493.278	7468.69
493.648	7585.52
494.017	7759.08
494.387	7856.93
494.757	7898.28
495.126	8048.11
495.496	8217.14
495.866	8291.27
496.235	8397.25
496.605	8457.36
496.974	8547.3
497.344	8743
497.713	8849.89
498.082	8962.43
498.452	9051.92
498.821	9117.68
499.19	9185.03
499.559	9341.18
499.928	9419.6
500.298	9505.92
500.667	9567.62
501.036	9557.22
501.405	9792.92
501.774	9818
502.143	9965.35
502.512	9978.68
502.88	10131.89
503.249	10064.33
503.618	10272.91
503.987	10328.27
504.356	10440.81
504.724	10433.13
505.093	10424.09
505.462	10592.9
505.83	10605.78
506.199	10787.02
506.567	10911.31
506.936	10839.45
507.304	11008.93
507.672	11010.97
508.041	11052.1
508.409	11122.15
508.777	11230.62
509.145	11340.22
509.514	11336.83
509.882	11413.67
510.25	11338.19
510.618	11509.49
510.986	11510.62
511.354	11512.65
511.722	11679.42
512.09	11733.43
512.458	11791.51
512.826	11815.24
513.193	11763.94
513.561	11899.31
513.929	11984.05
514.297	12055.01
514.664	12090.04
515.032	12112.86
515.4	12147.21
515.767	12170.03
516.135	12303.36
516.502	12136.14
516.869	12406.64
517.237	12318.73
517.604	12320.76
517.972	12420.65
518.339	12368.45
518.706	12383.13
519.073	12429.01
519.44	12516.46
519.808	12569.34
520.175	12523.7
520.542	12607.76
520.909	12652.73
521.276	12611.6
521.643	12779.73
522.009	12739.96
522.376	12765.95
522.743	12784.48
523.11	12887.08
523.477	12919.17
523.843	12908.77
524.21	13057.69
524.577	13104.25
524.943	13054.53
525.31	13113.96
525.676	13114.19
526.043	13137.92
526.409	13136.11
526.776	13242.77
527.142	13285.94
527.508	13295.43
527.874	13341.75
528.241	13294.07
528.607	13274.41
528.973	13363.67
529.339	13250.23
529.705	13352.83
530.071	13429.89
530.437	13427.85
530.803	13365.93
531.169	13420.17
531.535	13316.9
531.901	13358.02
532.267	13393.96
532.632	13365.48
532.998	13364.58
533.364	13420.17
533.73	13371.13
534.095	13427.85
534.461	13377.46
534.826	13327.97
535.192	13384.01
535.557	13382.2
535.923	13335.43
536.288	13311.92
536.653	13349.21
537.019	13197.35
537.384	13255.43
537.749	13345.6
538.114	13208.2
538.479	13169.55
538.845	13117.13
539.21	13056.34
539.575	13088.88
539.94	13060.86
540.305	13089.56
540.67	13050.46
541.034	13033.74
541.399	13001.42
541.764	12914.42
542.129	13021.76
542.494	12909.45
542.858	12913.06
543.223	12859.96
543.587	12917.13
543.952	12813.63
544.316	12726.4
544.681	12723.92
545.045	12718.27
545.41	12688.66
545.774	12629.91
546.138	12671.49
546.503	12634.88
546.867	12532.96
547.231	12596.91
547.595	12534.77
547.959	12577.25
548.324	12458.84
548.688	12478.05
549.052	12441.44
549.416	12377.71
549.779	12268.79
550.143	12328.22
550.507	12317.83
550.871	12280.54
551.235	12186.08
551.599	12295
551.962	12259.75
552.326	12244.16
552.689	12195.8
553.053	12129.13
553.417	12139.3
553.78	12206.87
554.143	12147.89
554.507	12018.85
554.87	12095.91
555.234	12107.89
555.597	12049.81
555.96	11998.96
556.323	12015.91
556.686	11949.47
557.05	12022.24
557.413	12007.33
557.776	11944.73
558.139	11993.31
558.502	11930.49
558.865	11923.03
559.228	12001.45
559.59	11923.26
559.953	12002.58
560.316	12031.73
560.679	11996.03
561.041	11982.24
561.404	12062.24
561.767	12075.57
562.129	11965.29
562.492	12022.69
562.854	12038.06
563.217	11975.24
563.579	12027.21
563.941	12034.44
564.304	11996.93
564.666	12074.89
565.028	12055.23
565.39	12043.26
565.753	12006.87
566.115	12045.97
566.477	12149.47
566.839	12011.17
567.201	12218.62
567.563	12224.95
567.925	12276.47
568.287	12163.93
568.648	12162.12
569.01	12177.04
569.372	12250.03
569.734	12190.6
570.095	12236.02
570.457	12313.76
570.819	12229.47
571.18	12248.45
571.542	12318.5
571.903	12237.6
572.265	12313.08
572.626	12278.05
572.987	12311.72
573.349	12344.94
573.71	12342.23
574.071	12340.88
574.432	12408.44
574.794	12528.89
575.155	12431.04
575.516	12299.07
575.877	12445.51
576.238	12356.47
576.599	12441.44
576.96	12385.85
577.32	12452.06
577.681	12458.16
578.042	12487.31
578.403	12480.31
578.763	12446.41
579.124	12442.57
579.485	12471.95
579.845	12434.66
580.206	12473.98
580.566	12484.6
580.927	12441.44
581.287	12471.49
581.648	12418.84
582.008	12475.11
582.368	12521.66
582.728	12457.26
583.089	12473.75
583.449	12372.74
583.809	12370.25
584.169	12469.46
584.529	12375.9
584.889	12473.98
585.249	12434.43
585.609	12304.49
585.969	12358.95
586.329	12385.17
586.688	12341.55
587.048	12391.72
587.408	12315.57
587.768	12406.19
588.127	12333.64
588.487	12312.18
588.846	12363.7
589.206	12245.51
589.565	12250.93
589.925	12312.85
590.284	12354.21
590.643	12270.14
591.003	12328
591.362	12269.47
591.721	12259.97
592.08	12318.28
592.44	12266.53
592.799	12242.8
593.158	12215.23
593.517	12248.45
593.876	12243.7
594.235	12210.03
594.593	12205.96
594.952	12201.22
595.311	12149.47
595.67	12203.7
596.029	12297.94
596.387	12253.19
596.746	12304.49
597.104	12218.62
597.463	12114.44
597.822	12118.51
598.18	12132.52
598.538	12115.35
598.897	12197.15
599.255	12124.84
599.613	12211.16
599.972	12142.01
600.33	12158.73
600.688	12134.55
601.046	12187.43
601.404	12207.77
601.762	12153.08
602.12	12260.88
602.478	12232.18
602.836	12171.16
603.194	12163.03
603.552	12198.28
603.91	12128.68
604.268	12176.36
604.625	12157.15
604.983	12213.42
605.341	12097.94
605.698	12201.67
606.056	12159.64
606.413	12203.25
606.771	12248
607.128	12238.05
607.485	12185.17
607.843	12176.13
608.2	12135.91
608.557	12280.76
608.914	12200.31
609.272	12244.61
609.629	12265.62
609.986	12344.49
610.343	12289.13
610.7	12352.4
611.057	12237.83
611.414	12290.93
611.771	12334.77
612.127	12409.57
612.484	12445.51
612.841	12392.85
613.198	12292.06
613.554	12372.51
613.911	12407.99
614.267	12388.11
614.624	12392.4
614.98	12342.68
615.337	12467.65
615.693	12425.62
616.05	12432.85
616.406	12543.36
616.762	12415
617.118	12450.7
617.475	12390.59
617.831	12532.74
618.187	12486.41
618.543	12488.44
618.899	12520.08
619.255	12520.53
619.611	12440.08
619.967	12562.11
620.323	12565.73
620.678	12459.74
621.034	12558.95
621.39	12423.13
621.746	12454.77
622.101	12641.43
622.457	12537.26
622.812	12520.76
623.168	12531.83
623.523	12544.26
623.879	12566.41
624.234	12493.19
624.589	12558.27
624.945	12617.93
625.3	12555.33
625.655	12518.95
626.01	12553.07
626.365	12531.61
626.72	12525.96
627.075	12568.67
627.43	12561.21
627.785	12516.46
628.14	12487.99
628.495	12598.95
628.85	12501.55
629.205	12421.33
629.559	12518.27
629.914	12464.26
630.269	12487.76
630.623	12417.03
630.978	12384.26
631.332	12447.99
631.687	12522.79
632.041	12418.16
632.396	12399.86
632.75	12388.56
633.104	12382.91
633.459	12291.84
633.813	12358.5
634.167	12267.66
634.521	12325.96
634.875	12344.49
635.229	12236.47
635.583	12229.47
635.937	12272.18
636.291	12179.52
636.645	12180.2
636.999	12191.73
637.352	12173.65
637.706	12128
638.06	12173.42
638.413	12138.62
638.767	12136.81
639.121	12086.19
639.474	12054.56
639.828	12037.38
640.181	12104.95
640.534	12111.96
640.888	12026.99
641.241	12019.3
641.594	12023.6
641.947	12015.23
642.301	12050.26
642.654	12005.29
643.007	12044.61
643.36	11997.83
643.713	11978.17
644.066	12051.39
644.419	11902.24
644.771	11878.29
645.124	11738.18
645.477	11768.69
645.83	11704.06
646.182	11702.25
646.535	11656.6
646.888	11633.32
647.24	11531.18
647.593	11672.19
647.945	11566.21
648.298	11578.64
648.65	11552.87
649.002	11511.97
649.355	11572.08
649.707	11601.23
650.059	11599.65
650.411	11841
650.763	11781.57
651.115	11918.97
651.467	11824.51
651.819	11879.65
652.171	11827.44
652.523	11839.42
652.875	11838.97
653.227	11819.31
653.578	11917.84
653.93	11853.21
654.282	11764.85
654.633	11729.37
654.985	11741.12
655.337	11798.52
655.688	11740.21
656.039	11852.98
656.391	11726.88
656.742	11767.56
657.094	11789.93
657.445	11914.45
657.796	11779.76
658.147	11704.28
658.498	11762.59
658.849	11742.02
659.2	11755.13
659.551	11719.65
659.902	11795.81
660.253	11751.29
660.604	11793.77
660.955	11739.99
661.306	11784.51
661.656	11843.26
662.007	11822.02
662.358	11906.76
662.708	11877.39
663.059	11812.08
663.409	11773.89
663.76	11896.14
664.11	11826.54
664.461	11868.57
664.811	11897.5
665.161	11886.88
665.511	11850.72
665.862	11888.46
666.212	11909.02
666.562	11879.87
666.912	11845.52
667.262	11795.58
667.612	11885.97
667.962	11916.93
668.312	11910.38
668.662	11860.89
669.011	11857.27
669.361	11867.67
669.711	11836.48
670.06	11816.6
670.41	11794.9
670.76	11804.17
671.109	11829.03
671.459	11732.08
671.808	11783.83
672.157	11836.93
672.507	11698.86
672.856	11710.84
673.205	11727.56
673.554	11776.15
673.904	11690.72
674.253	11748.35
674.602	11721.01
674.951	11536.6
675.3	11489.83
675.649	11698.41
675.998	11684.4
676.346	11680.1
676.695	11688.92
677.044	11623.61
677.393	11611.63
677.741	11579.99
678.09	11612.08
678.438	11587
678.787	11577.05
679.135	11637.39
679.484	11460.22
679.832	11464.06
680.181	11501.58
680.529	11472.65
680.877	11433.56
681.225	11435.82
681.573	11414.35
681.922	11416.83
682.27	11371.64
682.618	11359.88
682.966	11365.31
683.314	11381.58
683.661	11327.34
684.009	11301.58
684.357	11260.45
684.705	11232.66
685.053	11305.88
685.4	11270.85
685.748	11196.05
686.095	11238.08
686.443	11121.93
686.79	11066.56
687.138	11145.88
687.485	11100.46
687.832	11117.86
688.18	11115.15
688.527	10981.36
688.874	10984.53
689.221	11001.93
689.568	10916.05
689.915	10916.05
690.262	10889.16
690.609	10860.91
690.956	10780.01
691.303	10768.26
691.65	10780.01
691.997	10729.84
692.344	10715.61
692.69	10627.02
693.037	10553.58
693.383	10473.13
693.73	10521.94
694.077	10514.03
694.423	10577.76
694.769	10409.85
695.116	10413.24
695.462	10443.07
695.808	10337.54
696.155	10354.94
696.501	10235.39
696.847	10302.51
697.193	10128.05
697.539	10182.74
697.885	10063.42
698.231	10028.39
698.577	10088.96
698.923	10023.65
699.269	10027.04
699.614	9875.18
699.96	9880.38
700.306	9859.13
700.651	9839.47
700.997	9845.57
701.342	9760.15
701.688	9739.81
702.033	9664.79
702.379	9727.39
702.724	9627.5
703.069	9616.65
703.415	9578.24
703.76	9644.68
704.105	9524.23
704.45	9522.42
704.795	9495.08
705.14	9463.21
705.485	9494.17
705.83	9424.79
706.175	9384.57
706.52	9311.13
706.865	9359.94
707.209	9261.41
707.554	9264.12
707.899	9287.4
708.243	9194.52
708.588	9155.65
708.932	9169.66
709.277	9093.96
709.621	9132.15
709.966	9010.34
710.31	9051.47
710.654	8963.34
710.998	8974.86
711.342	8951.81
711.687	9006.27
712.031	8962.89
712.375	8834.3
712.719	8865.49
713.063	8895.54
713.407	8949.78
713.75	8834.75
714.094	8860.97
714.438	8750.01
714.782	8824.13
715.125	8741.2
715.469	8749.56
715.812	8624.14
716.156	8674.76
716.499	8688.54
716.843	8720.63
717.186	8597.47
717.53	8699.84
717.873	8677.47
718.216	8604.48
718.559	8552.05
718.902	8507.76
719.246	8605.61
719.589	8555.66
719.932	8538.26
720.275	8529.45
720.617	8560.41
720.96	8460.3
721.303	8574.87
721.646	8517.7
721.989	8477.25
722.331	8529
722.674	8456.01
723.016	8495.78
723.359	8489.23
723.701	8512.05
724.044	8398.15
724.386	8412.39
724.729	8430.24
725.071	8357.03
725.413	8351.83
725.755	8423.69
726.097	8392.28
726.439	8364.03
726.782	8386.63
727.124	8380.08
727.465	8323.35
727.807	8334.65
728.149	8368.1
728.491	8323.81
728.833	8304.37
729.175	8315.67
729.516	8304.37
729.858	8273.64
730.199	8313.41
730.541	8333.52
730.882	8298.27
731.224	8369.68
731.565	8245.39
731.906	8342.11
732.248	8278.38
732.589	8275.22
732.93	8234.54
733.271	8243.81
733.612	8278.84
733.953	8266.63
734.294	8252.17
734.635	8239.06
734.976	8275.22
735.317	8240.42
735.658	8234.77
735.999	8292.85
736.339	8235.45
736.68	8314.99
737.021	8238.61
737.361	8265.28
737.702	8319.51
738.042	8256.46
738.383	8298.95
738.723	8298.5
739.063	8326.74
739.404	8328.1
739.744	8328.55
740.084	8325.39
740.424	8326.74
740.764	8338.27
741.104	8461.88
741.444	8405.84
741.784	8376.23
742.124	8469.11
742.464	8463.69
742.804	8457.36
743.143	8463.46
743.483	8485.84
743.823	8486.74
744.162	8470.7
744.502	8516.57
744.841	8523.35
745.181	8554.99
745.52	8570.58
745.86	8628.43
746.199	8719.28
746.538	8732.38
746.877	8722.44
747.216	8799.27
747.556	8816.67
747.895	8812.16
748.234	8827.3
748.573	8929.21
748.911	8977.12
749.25	9028.65
749.589	9119.94
749.928	9174.18
750.267	9288.3
750.605	9327.62
750.944	9321.52
751.283	9453.95
751.621	9446.26
751.96	9570.55
752.298	9608.97
752.636	9799.02
752.975	9840.6
753.313	9878.57
753.651	10035.4
753.989	10069.52
754.327	10187.94
754.666	10236.75
755.004	10364.88
755.342	10526.23
755.679	10592.45
756.017	10777.75
756.355	10885.77
756.693	10894.13
757.031	11068.82
757.368	11244.18
757.706	11265.2
758.044	11435.59
758.381	11563.72
758.719	11797.61
759.056	11868.57
759.394	12026.08
759.731	12125.06
760.068	12279.41
760.405	12353.98
760.743	12563.24
761.08	12697.25
761.417	12856.12
761.754	12992.16
762.091	13194.64
762.428	13326.61
762.765	13443.22
763.102	13665.81
763.438	13732.03
763.775	13924.56
764.112	14041.17
764.449	14315.74
764.785	14347.38
765.122	14431.44
765.458	14614.26
765.795	14845.89
766.131	14914.14
766.467	15078.21
766.804	15184.87
767.14	15312.55
767.476	15416.28
767.812	15574.69
768.148	15797.51
768.485	15660.11
768.821	15873.21
769.157	16033.66
769.492	16124.73
769.828	16343.26
770.164	16273.65
770.5	16428
770.836	16540.77
771.171	16592.29
771.507	16786.41
771.842	16630.93
772.178	16776.92
772.513	16960.87
772.849	16947.76
773.184	17070.92
773.519	17115.67
773.855	17276.79
774.19	17163.12
774.525	17381.2
774.86	17383.68
775.195	17481.53
775.53	17588.42
775.865	17535.32
776.2	17527.18
776.535	17462.55
776.87	17512.94
777.205	17720.4
777.539	17662.09
777.874	17790.9
778.209	17713.62
778.543	17794.97
778.878	17753.84
779.212	17734.18
779.547	17840.84
779.881	17829.32
780.215	17845.59
780.55	17896.44
780.884	17877.91
781.218	17893.5
781.552	17973.5
781.886	17890.11
782.22	17891.92
782.554	17850.79
782.888	17764.01
783.222	17792.94
783.556	17817.12
783.889	17756.78
784.223	17708.42
784.557	17763.56
784.89	17797
785.224	17785.93
785.557	17736.67
785.891	17701.41
786.224	17714.07
786.558	17702.99
786.891	17528.99
787.224	17513.85
787.557	17601.3
787.891	17577.57
788.224	17599.04
788.557	17565.82
788.89	17600.4
789.223	17540.51
789.556	17471.59
789.888	17436.34
790.221	17455.09
790.554	17291.93
790.887	17292.61
791.219	17300.52
791.552	17239.96
791.884	17236.57
792.217	17174.87
792.549	17188.21
792.882	17037.7
793.214	17078.38
793.546	17161.77
793.879	17001.09
794.211	17008.32
794.543	17011.71
794.875	16882.45
795.207	17057.59
795.539	17007.42
795.871	16952.73
796.203	16887.65
796.535	16791.38
796.867	16808.56
797.198	16677.71
797.53	16667.77
797.862	16621.89
798.193	16708.44
798.525	16523.59
798.856	16562.91
799.188	16443.14
799.519	16398.85
799.85	16311.39
800.182	16345.97
800.513	16312.3
800.844	16237.27
801.175	16301.68
801.506	16222.13
801.837	16181.91
802.168	16165.41
802.499	16137.61
802.83	15999.99
803.161	16058.74
803.491	15959.09
803.822	15949.59
804.153	15937.84
804.483	15859.88
804.814	15789.37
805.145	15771.97
805.475	15671.64
805.805	15758.41
806.136	15710.73
806.466	15701.92
806.796	15750.73
807.126	15494.69
807.457	15616.95
807.787	15500.57
808.117	15398.65
808.447	15468.7
808.777	15404.75
809.107	15255.15
809.436	15390.29
809.766	15311.42
810.096	15330.18
810.426	15173.57
810.755	15238.65
811.085	15191.87
811.414	15186
811.744	15062.61
812.073	15175.6
812.403	15137.41
812.732	15034.14
813.061	15015.16
813.39	14933.8
813.719	14939
814.049	14978.77
814.378	14884.31
814.707	14871.21
815.036	14829.85
815.365	14732.23
815.693	14651.55
816.022	14737.88
816.351	14616.52
816.68	14564.09
817.008	14628.27
817.337	14547.6
817.665	14506.69
817.994	14468.05
818.322	14499.24
818.651	14447.49
818.979	14375.17
819.307	14520.03
819.636	14420.37
819.964	14303.54
820.292	14363.2
820.62	14461.95
820.948	14383.31
821.276	14364.33
821.604	14306.93
821.932	14396.64
822.259	14289.3
822.587	14267.61
822.915	14261.96
823.243	14276.64
823.57	14380.82
823.898	14290.2
824.225	14314.16
824.553	14284.33
824.88	14331.56
825.207	14302.86
825.535	14309.41
825.862	14259.7
826.189	14316.87
826.516	14350.99
826.843	14412.01
827.17	14340.37
827.497	14379.92
827.824	14354.16
828.151	14304.21
828.478	14344.44
828.805	14333.82
829.131	14332.69
829.458	14295.85
829.785	14257.44
830.111	14302.18
830.438	14426.92
830.764	14398.68
831.09	14385.12
831.417	14219.92
831.743	14411.78
832.069	14325.46
832.395	14211.34
832.722	14320.03
833.048	14223.99
833.374	14287.27
833.7	14251.11
834.026	14139.47
834.351	14277.32
834.677	14215.4
835.003	14228.51
835.329	14287.27
835.654	14115.74
835.98	14120.04
836.306	14141.73
836.631	14071.45
836.956	14143.09
837.282	14079.14
837.607	14033.71
837.932	14046.59
838.258	14133.82
838.583	13967.73
838.908	13924.79
839.233	14001.62
839.558	13977.67
839.883	13861.06
840.208	13787.17
840.533	13924.34
840.858	13808.86
841.182	13824.9
841.507	13794.17
841.832	13702.42
842.156	13670.78
842.481	13658.58
842.805	13728.86
843.13	13625.14
843.454	13652.71
843.778	13578.58
844.103	13503.11
844.427	13553.05
844.751	13501.07
845.075	13488.42
845.399	13431.24
845.723	13469.21
846.047	13378.59
846.371	13253.85
846.695	13251.36
847.019	13137.92
847.343	13058.6
847.666	13048.43
847.99	12994.87
848.313	13023.34
848.637	12896.57
848.96	12827.19
849.284	12901.99
849.607	12727.08
849.931	12679.4
850.254	12675.56
850.577	12591.94
850.9	12546.07
851.223	12434.21
851.546	12458.84
851.869	12350.82
852.192	12371.16
852.515	12283.48
852.838	12198.51
853.161	12310.37
853.483	12140.2
853.806	12099.3
854.129	12200.77
854.451	12042.35
854.774	12069.02
855.096	11949.02
855.419	12005.74
855.741	11893.2
856.063	11830.38
856.385	11754.68
856.708	11842.13
857.03	11728.24
857.352	11747.22
857.674	11736.37
857.996	11706.09
858.318	11616.6
858.64	11568.47
858.961	11535.25
859.283	11511.07
859.605	11456.15
859.926	11541.58
860.248	11494.34
860.57	11391.97
860.891	11390.84
861.212	11337.96
861.534	11319.89
861.855	11280.79
862.176	11337.29
862.498	11286.21
862.819	11324.63
863.14	11177.06
863.461	11218.19
863.782	11180.45
864.103	11217.97
864.424	11201.92
864.745	11184.07
865.065	11024.53
865.386	11067.92
865.707	11097.07
866.027	11068.37
866.348	10948.82
866.668	10999.89
866.989	11018.2
867.309	10876.73
867.63	10897.07
867.95	10927.58
868.27	10851.88
868.59	10891.87
868.91	10837.19
869.23	10810.97
869.55	10870.63
869.87	10816.17
870.19	10822.27
870.51	10773.91
870.83	10796.28
871.15	10788.83
871.469	10769.17
871.789	10723.52
872.109	10697.3
872.428	10618.44
872.748	10610.75
873.067	10552.22
873.386	10660.02
873.706	10557.19
874.025	10578.89
874.344	10523.07
874.663	10572.34
874.982	10542.51
875.301	10461.83
875.62	10433.58
875.939	10431.1
876.258	10472.45
876.577	10446.46
876.896	10410.98
877.214	10316.3
877.533	10366.92
877.852	10352.45
878.17	10379.12
878.489	10386.13
878.807	10399.46
879.125	10281.72
879.444	10316.52
879.762	10279.91
880.08	10299.57
880.398	10229.07
880.716	10217.54
881.034	10186.58
881.352	10153.59
881.67	10180.03
881.988	10131.67
882.306	10142.97
882.624	10029.75
882.941	9987.49
883.259	9984.78
883.577	9981.16
883.894	10058
884.212	10006.93
884.529	9992.24
884.846	9963.99
885.164	9950.66
885.481	9887.61
885.798	9942.52
886.115	9808.06
886.432	9848.06
886.75	9747.05
887.067	9790.89
887.383	9757.44
887.7	9773.94
888.017	9712.47
888.334	9720.15
888.651	9664.56
888.967	9640.38
889.284	9615.98
889.6	9619.59
889.917	9472.93
890.233	9505.02
890.55	9477.22
890.866	9489.2
891.182	9495.98
891.498	9430.67
891.815	9392.48
892.131	9369.2
892.447	9297.79
892.763	9267.96
893.079	9286.95
893.395	9259.83
893.71	9273.39
894.026	9190
894.342	9228.19
894.657	9039.72
894.973	9121.98
895.289	9098.48
895.604	9089.66
895.92	9008.99
896.235	8959.72
896.55	8980.06
896.865	8926.28
897.181	8951.13
897.496	8852.83
897.811	8837.92
898.126	8768.77
898.441	8828.88
898.756	8709.11
899.071	8684.93
899.386	8610.58
899.7	8580.52
900.015	8536.91
900.33	8525.61
900.644	8529.68
900.959	8557.02
901.273	8454.2
901.588	8403.13
901.902	8392.96
902.216	8356.57
902.531	8331.04
902.845	8348.44
903.159	8246.29
903.473	8203.58
903.787	8230.02
904.101	8168.1
904.415	8168.33
904.729	8071.61
905.042	8028.22
905.356	8063.25
905.67	8035.23
905.984	8055.34
906.297	8043.36
906.611	7853.31
906.924	7925.17
907.237	7900.54
907.551	7901.22
907.864	7825.74
908.177	7812.41
908.491	7745.06
908.804	7708.91
909.117	7714.78
909.43	7662.58
909.743	7589.81
910.056	7609.02
910.368	7508.23
910.681	7511.85
910.994	7476.6
911.307	7480.66
911.619	7447.9
911.932	7405.86
912.244	7323.61
912.557	7367.45
912.869	7294.46
913.181	7298.07
913.494	7282.03
913.806	7213.55
914.118	7214.46
914.43	7150.73
914.742	7173.33
915.054	7138.08
915.366	7021.69
915.678	7095.36
915.99	7018.76
916.302	6945.76
916.613	6901.92
916.925	6967.23
917.236	6923.62
917.548	6877.06
917.859	6870.06
918.171	6835.26
918.482	6763.17
918.794	6771.31
919.105	6764.53
919.416	6689.27
919.727	6706.22
920.038	6667.8
920.349	6640.01
920.66	6567.24
920.971	6584.87
921.282	6576.96
921.593	6542.84
921.903	6513.46
922.214	6519.56
922.525	6440.01
922.835	6426.68
923.146	6400.47
923.456	6409.05
923.767	6357.08
924.077	6368.38
924.387	6313.69
924.697	6257.19
925.008	6226.69
925.318	6261.71
925.628	6158.44
925.938	6128.16
926.248	6084.32
926.558	6115.73
926.867	6139.23
927.177	6092.23
927.487	6066.24
927.796	6014.26
928.106	5933.81
928.416	5999.57
928.725	5951.67
929.034	5955.73
929.344	5970.87
929.653	5901.95
929.962	5828.05
930.271	5821.27
930.581	5806.13
930.89	5808.39
931.199	5729.75
931.508	5707.6
931.817	5722.75
932.125	5678.23
932.434	5683.88
932.743	5633.03
933.051	5591.68
933.36	5562.75
933.669	5593.03
933.977	5566.36
934.286	5542.86
934.594	5473.26
934.902	5492.69
935.21	5450.66
935.519	5444.33
935.827	5417.67
936.135	5374.73
936.443	5355.97
936.751	5365.24
937.059	5344.22
937.367	5233.49
937.674	5279.37
937.982	5277.56
938.29	5247.96
938.597	5240.95
938.905	5161.63
939.213	5122.53
939.52	5101.29
939.827	5104.46
940.135	5108.75
940.442	5111.24
940.749	5064.01
941.056	5074.85
941.363	4974.06
941.67	4997.11
941.977	4997.11
942.284	4961.86
942.591	4912.6
942.898	4941.52
943.205	4913.27
943.511	4875.54
943.818	4873.05
944.125	4827.63
944.431	4796.89
944.738	4802.09
945.044	4748.99
945.35	4738.14
945.657	4658.82
945.963	4683.22
946.269	4684.35
946.575	4685.03
946.881	4702.21
947.187	4604.36
947.493	4620.4
947.799	4601.19
948.105	4624.47
948.41	4580.4
948.716	4537.47
949.022	4492.27
949.327	4512.61
949.633	4449.33
949.938	4451.37
950.244	4432.16
950.549	4398.49
950.854	4380.41
951.16	4367.07
951.465	4322.78
951.77	4373.85
952.075	4312.39
952.38	4340.41
952.685	4293.63
952.99	4238.26
953.294	4229.22
953.599	4226.97
953.904	4244.59
954.209	4188.55
954.513	4175.67
954.818	4137.7
955.122	4103.35
955.426	4125.27
955.731	4116.46
956.035	4084.14
956.339	4097.7
956.643	4045.95
956.948	4046.18
957.252	4056.8
957.556	3994.65
957.86	3963.02
958.163	3977.71
958.467	3984.49
958.771	3944.03
959.075	3923.24
959.378	3883.25
959.682	3857.71
959.985	3892.96
960.289	3812.29
960.592	3833.76
960.896	3820.65
961.199	3799.63
961.502	3760.31
961.805	3765.73
962.108	3753.98
962.411	3717.15
962.714	3710.14
963.017	3696.36
963.32	3684.15
963.623	3716.24
963.926	3702.46
964.228	3631.05
964.531	3620.88
964.833	3665.17
965.136	3631.05
965.438	3568.9
965.741	3595.34
966.043	3538.17
966.345	3521.45
966.648	3564.38
966.95	3554.89
967.252	3489.36
967.554	3454.1
967.856	3467.66
968.158	3417.72
968.46	3450.71
968.761	3405.29
969.063	3402.81
969.365	3407.1
969.666	3334.11
969.968	3320.32
970.269	3355.35
970.571	3356.71
970.872	3323.26
971.174	3280.55
971.475	3254.56
971.776	3246.65
972.077	3254.79
972.378	3261.34
972.679	3248.69
972.98	3196.03
973.281	3204.39
973.582	3231.74
973.883	3158.97
974.183	3146.32
974.484	3144.51
974.785	3146.09
975.085	3132.08
975.386	3092.08
975.686	3101.12
975.986	3071.97
976.287	3057.96
976.587	3024.96
976.887	3057.05
977.187	3043.72
977.487	3024.51
977.787	2954.91
978.087	3032.87
978.387	2935.02
978.687	2975.02
978.987	2924.85
979.286	2912.88
979.586	2912.2
979.885	2895.47
980.185	2872.65
980.484	2866.1
980.784	2865.87
981.083	2856.61
981.382	2860.9
981.682	2827.45
981.981	2781.13
982.28	2784.07
982.579	2787
982.878	2786.33
983.177	2746.1
983.475	2744.52
983.774	2727.12
984.073	2738.19
984.372	2723.28
984.67	2713.33
984.969	2689.83
985.267	2683.73
985.566	2667.23
985.864	2657.29
986.162	2670.4
986.461	2649.15
986.759	2595.82
987.057	2580
987.355	2548.14
987.653	2577.07
987.951	2574.35
988.249	2532.55
988.547	2598.99
988.844	2546.56
989.142	2552.21
989.44	2566.22
989.737	2495.03
990.035	2454.36
990.332	2478.31
990.63	2457.75
990.927	2444.87
991.224	2453.68
991.521	2435.37
991.819	2404.87
992.116	2424.98
992.413	2408.71
992.71	2362.83
993.006	2376.62
993.303	2392.44
993.6	2359.44
993.897	2370.52
994.193	2336.62
994.49	2325.77
994.787	2346.11
995.083	2303.17
995.379	2275.6
995.676	2291.42
995.972	2275.15
996.268	2239.67
996.565	2256.62
996.861	2234.02
997.157	2211.42
997.453	2194.02
997.749	2163.52
998.044	2172.1
998.34	2171.2
998.636	2210.07
998.932	2161.93
999.227	2169.17
999.523	2124.87
999.818	2075.16
1000.114	2109.28
1000.409	2114.25
1000.704	2074.48
1001	2098.89
1001.295	2060.69
1001.59	2048.94
1001.885	2026.8
1002.18	2033.12
1002.475	2043.97
1002.77	1983.63
1003.065	1989.28
1003.359	1997.87
1003.654	1984.99
1003.949	1984.54
1004.243	1994.26
1004.538	1933.24
1004.832	1885.11
1005.127	1929.17
1005.421	1912.68
1005.715	1890.98
1006.009	1852.56
1006.304	1874.48
1006.598	1864.77
1006.892	1893.24
1007.186	1878.78
1007.48	1841.94
1007.773	1839.46
1008.067	1816.41
1008.361	1797.88
1008.655	1809.4
1008.948	1804.88
1009.242	1809.63
1009.535	1764.21
1009.829	1760.14
1010.122	1750.65
1010.415	1717.43
1010.708	1706.35
1011.001	1694.38
1011.295	1703.19
1011.588	1658.9
1011.881	1657.77
1012.173	1689.18
1012.466	1686.69
1012.759	1679.91
1013.052	1663.87
1013.344	1667.03
1013.637	1622.06
1013.93	1651.89
1014.222	1618.67
1014.514	1619.12
1014.807	1605.79
1015.099	1577.77
1015.391	1558.33
1015.683	1578.9
1015.976	1578
1016.268	1538.22
1016.56	1540.26
1016.851	1531.22
1017.143	1513.36
1017.435	1501.39
1017.727	1492.35
1018.018	1494.83
1018.31	1467.26
1018.602	1479.47
1018.893	1487.83
1019.185	1435.63
1019.476	1462.29
1019.767	1432.69
1020.058	1441.05
1020.35	1445.34
1020.641	1435.17
1020.932	1404.67
1021.223	1399.92
1021.514	1348.17
1021.804	1373.93
1022.095	1353.59
1022.386	1329.19
1022.677	1340.49
1022.967	1358.11
1023.258	1338.68
1023.548	1314.95
1023.839	1312.69
1024.129	1298.68
1024.419	1301.84
1024.709	1279.92
1025	1295.74
1025.29	1260.49
1025.58	1257.1
1025.87	1272.47
1026.16	1263.88
1026.449	1237.21
1026.739	1240.15
1027.029	1230.21
1027.319	1214.39
1027.608	1198.57
1027.898	1203.09
1028.187	1175.29
1028.477	1197.67
1028.766	1211.45
1029.055	1181.62
1029.344	1149.53
1029.634	1147.27
1029.923	1139.36
1030.212	1122.64
1030.501	1128.06
1030.79	1126.93
1031.078	1126.71
1031.367	1114.5
1031.656	1124.45
1031.945	1082.42
1032.233	1078.8
1032.522	1097.78
1032.81	1076.77
1033.099	1062.08
1033.387	1057.1
1033.675	1061.62
1033.963	1058.23
1034.251	1048.74
1034.54	1035.86
1034.828	1028.86
1035.116	1027.28
1035.403	994.06
1035.691	1035.41
1035.979	1019.82
1036.267	1005.58
1036.554	1001.51
1036.842	973.94
1037.129	978.91
1037.417	977.33
1037.704	952.93
1037.992	972.14
1038.279	954.28
1038.566	933.49
1038.853	933.49
1039.14	933.49
