Data from hue_220_FLMS001491_00043.txt Node
Date: Tue Feb 07 16:39:30 GMT 2017
User: dcchb
Spectrometer: FLMS00149
Trigger mode: 0
Integration Time (sec): 2.000000E-2
Scans to average: 10
Electric dark correction enabled: true
Nonlinearity correction enabled: false
Boxcar width: 0
XAxis mode: Wavelengths
Number of Pixels in Spectrum: 2048
>>>>>Begin Spectral Data<<<<<
341.393	-5.25
341.776	-5.25
342.16	-5.25
342.543	-50.68
342.927	-80.05
343.31	-81.41
343.693	-59.26
344.077	-52.03
344.46	-60.85
344.843	-45.93
345.226	-41.64
345.61	-44.58
345.993	-31.24
346.376	-8.64
346.759	10.79
347.142	45.14
347.525	43.78
347.908	59.15
348.291	62.54
348.674	93.95
349.057	110.22
349.44	129.21
349.823	116.55
350.206	165.59
350.588	196.32
350.971	198.36
351.354	217.11
351.737	229.77
352.119	267.73
352.502	264.57
352.884	264.8
353.267	287.85
353.65	293.5
354.032	308.41
354.414	309.99
354.797	294.85
355.179	333.49
355.562	331.91
355.944	315.19
356.326	346.83
356.709	333.49
357.091	322.87
357.473	337.79
357.855	329.43
358.238	345.02
358.62	341.63
359.002	322.65
359.384	340.95
359.766	329.2
360.148	334.62
360.53	326.71
360.912	338.24
361.294	327.17
361.676	327.62
362.057	327.84
362.439	320.39
362.821	316.55
363.203	314.74
363.584	316.32
363.966	317.68
364.348	303.89
364.729	332.59
365.111	321.74
365.493	312.48
365.874	301.63
366.256	314.29
366.637	309.31
367.019	309.09
367.4	307.96
367.781	298.01
368.163	314.51
368.544	291.91
368.925	319.94
369.306	317.9
369.688	312.25
370.069	305.7
370.45	314.29
370.831	322.42
371.212	296.43
371.593	300.73
371.974	315.64
372.355	318.58
372.736	319.71
373.117	311.57
373.498	310.67
373.879	313.38
374.26	300.95
374.641	319.94
375.021	311.12
375.402	310.44
375.783	322.87
376.163	317.45
376.544	309.31
376.925	308.64
377.305	318.13
377.686	319.03
378.066	317.45
378.447	323.55
378.827	310.67
379.208	324.91
379.588	322.65
379.968	325.13
380.349	316.55
380.729	304.34
381.109	327.39
381.489	319.71
381.87	323.1
382.25	352.25
382.63	322.19
383.01	343.44
383.39	339.6
383.77	319.71
384.15	327.62
384.53	341.4
384.91	342.99
385.29	341.63
385.67	356.54
386.049	356.54
386.429	352.93
386.809	349.09
387.189	353.38
387.568	352.48
387.948	332.36
388.328	360.84
388.707	350.22
389.087	376.43
389.466	371.23
389.846	375.3
390.225	380.95
390.605	344.57
390.984	345.25
391.363	358.58
391.743	361.74
392.122	341.63
392.501	357.22
392.881	391.12
393.26	367.39
393.639	362.19
394.018	363.78
394.397	387.5
394.776	386.15
395.155	371.01
395.534	406.49
395.913	390.22
396.292	388.86
396.671	386.37
397.05	387.05
397.429	405.81
397.808	403.77
398.186	380.95
398.565	409.65
398.944	386.15
399.323	406.71
399.701	389.99
400.08	407.84
400.458	411.01
400.837	429.08
401.215	411.91
401.594	410.55
401.972	414.62
402.351	443.32
402.729	434.28
403.107	406.94
403.486	417.79
403.864	414.17
404.242	431.34
404.62	459.59
404.999	462.3
405.377	481.96
405.755	461.4
406.133	457.78
406.511	446.49
406.889	455.07
407.267	490.1
407.645	487.84
408.023	493.49
408.401	484.68
408.779	514.28
409.156	499.82
409.534	504.11
409.912	516.77
410.29	523.55
410.667	538.69
411.045	529.65
411.422	553.38
411.8	563.09
412.178	573.94
412.555	581.4
412.933	585.69
413.31	573.49
413.687	624.79
414.065	614.84
414.442	616.2
414.819	645.8
415.197	645.58
415.574	645.8
415.951	666.14
416.328	665.46
416.705	652.36
417.082	661.62
417.46	687.61
417.837	689.42
418.214	693.71
418.591	723.99
418.967	702.75
419.344	720.38
419.721	730.09
420.098	744.1
420.475	765.8
420.852	739.59
421.228	747.27
421.605	784.33
421.982	815.97
422.358	840.6
422.735	827.94
423.111	826.14
423.488	874.27
423.864	886.25
424.241	872.91
424.617	869.3
424.994	909.75
425.37	932.12
425.746	912.24
426.123	932.12
426.499	968.73
426.875	975.29
427.251	976.19
427.627	1013.93
428.003	999.24
428.379	1021.39
428.756	1033.59
429.132	1052.35
429.507	1058.67
429.883	1081.72
430.259	1090.76
430.635	1079.24
431.011	1089.18
431.387	1101.84
431.763	1140.7
432.138	1139.57
432.514	1164.21
432.89	1188.84
433.265	1237.65
433.641	1228.61
434.016	1258.44
434.392	1284.43
434.767	1335.28
435.143	1304.32
435.518	1339.57
435.894	1343.86
436.269	1371.88
436.644	1428.83
437.02	1429.06
437.395	1443.52
437.77	1451.2
438.145	1489.62
438.52	1533.24
438.895	1556.51
439.271	1555.16
439.646	1613.91
440.021	1610.07
440.395	1604.87
440.77	1637.19
441.145	1643.74
441.52	1691.42
441.895	1704.76
442.27	1695.49
442.645	1690.29
443.019	1741.14
443.394	1742.27
443.769	1781.37
444.143	1760.58
444.518	1834.47
444.892	1830.4
445.267	1838.09
445.641	1880.12
446.016	1833.12
446.39	1870.85
446.764	1897.75
447.139	1909.27
447.513	1923.73
447.887	1895.49
448.262	1920.8
448.636	1949.95
449.01	1994.47
449.384	1981.81
449.758	2007.57
450.132	2025.2
450.506	2050.06
450.88	2059.1
451.254	2045.09
451.628	2088.93
452.002	2114.24
452.376	2136.16
452.75	2159.21
453.123	2181.13
453.497	2177.97
453.871	2208.47
454.244	2256.83
454.618	2252.09
454.992	2283.95
455.365	2288.24
455.739	2365.76
456.112	2382.48
456.486	2373.21
456.859	2450.27
457.232	2477.84
457.606	2428.13
457.979	2445.98
458.352	2510.84
458.725	2548.35
459.099	2545.19
459.472	2563.27
459.845	2592.64
460.218	2608.91
460.591	2654.79
460.964	2654.34
461.337	2723.26
461.71	2750.15
462.083	2786.54
462.456	2822.47
462.829	2791.06
463.201	2862.92
463.574	2906.99
463.947	2910.6
464.32	2970.94
464.692	2975.01
465.065	2996.25
465.438	3074.44
465.81	3081.9
466.183	3133.87
466.555	3182.01
466.928	3198.73
467.3	3215.23
467.672	3260.65
468.045	3332.96
468.417	3305.85
468.789	3356.24
469.161	3390.14
469.534	3432.85
469.906	3505.61
470.278	3504.03
470.65	3542
471.022	3584.03
471.394	3662.9
471.766	3689.56
472.138	3750.35
472.51	3812.05
472.882	3884.14
473.253	3890.91
473.625	3941.31
473.997	4014.75
474.369	3997.58
474.74	4063.34
475.112	4138.14
475.484	4188.53
475.855	4264.01
476.227	4281.19
476.598	4386.72
476.97	4420.17
477.341	4457.23
477.713	4606.6
478.084	4572.48
478.455	4696.09
478.827	4753.26
479.198	4798.01
479.569	4859.93
479.94	5003.65
480.311	4970.43
480.682	5100.15
481.053	5217.43
481.424	5283.65
481.795	5308.05
482.166	5384.43
482.537	5436.41
482.908	5496.07
483.279	5568.38
483.65	5657.65
484.021	5739.23
484.391	5781.94
484.762	5866
485.133	5875.5
485.503	5948.71
485.874	6058.99
486.244	6173.57
486.615	6187.35
486.985	6225.77
487.356	6387.8
487.726	6456.72
488.097	6518.87
488.467	6524.52
488.837	6633.89
489.207	6689.71
489.578	6819.88
489.948	6872.76
490.318	6883.83
490.688	6966.31
491.058	7007.89
491.428	7060.77
491.798	7196.59
492.168	7260.54
492.538	7297.83
492.908	7365.85
493.278	7373.76
493.648	7439.07
494.017	7465.28
494.387	7545.96
494.757	7521.33
495.126	7698.95
495.496	7699.85
495.866	7716.58
496.235	7827.08
496.605	7926.97
496.974	7924.03
497.344	7952.95
497.713	7939.62
498.082	8014.65
498.452	8100.52
498.821	8063.69
499.19	8098.04
499.559	8204.93
499.928	8171.03
500.298	8237.69
500.667	8283.12
501.036	8254.19
501.405	8399.72
501.774	8392.04
502.143	8417.12
502.512	8435.65
502.88	8480.4
503.249	8441.08
503.618	8529.89
503.987	8601.07
504.356	8606.72
504.724	8577.35
505.093	8578.48
505.462	8646.95
505.83	8709.55
506.199	8724.23
506.567	8835.42
506.936	8770.33
507.304	8858.92
507.672	8850.11
508.041	8951.57
508.409	8982.08
508.777	8926.94
509.145	9085.58
509.514	8991.8
509.882	9036.32
510.25	8978.24
510.618	9035.64
510.986	9040.61
511.354	9098.24
511.722	9210.1
512.09	9241.51
512.458	9153.6
512.826	9225.69
513.193	9179.14
513.561	9231.57
513.929	9265.24
514.297	9378.23
514.664	9335.97
515.032	9403.54
515.4	9340.94
515.767	9380.94
516.135	9392.46
516.502	9327.61
516.869	9448.06
517.237	9462.29
517.604	9420.26
517.972	9462.52
518.339	9436.98
518.706	9461.16
519.073	9404.44
519.44	9472.24
519.808	9483.76
520.175	9505.23
520.542	9555.85
520.909	9592.01
521.276	9533.03
521.643	9618.22
522.009	9640.37
522.376	9620.93
522.743	9570.09
523.11	9720.14
523.477	9734.83
523.843	9761.95
524.21	9781.83
524.577	9815.28
524.943	9772.79
525.31	9805.34
525.676	9897.31
526.043	9829.97
526.409	9860.25
526.776	9912
527.142	9877.65
527.508	9898.67
527.874	9915.39
528.241	9946.12
528.607	10001.26
528.973	9964.88
529.339	9940.02
529.705	9987.7
530.071	9991.32
530.437	10036.29
530.803	10008.27
531.169	10056.63
531.535	9980.47
531.901	9999.23
532.267	9981.15
532.632	10004.88
532.998	9968.72
533.364	10008.95
533.73	9987.03
534.095	9980.7
534.461	9977.99
534.826	9998.32
535.192	9977.08
535.557	10028.38
535.923	9919.68
536.288	9954.03
536.653	9919.91
537.019	9921.49
537.384	9827.03
537.749	9905.45
538.114	9830.19
538.479	9822.74
538.845	9860.48
539.21	9770.99
539.575	9822.96
539.94	9739.12
540.305	9844.43
540.67	9782.06
541.034	9758.33
541.399	9690.99
541.764	9749.29
542.129	9677.88
542.494	9708.16
542.858	9735.05
543.223	9684.89
543.587	9721.27
543.952	9614.83
544.316	9623.42
544.681	9621.61
545.045	9600.82
545.41	9627.04
545.774	9556.08
546.138	9568.28
546.503	9496.64
546.867	9519.24
547.231	9551.56
547.595	9475.85
547.959	9511.56
548.324	9441.5
548.688	9434.72
549.052	9416.65
549.416	9323.09
549.779	9341.17
550.143	9320.15
550.507	9346.36
550.871	9377.78
551.235	9246.71
551.599	9318.79
551.962	9363.54
552.326	9233.83
552.689	9338.91
553.053	9239.7
553.417	9199.48
553.78	9367.15
554.143	9183.2
554.507	9209.19
554.87	9203.32
555.234	9285.8
555.597	9145.24
555.96	9160.61
556.323	9208.29
556.686	9205.8
557.05	9291.22
557.413	9165.58
557.776	9196.76
558.139	9228.18
558.502	9182.07
558.865	9142.53
559.228	9278.8
559.59	9122.64
559.953	9245.8
560.316	9302.3
560.679	9205.13
561.041	9215.29
561.404	9216.65
561.767	9276.08
562.129	9169.19
562.492	9310.43
562.854	9274.28
563.217	9178.69
563.579	9234.5
563.941	9243.99
564.304	9206.48
564.666	9306.59
565.028	9307.04
565.39	9287.38
565.753	9312.02
566.115	9340.26
566.477	9293.26
566.839	9378.45
567.201	9377.55
567.563	9376.42
567.925	9481.28
568.287	9423.65
568.648	9458.68
569.01	9457.77
569.372	9510.2
569.734	9462.52
570.095	9551.1
570.457	9584.32
570.819	9542.52
571.18	9524.44
571.542	9553.36
571.903	9553.36
572.265	9585.68
572.626	9623.65
572.987	9664.77
573.349	9565.57
573.71	9699.35
574.071	9700.03
574.432	9730.08
574.794	9703.42
575.155	9682.4
575.516	9652.35
575.877	9780.93
576.238	9767.14
576.599	9825
576.96	9768.5
577.32	9775.05
577.681	9892.56
578.042	9903.41
578.403	9868.84
578.763	9951.09
579.124	9910.42
579.485	9973.92
579.845	9972.79
580.206	9980.7
580.566	9967.14
580.927	10046.23
581.287	10099.11
581.648	10030.87
582.008	10055.5
582.368	10124.65
582.728	10125.1
583.089	10145.89
583.449	10179.34
583.809	10130.75
584.169	10122.62
584.529	10159.45
584.889	10215.27
585.249	10163.29
585.609	10113.12
585.969	10184.53
586.329	10227.92
586.688	10205.32
587.048	10284.87
587.408	10277.64
587.768	10280.13
588.127	10248.71
588.487	10261.59
588.846	10350.41
589.206	10342.04
589.565	10278.77
589.925	10424.53
590.284	10320.58
590.643	10333.68
591.003	10440.12
591.362	10415.26
591.721	10415.94
592.08	10391.53
592.44	10441.93
592.799	10442.38
593.158	10427.92
593.517	10446.22
593.876	10535.94
594.235	10481.25
594.593	10446
594.952	10511.98
595.311	10493.45
595.67	10460.23
596.029	10506.11
596.387	10539.33
596.746	10618.87
597.104	10463.4
597.463	10499.78
597.822	10610.06
598.18	10522.6
598.538	10484.64
598.897	10605.31
599.255	10546.56
599.613	10713.56
599.972	10520.34
600.33	10584.3
600.688	10524.86
601.046	10630.17
601.404	10623.39
601.762	10718.98
602.12	10714.01
602.478	10730.96
602.836	10719.89
603.194	10634.92
603.552	10666.78
603.91	10604.64
604.268	10692.09
604.625	10673.34
604.983	10762.15
605.341	10654.58
605.698	10807.34
606.056	10744.29
606.413	10650.51
606.771	10733.22
607.128	10712.2
607.485	10725.99
607.843	10731.64
608.2	10734.12
608.557	10819.55
608.914	10841.47
609.272	10845.76
609.629	10827.23
609.986	10916.27
610.343	10834.23
610.7	10879.43
611.057	10872.65
611.414	10877.17
611.771	10869.04
612.127	10867.91
612.484	10928.02
612.841	11006.21
613.198	10928.24
613.554	10987.68
613.911	10943.38
614.267	11040.33
614.624	11005.53
614.98	10940.9
615.337	11019.09
615.693	11022.48
616.05	11015.7
616.406	11135.24
616.762	11097.73
617.118	11009.6
617.475	11077.39
617.831	11105.19
618.187	11060.9
618.543	11115.13
618.899	11147.22
619.255	11100.44
619.611	11135.7
619.967	11205.07
620.323	11217.28
620.678	11117.39
621.034	11045.98
621.39	11107.22
621.746	11110.39
622.101	11226.09
622.457	11121.01
622.812	11098.41
623.168	11125.75
623.523	11105.19
623.879	11201.91
624.234	11119.43
624.589	11147.67
624.945	11003.95
625.3	11137.96
625.655	11103.83
626.01	11139.09
626.365	11116.49
626.72	11133.89
627.075	11129.59
627.43	11114.68
627.785	11101.35
628.14	11157.62
628.495	11065.87
628.85	11105.87
629.205	11172.53
629.559	11134.11
629.914	11038.3
630.269	11061.35
630.623	11038.75
630.978	11038.07
631.332	11152.87
631.687	11053.44
632.041	11062.93
632.396	11012.76
632.75	11046.21
633.104	11010.5
633.459	10900.67
633.813	10976.6
634.167	10935.25
634.521	10916.72
634.875	10899.32
635.229	10847.79
635.583	10862.71
635.937	10829.72
636.291	10831.52
636.645	10855.48
636.999	10793.56
637.352	10806.67
637.706	10732.32
638.06	10803.95
638.413	10782.71
638.767	10746.33
639.121	10738.19
639.474	10712.43
639.828	10696.39
640.181	10759.21
640.534	10700.45
640.888	10734.35
641.241	10690.96
641.594	10671.98
641.947	10707.46
642.301	10678.98
642.654	10740.23
643.007	10699.78
643.36	10641.47
643.713	10612.32
644.066	10682.83
644.419	10690.96
644.771	10593.79
645.124	10493.45
645.477	10458.88
645.83	10385.89
646.182	10388.14
646.535	10361.03
646.888	10324.19
647.24	10265.44
647.593	10306.11
647.945	10285.32
648.298	10200.35
648.65	10205.1
649.002	10138.21
649.355	10259.79
649.707	10339.11
650.059	10313.34
650.411	10390.86
650.763	10440.57
651.115	10529.16
651.467	10491.19
651.819	10489.61
652.171	10471.98
652.523	10479.44
652.875	10501.59
653.227	10406.9
653.578	10564.86
653.93	10516.96
654.282	10399.67
654.633	10406.45
654.985	10463.4
655.337	10438.09
655.688	10488.48
656.039	10474.92
656.391	10452.55
656.742	10440.35
657.094	10476.05
657.445	10410.97
657.796	10495.49
658.147	10450.97
658.498	10508.59
658.849	10519.89
659.2	10541.36
659.551	10483.74
659.902	10476.05
660.253	10496.16
660.604	10585.43
660.955	10412.1
661.306	10510.18
661.656	10446.45
662.007	10542.27
662.358	10555.6
662.708	10531.64
663.059	10487.58
663.409	10488.26
663.76	10581.81
664.11	10536.84
664.461	10529.84
664.811	10566.45
665.161	10550.85
665.511	10566.67
665.862	10583.62
666.212	10503.85
666.562	10526.45
666.912	10495.26
667.262	10471.31
667.612	10568.93
667.962	10462.27
668.312	10517.41
668.662	10500.01
669.011	10538.65
669.361	10528.03
669.711	10446
670.06	10511.31
670.41	10476.5
670.76	10444.19
671.109	10494.81
671.459	10431.99
671.808	10424.3
672.157	10477.18
672.507	10446.45
672.856	10395.83
673.205	10450.29
673.554	10424.75
673.904	10398.09
674.253	10423.85
674.602	10377.52
674.951	10238.09
675.3	10112.9
675.649	10336.17
675.998	10309.05
676.346	10288.94
676.695	10367.35
677.044	10313.34
677.393	10309.73
677.741	10254.59
678.09	10307.7
678.438	10266.57
678.787	10246
679.135	10334.59
679.484	10238.09
679.832	10251.65
680.181	10140.02
680.529	10206.45
680.877	10187.7
681.225	10155.38
681.573	10187.02
681.922	10172.78
682.27	10052.11
682.618	10088.04
682.966	10100.24
683.314	10095.05
683.661	10071.77
684.009	9953.13
684.357	10013.92
684.705	9999.68
685.053	9988.16
685.4	9966.69
685.748	9924.2
686.095	9948.16
686.443	9837.2
686.79	9837.88
687.138	9795.62
687.485	9873.58
687.832	9748.39
688.18	9827.71
688.527	9705
688.874	9731.89
689.221	9650.09
689.568	9650.99
689.915	9657.99
690.262	9544.33
690.609	9606.02
690.956	9552.01
691.303	9508.17
691.65	9490.32
691.997	9478.56
692.344	9397.66
692.69	9449.19
693.037	9435.18
693.383	9307.5
693.73	9366.02
694.077	9203.32
694.423	9265.01
694.769	9232.7
695.116	9208.74
695.462	9142.53
695.808	9133.94
696.155	9150.21
696.501	9068.18
696.847	9156.09
697.193	9015.3
697.539	8977.79
697.885	8930.56
698.231	8968.3
698.577	8876.09
698.923	8885.81
699.269	8789.54
699.614	8723.33
699.96	8853.04
700.306	8824.8
700.651	8756.55
700.997	8663.67
701.342	8692.82
701.688	8577.57
702.033	8545.03
702.379	8519.27
702.724	8540.06
703.069	8620.51
703.415	8458.48
703.76	8483.79
704.105	8414.19
704.45	8394.98
704.795	8362.66
705.14	8343
705.485	8309.56
705.83	8226.85
706.175	8247.18
706.52	8312.27
706.865	8237.47
707.209	8182.1
707.554	8172.38
707.899	8160.41
708.243	8072.05
708.588	8088.54
708.932	8027.53
709.277	8059.17
709.621	8021.88
709.966	8019.85
710.31	8030.69
710.654	7938.04
710.998	7931.94
711.342	7976.68
711.687	7898.94
712.031	7884.03
712.375	7853.52
712.719	7849.68
713.063	7818.27
713.407	7785.05
713.75	7806.07
714.094	7824.6
714.438	7733.07
714.782	7769.91
715.125	7747.08
715.469	7668.44
715.812	7711.38
716.156	7616.92
716.499	7637.03
716.843	7687.88
717.186	7621.44
717.53	7722.9
717.873	7667.31
718.216	7650.82
718.559	7592.06
718.902	7536.92
719.246	7602
719.589	7565.62
719.932	7479.97
720.275	7499.18
720.617	7561.33
720.96	7520.65
721.303	7537.82
721.646	7472.06
721.989	7510.03
722.331	7472.52
722.674	7504.83
723.016	7478.39
723.359	7440.65
723.701	7451.27
724.044	7382.35
724.386	7380.77
724.729	7411.95
725.071	7395.23
725.413	7392.74
725.755	7398.85
726.097	7367.89
726.439	7388.68
726.782	7381.67
727.124	7403.59
727.465	7360.88
727.807	7377.83
728.149	7300.99
728.491	7347.32
728.833	7356.13
729.175	7308.68
729.516	7356.59
729.858	7305.51
730.199	7349.35
730.541	7293.54
730.882	7324.04
731.224	7362.01
731.565	7322.69
731.906	7361.11
732.248	7303.03
732.589	7256.7
732.93	7282.92
733.271	7272.29
733.612	7300.09
733.953	7328.34
734.294	7275.46
734.635	7253.31
734.976	7376.02
735.317	7312.75
735.658	7246.53
735.999	7299.86
736.339	7316.59
736.68	7332.41
737.021	7343.93
737.361	7311.62
737.702	7361.78
738.042	7346.19
738.383	7297.15
738.723	7398.39
739.063	7404.95
739.404	7395.23
739.744	7421.22
740.084	7323.82
740.424	7415.12
740.764	7383.03
741.104	7450.37
741.444	7442.01
741.784	7465.28
742.124	7493.08
742.464	7432.52
742.804	7461.89
743.143	7432.74
743.483	7500.31
743.823	7491.72
744.162	7531.27
744.502	7507.54
744.841	7623.92
745.181	7630.7
745.52	7671.83
745.86	7707.54
746.199	7724.71
746.538	7749.12
746.877	7841.77
747.216	7849.68
747.556	7858.27
747.895	7950.24
748.234	7973.07
748.573	7926.29
748.911	8076.12
749.25	8094.42
749.589	8116.79
749.928	8212.83
750.267	8268.65
750.605	8337.8
750.944	8399.5
751.283	8421.19
751.621	8563.11
751.96	8600.17
752.298	8626.61
752.636	8814.4
752.975	8847.62
753.313	8947.28
753.651	9118.12
753.989	9183.2
754.327	9255.97
754.666	9415.74
755.004	9512.46
755.342	9654.6
755.679	9785.22
756.017	9905.22
756.355	10057.53
756.693	10136.63
757.031	10334.14
757.368	10359.45
757.706	10576.39
758.044	10681.92
758.381	10822.03
758.719	10990.39
759.056	11144.96
759.394	11239.65
759.731	11459.53
760.068	11587.66
760.405	11712.63
760.743	11883.47
761.08	12113.75
761.417	12349.45
761.754	12435.55
762.091	12616.56
762.428	12757.12
762.765	12900.62
763.102	13116.43
763.438	13218.8
763.775	13258.8
764.112	13635.29
764.449	13809.07
764.785	13987.6
765.122	14055.39
765.458	14153.7
765.795	14376.51
766.131	14543.52
766.467	14773.34
766.804	14816.96
767.14	15033.45
767.476	15170.17
767.812	15331.52
768.148	15462.81
768.485	15594.79
768.821	15668.46
769.157	15763.14
769.492	15950.26
769.828	16140.31
770.164	16125.85
770.5	16279.06
770.836	16496.23
771.171	16458.27
771.507	16626.62
771.842	16715.21
772.178	16867.75
772.513	16949.1
772.849	17090.57
773.184	17072.49
773.519	17262.99
773.855	17187.06
774.19	17374.4
774.525	17439.26
774.86	17516.09
775.195	17542.08
775.53	17665.69
775.865	17639.25
776.2	17647.39
776.535	17694.85
776.87	17880.6
777.205	17745.24
777.539	17868.4
777.874	17966.93
778.209	17952.92
778.543	17977.78
778.878	18044.44
779.212	18116.08
779.547	18042.18
779.881	18180.26
780.215	18146.36
780.55	18350.42
780.884	18258.45
781.218	18218.22
781.552	18315.62
781.886	18252.8
782.22	18258.67
782.554	18281.27
782.888	18244.21
783.222	18213.7
783.556	18105.91
783.889	18279.24
784.223	18149.3
784.557	18151.33
784.89	18229.29
785.224	18241.95
785.557	18091.22
785.891	18103.65
786.224	18139.58
786.558	18135.29
786.891	18060.94
787.224	18033.82
787.557	18011
787.891	18111.78
788.224	18054.84
788.557	18115.85
788.89	17994.27
789.223	18088.96
789.556	17974.61
789.888	18031.79
790.221	18025.91
790.554	17924.9
790.887	17861.39
791.219	17953.82
791.552	17796.99
791.884	17787.5
792.217	17808.29
792.549	17724
792.882	17661.17
793.214	17695.52
793.546	17728.74
793.879	17524
794.211	17556.54
794.543	17645.36
794.875	17510.22
795.207	17612.14
795.539	17414.17
795.871	17465.02
796.203	17390.45
796.535	17241.98
796.867	17291.24
797.198	17323.56
797.53	17270
797.862	17173.05
798.193	17202.43
798.525	17154.29
798.856	17195.65
799.188	16962.66
799.519	16921.76
799.85	16868.65
800.182	16947.29
800.513	16884.47
800.844	16824.36
801.175	16882.21
801.506	16803.57
801.837	16811.7
802.168	16770.58
802.499	16740.97
802.83	16540.98
803.161	16556.57
803.491	16646.29
803.822	16697.58
804.153	16533.75
804.483	16379.85
804.814	16409.68
805.145	16347.99
805.475	16333.75
805.805	16298.05
806.136	16335.11
806.466	16326.29
806.796	16311.83
807.126	16118.84
807.457	16081.55
807.787	16083.14
808.117	16065.74
808.447	15948.22
808.777	16050.37
809.107	15983.03
809.436	15857.83
809.766	15927.21
810.096	15763.37
810.426	15802.47
810.755	15816.93
811.085	15796.59
811.414	15801.11
811.744	15638.4
812.073	15620.55
812.403	15685.63
812.732	15481.34
813.061	15594.34
813.39	15536.71
813.719	15547.56
814.049	15477.5
814.378	15479.76
814.707	15417.39
815.036	15434.34
815.365	15310.28
815.693	15245.87
816.022	15268.24
816.351	15216.04
816.68	15121.58
817.008	15245.19
817.337	15088.13
817.665	15022.37
817.994	15124.29
818.322	15043.16
818.651	14987.35
818.979	14965.65
819.307	15091.07
819.636	14936.05
819.964	14923.84
820.292	15002.71
820.62	14979.89
820.948	14948.25
821.276	15017.4
821.604	14880.68
821.932	14943.51
822.259	15018.31
822.587	14884.75
822.915	14804.98
823.243	14955.03
823.57	14843.4
823.898	14924.97
824.225	14921.81
824.553	14860.34
824.88	14846.56
825.207	14953.67
825.535	14941.02
825.862	15055.37
826.189	14854.02
826.516	14963.39
826.843	14943.73
827.17	14946.9
827.497	14985.31
827.824	14883.39
828.151	15024.41
828.478	14918.42
828.805	15019.21
829.131	14945.09
829.458	14938.08
829.785	14823.28
830.111	14897.18
830.438	14923.62
830.764	14888.59
831.09	14927.46
831.417	14869.16
831.743	14971.3
832.069	14852.43
832.395	14889.04
832.722	14853.79
833.048	14863.51
833.374	14936.05
833.7	14760.69
834.026	14837.75
834.351	14844.3
834.677	14824.86
835.003	14888.14
835.329	14844.75
835.654	14817.41
835.98	14660.35
836.306	14825.77
836.631	14771.08
836.956	14729.5
837.282	14758.2
837.607	14694.02
837.932	14677.98
838.258	14670.97
838.583	14616.96
838.908	14581.48
839.233	14615.83
839.558	14515.49
839.883	14466.68
840.208	14472.78
840.533	14366.8
840.858	14441.37
841.182	14498.77
841.507	14463.07
841.832	14255.16
842.156	14329.06
842.481	14296.74
842.805	14248.61
843.13	14206.35
843.454	14232.56
843.778	14102.62
844.103	14218.1
844.427	14089.52
844.751	14094.04
845.075	14068.5
845.399	14098.33
845.723	13913.25
846.047	13986.47
846.371	13835.29
846.695	13813.37
847.019	13752.58
847.343	13794.38
847.666	13666.25
847.99	13572.24
848.313	13535.41
848.637	13521.62
848.96	13395.98
849.284	13378.57
849.607	13282.98
849.931	13244.34
850.254	13264.68
850.577	13136.1
850.9	13075.98
851.223	13116.21
851.546	12925.25
851.869	12945.37
852.192	13013.61
852.515	12837.12
852.838	12868.53
853.161	12824.92
853.483	12818.36
853.806	12692.72
854.129	12570.01
854.451	12600.29
854.774	12550.12
855.096	12484.81
855.419	12442.33
855.741	12454.98
856.063	12317.59
856.385	12364.59
856.708	12303.57
857.03	12116.69
857.352	12277.36
857.674	12210.92
857.996	12197.59
858.318	12160.08
858.64	12186.74
858.961	12122.79
859.283	12124.14
859.605	11930.7
859.926	12017.93
860.248	11887.54
860.57	11996.01
860.891	11872.4
861.212	11825.85
861.534	11751.5
861.855	11792.18
862.176	11812.51
862.498	11722.57
862.819	11757.37
863.14	11722.35
863.461	11656.36
863.782	11640.99
864.103	11625.85
864.424	11568.68
864.745	11643.25
865.065	11509.92
865.386	11520.54
865.707	11604.16
866.027	11478.51
866.348	11505.18
866.668	11539.98
866.989	11443.03
867.309	11424.28
867.63	11464.05
867.95	11464.27
868.27	11388.12
868.59	11306.99
868.91	11354.67
869.23	11293.66
869.55	11287.1
869.87	11282.13
870.19	11277.84
870.51	11262.47
870.83	11241.23
871.15	11129.59
871.469	11131.18
871.789	11208.46
872.109	11194.23
872.428	11150.38
872.748	11093.44
873.067	11091.63
873.386	11193.1
873.706	11091.86
874.025	10943.84
874.344	10998.3
874.663	10984.74
874.982	10934.12
875.301	11026.77
875.62	10948.36
875.939	10978.64
876.258	10944.06
876.577	10927.34
876.896	10921.69
877.214	10844.18
877.533	10901.8
877.852	10849.38
878.17	10841.01
878.489	10805.99
878.807	10807.34
879.125	10721.7
879.444	10701.58
879.762	10702.94
880.08	10756.04
880.398	10645.99
880.716	10758.98
881.034	10676.05
881.352	10688.7
881.67	10637.63
881.988	10585.88
882.306	10580.68
882.624	10528.93
882.941	10536.16
883.259	10386.79
883.577	10446.22
883.894	10434.25
884.212	10371.42
884.529	10375.26
884.846	10348.82
885.164	10360.12
885.481	10336.62
885.798	10342.95
886.115	10208.26
886.432	10220.01
886.75	10219.56
887.067	10187.92
887.383	10173.01
887.7	10135.5
888.017	10114.71
888.334	10159.22
888.651	10049.4
888.967	9996.52
889.284	10020.25
889.6	9985.22
889.917	9937.08
890.233	9889.63
890.55	9911.77
890.866	9898.89
891.182	9867.03
891.498	9799.23
891.815	9848.05
892.131	9709.74
892.447	9736.18
892.763	9769.86
893.079	9639.24
893.395	9559.69
893.71	9623.87
894.026	9547.94
894.342	9633.81
894.657	9489.64
894.973	9475.63
895.289	9435.63
895.604	9437.89
895.92	9342.52
896.235	9284.22
896.55	9323.31
896.865	9371.45
897.181	9289.42
897.496	9251.23
897.811	9191.11
898.126	9192.24
898.441	9163.32
898.756	9075.41
899.071	9042.19
899.386	9064.56
899.7	8990.22
900.015	8992.02
900.33	8873.38
900.644	8930.56
900.959	8886.72
901.273	8869.54
901.588	8814.85
901.902	8745.25
902.216	8726.04
902.531	8726.95
902.845	8740.05
903.159	8601.98
903.473	8574.63
903.787	8611.92
904.101	8490.12
904.415	8498.7
904.729	8451.47
905.042	8437.01
905.356	8384.81
905.67	8420.74
905.984	8315.43
906.297	8287.64
906.611	8231.59
906.924	8244.92
907.237	8212.38
907.551	8213.29
907.864	8198.37
908.177	8098.71
908.491	8091.71
908.804	8087.64
909.117	8017.36
909.43	7948.66
909.743	7996.12
910.056	7884.03
910.368	7914.99
910.681	7844.26
910.994	7838.83
911.307	7777.14
911.619	7772.17
911.932	7788.67
912.244	7689.46
912.557	7678.16
912.869	7669.12
913.181	7571.95
913.494	7606.98
913.806	7570.14
914.118	7501.67
914.43	7519.29
914.742	7463.02
915.054	7412.18
915.366	7385.74
915.678	7394.33
915.99	7279.07
916.302	7275.23
916.613	7218.74
916.925	7265.06
917.236	7213.77
917.548	7213.99
917.859	7176.48
918.171	7173.77
918.482	7124.28
918.794	7084.28
919.105	7101
919.416	6991.17
919.727	7005.86
920.038	6961.79
920.349	6907.78
920.66	6884.96
920.971	6859.42
921.282	6878.18
921.593	6823.94
921.903	6758.86
922.214	6716.6
922.525	6774.23
922.835	6720.67
923.146	6645.64
923.456	6629.83
923.767	6638.64
924.077	6561.8
924.387	6558.87
924.697	6514.35
925.008	6491.98
925.318	6492.88
925.628	6463.73
925.938	6402.71
926.248	6365.43
926.558	6367.69
926.867	6371.98
927.177	6322.04
927.487	6351.87
927.796	6240.23
928.106	6274.13
928.416	6205.66
928.725	6225.32
929.034	6177.86
929.344	6127.92
929.653	6168.37
929.962	6095.83
930.271	6097.86
930.581	6002.5
930.89	5966.34
931.199	6004.08
931.508	6018.99
931.817	5964.53
932.125	5950.3
932.434	5920.01
932.743	5839.34
933.051	5844.08
933.36	5806.8
933.669	5781.26
933.977	5744.2
934.286	5801.15
934.594	5738.55
934.902	5717.99
935.21	5720.92
935.519	5656.97
935.827	5625.78
936.135	5588.72
936.443	5550.76
936.751	5549.63
937.059	5551.89
937.367	5508.73
937.674	5473.25
937.982	5494.04
938.29	5450.65
938.597	5440.48
938.905	5372.23
939.213	5336.07
939.52	5324.78
939.827	5362.29
940.135	5362.97
940.442	5276.19
940.749	5289.07
941.056	5258.11
941.363	5200.26
941.67	5217.66
941.977	5139.24
942.284	5132.01
942.591	5131.33
942.898	5093.59
943.205	5111.45
943.511	5041.17
943.818	5072.8
944.125	5048.17
944.431	5016.53
944.738	4946.48
945.044	4962.98
945.35	4934.5
945.657	4896.99
945.963	4911.45
946.269	4874.17
946.575	4881.4
946.881	4809.76
947.187	4852.25
947.493	4789.2
947.799	4795.52
948.105	4743.55
948.41	4769.31
948.716	4741.74
949.022	4684.79
949.327	4668.07
949.633	4635.98
949.938	4648.86
950.244	4577.9
950.549	4591.69
950.854	4570.9
951.16	4569.77
951.465	4542.2
951.77	4476.21
952.075	4475.76
952.38	4468.98
952.685	4438.47
952.99	4411.58
953.294	4407.96
953.599	4404.57
953.904	4379.49
954.209	4373.84
954.513	4386.72
954.818	4319.38
955.122	4326.38
955.426	4283.45
955.731	4283.9
956.035	4302.43
956.339	4246.84
956.643	4223.56
956.948	4179.27
957.252	4230.11
957.556	4206.39
957.86	4127.52
958.163	4074.41
958.467	4094.3
958.771	4118.48
959.075	4097.69
959.378	4013.4
959.682	4089.1
959.985	4060.18
960.289	4017.69
960.592	3989.22
960.896	3944.25
961.199	3928.43
961.502	3963.46
961.805	3955.32
962.108	3903.57
962.411	3871.48
962.714	3909.67
963.017	3839.16
963.32	3847.53
963.623	3777.02
963.926	3831.93
964.228	3810.24
964.531	3740.86
964.833	3735.44
965.136	3720.75
965.438	3705.38
965.741	3713.74
966.043	3661.99
966.345	3660.19
966.648	3631.71
966.95	3663.58
967.252	3585.61
967.554	3605.72
967.856	3551.04
968.158	3562.56
968.46	3517.59
968.761	3528.21
969.063	3503.58
969.365	3503.81
969.666	3495.44
969.968	3446.86
970.269	3429.91
970.571	3467.2
970.872	3433.98
971.174	3429.68
971.475	3402.79
971.776	3386.75
972.077	3358.95
972.378	3390.81
972.679	3351.49
972.98	3341.1
973.281	3306.98
973.582	3298.39
973.883	3289.57
974.183	3263.13
974.484	3251.16
974.785	3257.94
975.085	3249.8
975.386	3266.75
975.686	3224.27
975.986	3210.71
976.287	3194.44
976.587	3171.39
976.887	3144.72
977.187	3160.09
977.487	3124.83
977.787	3095.91
978.087	3054.78
978.387	3087.32
978.687	3094.1
978.987	3015.46
979.286	3038.73
979.586	3042.12
979.885	3046.64
980.185	2982.92
980.484	2970.49
980.784	2996.7
981.083	2977.49
981.382	2961.45
981.682	2932.75
981.981	2915.57
982.28	2906.99
982.579	2859.53
982.878	2903.6
983.177	2868.79
983.475	2865.63
983.774	2826.76
984.073	2804.62
984.372	2816.82
984.67	2796.03
984.969	2813.65
985.267	2774.79
985.566	2780.66
985.864	2746.09
986.162	2762.13
986.461	2730.95
986.759	2742.02
987.057	2686.88
987.355	2679.2
987.653	2702.92
987.951	2659.53
988.249	2634.45
988.547	2648.24
988.844	2621.8
989.142	2643.26
989.44	2641.68
989.737	2608.24
990.035	2586.09
990.332	2560.1
990.63	2557.84
990.927	2548.35
991.224	2514.91
991.521	2501.8
991.819	2545.64
992.116	2461.12
992.413	2497.5
992.71	2461.12
993.006	2436.72
993.303	2418.19
993.6	2457.28
993.897	2417.06
994.193	2427
994.49	2412.54
994.787	2414.12
995.083	2344.97
995.379	2399.88
995.676	2380.45
995.972	2339.32
996.268	2335.02
996.565	2328.47
996.861	2326.21
997.157	2286.44
997.453	2294.12
997.749	2272.65
998.044	2269.49
998.34	2236.04
998.636	2245.99
998.932	2247.12
999.227	2216.16
999.523	2177.74
999.818	2213.22
1000.114	2201.47
1000.409	2214.12
1000.704	2138.64
1001	2140.68
1001.295	2167.12
1001.59	2140.9
1001.885	2106.33
1002.18	2070.85
1002.475	2095.71
1002.77	2074.92
1003.065	2078.31
1003.359	2075.14
1003.654	2076.27
1003.949	2009.61
1004.243	2029.72
1004.538	2017.52
1004.832	2022.49
1005.127	2015.48
1005.421	1984.07
1005.715	1961.25
1006.009	1965.77
1006.304	1907.01
1006.598	1946.11
1006.892	1910.4
1007.186	1911.98
1007.48	1914.47
1007.773	1888.03
1008.067	1876.73
1008.361	1869.5
1008.655	1843.74
1008.948	1832.89
1009.242	1843.96
1009.535	1820.91
1009.829	1829.95
1010.122	1828.37
1010.415	1810.29
1010.708	1776.17
1011.001	1769.16
1011.295	1741.82
1011.588	1764.42
1011.881	1726.23
1012.173	1730.97
1012.466	1721.25
1012.759	1696.17
1013.052	1723.29
1013.344	1698.43
1013.637	1680.13
1013.93	1671.99
1014.222	1649.62
1014.514	1657.53
1014.807	1605.33
1015.099	1639.45
1015.391	1639.45
1015.683	1620.69
1015.976	1607.58
1016.268	1593.57
1016.56	1571.43
1016.851	1584.08
1017.143	1569.39
1017.435	1563.97
1017.727	1554.25
1018.018	1547.25
1018.31	1539.56
1018.602	1551.77
1018.893	1519.45
1019.185	1515.38
1019.476	1504.76
1019.767	1476.51
1020.058	1472.45
1020.35	1463.41
1020.641	1452.33
1020.932	1432
1021.223	1416.4
1021.514	1437.65
1021.804	1407.59
1022.095	1397.19
1022.386	1420.92
1022.677	1367.14
1022.967	1356.97
1023.258	1367.82
1023.548	1351.32
1023.839	1365.78
1024.129	1328.5
1024.419	1331.21
1024.709	1326.69
1025	1294.82
1025.29	1302.96
1025.58	1314.26
1025.87	1295.95
1026.16	1286.46
1026.449	1262.96
1026.739	1279.46
1027.029	1267.25
1027.319	1237.88
1027.608	1236.75
1027.898	1236.97
1028.187	1248.5
1028.477	1251.44
1028.766	1191.55
1029.055	1219.8
1029.344	1223.19
1029.634	1190.87
1029.923	1169.86
1030.212	1175.05
1030.501	1158.56
1030.79	1163.75
1031.078	1144.77
1031.367	1176.86
1031.656	1141.61
1031.945	1137.99
1032.233	1090.08
1032.522	1142.51
1032.81	1126.24
1033.099	1105
1033.387	1079.69
1033.675	1102.29
1033.963	1071.1
1034.251	1092.12
1034.54	1045.79
1034.828	1056.64
1035.116	1046.7
1035.403	1051.22
1035.691	1040.37
1035.979	1024.1
1036.267	1040.82
1036.554	992.46
1036.842	988.84
1037.129	987.94
1037.417	993.14
1037.704	989.3
1037.992	980.48
1038.279	966.92
1038.566	973.7
1038.853	973.7
1039.14	973.7
