Data from hue_30_FLMS001491_56.txt Node
Date: Mon Feb 06 15:05:35 GMT 2017
User: dcchb
Spectrometer: FLMS00149
Trigger mode: 0
Integration Time (sec): 2.000000E-2
Scans to average: 10
Electric dark correction enabled: true
Nonlinearity correction enabled: false
Boxcar width: 0
XAxis mode: Wavelengths
Number of Pixels in Spectrum: 2048
>>>>>Begin Spectral Data<<<<<
341.393	4.14
341.776	4.14
342.16	4.14
342.543	-54.39
342.927	-65.01
343.31	-79.7
343.693	-53.71
344.077	-63.2
344.46	-44.9
344.843	-45.58
345.226	-35.63
345.61	-43.09
345.993	-17.1
346.376	-0.83
346.759	7.3
347.142	19.96
347.525	42.33
347.908	48.43
348.291	62.44
348.674	85.04
349.057	118.26
349.44	127.52
349.823	136.34
350.206	168.88
350.588	192.61
350.971	209.1
351.354	215.66
351.737	260.18
352.119	266.05
352.502	245.04
352.884	248.2
353.267	280.74
353.65	276.22
354.032	284.36
354.414	297.46
354.797	309.22
355.179	318.93
355.562	324.13
355.944	313.51
356.326	331.81
356.709	340.85
357.091	334.3
357.473	355.99
357.855	329.55
358.238	341.08
358.62	332.27
359.002	329.55
359.384	345.82
359.766	371.81
360.148	333.85
360.53	316.9
360.912	319.61
361.294	343.79
361.676	327.07
362.057	361.19
362.439	336.33
362.821	306.05
363.203	324.58
363.584	314.41
363.966	320.06
364.348	343.34
364.729	319.84
365.111	311.93
365.493	318.71
365.874	318.48
366.256	327.75
366.637	311.93
367.019	308.54
367.4	314.19
367.781	320.74
368.163	308.54
368.544	300.4
368.925	319.16
369.306	319.84
369.688	305.6
370.069	318.48
370.45	322.77
370.831	326.16
371.212	333.4
371.593	307.41
371.974	319.38
372.355	319.61
372.736	327.52
373.117	316.9
373.498	306.05
373.879	327.07
374.26	327.29
374.641	287.97
375.021	307.86
375.402	336.78
375.783	338.14
376.163	321.64
376.544	344.47
376.925	318.48
377.305	324.36
377.686	347.63
378.066	336.56
378.447	351.02
378.827	337.01
379.208	330.23
379.588	346.28
379.968	359.38
380.349	333.17
380.729	335.2
381.109	340.63
381.489	340.63
381.87	351.25
382.25	345.82
382.63	340.85
383.01	350.8
383.39	348.31
383.77	351.25
384.15	352.15
384.53	341.08
384.91	333.17
385.29	366.39
385.67	357.58
386.049	351.7
386.429	370.23
386.809	351.25
387.189	360.51
387.568	353.96
387.948	376.33
388.328	341.08
388.707	350.57
389.087	360.06
389.466	336.56
389.846	366.84
390.225	368.65
390.605	374.52
390.984	358.71
391.363	363.45
391.743	368.65
392.122	385.6
392.501	377.01
392.881	369.78
393.26	356.67
393.639	372.26
394.018	370
394.397	362.09
394.776	367.29
395.155	398.25
395.534	391.25
395.913	390.12
396.292	379.95
396.671	395.99
397.05	396.22
397.429	393.73
397.808	398.7
398.186	381.53
398.565	381.08
398.944	389.66
399.323	401.87
399.701	407.52
400.08	391.47
400.458	399.83
400.837	414.07
401.215	422.88
401.594	394.18
401.972	401.64
402.351	399.83
402.729	411.81
403.107	396.9
403.486	404.35
403.864	419.72
404.242	413.39
404.62	424.69
404.999	394.41
405.377	437.8
405.755	422.88
406.133	424.92
406.511	414.3
406.889	425.37
407.267	410
407.645	433.51
408.023	415.65
408.401	438.93
408.779	433.73
409.156	419.72
409.534	427.86
409.912	440.51
410.29	456.33
410.667	431.25
411.045	465.14
411.422	460.85
411.8	480.51
412.178	452.26
412.555	458.14
412.933	453.84
413.31	456.1
413.687	452.04
414.065	476.44
414.442	478.48
414.819	482.77
415.197	473.05
415.574	469.21
415.951	473.05
416.328	483.45
416.705	469.66
417.082	495.2
417.46	506.72
417.837	509.66
418.214	496.33
418.591	483.22
418.967	534.97
419.344	497.46
419.721	489.55
420.098	506.27
420.475	513.73
420.852	490.91
421.228	522.54
421.605	540.4
421.982	549.89
422.358	526.61
422.735	548.98
423.111	510.79
423.488	511.47
423.864	523.22
424.241	536.33
424.617	545.59
424.994	533.84
425.37	545.59
425.746	536.78
426.123	568.42
426.499	557.12
426.875	561.86
427.251	567.74
427.627	556.67
428.003	584.91
428.379	574.29
428.756	596.67
429.132	580.39
429.507	591.69
429.883	593.95
430.259	606.38
430.635	605.7
431.011	614.29
431.387	618.13
431.763	628.53
432.138	618.36
432.514	610
432.89	615.42
433.265	642.99
433.641	633.5
434.016	667.85
434.392	660.62
434.767	687.74
435.143	662.43
435.518	694.06
435.894	685.7
436.269	673.05
436.644	666.95
437.02	682.76
437.395	682.09
437.77	718.02
438.145	698.81
438.52	704.91
438.895	707.4
439.271	713.72
439.646	710.11
440.021	738.81
440.395	700.62
440.77	719.15
441.145	738.13
441.52	735.64
441.895	726.38
442.27	730.9
442.645	759.82
443.019	745.36
443.394	747.62
443.769	756.21
444.143	750.56
444.518	752.82
444.892	760.28
445.267	769.09
445.641	791.91
446.016	760.28
446.39	789.88
446.764	804.8
447.139	782.65
447.513	805.02
447.887	826.49
448.262	802.08
448.636	796.89
449.01	822.65
449.384	818.35
449.758	817.9
450.132	834.85
450.506	835.75
450.88	879.37
451.254	852.03
451.628	845.25
452.002	837.11
452.376	880.27
452.75	877.56
453.123	889.54
453.497	887.73
453.871	917.79
454.244	923.89
454.618	913.04
454.992	923.21
455.365	911.46
455.739	929.99
456.112	953.27
456.486	938.8
456.859	957.33
457.232	990.55
457.606	980.38
457.979	945.81
458.352	993.04
458.725	1007.28
459.099	1002.98
459.472	1027.39
459.845	1028.74
460.218	1046.14
460.591	1071.45
460.964	1066.48
461.337	1072.13
461.71	1085.01
462.083	1111.91
462.456	1091.12
462.829	1120.95
463.201	1127.27
463.574	1159.59
463.947	1123.88
464.32	1181.28
464.692	1193.49
465.065	1187.61
465.438	1184.9
465.81	1206.82
466.183	1236.87
466.555	1238.68
466.928	1248.63
467.3	1260.83
467.672	1300.83
468.045	1302.86
468.417	1305.12
468.789	1331.79
469.161	1338.57
469.534	1378.34
469.906	1386.7
470.278	1408.17
470.65	1440.03
471.022	1430.77
471.394	1458.11
471.766	1502.18
472.138	1475.96
472.51	1514.83
472.882	1577.88
473.253	1535.4
473.625	1572.46
473.997	1619.69
474.369	1627.6
474.74	1692.23
475.112	1681.16
475.484	1747.37
475.855	1743.08
476.227	1778.1
476.598	1826.01
476.97	1856.07
477.341	1886.12
477.713	1912.34
478.084	1955.05
478.455	1997.76
478.827	2004.76
479.198	2079.79
479.569	2101.94
479.94	2144.42
480.311	2215.61
480.682	2213.12
481.053	2339.67
481.424	2359.1
481.795	2383.06
482.166	2407.01
482.537	2486.78
482.908	2530.63
483.279	2582.6
483.65	2654.01
484.021	2686.78
484.391	2722.94
484.762	2795.03
485.133	2851.97
485.503	2908.47
485.874	2920.67
486.244	3035.47
486.615	3056.26
486.985	3088.58
487.356	3174.68
487.726	3266.65
488.097	3295.8
488.467	3346.65
488.837	3444.95
489.207	3458.96
489.578	3495.35
489.948	3576.93
490.318	3626.19
490.688	3702.8
491.058	3754.32
491.428	3836.13
491.798	3885.62
492.168	3966.75
492.538	4004.26
492.908	4038.38
493.278	4164.71
493.648	4190.92
494.017	4265.72
494.387	4249
494.757	4356.11
495.126	4387.53
495.496	4391.37
495.866	4496
496.235	4502.33
496.605	4602.66
496.974	4668.2
497.344	4680.17
497.713	4714.52
498.082	4769.21
498.452	4874.97
498.821	4870.9
499.19	4895.99
499.559	4958.36
499.928	5016.21
500.298	5032.71
500.667	5077.9
501.036	5122.2
501.405	5157.45
501.774	5206.26
502.143	5249.2
502.512	5308.18
502.88	5316.77
503.249	5346.6
503.618	5364.45
503.987	5420.27
504.356	5469.76
504.724	5528.29
505.093	5570.55
505.462	5565.35
505.83	5645.8
506.199	5677.89
506.567	5741.84
506.936	5769.86
507.304	5799.92
507.672	5846.02
508.041	5880.37
508.409	5837.43
508.777	5932.8
509.145	5980.25
509.514	5993.59
509.882	5985.45
510.25	6020.25
510.618	6075.62
510.986	6096.86
511.354	6237.87
511.722	6240.13
512.09	6273.35
512.458	6290.75
512.826	6328.72
513.193	6326.46
513.561	6375.72
513.929	6332.56
514.297	6467.47
514.664	6558.77
515.032	6520.8
515.4	6547.7
515.767	6576.85
516.135	6636.05
516.502	6555.83
516.869	6663.4
517.237	6695.04
517.604	6669.05
517.972	6772.1
518.339	6740.01
518.706	6846.22
519.073	6787.01
519.44	6850.74
519.808	6925.54
520.175	6918.53
520.542	7015.93
520.909	6985.65
521.276	6957.85
521.643	7080.56
522.009	7112.43
522.376	7174.12
522.743	7158.75
523.11	7219.09
523.477	7249.82
523.843	7282.14
524.21	7423.15
524.577	7462.02
524.943	7484.85
525.31	7449.59
525.676	7526.43
526.043	7656.14
526.409	7628.12
526.776	7718.74
527.142	7681.68
527.508	7773.43
527.874	7843.25
528.241	7885.51
528.607	7860.88
528.973	7966.87
529.339	7960.99
529.705	7956.92
530.071	8119.41
530.437	8092.74
530.803	8210.48
531.169	8109.24
531.535	8154.21
531.901	8176.13
532.267	8256.8
532.632	8337.25
532.998	8372.51
533.364	8440.75
533.73	8420.87
534.095	8529.11
534.461	8534.99
534.826	8548.32
535.192	8543.8
535.557	8678.94
535.923	8715.1
536.288	8638.94
536.653	8768.88
537.019	8709.22
537.384	8794.42
537.749	8816.34
538.114	8871.48
538.479	8869.67
538.845	8886.16
539.21	8935.2
539.575	8966.61
539.94	8961.19
540.305	9074.41
540.67	9090
541.034	9060.85
541.399	9148.3
541.764	9165.93
542.129	9225.36
542.494	9267.4
542.858	9311.01
543.223	9275.53
543.587	9374.97
543.952	9408.18
544.316	9454.96
544.681	9437.11
545.045	9494.96
545.41	9508.52
545.774	9530.22
546.138	9609.76
546.503	9656.99
546.867	9646.14
547.231	9703.77
547.595	9762.75
547.959	9742.64
548.324	9826.25
548.688	9783.77
549.052	9852.24
549.416	9884.78
549.779	9839.81
550.143	9947.38
550.507	10037.55
550.871	9987.6
551.235	10082.07
551.599	10158.9
551.962	10082.52
552.326	10170.2
552.689	10229.18
553.053	10227.6
553.417	10236.41
553.78	10378.1
554.143	10326.13
554.507	10393.24
554.87	10454.26
555.234	10548.49
555.597	10471.66
555.96	10543.3
556.323	10568.83
556.686	10561.83
557.05	10588.04
557.413	10657.19
557.776	10681.82
558.139	10734.93
558.502	10722.95
558.865	10742.39
559.228	10911.42
559.59	10837.98
559.953	10890.18
560.316	10990.06
560.679	10944.19
561.041	11042.49
561.404	11070.74
561.767	11165.65
562.129	11115.71
562.492	11215.14
562.854	11276.38
563.217	11205.65
563.579	11333.78
563.941	11377.4
564.304	11429.37
564.666	11419.21
565.028	11456.49
565.39	11481.58
565.753	11521.35
566.115	11580.33
566.477	11628.47
566.839	11691.51
567.201	11684.06
567.563	11758.18
567.925	11820.78
568.287	11772.87
568.648	11900.77
569.01	11912.98
569.372	11977.38
569.734	11968.57
570.095	12069.81
570.457	12074.1
570.819	12148
571.18	12185.96
571.542	12249.47
571.903	12318.62
572.265	12352.74
572.626	12405.62
572.987	12421.89
573.349	12492.62
573.71	12549.35
574.071	12695.78
574.432	12759.96
574.794	12887.64
575.155	12907.08
575.516	12915.44
575.877	13017.13
576.238	13094.64
576.599	13202.21
576.96	13245.82
577.32	13257.35
577.681	13424.8
578.042	13467.29
578.403	13654.85
578.763	13662.08
579.124	13785.02
579.485	13993.83
579.845	14045.58
580.206	14174.61
580.566	14245.35
580.927	14355.17
581.287	14581.16
581.648	14586.35
582.008	14949.73
582.368	14977.08
582.728	15250.97
583.089	15304.75
583.449	15374.58
583.809	15636.04
584.169	15857.28
584.529	15961.01
584.889	16300.21
585.249	16383.82
585.609	16508.34
585.969	16843.47
586.329	17029.91
586.688	17219.96
587.048	17468.09
587.408	17553.96
587.768	17836.21
588.127	18043.89
588.487	18181.51
588.846	18586.7
589.206	18576.53
589.565	18873.47
589.925	19315.04
590.284	19434.59
590.643	19615.6
591.003	19881.81
591.362	20281.35
591.721	20437.05
592.08	20622.58
592.44	20971.5
592.799	21163.13
593.158	21480.64
593.517	21717.01
593.876	21986.84
594.235	22215.76
594.593	22545.69
594.952	22749.3
595.311	22933.93
595.67	23323.53
596.029	23661.82
596.387	23787.24
596.746	24124.41
597.104	24342.26
597.463	24514.68
597.822	24929.81
598.18	25036.47
598.538	25286.19
598.897	25670.36
599.255	25632.17
599.613	26306.05
599.972	26266.05
600.33	26539.94
600.688	26678.01
601.046	26966.82
601.404	27322.06
601.762	27538.1
602.12	27717.99
602.478	28061.48
602.836	28242.04
603.194	28348.7
603.552	28645.19
603.91	28722.03
604.268	29115.69
604.625	29180.32
604.983	29552.97
605.341	29580.08
605.698	29930.58
606.056	30246.51
606.413	30409.67
606.771	30661.19
607.128	30805.59
607.485	30819.37
607.843	31001.74
608.2	31397.89
608.557	31645.79
608.914	31663.64
609.272	31905.9
609.629	32035.39
609.986	32455.71
610.343	32470.63
610.7	32815.25
611.057	32798.08
611.414	32944.52
611.771	33058.18
612.127	33261.12
612.484	33521.9
612.841	33726.42
613.198	33749.47
613.554	33954.88
613.911	34099.74
614.267	34245.72
614.624	34274.2
614.98	34514.42
615.337	34767.74
615.693	34872.6
616.05	34837.8
616.406	35033.05
616.762	35007.74
617.118	35293.15
617.475	35269.65
617.831	35599.36
618.187	35780.6
618.543	35842.97
618.899	36164.77
619.255	36119.57
619.611	36219.46
619.967	36443.18
620.323	36447.25
620.678	36476.63
621.034	36285.44
621.39	36563.63
621.746	36630.52
622.101	37066.67
622.457	36809.72
622.812	36954.81
623.168	36983.5
623.523	37173.33
623.879	37286.55
624.234	37134.91
624.589	37327
624.945	37330.84
625.3	37682.02
625.655	37410.16
626.01	37562.7
626.365	37581.68
626.72	37691.73
627.075	37679.53
627.43	37691.73
627.785	37725.63
628.14	37957.94
628.495	37972.86
628.85	37936.7
629.205	37881.33
629.559	38082.91
629.914	38039.52
630.269	38108.67
630.623	38023.25
630.978	37905.97
631.332	38119.97
631.687	38198.39
632.041	38026.19
632.396	38157.71
632.75	38029.81
633.104	38185.06
633.459	37959.3
633.813	38009.01
634.167	38119.75
634.521	38181.21
634.875	38115.45
635.229	38156.58
635.583	37928.56
635.937	37993.2
636.291	38027.09
636.645	37996.81
636.999	38061.67
637.352	38106.41
637.706	37852.41
638.06	38069.58
638.413	37918.62
638.767	37943.25
639.121	38063.7
639.474	37776.93
639.828	37819.64
640.181	38005.17
640.534	37909.58
640.888	37891.28
641.241	37716.59
641.594	37781.22
641.947	37940.54
642.301	37842.24
642.654	37867.78
643.007	37874.55
643.36	37745.07
643.713	37633.21
644.066	37818.06
644.419	37690.83
644.771	37430.72
645.124	37014.01
645.477	37101.24
645.83	36884.75
646.182	36697.18
646.535	36605.21
646.888	36713.23
647.24	36465.33
647.593	36752.78
647.945	36647.92
648.298	36463.52
648.65	36416.97
649.002	36335.61
649.355	36496.74
649.707	36442.95
650.059	36604.31
650.411	37047.46
650.763	37035.03
651.115	37384.85
651.467	37426.88
651.819	37333.78
652.171	37305.76
652.523	37169.71
652.875	37208.58
653.227	37037.51
653.578	37343.27
653.93	37126.78
654.282	37149.15
654.633	36811.98
654.985	37077.06
655.337	37151.86
655.688	36957.52
656.039	37265.98
656.391	36978.08
656.742	37124.97
657.094	36979.66
657.445	37028.02
657.796	36873.45
658.147	36961.13
658.498	36875.49
658.849	37021.47
659.2	36921.81
659.551	36842.04
659.902	36931.08
660.253	36930.62
660.604	36983.5
660.955	36799.33
661.306	36842.04
661.656	36837.52
662.007	36905.77
662.358	36802.04
662.708	36764.75
663.059	36823.96
663.409	36504.42
663.76	36849.72
664.11	36789.39
664.461	36823.74
664.811	36818.31
665.161	36639.33
665.511	36596.4
665.862	36789.61
666.212	36823.28
666.562	36788.03
666.912	36707.81
667.262	36710.07
667.612	36788.26
667.962	36801.59
668.312	36613.8
668.662	36756.84
669.011	36729.5
669.361	36740.8
669.711	36709.84
670.06	36581.48
670.41	36513.46
670.76	36500.81
671.109	36699.9
671.459	36620.58
671.808	36442.73
672.157	36531.31
672.507	36473.91
672.856	36329.96
673.205	36636.85
673.554	36571.99
673.904	36367.02
674.253	36583.97
674.602	36498.09
674.951	36063.53
675.3	35996.64
675.649	36549.39
675.998	36346.23
676.346	36421.49
676.695	36426.01
677.044	36138.78
677.393	36313.24
677.741	36442.73
678.09	36183.07
678.438	36138.1
678.787	36237.31
679.135	36162.74
679.484	35972.68
679.832	36069.63
680.181	35924.78
680.529	36122.74
680.877	35922.06
681.225	35898.34
681.573	36186.24
681.922	35893.82
682.27	35757.1
682.618	35736.76
682.966	35649.08
683.314	35841.61
683.661	35709.64
684.009	35503.32
684.357	35508.29
684.705	35501.06
685.053	35478.69
685.4	35455.86
685.748	35289.09
686.095	35291.57
686.443	35038.02
686.79	35078.47
687.138	35110.11
687.485	35050.9
687.832	34963.9
688.18	34890
688.527	34788.53
688.874	34698.59
689.221	34718.03
689.568	34551.25
689.915	34501.99
690.262	34450.92
690.609	34328.89
690.956	34267.19
691.303	34362.1
691.65	34046.41
691.997	34168.89
692.344	33864.72
692.69	33978.16
693.037	33898.39
693.383	33646.64
693.73	33744.72
694.077	33479.19
694.423	33547.66
694.769	33381.57
695.116	33451.17
695.462	33310.16
695.808	33179.31
696.155	33261.79
696.501	33106.54
696.847	33128.01
697.193	32884.63
697.539	32938.41
697.885	32688.02
698.231	32600.8
698.577	32641.25
698.923	32570.29
699.269	32438.99
699.614	32203.29
699.96	32262.95
700.306	32175.5
700.651	32026.12
700.997	32007.14
701.342	31953.81
701.688	31909.97
702.033	31737.09
702.379	31726.47
702.724	31733.93
703.069	31732.34
703.415	31524.44
703.76	31340.26
704.105	31418.68
704.45	31439.92
704.795	31100.95
705.14	31083.1
705.485	31079.25
705.83	30896.43
706.175	31020.5
706.52	30899.82
706.865	30945.25
707.209	30781.18
707.554	30587.74
707.899	30648.76
708.243	30514.97
708.588	30406.5
708.932	30304.58
709.277	30180.52
709.621	30266.17
709.966	30048.09
710.31	30098.94
710.654	29947.53
710.998	29897.59
711.342	29875.9
711.687	29792.28
712.031	29623.25
712.375	29529.01
712.719	29557.94
713.063	29673.41
713.407	29650.59
713.75	29456.25
714.094	29393.65
714.438	29186.2
714.782	29380.32
715.125	29193.65
715.469	29247.21
715.812	29172.64
716.156	28906.43
716.499	28950.5
716.843	28957.95
717.186	28853.32
717.53	29022.36
717.873	28942.81
718.216	28854.91
718.559	28733.33
718.902	28512.09
719.246	28613.78
719.589	28438.64
719.932	28374.24
720.275	28374.69
720.617	28338.76
720.96	28372.21
721.303	28325.2
721.646	28269.61
721.989	28052.89
722.331	28180.57
722.674	28124.75
723.016	28061.71
723.359	28087.24
723.701	28132.44
724.044	27902.84
724.386	27656.29
724.729	27893.8
725.071	27716.86
725.413	27717.99
725.755	27802.05
726.097	27638.89
726.439	27620.14
726.782	27542.17
727.124	27614.71
727.465	27531.55
727.807	27558.67
728.149	27366.58
728.491	27312.57
728.833	27481.61
729.175	27216.08
729.516	27260.6
729.858	27203.88
730.199	27214.5
730.541	27114.16
730.882	26945.12
731.224	27022.18
731.565	26927.05
731.906	26985.35
732.248	26939.02
732.589	26830.78
732.93	26786.03
733.271	26677.79
733.612	26783.77
733.953	26754.4
734.294	26620.39
734.635	26580.84
734.976	26596.43
735.317	26536.55
735.658	26528.64
735.999	26507.17
736.339	26400.05
736.68	26511.92
737.021	26394.4
737.361	26331.36
737.702	26438.47
738.042	26410.68
738.383	26192.6
738.723	26331.36
739.063	26172.04
739.404	26208.2
739.744	26035.54
740.084	26078.93
740.424	26071.25
740.764	26013.85
741.104	26050.01
741.444	25804.59
741.784	25800.97
742.124	25934.76
742.464	25864.48
742.804	25709.45
743.143	25774.53
743.483	25747.42
743.823	25615.22
744.162	25595.78
744.502	25675.55
744.841	25488.67
745.181	25598.27
745.52	25476.91
745.86	25517.14
746.199	25441.66
746.538	25437.14
746.877	25386.3
747.216	25485.28
747.556	25399.63
747.895	25362.57
748.234	25188.56
748.573	25191.27
748.911	25128.45
749.25	25151.5
749.589	25046.19
749.928	25068.56
750.267	25111.5
750.605	24924.84
750.944	24987.44
751.283	24905.4
751.621	24923.48
751.96	24846.87
752.298	24801.23
752.636	24798.29
752.975	24675.35
753.313	24598.29
753.651	24689.36
753.989	24546.77
754.327	24464.29
754.666	24390.16
755.004	24353.33
755.342	24472.87
755.679	24321.92
756.017	24144.52
756.355	24267
756.693	24182.49
757.031	24243.05
757.368	23998.31
757.706	24012.32
758.044	23912.44
758.381	24064.75
758.719	23842.61
759.056	23832.66
759.394	23875.15
759.731	23707.24
760.068	23617.98
760.405	23558.55
760.743	23487.36
761.08	23507.25
761.417	23343.41
761.754	23411.66
762.091	23163.3
762.428	23142.51
762.765	23055.74
763.102	23008.73
763.438	23027.71
763.775	22829.53
764.112	22967.38
764.449	22796.31
764.785	22740.49
765.122	22588.63
765.458	22483.32
765.795	22615.52
766.131	22528.97
766.467	22420.95
766.804	22292.59
767.14	22240.62
767.476	22212.82
767.812	22119.49
768.148	22119.94
768.485	22005.82
768.821	21859.83
769.157	21794.53
769.492	21826.84
769.828	21840.17
770.164	21724.02
770.5	21458.49
770.836	21605.38
771.171	21347.98
771.507	21345.72
771.842	21153.86
772.178	21289.45
772.513	21132.17
772.849	21046.97
773.184	20981.89
773.519	20985.28
773.855	20856.02
774.19	20765.4
774.525	20702.35
774.86	20779.86
775.195	20704.61
775.53	20522.47
775.865	20467.78
776.2	20312.08
776.535	20230.05
776.87	20112.08
777.205	20130.39
777.539	20005.87
777.874	20092.65
778.209	19803.17
778.543	19814.69
778.878	19688.82
779.212	19755.48
779.547	19564.08
779.881	19645.88
780.215	19399.56
780.55	19546.9
780.884	19357.3
781.218	19353.01
781.552	19341.48
781.886	19300.35
782.22	19131.54
782.554	19038.44
782.888	18901.72
783.222	18828.28
783.556	18768.62
783.889	18749.41
784.223	18541.5
784.557	18657.21
784.89	18507.61
785.224	18393.26
785.557	18351.23
785.891	18311.45
786.224	18260.61
786.558	18166.15
786.891	18107.84
787.224	18009.09
787.557	17985.36
787.891	18063.32
788.224	17859.26
788.557	17828.3
788.89	17774.29
789.223	17866.27
789.556	17627.18
789.888	17601.64
790.221	17497.92
790.554	17341.08
790.887	17339.28
791.219	17294.98
791.552	17331.37
791.884	17150.58
792.217	17209.11
792.549	17054.54
792.882	16965.5
793.214	16970.92
793.546	16904.71
793.879	16748.78
794.211	16746.07
794.543	16753.3
794.875	16779.29
795.207	16745.62
795.539	16637.6
795.871	16529.13
796.203	16446.42
796.535	16405.74
796.867	16333.2
797.198	16333.65
797.53	16214.79
797.862	16166.88
798.193	16201.9
798.525	16090.04
798.856	16125.97
799.188	15891.86
799.519	15995.58
799.85	15808.69
800.182	15760.33
800.513	15820.67
800.844	15659.09
801.175	15790.16
801.506	15704.74
801.837	15562.15
802.168	15558.31
802.499	15537.74
802.83	15445.09
803.161	15442.15
803.491	15409.83
803.822	15339.78
804.153	15322.38
804.483	15166.45
804.814	15082.84
805.145	15077.19
805.475	15122.16
805.805	14974.59
806.136	14973.46
806.466	14977.3
806.796	14968.26
807.126	14814.6
807.457	14746.35
807.787	14792.9
808.117	14735.95
808.447	14653.7
808.777	14707.25
809.107	14622.74
809.436	14487.37
809.766	14654.37
810.096	14495.06
810.426	14396.98
810.755	14473.81
811.085	14357.66
811.414	14356.76
811.744	14178.45
812.073	14223.65
812.403	14224.56
812.732	14157.44
813.061	14225.01
813.39	14115.63
813.719	14093.94
814.049	14079.25
814.378	14067.72
814.707	13965.81
815.036	13930.1
815.365	13827.5
815.693	13833.38
816.022	13764.91
816.351	13759.03
816.68	13733.95
817.008	13728.98
817.337	13615.76
817.665	13582.09
817.994	13560.17
818.322	13631.8
818.651	13481.3
818.979	13539.38
819.307	13543.44
819.636	13417.34
819.964	13480.17
820.292	13404.46
820.62	13382.32
820.948	13345.48
821.276	13311.13
821.604	13293.73
821.932	13364.01
822.259	13332.15
822.587	13378.02
822.915	13322.21
823.243	13339.15
823.57	13279.95
823.898	13265.26
824.225	13204.92
824.553	13215.54
824.88	13212.38
825.207	13331.02
825.535	13191.36
825.862	13284.69
826.189	13217.35
826.516	13326.5
826.843	13268.2
827.17	13160.4
827.497	13274.98
827.824	13333.73
828.151	13290.57
828.478	13267.29
828.805	13351.58
829.131	13190.68
829.458	13279.04
829.785	13159.27
830.111	13157.46
830.438	13206.73
830.764	13195.2
831.09	13245.82
831.417	13186.16
831.743	13237.91
832.069	13159.5
832.395	13150.91
832.722	13136.67
833.048	13205.15
833.374	13192.27
833.7	13055.55
834.026	13086.05
834.351	13153.62
834.677	13161.76
835.003	13087.64
835.329	13064.13
835.654	13032.95
835.98	13048.99
836.306	12985.49
836.631	13058.26
836.956	13036.79
837.282	12985.72
837.607	12933.97
837.932	12941.43
838.258	12843.8
838.583	12928.32
838.908	12829.79
839.233	12802.9
839.558	12844.03
839.883	12755.44
840.208	12750.92
840.533	12724.03
840.858	12708.21
841.182	12637.25
841.507	12726.74
841.832	12632.05
842.156	12657.14
842.481	12566.07
842.805	12543.02
843.13	12475.45
843.454	12440.42
843.778	12489.23
844.103	12406.52
844.427	12386.86
844.751	12372.17
845.075	12342.8
845.399	12401.55
845.723	12236.81
846.047	12286.75
846.371	12137.38
846.695	12104.84
847.019	12046.53
847.343	12052.64
847.666	11910.94
847.99	11902.81
848.313	11806.09
848.637	11814.45
848.96	11747.78
849.284	11738.97
849.607	11621.69
849.931	11625.98
850.254	11500.33
850.577	11503.5
850.9	11393.67
851.223	11477.96
851.546	11350.96
851.869	11282.94
852.192	11401.8
852.515	11253.79
852.838	11242.94
853.161	11201.58
853.483	11122.26
853.806	11083.17
854.129	11019.67
854.451	11077.52
854.774	10978.76
855.096	10999.56
855.419	10900.35
855.741	10882.72
856.063	10795.72
856.385	10806.79
856.708	10768.38
857.03	10744.42
857.352	10727.92
857.674	10706.91
857.996	10648.83
858.318	10649.06
858.64	10590.3
858.961	10534.03
859.283	10532.9
859.605	10476.63
859.926	10494.48
860.248	10452.68
860.57	10347.37
860.891	10483.18
861.212	10407.71
861.534	10377.2
861.855	10308.05
862.176	10360.7
862.498	10323.87
862.819	10329.97
863.14	10251.55
863.461	10237.99
863.782	10190.54
864.103	10213.36
864.424	10193.02
864.745	10185.57
865.065	10129.3
865.386	10108.51
865.707	10078.45
866.027	10098.34
866.348	10088.84
866.668	10078.68
866.989	10012.69
867.309	9914.16
867.63	10034.16
867.95	9990.77
868.27	9900.6
868.59	9950.54
868.91	9862.64
869.23	9910.77
869.55	9833.03
869.87	9870.32
870.19	9870.32
870.51	9821.73
870.83	9824.22
871.15	9779.47
871.469	9741.96
871.789	9772.02
872.109	9753.94
872.428	9702.87
872.748	9731.79
873.067	9734.73
873.386	9723.88
873.706	9702.19
874.025	9679.59
874.344	9584.68
874.663	9660.16
874.982	9609.54
875.301	9588.97
875.62	9538.35
875.939	9594.17
876.258	9550.33
876.577	9524.34
876.896	9457
877.214	9423.78
877.533	9489.99
877.852	9452.48
878.17	9434.85
878.489	9481.18
878.807	9428.3
879.125	9332.48
879.444	9417.9
879.762	9447.51
880.08	9341.97
880.398	9374.97
880.716	9317.11
881.034	9237.79
881.352	9267.62
881.67	9244.12
881.988	9286.15
882.306	9216.78
882.624	9162.09
882.941	9146.95
883.259	9102.43
883.577	9043
883.894	9078.93
884.212	9069.66
884.529	9068.76
884.846	9035.31
885.164	9023.79
885.481	8937.01
885.798	9035.99
886.115	8942.43
886.432	8926.84
886.75	8941.53
887.067	8901.08
887.383	8865.37
887.7	8873.74
888.017	8846.62
888.334	8914.86
888.651	8795.09
888.967	8843.68
889.284	8722.78
889.6	8742.67
889.917	8665.15
890.233	8663.8
890.55	8700.63
890.866	8622.89
891.182	8595.78
891.498	8582.44
891.815	8525.27
892.131	8547.87
892.447	8539.73
892.763	8471.94
893.079	8450.47
893.395	8410.92
893.71	8370.02
894.026	8372.96
894.342	8362.79
894.657	8352.85
894.973	8282.11
895.289	8253.19
895.604	8253.86
895.92	8212.06
896.235	8222.68
896.55	8153.53
896.865	8160.76
897.181	8130.25
897.496	8147.2
897.811	8043.93
898.126	8057.49
898.441	7996.47
898.756	7987.21
899.071	7972.74
899.386	7975.23
899.7	7880.54
900.015	7877.15
900.33	7783.37
900.644	7814.33
900.959	7841.45
901.273	7809.36
901.588	7728.68
901.902	7681.22
902.216	7674.22
902.531	7648.68
902.845	7654.11
903.159	7560.32
903.473	7584.5
903.787	7560.78
904.101	7500.66
904.415	7512.64
904.729	7448.24
905.042	7468.8
905.356	7373.66
905.67	7359.2
905.984	7313.1
906.297	7354.45
906.611	7276.72
906.924	7271.07
907.237	7235.36
907.551	7237.17
907.864	7241.01
908.177	7158.98
908.491	7159.88
908.804	7102.48
909.117	7043.05
909.43	7069.26
909.743	6965.31
910.056	6962.6
910.368	6951.75
910.681	6975.48
910.994	6892.54
911.307	6905.65
911.619	6814.35
911.932	6846.22
912.244	6734.58
912.557	6801.7
912.869	6754.47
913.181	6702.04
913.494	6678.09
913.806	6655.26
914.118	6598.54
914.43	6592.67
914.742	6601.25
915.054	6515.61
915.366	6525.1
915.678	6465.66
915.99	6517.64
916.302	6431.31
916.613	6348.15
916.925	6377.76
917.236	6361.49
917.548	6304.76
917.859	6335.27
918.171	6257.08
918.482	6189.06
918.794	6200.36
919.105	6213.47
919.416	6144.99
919.727	6130.98
920.038	6131.89
920.349	6100.48
920.66	6058.44
920.971	6090.31
921.282	6055.5
921.593	6023.19
921.903	5984.77
922.214	5988.39
922.525	5884.66
922.835	5927.37
923.146	5892.12
923.456	5876.53
923.767	5836.08
924.077	5812.57
924.387	5780.71
924.697	5706.14
925.008	5736.87
925.318	5703.42
925.628	5719.47
925.938	5642.18
926.248	5625.01
926.558	5580.26
926.867	5566.7
927.177	5564.44
927.487	5516.99
927.796	5463.43
928.106	5540.04
928.416	5455.29
928.725	5454.16
929.034	5384.56
929.344	5387.27
929.653	5411
929.962	5378.46
930.271	5341.4
930.581	5294.85
930.89	5237
931.199	5260.05
931.508	5246.71
931.817	5245.81
932.125	5234.28
932.434	5154.96
932.743	5130.56
933.051	5114.74
933.36	5109.99
933.669	5072.48
933.977	5046.27
934.286	5029.99
934.594	4995.87
934.902	5005.14
935.21	4952.03
935.519	4929.43
935.827	4918.81
936.135	4948.42
936.443	4888.76
936.751	4880.17
937.059	4834.97
937.367	4816.67
937.674	4811.7
937.982	4792.71
938.29	4778.93
938.597	4787.06
938.905	4709.1
939.213	4703.22
939.52	4694.18
939.827	4678.59
940.135	4655.99
940.442	4623
940.749	4596.79
941.056	4602.89
941.363	4565.15
941.67	4573.96
941.977	4510.46
942.284	4502.1
942.591	4518.82
942.898	4435.21
943.205	4453.74
943.511	4421.88
943.818	4387.75
944.125	4372.61
944.431	4352.27
944.738	4340.97
945.044	4342.33
945.35	4323.35
945.657	4312.73
945.963	4278.6
946.269	4253.29
946.575	4230.69
946.881	4187.31
947.187	4232.5
947.493	4222.78
947.799	4170.13
948.105	4165.38
948.41	4162
948.716	4136.23
949.022	4174.2
949.327	4066.86
949.633	4059.4
949.938	4086.74
950.244	4052.62
950.549	4029.8
950.854	4007.42
951.16	4000.87
951.465	3954.99
951.77	3978.72
952.075	3929.91
952.38	3913.41
952.685	3938.5
952.99	3888.78
953.294	3886.75
953.599	3839.97
953.904	3831.83
954.209	3796.35
954.513	3774.43
954.818	3789.12
955.122	3744.38
955.426	3736.02
955.731	3715.91
956.035	3692.85
956.339	3726.07
956.643	3700.09
956.948	3670.71
957.252	3656.7
957.556	3639.97
957.86	3649.92
958.163	3665.74
958.467	3616.47
958.771	3597.26
959.075	3542.58
959.378	3555.23
959.682	3576.93
959.985	3500.54
960.289	3498.74
960.592	3525.85
960.896	3510.49
961.199	3477.49
961.502	3451.05
961.805	3437.72
962.108	3397.95
962.411	3439.53
962.714	3414.22
963.017	3374.9
963.32	3349.59
963.623	3331.06
963.926	3327.21
964.228	3279.53
964.531	3285.41
964.833	3321.57
965.136	3276.37
965.438	3307.33
965.741	3237.27
966.043	3216.94
966.345	3229.36
966.648	3203.6
966.95	3191.4
967.252	3220.32
967.554	3137.16
967.856	3179.65
968.158	3122.93
968.46	3115.02
968.761	3106.88
969.063	3118.41
969.365	3115.02
969.666	3051.74
969.968	3072.53
970.269	3034.12
970.571	3012.19
970.872	3004.74
971.174	2996.6
971.475	2978.3
971.776	2998.86
972.077	2996.38
972.378	2957.51
972.679	2971.07
972.98	2951.63
973.281	2898.75
973.582	2887.9
973.883	2882.71
974.183	2891.75
974.484	2892.65
974.785	2829.6
975.085	2833.89
975.386	2855.14
975.686	2828.92
975.986	2789.15
976.287	2829.37
976.587	2725.65
976.887	2754.8
977.187	2758.64
977.487	2772.88
977.787	2729.94
978.087	2718.19
978.387	2700.11
978.687	2695.37
978.987	2685.65
979.286	2629.83
979.586	2681.13
979.885	2648.59
980.185	2624.18
980.484	2594.13
980.784	2633.9
981.083	2560.23
981.382	2609.04
981.682	2581.25
981.981	2545.54
982.28	2557.97
982.579	2549.61
982.878	2515.26
983.177	2517.74
983.475	2520.23
983.774	2497.41
984.073	2490.63
984.372	2468.71
984.67	2459.89
984.969	2495.82
985.267	2465.32
985.566	2442.04
985.864	2436.84
986.162	2444.07
986.461	2440.23
986.759	2395.26
987.057	2382.15
987.355	2356.39
987.653	2367.24
987.951	2365.21
988.249	2342.38
988.547	2320.24
988.844	2297.86
989.142	2318.2
989.44	2286.11
989.737	2277.98
990.035	2259.45
990.332	2280.91
990.63	2257.19
990.927	2259.9
991.224	2225.55
991.521	2220.35
991.819	2217.64
992.116	2222.16
992.413	2206.79
992.71	2210.18
993.006	2186.68
993.303	2169.05
993.6	2167.25
993.897	2151.65
994.193	2144.65
994.49	2098.77
994.787	2154.14
995.083	2103.52
995.379	2070.52
995.676	2094.25
995.972	2072.56
996.268	2066
996.565	2068.26
996.861	2018.32
997.157	2061.03
997.453	2047.02
997.749	2021.03
998.044	1980.81
998.34	2016.51
998.636	1979.45
998.932	2001.83
999.227	1985.78
999.523	1979
999.818	1957.31
1000.114	1928.61
1000.409	1942.84
1000.704	1959.79
1001	1905.33
1001.295	1910.3
1001.59	1839.12
1001.885	1876.41
1002.18	1870.08
1002.475	1864.65
1002.77	1860.81
1003.065	1828.05
1003.359	1830.08
1003.654	1816.97
1003.949	1829.18
1004.243	1796.63
1004.538	1808.61
1004.832	1803.64
1005.127	1795.28
1005.421	1764.77
1005.715	1767.26
1006.009	1743.75
1006.304	1736.3
1006.598	1736.3
1006.892	1713.02
1007.186	1736.3
1007.48	1707.37
1007.773	1695.39
1008.067	1678.22
1008.361	1639.8
1008.655	1690.87
1008.948	1700.14
1009.242	1660.37
1009.535	1659.24
1009.829	1633.25
1010.122	1596.41
1010.415	1602.97
1010.708	1623.53
1011.001	1604.32
1011.295	1586.7
1011.588	1581.5
1011.881	1556.19
1012.173	1552.35
1012.466	1539.92
1012.759	1557.09
1013.052	1528.39
1013.344	1548.96
1013.637	1498.34
1013.93	1494.27
1014.222	1486.13
1014.514	1483.2
1014.807	1515.29
1015.099	1477.09
1015.391	1448.85
1015.683	1470.54
1015.976	1432.8
1016.268	1430.99
1016.56	1422.18
1016.851	1415.85
1017.143	1409.53
1017.435	1424.44
1017.727	1383.09
1018.018	1392.12
1018.31	1391.9
1018.602	1383.09
1018.893	1361.39
1019.185	1345.12
1019.476	1343.31
1019.767	1349.64
1020.058	1321.17
1020.35	1320.04
1020.641	1321.17
1020.932	1306.02
1021.223	1338.57
1021.514	1296.76
1021.804	1264.67
1022.095	1289.53
1022.386	1279.13
1022.677	1254.05
1022.967	1259.25
1023.258	1258.12
1023.548	1232.35
1023.839	1209.53
1024.129	1218.8
1024.419	1198.46
1024.709	1202.3
1025	1182.86
1025.29	1179.7
1025.58	1167.27
1025.87	1159.81
1026.16	1186.48
1026.449	1184.67
1026.739	1125.69
1027.029	1142.19
1027.319	1147.39
1027.608	1144.9
1027.898	1125.92
1028.187	1147.84
1028.477	1110.78
1028.766	1110.1
1029.055	1075.97
1029.344	1091.57
1029.634	1080.95
1029.923	1040.04
1030.212	1047.27
1030.501	1079.36
1030.79	1054.96
1031.078	1008.41
1031.367	1012.25
1031.656	1030.33
1031.945	1040.72
1032.233	1022.42
1032.522	1023.77
1032.81	1013.6
1033.099	998.24
1033.387	992.59
1033.675	984.68
1033.963	979.25
1034.251	976.32
1034.54	962.76
1034.828	974.73
1035.116	965.02
1035.403	980.38
1035.691	941.29
1035.979	922.31
1036.267	943.55
1036.554	922.53
1036.842	930.44
1037.129	915.75
1037.417	917.11
1037.704	923.21
1037.992	910.1
1038.279	907.84
1038.566	884.79
1038.853	884.79
1039.14	884.79
