Data from hue_310_FLMS001491_15.txt Node
Date: Mon Feb 06 15:48:54 GMT 2017
User: dcchb
Spectrometer: FLMS00149
Trigger mode: 0
Integration Time (sec): 2.000000E-2
Scans to average: 10
Electric dark correction enabled: true
Nonlinearity correction enabled: false
Boxcar width: 0
XAxis mode: Wavelengths
Number of Pixels in Spectrum: 2048
>>>>>Begin Spectral Data<<<<<
341.393	-17.8
341.776	-17.8
342.16	-17.8
342.543	-75.42
342.927	-72.03
343.31	-64.35
343.693	-54.18
344.077	-64.8
344.46	-62.09
344.843	-56.44
345.226	-48.53
345.61	-32.71
345.993	-20.96
346.376	-25.25
346.759	1.86
347.142	43.9
347.525	56.78
347.908	50.45
348.291	69.66
348.674	92.94
349.057	113.73
349.44	125.7
349.823	142.43
350.206	190.79
350.588	197.79
350.971	231.01
351.354	218.81
351.737	223.1
352.119	238.47
352.502	252.03
352.884	273.72
353.267	301.29
353.65	303.1
354.032	303.55
354.414	273.5
354.797	309.2
355.179	315.53
355.562	301.52
355.944	320.05
356.326	322.76
356.709	324.34
357.091	327.05
357.473	312.14
357.855	329.31
358.238	341.74
358.62	324.57
359.002	332.7
359.384	321.63
359.766	336.09
360.148	342.87
360.53	315.98
360.912	329.99
361.294	333.38
361.676	327.96
362.057	327.96
362.439	318.01
362.821	319.14
363.203	313.27
363.584	313.72
363.966	337
364.348	307.62
364.729	301.74
365.111	322.76
365.493	324.57
365.874	311.01
366.256	304.91
366.637	308.3
367.019	299.71
367.4	332.7
367.781	308.3
368.163	325.92
368.544	305.59
368.925	297
369.306	311.46
369.688	307.62
370.069	302.42
370.45	307.85
370.831	290.9
371.212	288.41
371.593	296.09
371.974	297.9
372.355	308.3
372.736	285.7
373.117	290.67
373.498	314.62
373.879	330.9
374.26	305.59
374.641	311.91
375.021	322.08
375.402	318.92
375.783	308.75
376.163	306.72
376.544	327.05
376.925	324.34
377.305	316.21
377.686	322.99
378.066	344
378.447	321.63
378.827	321.18
379.208	335.19
379.588	318.01
379.968	318.01
380.349	323.66
380.729	321.18
381.109	327.96
381.489	318.92
381.87	326.6
382.25	322.53
382.63	326.15
383.01	344.23
383.39	329.99
383.77	329.09
384.15	331.12
384.53	317.56
384.91	342.42
385.29	337.67
385.67	348.75
386.049	349.2
386.429	348.97
386.809	354.17
387.189	342.42
387.568	336.32
387.948	332.48
388.328	350.56
388.707	367.5
389.087	341.97
389.466	355.08
389.846	353.95
390.225	338.35
390.605	364.57
390.984	351.01
391.363	351.46
391.743	364.79
392.122	364.79
392.501	368.18
392.881	372.02
393.26	361.18
393.639	358.01
394.018	379.03
394.397	382.19
394.776	370.44
395.155	355.08
395.534	351.46
395.913	362.76
396.292	393.94
396.671	382.65
397.05	384.45
397.429	392.59
397.808	383.55
398.186	395.3
398.565	370.89
398.944	389.42
399.323	387.39
399.701	403.44
400.08	402.31
400.458	393.72
400.837	385.81
401.215	391.68
401.594	401.63
401.972	379.26
402.351	418.58
402.729	419.03
403.107	404.11
403.486	433.72
403.864	401.63
404.242	414.28
404.62	414.73
404.999	454.96
405.377	421.06
405.755	418.35
406.133	417.45
406.511	438.69
406.889	436.88
407.267	447.73
407.645	456.09
408.023	452.7
408.401	446.6
408.779	455.41
409.156	457.67
409.534	469.65
409.912	479.14
410.29	487.28
410.667	484.11
411.045	479.59
411.422	497.9
411.8	507.61
412.178	512.59
412.555	509.42
412.933	513.72
413.31	537.67
413.687	531.79
414.065	537.67
414.442	557.1
414.819	560.72
415.197	558.46
415.574	569.31
415.951	571.34
416.328	587.84
416.705	633.71
417.082	599.81
417.46	600.94
417.837	596.88
418.214	636.42
418.591	637.78
418.967	615.86
419.344	646.14
419.721	659.02
420.098	664.22
420.475	672.36
420.852	669.42
421.228	670.77
421.605	680.72
421.982	687.04
422.358	705.8
422.735	709.87
423.111	711.22
423.488	708.51
423.864	721.17
424.241	746.25
424.617	740.15
424.994	740.83
425.37	764.1
425.746	754.16
426.123	768.4
426.499	768.17
426.875	769.75
427.251	825.12
427.627	795.97
428.003	823.76
428.379	824.67
428.756	844.55
429.132	835.97
429.507	873.25
429.883	858.79
430.259	877.55
430.635	867.83
431.011	875.97
431.387	918
431.763	904.67
432.138	949.41
432.514	940.14
432.89	957.55
433.265	946.47
433.641	963.2
434.016	987.83
434.392	999.58
434.767	995.96
435.143	1001.61
435.518	1022.4
435.894	1020.14
436.269	1040.03
436.644	1042.06
437.02	1053.14
437.395	1064.66
437.77	1082.51
438.145	1083.87
438.52	1084.55
438.895	1070.08
439.271	1103.98
439.646	1118.22
440.021	1127.71
440.395	1133.59
440.77	1135.17
441.145	1144.66
441.52	1153.02
441.895	1145.11
442.27	1158.22
442.645	1174.71
443.019	1168.84
443.394	1164.77
443.769	1213.58
444.143	1224.88
444.518	1193.92
444.892	1170.2
445.267	1189.86
445.641	1198.22
446.016	1219.91
446.39	1203.41
446.764	1218.33
447.139	1222.17
447.513	1233.02
447.887	1228.05
448.262	1216.75
448.636	1256.52
449.01	1254.71
449.384	1271.89
449.758	1264.43
450.132	1272.11
450.506	1253.13
450.88	1300.14
451.254	1312.56
451.628	1295.84
452.002	1287.03
452.376	1296.97
452.75	1309.85
453.123	1320.47
453.497	1350.08
453.871	1341.49
454.244	1360.7
454.618	1367.93
454.992	1351.43
455.365	1387.36
455.739	1380.81
456.112	1420.13
456.486	1410.41
456.859	1416.29
457.232	1430.75
457.606	1411.32
457.979	1417.87
458.352	1458.1
458.725	1486.12
459.099	1470.53
459.472	1499.23
459.845	1548.49
460.218	1483.63
460.591	1533.12
460.964	1499.45
461.337	1541.94
461.71	1553.01
462.083	1582.16
462.456	1569.05
462.829	1592.33
463.201	1602.05
463.574	1561.82
463.947	1611.77
464.32	1621.93
464.692	1655.38
465.065	1632.1
465.438	1656.96
465.81	1681.14
466.183	1674.14
466.555	1698.54
466.928	1711.65
467.3	1713.01
467.672	1749.39
468.045	1772.44
468.417	1770.18
468.789	1746.23
469.161	1786.68
469.534	1814.47
469.906	1856.96
470.278	1861.48
470.65	1880.46
471.022	1915.26
471.394	1902.61
471.766	1906.67
472.138	1942.83
472.51	1944.64
472.882	1986.67
473.253	1968.14
473.625	2015.82
473.997	2042.71
474.369	2023.28
474.74	2059.44
475.112	2060.12
475.484	2103.28
475.855	2132.88
476.227	2138.76
476.598	2157.29
476.97	2218.98
477.341	2240.9
477.713	2233.9
478.084	2292.65
478.455	2272.99
478.827	2284.06
479.198	2344.63
479.569	2352.31
479.94	2390.28
480.311	2401.12
480.682	2446.77
481.053	2496.49
481.424	2515.02
481.795	2540.1
482.166	2570.61
482.537	2543.04
482.908	2647.22
483.279	2653.09
483.65	2663.26
484.021	2667.11
484.391	2722.92
484.762	2732.19
485.133	2738.97
485.503	2766.76
485.874	2790.04
486.244	2820.55
486.615	2861.22
486.985	2848.12
487.356	2929.02
487.726	2988.9
488.097	3014.44
488.467	2972.86
488.837	3018.51
489.207	3108
489.578	3087.66
489.948	3101.44
490.318	3122.46
490.688	3148.67
491.058	3211.05
491.428	3166.98
491.798	3261.67
492.168	3294.66
492.538	3324.71
492.908	3314.32
493.278	3387.76
493.648	3336.69
494.017	3370.59
494.387	3404.71
494.757	3397.26
495.126	3477.03
495.496	3505.28
495.866	3494.65
496.235	3532.84
496.605	3558.61
496.974	3570.58
497.344	3553.18
497.713	3558.61
498.082	3576.91
498.452	3621.43
498.821	3650.36
499.19	3633.41
499.559	3663.69
499.928	3703.24
500.298	3661.2
500.667	3762.44
501.036	3693.97
501.405	3719.05
501.774	3760.41
502.143	3754.08
502.512	3786.62
502.88	3804.93
503.249	3785.72
503.618	3791.6
503.987	3858.94
504.356	3824.59
504.724	3907.07
505.093	3844.25
505.462	3898.49
505.83	3926.51
506.199	3926.05
506.567	3950.91
506.936	3925.6
507.304	3968.54
507.672	4018.48
508.041	4011.93
508.409	4023.91
508.777	4021.65
509.145	4012.61
509.514	4065.71
509.882	4024.81
510.25	4064.36
510.618	4079.95
510.986	4123.79
511.354	4152.04
511.722	4119.5
512.09	4165.82
512.458	4154.3
512.826	4129.21
513.193	4201.98
513.561	4170.34
513.929	4190
514.297	4206.73
514.664	4233.84
515.032	4257.8
515.4	4255.09
515.767	4231.81
516.135	4278.14
516.502	4267.97
516.869	4340.06
517.237	4343.45
517.604	4257.12
517.972	4364.46
518.339	4344.8
518.706	4320.85
519.073	4350.9
519.44	4386.61
519.808	4376.89
520.175	4399.71
520.542	4420.51
520.909	4455.08
521.276	4447.62
521.643	4471.8
522.009	4464.12
522.376	4488.98
522.743	4522.42
523.11	4513.61
523.477	4562.42
523.843	4554.96
524.21	4619.37
524.577	4589.31
524.943	4658.01
525.31	4668.41
525.676	4681.29
526.043	4694.4
526.409	4752.25
526.776	4793.38
527.142	4753.15
527.508	4786.82
527.874	4854.39
528.241	4862.08
528.607	4816.88
528.973	4877.89
529.339	4898.23
529.705	4889.42
530.071	4956.99
530.437	5022.3
530.803	5010.32
531.169	5018.68
531.535	5038.12
531.901	5066.82
532.267	5049.64
532.632	5109.53
532.998	5060.49
533.364	5136.19
533.73	5166.02
534.095	5208.96
534.461	5192.24
534.826	5197.43
535.192	5255.29
535.557	5295.28
535.923	5255.74
536.288	5296.87
536.653	5289.86
537.019	5342.51
537.384	5292.35
537.749	5395.62
538.114	5324.89
538.479	5405.11
538.845	5437.2
539.21	5455.73
539.575	5441.5
539.94	5481.27
540.305	5514.49
540.67	5512.91
541.034	5524.21
541.399	5569.63
541.764	5643.98
542.129	5675.39
542.494	5664.31
542.858	5683.07
543.223	5709.74
543.587	5689.17
543.952	5704.09
544.316	5737.98
544.681	5737.08
545.045	5828.38
545.41	5870.86
545.774	5872.67
546.138	5884.87
546.503	5872.44
546.867	5907.02
547.231	5996.28
547.595	5900.01
547.959	5964.65
548.324	6010.07
548.688	5965.78
549.052	6032.67
549.416	6105.88
549.779	6094.59
550.143	6106.11
550.507	6186.11
550.871	6169.39
551.235	6112.66
551.599	6165.09
551.962	6166.67
552.326	6208.71
552.689	6287.12
553.053	6234.24
553.417	6264.52
553.78	6340
554.143	6312.43
554.507	6330.29
554.87	6279.44
555.234	6419.32
555.597	6349.49
555.96	6460.45
556.323	6405.76
556.686	6434.69
557.05	6501.58
557.413	6479.66
557.776	6548.36
558.139	6518.3
558.502	6533.67
558.865	6581.58
559.228	6595.59
559.59	6654.8
559.953	6630.62
560.316	6683.27
560.679	6674.01
561.041	6682.82
561.404	6747.9
561.767	6760.33
562.129	6796.04
562.492	6801.23
562.854	6764.85
563.217	6790.84
563.579	6856.83
563.941	6857.28
564.304	6863.83
564.666	6906.99
565.028	6952.87
565.39	7003.26
565.753	6997.84
566.115	6961.46
566.477	7021.34
566.839	6998.29
567.201	7089.36
567.563	7099.76
567.925	7117.61
568.287	7153.99
568.648	7217.49
569.01	7167.33
569.372	7154.44
569.734	7212.3
570.095	7351.28
570.457	7343.82
570.819	7362.8
571.18	7382.46
571.542	7394.89
571.903	7466.53
572.265	7443.93
572.626	7509.24
572.987	7528.9
573.349	7535.23
573.71	7709.46
574.071	7761.89
574.432	7756.46
574.794	7824.71
575.155	7813.41
575.516	7926.63
575.877	7923.24
576.238	8025.38
576.599	8072.61
576.96	8168.66
577.32	8232.83
577.681	8280.52
578.042	8360.74
578.403	8452.04
578.763	8478.7
579.124	8645.48
579.485	8766.15
579.845	8844.57
580.206	8921.63
580.566	8938.35
580.927	9130.89
581.287	9321.62
581.648	9394.39
582.008	9494.04
582.368	9620.59
582.728	9802.96
583.089	9897.88
583.449	10111.88
583.809	10236.85
584.169	10417.18
584.529	10517.97
584.889	10826.66
585.249	10904.85
585.609	11096.49
585.969	11302.13
586.329	11532.18
586.688	11672.52
587.048	11960.65
587.408	12249.45
587.768	12429.56
588.127	12653.51
588.487	12865.48
588.846	13201.97
589.206	13271.8
589.565	13615.29
589.925	13859.58
590.284	14128.95
590.643	14416.17
591.003	14683.96
591.362	14936.39
591.721	15222.48
592.08	15435.36
592.44	15808.91
592.799	16089.8
593.158	16287.31
593.517	16649.34
593.876	16879.39
594.235	17129.78
594.593	17688.18
594.952	17916.65
595.311	18037.77
595.67	18446.35
596.029	18873.46
596.387	19121.59
596.746	19341.69
597.104	19601.12
597.463	19929.7
597.822	20345.51
598.18	20507.99
598.538	20776.23
598.897	21188.88
599.255	21271.81
599.613	21822.53
599.972	22055.97
600.33	22340.71
600.688	22540.71
601.046	22947.48
601.404	23370.74
601.762	23520.57
602.12	23821.13
602.478	24061.8
602.836	24386.53
603.194	24566.42
603.552	24768.22
603.91	24989.46
604.268	25387.64
604.625	25502.44
604.983	25950.33
605.341	26072.37
605.698	26547.38
606.056	26759.13
606.413	26953.25
606.771	27243.86
607.128	27495.15
607.485	27666.45
607.843	27976.27
608.2	28188.47
608.557	28465.07
608.914	28712.97
609.272	28972.63
609.629	29204.94
609.986	29499.17
610.343	29539.84
610.7	29899.16
611.057	30023.45
611.414	30211.47
611.771	30372.37
612.127	30691.45
612.484	30872.47
612.841	31048.96
613.198	31143.87
613.554	31277.2
613.911	31696.85
614.267	31871.99
614.624	31996.28
614.98	32088.7
615.337	32482.14
615.693	32452.99
616.05	32662.47
616.406	32917.84
616.762	32843.26
617.118	33055.23
617.475	33302.01
617.831	33452.28
618.187	33595.78
618.543	33827.19
618.899	33995.32
619.255	34043.68
619.611	34116.9
619.967	34275.99
620.323	34494.52
620.678	34533.16
621.034	34627.17
621.39	34793.27
621.746	34753.04
622.101	35201.62
622.457	35144.22
622.812	35146.48
623.168	35476.86
623.523	35455.4
623.879	35652.45
624.234	35581.27
624.589	35711.66
624.945	35642.74
625.3	35976.74
625.655	35862.16
626.01	36022.84
626.365	36233.45
626.72	36119.78
627.075	36189.61
627.43	36303.06
627.785	36379.44
628.14	36477.74
628.495	36552.09
628.85	36474.35
629.205	36505.09
629.559	36774.23
629.914	36682.71
630.269	36687.45
630.623	36681.58
630.978	36594.12
631.332	36894.45
631.687	36979.88
632.041	36878.41
632.396	36837.73
632.75	36878.63
633.104	36956.6
633.459	36783.95
633.813	36735.59
634.167	36933.55
634.521	36942.14
634.875	36915.47
635.229	36978.29
635.583	36789.15
635.937	36932.87
636.291	36778.52
636.645	37073.21
636.999	36934.23
637.352	37045.86
637.706	36911.85
638.06	37032.3
638.413	36986.43
638.767	36926.77
639.121	36990.5
639.474	36722.03
639.828	36793.44
640.181	36837.05
640.534	36982.81
640.888	36900.56
641.241	36811.07
641.594	36817.62
641.947	36908.24
642.301	36821.01
642.654	36890.61
643.007	36769.94
643.36	36857.39
643.713	36809.03
644.066	36878.86
644.419	36653.1
644.771	36631.18
645.124	36148.26
645.477	36182.83
645.83	35906.68
646.182	35757.31
646.535	35767.03
646.888	35877.08
647.24	35683.41
647.593	35835.72
647.945	35835.95
648.298	35627.37
648.65	35628.72
649.002	35527.71
649.355	35692.68
649.707	35733.13
650.059	35610.65
650.411	36158.65
650.763	36279.1
651.115	36564.97
651.467	36538.3
651.819	36405.65
652.171	36449.95
652.523	36314.13
652.875	36410.4
653.227	36148.26
653.578	36512.77
653.93	36384.41
654.282	36317.07
654.633	36123.4
654.985	36310.06
655.337	36361.36
655.688	36347.35
656.039	36304.41
656.391	36064.87
656.742	36125.89
657.094	36131.99
657.445	36340.57
657.796	36163.63
658.147	36110.97
658.498	36124.53
658.849	36192.1
659.2	36101.93
659.551	35913.01
659.902	36077.75
660.253	36121.82
660.604	36143.29
660.955	36088.6
661.306	36043.85
661.656	36048.83
662.007	36006.79
662.358	36111.65
662.708	36206.11
663.059	36133.12
663.409	35795.27
663.76	36125.21
664.11	35896.29
664.461	36010.18
664.811	36033.01
665.161	35921.6
665.511	35944.42
665.862	35927.7
666.212	36063.97
666.562	36127.69
666.912	35977.19
667.262	35926.57
667.612	35986.23
667.962	36038.2
668.312	35981.48
668.662	36073.91
669.011	35957.98
669.361	35979.9
669.711	36002.95
670.06	35875.05
670.41	35836.63
670.76	35867.14
671.109	36007.02
671.459	35752.11
671.808	35657.2
672.157	35865.78
672.507	35702.85
672.856	35560.48
673.205	35690.42
673.554	35860.13
673.904	35661.27
674.253	35891.54
674.602	35720.7
674.951	35246.36
675.3	35107.61
675.649	35583.53
675.998	35567.03
676.346	35633.7
676.695	35675.05
677.044	35371.33
677.393	35553.25
677.741	35560.25
678.09	35646.8
678.438	35395.28
678.787	35544.21
679.135	35514.83
679.484	35194.16
679.832	35476.64
680.181	35264.89
680.529	35470.54
680.877	35323.65
681.225	35239.13
681.573	35395.51
681.922	35158.68
682.27	34974.5
682.618	34972.47
682.966	35046.37
683.314	35072.13
683.661	34861.06
684.009	34807.05
684.357	34733.61
684.705	34754.17
685.053	34777.22
685.4	34690.44
685.748	34547.4
686.095	34457.91
686.443	34330.45
686.79	34220.85
687.138	34333.84
687.485	34383.79
687.832	34232.6
688.18	34230.12
688.527	34094.53
688.874	34127.75
689.221	34044.59
689.568	33901.31
689.915	33888.43
690.262	33721.88
690.609	33625.39
690.956	33751.71
691.303	33520.53
691.65	33370.48
691.997	33410.03
692.344	33376.81
692.69	33222.46
693.037	33263.81
693.383	32957.83
693.73	33114.67
694.077	32958.29
694.423	32979.98
694.769	32727.78
695.116	32690.04
695.462	32725.3
695.808	32684.85
696.155	32702.7
696.501	32252.54
696.847	32424.51
697.193	32133.9
697.539	32425.87
697.885	32140
698.231	31946.34
698.577	31986.11
698.923	31902.04
699.269	31723.74
699.614	31610.75
699.96	31617.98
700.306	31709.96
700.651	31425.67
700.997	31437.65
701.342	31420.7
701.688	31287.14
702.033	31298.89
702.379	31169.18
702.724	31086.24
703.069	31156.3
703.415	30757.44
703.76	30762.41
704.105	30607.84
704.45	30691.9
704.795	30633.83
705.14	30572.81
705.485	30470.22
705.83	30440.61
706.175	30315.87
706.52	30276.77
706.865	30134.86
707.209	29998.36
707.554	29973.05
707.899	30111.81
708.243	29824.81
708.588	29863.45
708.932	29718.82
709.277	29712.72
709.621	29745.49
709.966	29527.42
710.31	29633.18
710.654	29424.37
710.998	29419.62
711.342	29369.23
711.687	29290.13
712.031	29138.05
712.375	29148.22
712.719	29203.81
713.063	29068.22
713.407	29096.69
713.75	28833.2
714.094	28931.95
714.438	28857.15
714.782	28911.84
715.125	28747.1
715.469	28658.06
715.812	28508.46
716.156	28359.08
716.499	28512.3
716.843	28489.93
717.186	28362.02
717.53	28440.89
717.873	28473.21
718.216	28430.5
718.559	28122.25
718.902	28082.71
719.246	28177.62
719.589	28102.14
719.932	27887.46
720.275	27942.15
720.617	27813.11
720.96	27825.54
721.303	27877.97
721.646	27806.33
721.989	27555.72
722.331	27787.57
722.674	27753.23
723.016	27594.36
723.359	27565.43
723.701	27710.97
724.044	27464.19
724.386	27225.33
724.729	27416.74
725.071	27305.78
725.413	27207.7
725.755	27328.6
726.097	27223.97
726.439	27196.4
726.782	27038.44
727.124	27212.45
727.465	27066.69
727.807	26910.76
728.149	26832.35
728.491	26947.37
728.833	26891.33
729.175	26664.44
729.516	26715.51
729.858	26669.86
730.199	26801.16
730.541	26711.67
730.882	26578.79
731.224	26661.5
731.565	26471.9
731.906	26463.99
732.248	26441.62
732.589	26289.99
732.93	26271.23
733.271	26288.86
733.612	26260.38
733.953	26346.26
734.294	26279.82
734.635	26071.69
734.976	26310.55
735.317	25945.14
735.658	26017.68
735.999	26046.15
736.339	25906.49
736.68	26056.77
737.021	25988.75
737.361	25789.43
737.702	25941.97
738.042	25880.05
738.383	25748.98
738.723	25872.14
739.063	25737.23
739.404	25774.07
739.744	25695.65
740.084	25675.77
740.424	25669.44
740.764	25665.14
741.104	25537.92
741.444	25403.91
741.784	25332.5
742.124	25415.89
742.464	25352.84
742.804	25277.13
743.143	25383.8
743.483	25351.03
743.823	25200.75
744.162	25170.47
744.502	25182.45
744.841	24996.24
745.181	25224.03
745.52	25029.45
745.86	25077.36
746.199	25004.14
746.538	24896.8
746.877	24994.2
747.216	24911.94
747.556	24924.37
747.895	24934.99
748.234	24621.78
748.573	24814.55
748.911	24732.06
749.25	24706.98
749.589	24570.94
749.928	24553.76
750.267	24598.28
750.605	24556.92
750.944	24447.1
751.283	24296.59
751.621	24490.03
751.96	24223.37
752.298	24268.8
752.636	24278.29
752.975	24040.1
753.313	24087.11
753.651	24175.24
753.989	23971.4
754.327	23957.62
754.666	23924.17
755.004	23892.99
755.342	23919.2
755.679	23790.84
756.017	23639.89
756.355	23831.97
756.693	23716.95
757.031	23602.83
757.368	23511.3
757.706	23473.34
758.044	23388.59
758.381	23390.4
758.719	23326.45
759.056	23314.92
759.394	23192.44
759.731	23126.68
760.068	23044.87
760.405	23018.66
760.743	22908.61
761.08	23005.78
761.417	22872.9
761.754	22789.97
762.091	22839.68
762.428	22756.07
762.765	22463.87
763.102	22613.02
763.438	22543.87
763.775	22369.41
764.112	22385
764.449	22365.8
764.785	22222.75
765.122	22193.15
765.458	21968.52
765.795	21981.85
766.131	21940.95
766.467	21830.22
766.804	21794.06
767.14	21666.61
767.476	21679.03
767.812	21613.05
768.148	21652.37
768.485	21476.1
768.821	21383.9
769.157	21384.35
769.492	21385.26
769.828	21239.27
770.164	21008.32
770.5	20964.93
770.836	20977.58
771.171	20911.37
771.507	20915.21
771.842	20642.9
772.178	20695.11
772.513	20539.18
772.849	20601.77
773.184	20439.07
773.519	20347.77
773.855	20336.47
774.19	20319.97
774.525	20162.46
774.86	20024.84
775.195	20099.87
775.53	20079.53
775.865	19879.53
776.2	19844.73
776.535	19731.74
776.87	19733.1
777.205	19533.78
777.539	19503.05
777.874	19645.42
778.209	19363.84
778.543	19335.14
778.878	19280.68
779.212	19219.44
779.547	19197.74
779.881	19153.23
780.215	19018.54
780.55	19000.23
780.884	18939.67
781.218	18826.91
781.552	18878.2
781.886	18798.43
782.22	18677.08
782.554	18696.74
782.888	18425.79
783.222	18341.27
783.556	18230.99
783.889	18325.9
784.223	18107.38
784.557	18158.9
784.89	18251.1
785.224	18002.07
785.557	17978.57
785.891	17903.31
786.224	17786.03
786.558	17799.81
786.891	17618.35
787.224	17537.45
787.557	17528.64
787.891	17508.07
788.224	17484.34
788.557	17436.21
788.89	17455.19
789.223	17324.8
789.556	17169.77
789.888	17139.04
790.221	17187.85
790.554	16929.55
790.887	16956.45
791.219	16884.36
791.552	16862.89
791.884	16851.14
792.217	16679.84
792.549	16680.07
792.882	16573.86
793.214	16475.1
793.546	16480.3
793.879	16514.42
794.211	16308.78
794.543	16396.69
794.875	16366.86
795.207	16327.54
795.539	16236.47
795.871	16249.57
796.203	15972.74
796.535	15975.91
796.867	15958.51
797.198	15898.85
797.53	15913.54
797.862	15749.7
798.193	15885.51
798.525	15644.84
798.856	15654.33
799.188	15577.27
799.519	15485.75
799.85	15427.9
800.182	15469.93
800.513	15339.99
800.844	15307
801.175	15397.17
801.506	15350.39
801.837	15192.2
802.168	15172.09
802.499	15137.29
802.83	15056.38
803.161	15013
803.491	15024.97
803.822	15014.35
804.153	14990.62
804.483	14840.8
804.814	14822.94
805.145	14725.77
805.475	14806.9
805.805	14636.96
806.136	14693.23
806.466	14622.72
806.796	14646.23
807.126	14389.06
807.457	14451.65
807.787	14439.9
808.117	14491.43
808.447	14323.07
808.777	14336.18
809.107	14260.25
809.436	14220.93
809.766	14243.75
810.096	14175.95
810.426	14088.95
810.755	14117.2
811.085	14064.09
811.414	13995.17
811.744	13906.58
812.073	13861.84
812.403	13878.34
812.732	13773.03
813.061	13876.3
813.39	13748.17
813.719	13663.43
814.049	13752.01
814.378	13667.27
814.707	13633.6
815.036	13632.24
815.365	13545.46
815.693	13319.48
816.022	13469.08
816.351	13474.05
816.68	13287.62
817.008	13380.5
817.337	13281.97
817.665	13215.75
817.994	13258.69
818.322	13283.78
818.651	13098.02
818.979	13137.11
819.307	13181.18
819.636	13119.26
819.964	13033.84
820.292	13099.6
820.62	13143.44
820.948	13040.17
821.276	13074.29
821.604	13005.59
821.932	12971.24
822.259	13030.9
822.587	13000.39
822.915	12955.42
823.243	13047.62
823.57	13014.63
823.898	12935.76
824.225	12902.54
824.553	12974.86
824.88	12959.04
825.207	12985.03
825.535	12923.33
825.862	12973.27
826.189	12852.37
826.516	12992.94
826.843	12952.26
827.17	12966.04
827.497	12940.28
827.824	12987.74
828.151	13050.33
828.478	13029.09
828.805	13042.2
829.131	12902.32
829.458	12971.24
829.785	12824.58
830.111	12880.4
830.438	12925.59
830.764	12857.12
831.09	12908.19
831.417	12882.66
831.743	12890.34
832.069	12961.07
832.395	12849.44
832.722	12928.3
833.048	12824.13
833.374	12931.69
833.7	12759.72
834.026	12813.28
834.351	12889.21
834.677	12817.8
835.003	12858.48
835.329	12811.02
835.654	12847.63
835.98	12768.08
836.306	12727.41
836.631	12650.35
836.956	12724.69
837.282	12738.7
837.607	12607.41
837.932	12589.78
838.258	12596.79
838.583	12609.22
838.908	12481.54
839.233	12465.04
839.558	12463.46
839.883	12475.89
840.208	12469.56
840.533	12438.83
840.858	12461.42
841.182	12359.28
841.507	12440.63
841.832	12312.5
842.156	12305.5
842.481	12281.54
842.805	12232.28
843.13	12231.83
843.454	12281.99
843.778	12166.97
844.103	12113.86
844.427	12164.93
844.751	12109.79
845.075	12034.99
845.399	12009.91
845.723	11907.31
846.047	12036.8
846.371	11880.42
846.695	11879.97
847.019	11776.02
847.343	11772.18
847.666	11721.78
847.99	11596.36
848.313	11623.48
848.637	11539.41
848.96	11553.2
849.284	11470.26
849.607	11380.32
849.931	11416.25
850.254	11232.98
850.577	11294.45
850.9	11125.64
851.223	11219.42
851.546	11105.08
851.869	11098.52
852.192	11070.5
852.515	10962.71
852.838	10969.49
853.161	11010.16
853.483	10905.08
853.806	10914.12
854.129	10819.43
854.451	10856.27
854.774	10759.32
855.096	10775.82
855.419	10722.26
855.741	10632.55
856.063	10642.04
856.385	10629.61
856.708	10555.94
857.03	10483.17
857.352	10421.7
857.674	10432.55
857.996	10433.45
858.318	10407.69
858.64	10363.85
858.961	10308.26
859.283	10296.73
859.605	10226.91
859.926	10277.3
860.248	10203.63
860.57	10174.25
860.891	10115.5
861.212	10139.22
861.534	10103.97
861.855	10054.93
862.176	10028.27
862.498	10112.78
862.819	10007.93
863.14	9997.31
863.461	9939.46
863.782	9904.43
864.103	9937.87
864.424	9965.67
864.745	9935.84
865.065	9853.58
865.386	9847.26
865.707	9834.15
866.027	9921.38
866.348	9843.87
866.668	9811.1
866.989	9710.99
867.309	9705.34
867.63	9765.22
867.95	9815.17
868.27	9724.09
868.59	9726.81
868.91	9774.94
869.23	9660.82
869.55	9636.87
869.87	9628.5
870.19	9690.2
870.51	9662.18
870.83	9638
871.15	9538.79
871.469	9570.65
871.789	9615.62
872.109	9574.04
872.428	9575.62
872.748	9536.3
873.067	9532.24
873.386	9486.36
873.706	9513.25
874.025	9384.22
874.344	9375.63
874.663	9518
874.982	9418.57
875.301	9399.58
875.62	9396.19
875.939	9383.99
876.258	9336.53
876.577	9321.62
876.896	9294.5
877.214	9255.18
877.533	9275.07
877.852	9308.96
878.17	9282.3
878.489	9243.2
878.807	9234.62
879.125	9251.11
879.444	9225.35
879.762	9137.9
880.08	9150.55
880.398	9164.11
880.716	9172.02
881.034	9116.65
881.352	9108.74
881.67	9079.14
881.988	9134.05
882.306	9007.5
882.624	8999.14
882.941	8928.64
883.259	8883.89
883.577	8941.06
883.894	8933.83
884.212	8852.48
884.529	8844.34
884.846	8835.3
885.164	8800.96
885.481	8767.28
885.798	8815.19
886.115	8773.39
886.432	8723.89
886.75	8741.75
887.067	8692.26
887.383	8647.06
887.7	8677.34
888.017	8609.32
888.334	8660.17
888.651	8618.13
888.967	8539.94
889.284	8515.31
889.6	8543.79
889.917	8441.87
890.233	8433.28
890.55	8410.23
890.866	8399.38
891.182	8403.45
891.498	8354.41
891.815	8336.33
892.131	8311.48
892.447	8321.19
892.763	8245.72
893.079	8331.36
893.395	8240.52
893.71	8136.34
894.026	8199.16
894.342	8127.53
894.657	8118.71
894.973	8118.71
895.289	8119.39
895.604	8054.76
895.92	8000.75
896.235	7994.87
896.55	8002.56
896.865	7882.11
897.181	7969.11
897.496	7931.15
897.811	7896.57
898.126	7846.86
898.441	7824.94
898.756	7816.8
899.071	7813.64
899.386	7838.49
899.7	7705.62
900.015	7684.6
900.33	7603.02
900.644	7608.22
900.959	7628.78
901.273	7590.59
901.588	7505.17
901.902	7553.08
902.216	7503.81
902.531	7470.14
902.845	7441.44
903.159	7400.09
903.473	7353.08
903.787	7337.72
904.101	7309.92
904.415	7328
904.729	7273.76
905.042	7186.76
905.356	7177.95
905.67	7215.69
905.984	7181.79
906.297	7139.98
906.611	7078.51
906.924	7094.56
907.237	7084.84
907.551	7049.36
907.864	7019.98
908.177	6944.96
908.491	6955.58
908.804	6891.63
909.117	6892.76
909.43	6868.58
909.743	6783.38
910.056	6808.47
910.368	6775.7
910.681	6712.65
910.994	6722.14
911.307	6689.15
911.619	6639.88
911.932	6643.05
912.244	6586.32
912.557	6563.05
912.869	6577.28
913.181	6546.55
913.494	6571.64
913.806	6498.19
914.118	6491.86
914.43	6444.63
914.742	6436.72
915.054	6383.17
915.366	6374.13
915.678	6363.05
915.99	6280.12
916.302	6226.33
916.613	6257.97
916.925	6223.17
917.236	6229.5
917.548	6206.9
917.859	6165.54
918.171	6098.88
918.482	6071.54
918.794	6045.32
919.105	6117.86
919.416	6019.56
919.727	6014.36
920.038	6016.4
920.349	5994.7
920.66	5973.01
920.971	5925.1
921.282	5893.91
921.593	5843.29
921.903	5779.79
922.214	5785.89
922.525	5808.94
922.835	5758.32
923.146	5749.74
923.456	5720.58
923.767	5708.61
924.077	5748.83
924.387	5667.03
924.697	5607.59
925.008	5587.03
925.318	5551.55
925.628	5614.6
925.938	5576.18
926.248	5446.92
926.558	5492.79
926.867	5454.38
927.177	5388.16
927.487	5355.4
927.796	5338.45
928.106	5346.13
928.416	5347.49
928.725	5371.67
929.034	5308.62
929.344	5302.74
929.653	5273.59
929.962	5254.38
930.271	5227.04
930.581	5248.51
930.89	5137.77
931.199	5125.8
931.508	5116.76
931.817	5056.42
932.125	5076.08
932.434	5041.73
932.743	5061.39
933.051	4992.02
933.36	4976.2
933.669	4931
933.977	4974.61
934.286	4971.9
934.594	4919.25
934.902	4830.89
935.21	4885.8
935.519	4866.37
935.827	4823.21
936.135	4815.07
936.443	4812.81
936.751	4757.22
937.059	4746.6
937.367	4682.87
937.674	4708.86
937.982	4669.09
938.29	4673.38
938.597	4676.77
938.905	4642.42
939.213	4592.7
939.52	4527.62
939.827	4596.77
940.135	4538.92
940.442	4501.18
940.749	4525.14
941.056	4503.44
941.363	4439.94
941.67	4463.44
941.977	4405.36
942.284	4397.91
942.591	4410.56
942.898	4386.38
943.205	4361.07
943.511	4275.42
943.818	4319.49
944.125	4227.74
944.431	4298.47
944.738	4281.53
945.044	4275.42
945.35	4228.42
945.657	4174.18
945.963	4183.45
946.269	4160.17
946.575	4170.57
946.881	4123.56
947.187	4117.01
947.493	4110.23
947.799	4117.46
948.105	4049.22
948.41	4042.89
948.716	4053.06
949.022	4057.12
949.327	4005.15
949.633	3908.43
949.938	3976.45
950.244	3967.64
950.549	3923.34
950.854	3914.76
951.16	3911.59
951.465	3905.72
951.77	3853.06
952.075	3839.28
952.38	3798.83
952.685	3820.52
952.99	3813.97
953.294	3827.98
953.599	3764.03
953.904	3765.38
954.209	3732.84
954.513	3693.52
954.818	3706.85
955.122	3714.99
955.426	3668.66
955.731	3624.82
956.035	3613.07
956.339	3604.26
956.643	3641.99
956.948	3560.41
957.252	3574.43
957.556	3569.68
957.86	3550.92
958.163	3534.2
958.467	3550.7
958.771	3519.29
959.075	3516.8
959.378	3489.91
959.682	3472.28
959.985	3469.8
960.289	3383.7
960.592	3441.77
960.896	3420.08
961.199	3366.52
961.502	3387.54
961.805	3360.42
962.108	3351.15
962.411	3303.02
962.714	3273.19
963.017	3322.91
963.32	3312.29
963.623	3235.68
963.926	3300.53
964.228	3254.89
964.531	3189.35
964.833	3190.26
965.136	3173.08
965.438	3184.38
965.741	3174.66
966.043	3163.36
966.345	3167.2
966.648	3136.92
966.95	3096.7
967.252	3093.31
967.554	3068.68
967.856	3100.77
968.158	3040.2
968.46	3081.78
968.761	3063.25
969.063	3044.27
969.365	3026.64
969.666	3013.76
969.968	2982.58
970.269	2957.04
970.571	2977.61
970.872	2966.98
971.174	2895.35
971.475	2911.84
971.776	2907.32
972.077	2858.51
972.378	2911.17
972.679	2879.53
972.98	2856.7
973.281	2833.88
973.582	2787.78
973.883	2803.6
974.183	2807.89
974.484	2800.21
974.785	2780.1
975.085	2773.09
975.386	2777.61
975.686	2766.31
975.986	2735.58
976.287	2712.3
976.587	2688.8
976.887	2679.08
977.187	2688.12
977.487	2694.67
977.787	2698.29
978.087	2642.7
978.387	2639.76
978.687	2611.06
978.987	2630.95
979.286	2614.23
979.586	2595.92
979.885	2594.11
980.185	2575.58
980.484	2595.69
980.784	2558.18
981.083	2556.37
981.382	2510.5
981.682	2530.39
981.981	2498.3
982.28	2492.19
982.579	2497.84
982.878	2467.79
983.177	2465.98
983.475	2476.6
983.774	2435.25
984.073	2423.27
984.372	2406.77
984.67	2427.11
984.969	2428.92
985.267	2388.47
985.566	2371.75
985.864	2373.33
986.162	2377.85
986.461	2352.99
986.759	2349.83
987.057	2310.96
987.355	2279.32
987.653	2319.54
987.951	2309.15
988.249	2272.99
988.547	2291.97
988.844	2275.7
989.142	2267.34
989.44	2274.35
989.737	2248.36
990.035	2213.11
990.332	2226.66
990.63	2219.21
990.927	2218.76
991.224	2179.66
991.521	2165.88
991.819	2196.16
992.116	2207
992.413	2150.73
992.71	2135.59
993.006	2111.19
993.303	2117.29
993.6	2115.03
993.897	2068.02
994.193	2099.66
994.49	2069.38
994.787	2070.74
995.083	2092.43
995.379	2086.1
995.676	2023.05
995.972	2015.6
996.268	2005.43
996.565	2011.98
996.861	2020.34
997.157	2029.83
997.453	1970.63
997.749	1964.07
998.044	1969.04
998.34	1948.71
998.636	1957.07
998.932	1925.88
999.227	1931.53
999.523	1909.38
999.818	1884.53
1000.114	1901.93
1000.409	1871.65
1000.704	1856.5
1001	1860.12
1001.295	1861.02
1001.59	1837.07
1001.885	1834.81
1002.18	1840.46
1002.475	1819.44
1002.77	1786.22
1003.065	1783.96
1003.359	1762.72
1003.654	1774.25
1003.949	1791.2
1004.243	1769.95
1004.538	1746.45
1004.832	1787.58
1005.127	1738.77
1005.421	1737.41
1005.715	1699.67
1006.009	1730.18
1006.304	1678.2
1006.598	1694.02
1006.892	1708.03
1007.186	1661.26
1007.48	1677.3
1007.773	1630.3
1008.067	1657.19
1008.361	1593.46
1008.655	1616.29
1008.948	1622.84
1009.242	1602.27
1009.535	1623.74
1009.829	1591.43
1010.122	1580.58
1010.415	1577.64
1010.708	1585.33
1011.001	1557.98
1011.295	1547.81
1011.588	1532.9
1011.881	1538.77
1012.173	1519.11
1012.466	1508.94
1012.759	1514.37
1013.052	1506.46
1013.344	1471.43
1013.637	1497.87
1013.93	1473.69
1014.222	1497.19
1014.514	1464.2
1014.807	1447.7
1015.099	1427.14
1015.391	1448.38
1015.683	1426.46
1015.976	1431.43
1016.268	1425.56
1016.56	1404.09
1016.851	1392.34
1017.143	1367.7
1017.435	1365.22
1017.727	1342.62
1018.018	1362.51
1018.31	1346.91
1018.602	1352.34
1018.893	1360.7
1019.185	1320.47
1019.476	1307.82
1019.767	1311.89
1020.058	1308.04
1020.35	1295.39
1020.641	1277.09
1020.932	1281.38
1021.223	1281.83
1021.514	1236.41
1021.804	1244.54
1022.095	1247.26
1022.386	1236.63
1022.677	1237.99
1022.967	1245.67
1023.258	1202.74
1023.548	1182.17
1023.839	1217.88
1024.129	1200.7
1024.419	1186.01
1024.709	1166.13
1025	1167.94
1025.29	1136.98
1025.58	1173.81
1025.87	1139.01
1026.16	1134.72
1026.449	1178.78
1026.739	1135.39
1027.029	1123.42
1027.319	1105.34
1027.608	1095.85
1027.898	1080.03
1028.187	1105.11
1028.477	1096.98
1028.766	1102.85
1029.055	1059.46
1029.344	1059.92
1029.634	1064.66
1029.923	1055.85
1030.212	1041.84
1030.501	1026.47
1030.79	1020.59
1031.078	1012.46
1031.367	1002.52
1031.656	1012.91
1031.945	1021.27
1032.233	990.54
1032.522	988.73
1032.81	994.61
1033.099	953.03
1033.387	965.68
1033.675	960.48
1033.963	961.84
1034.251	947.6
1034.54	958.22
1034.828	945.12
1035.116	940.14
1035.403	911.44
1035.691	930.43
1035.979	927.04
1036.267	958.9
1036.554	919.13
1036.842	889.07
1037.129	892.01
1037.417	893.82
1037.704	900.6
1037.992	887.49
1038.279	870.99
1038.566	842.52
1038.853	842.52
1039.14	842.52
