Data from hue_26_FLMS001491_00004.txt Node
Date: Tue Feb 07 17:13:28 GMT 2017
User: dcchb
Spectrometer: FLMS00149
Trigger mode: 0
Integration Time (sec): 2.000000E-2
Scans to average: 10
Electric dark correction enabled: true
Nonlinearity correction enabled: false
Boxcar width: 0
XAxis mode: Wavelengths
Number of Pixels in Spectrum: 2048
>>>>>Begin Spectral Data<<<<<
341.393	2.13
341.776	2.13
342.16	2.13
342.543	-63.18
342.927	-59.11
343.31	-74.02
343.693	-65.21
344.077	-67.24
344.46	-60.69
344.843	-65.44
345.226	-31.99
345.61	-41.93
345.993	-34.93
346.376	-1.03
346.759	15.47
347.142	28.12
347.525	58.63
347.908	55.01
348.291	89.81
348.674	79.19
349.057	116.25
349.44	118.29
349.823	144.28
350.206	154.67
350.588	203.03
350.971	200.32
351.354	220.21
351.737	235.57
352.119	255.46
352.502	279.64
352.884	256.82
353.267	273.99
353.65	282.35
354.032	300.2
354.414	305.63
354.797	301.56
355.179	319.41
355.562	325.51
355.944	323.93
356.326	338.17
356.709	335.91
357.091	334.55
357.473	338.62
357.855	317.6
358.238	340.2
358.62	333.42
359.002	345.4
359.384	336.59
359.766	356.47
360.148	325.74
360.53	342.46
360.912	335.01
361.294	351.5
361.676	337.49
362.057	333.88
362.439	336.14
362.821	336.14
363.203	324.16
363.584	321.9
363.966	340.65
364.348	339.07
364.729	337.27
365.111	315.34
365.493	317.83
365.874	326.64
366.256	307.44
366.637	313.31
367.019	313.31
367.4	325.97
367.781	309.92
368.163	312.63
368.544	302.46
368.925	317.6
369.306	323.25
369.688	312.18
370.069	317.15
370.45	321.9
370.831	304.95
371.212	323.03
371.593	311.5
371.974	308.34
372.355	313.08
372.736	337.49
373.117	330.26
373.498	341.56
373.879	310.37
374.26	334.55
374.641	301.11
375.021	309.02
375.402	335.01
375.783	318.06
376.163	337.72
376.544	317.83
376.925	309.92
377.305	325.29
377.686	305.18
378.066	346.3
378.447	321.22
378.827	338.4
379.208	350.6
379.588	311.73
379.968	317.6
380.349	337.27
380.729	346.98
381.109	345.4
381.489	316.47
381.87	334.33
382.25	324.84
382.63	337.72
383.01	345.85
383.39	362.35
383.77	327.1
384.15	343.14
384.53	355.8
384.91	339.75
385.29	347.43
385.67	336.81
386.049	341.11
386.429	356.7
386.809	347.89
387.189	340.43
387.568	364.38
387.948	360.09
388.328	366.42
388.707	353.54
389.087	355.12
389.466	363.93
389.846	351.95
390.225	346.08
390.605	371.16
390.984	373.65
391.363	366.19
391.743	376.81
392.122	367.55
392.501	366.87
392.881	357.6
393.26	385.4
393.639	361.22
394.018	398.51
394.397	385.85
394.776	392.86
395.155	389.24
395.534	392.86
395.913	378.62
396.292	362.35
396.671	387.89
397.05	407.55
397.429	399.41
397.808	383.82
398.186	377.94
398.565	394.44
398.944	406.64
399.323	384.5
399.701	404.61
400.08	382.01
400.458	401.9
400.837	399.64
401.215	401.44
401.594	410.48
401.972	418.62
402.351	393.31
402.729	378.17
403.107	402.12
403.486	425.4
403.864	391.5
404.242	402.35
404.62	414.1
404.999	407.55
405.377	420.2
405.755	405.74
406.133	423.82
406.511	401.9
406.889	438.28
407.267	415.46
407.645	433.53
408.023	430.82
408.401	429.92
408.779	448.45
409.156	463.14
409.534	439.18
409.912	437.38
410.29	450.48
410.667	442.8
411.045	447.54
411.422	467.43
411.8	449.58
412.178	469.69
412.555	453.42
412.933	469.47
413.31	474.21
413.687	478.28
414.065	474.21
414.442	460.88
414.819	479.18
415.197	486.64
415.574	478.28
415.951	480.76
416.328	491.39
416.705	491.16
417.082	494.78
417.46	503.59
417.837	512.63
418.214	508.56
418.591	484.83
418.967	505.17
419.344	519.41
419.721	502.23
420.098	514.21
420.475	524.6
420.852	541.78
421.228	515.11
421.605	523.7
421.982	507.43
422.358	527.54
422.735	526.19
423.111	534.1
423.488	549.24
423.864	530.71
424.241	557.82
424.617	536.13
424.994	546.98
425.37	567.09
425.746	557.6
426.123	559.63
426.499	569.58
426.875	569.58
427.251	559.18
427.627	571.16
428.003	565.06
428.379	605.51
428.756	609.8
429.132	586.3
429.507	600.08
429.883	594.66
430.259	634.88
430.635	608.9
431.011	622.91
431.387	638.05
431.763	616.35
432.138	633.98
432.514	646.41
432.89	615.9
433.265	636.24
433.641	673.98
434.016	675.34
434.392	676.92
434.767	667.2
435.143	670.36
435.518	687.76
435.894	673.98
436.269	690.02
436.644	704.26
437.02	697.03
437.395	688.67
437.77	709.46
438.145	751.27
438.52	713.3
438.895	715.11
439.271	719.18
439.646	754.2
440.021	734.99
440.395	730.93
440.77	749.91
441.145	738.84
441.52	769.57
441.895	761.89
442.27	761.66
442.645	764.15
443.019	779.51
443.394	780.42
443.769	766.41
444.143	786.74
444.518	790.59
444.892	777.93
445.267	778.61
445.641	801.66
446.016	782
446.39	806.63
446.764	791.94
447.139	796.01
447.513	815.22
447.887	830.36
448.262	832.39
448.636	824.71
449.01	810.47
449.384	851.15
449.758	842.11
450.132	819.06
450.506	864.71
450.88	859.06
451.254	851.38
451.628	866.97
452.002	865.84
452.376	892.96
452.75	896.35
453.123	910.36
453.497	888.89
453.871	903.13
454.244	913.3
454.618	943.12
454.992	916.23
455.365	948.55
455.739	977.47
456.112	957.14
456.486	946.97
456.859	977.02
457.232	1005.5
457.606	1004.82
457.979	1008.43
458.352	1033.07
458.725	1039.39
459.099	1030.13
459.472	1033.74
459.845	1047.08
460.218	1070.58
460.591	1060.64
460.964	1086.4
461.337	1102.44
461.71	1110.8
462.083	1143.8
462.456	1145.38
462.829	1122.1
463.201	1152.38
463.574	1172.27
463.947	1158.71
464.32	1193.74
464.692	1209.11
465.065	1204.81
465.438	1214.3
465.81	1261.31
466.183	1254.3
466.555	1295.21
466.928	1280.97
467.3	1315.54
467.672	1306.28
468.045	1341.31
468.417	1341.53
468.789	1340.18
469.161	1384.24
469.534	1392.6
469.906	1435.32
470.278	1428.54
470.65	1428.54
471.022	1489.55
471.394	1480.06
471.766	1495.65
472.138	1528.87
472.51	1536.78
472.882	1574.29
473.253	1593.05
473.625	1610
473.997	1643.9
474.369	1639.83
474.74	1654.52
475.112	1704.91
475.484	1761.41
475.855	1781.75
476.227	1793.05
476.598	1822.88
476.97	1837.11
477.341	1905.36
477.713	1919.37
478.084	1964.79
478.455	1995.75
478.827	2038.92
479.198	2098.35
479.569	2087.5
479.94	2157.78
480.311	2177.89
480.682	2231
481.053	2260.15
481.424	2318.91
481.795	2336.99
482.166	2396.65
482.537	2449.75
482.908	2475.06
483.279	2500.6
483.65	2584.66
484.021	2608.84
484.391	2662.85
484.762	2695.4
485.133	2739.46
485.503	2762.51
485.874	2821.72
486.244	2855.62
486.615	2918.67
486.985	2963.18
487.356	3013.35
487.726	3097.19
488.097	3147.81
488.467	3131.09
488.837	3213.12
489.207	3271.43
489.578	3342.61
489.948	3367.24
490.318	3408.6
490.688	3423.74
491.058	3464.41
491.428	3536.96
491.798	3577.86
492.168	3664.86
492.538	3687.91
492.908	3747.12
493.278	3796.38
493.648	3788.47
494.017	3859.43
494.387	3915.25
494.757	3955.25
495.126	4030.5
495.496	4035.92
495.866	4087
496.235	4154.57
496.605	4148.69
496.974	4211.06
497.344	4270.27
497.713	4243.38
498.082	4298.52
498.452	4348.91
498.821	4368.35
499.19	4389.36
499.559	4412.41
499.928	4468.46
500.298	4527.44
500.667	4535.35
501.036	4541
501.405	4640.2
501.774	4619.64
502.143	4716.36
502.512	4674.55
502.88	4710.71
503.249	4728.56
503.618	4776.24
503.987	4805.85
504.356	4836.58
504.724	4870.93
505.093	4877.26
505.462	4900.08
505.83	4943.25
506.199	4948.67
506.567	5026.63
506.936	5048.55
507.304	5061.89
507.672	5104.15
508.041	5111.38
508.409	5172.84
508.777	5223.24
509.145	5248.77
509.514	5223.46
509.882	5276.8
510.25	5295.55
510.618	5335.78
510.986	5346.85
511.354	5399.5
511.722	5415.78
512.09	5430.46
512.458	5413.06
512.826	5455.32
513.193	5459.16
513.561	5541.65
513.929	5596.56
514.297	5617.8
514.664	5636.79
515.032	5660.74
515.4	5659.61
515.767	5684.92
516.135	5710.46
516.502	5706.16
516.869	5779.83
517.237	5761.98
517.604	5789.1
517.972	5884.69
518.339	5907.29
518.706	5924.46
519.073	5927.85
519.44	5908.42
519.808	5944.12
520.175	5955.42
520.542	6037.68
520.909	6075.42
521.276	6047.85
521.643	6135.98
522.009	6153.16
522.376	6183.21
522.743	6231.8
523.11	6279.48
523.477	6285.13
523.843	6299.14
524.21	6360.38
524.577	6403.77
524.943	6400.61
525.31	6463.88
525.676	6512.92
526.043	6582.3
526.409	6570.32
526.776	6578.46
527.142	6654.39
527.508	6686.93
527.874	6722.63
528.241	6805.12
528.607	6777.1
528.973	6816.19
529.339	6858.68
529.705	6884.89
530.071	6963.31
530.437	6936.41
530.803	7027.94
531.169	7043.53
531.535	7010.99
531.901	7107.03
532.267	7096.64
532.632	7148.39
532.998	7185.45
533.364	7203.3
533.73	7244.2
534.095	7314.93
534.461	7288.95
534.826	7375.5
535.192	7366.68
535.557	7420.69
535.923	7386.8
536.288	7462.5
536.653	7462.5
537.019	7433.8
537.384	7519.45
537.749	7575.94
538.114	7591.31
538.479	7605.1
538.845	7654.59
539.21	7617.98
539.575	7665.66
539.94	7793.11
540.305	7775.26
540.67	7764.64
541.034	7818.65
541.399	7896.61
541.764	7866.78
542.129	7934.35
542.494	7936.16
542.858	8019.78
543.223	7976.84
543.587	8093.9
543.952	8126.66
544.316	8063.84
544.681	8138.19
545.045	8165.53
545.41	8213.89
545.774	8156.95
546.138	8224.97
546.503	8255.7
546.867	8319.65
547.231	8357.17
547.595	8435.81
547.959	8404.85
548.324	8440.78
548.688	8495.47
549.052	8458.63
549.416	8492.98
549.779	8534.79
550.143	8612.08
550.507	8604.17
550.871	8625.41
551.235	8638.29
551.599	8663.6
551.962	8710.83
552.326	8767.78
552.689	8812.75
553.053	8740.43
553.417	8776.14
553.78	8945.4
554.143	8883.93
554.507	8938.62
554.87	8953.31
555.234	8989.69
555.597	8978.85
555.96	9012.29
556.323	9075.34
556.686	9074.89
557.05	9149.91
557.413	9149.24
557.776	9162.57
558.139	9254.09
558.502	9217.71
558.865	9233.3
559.228	9346.52
559.59	9331.83
559.953	9337.48
560.316	9443.01
560.679	9410.25
561.041	9423.13
561.404	9524.82
561.767	9631.94
562.129	9523.46
562.492	9627.87
562.854	9625.16
563.217	9690.47
563.579	9732.5
563.941	9681.2
564.304	9811.82
564.666	9870.12
565.028	9772.5
565.39	9828.99
565.753	9980.63
566.115	9981.31
566.477	9982.21
566.839	10050
567.201	10134.97
567.563	10099.72
567.925	10208.64
568.287	10150.34
568.648	10184.24
569.01	10273.73
569.372	10297
569.734	10334.29
570.095	10343.1
570.457	10425.36
570.819	10497.68
571.18	10494.74
571.542	10595.98
571.903	10638.24
572.265	10699.03
572.626	10742.87
572.987	10713.26
573.349	10813.15
573.71	10838.68
574.071	10903.54
574.432	10997.55
574.794	11122.07
575.155	11016.53
575.516	11097.43
575.877	11187.38
576.238	11227.15
576.599	11360.03
576.96	11391.21
577.32	11464.66
577.681	11559.34
578.042	11615.16
578.403	11701.26
578.763	11778.77
579.124	11886.79
579.485	12015.6
579.845	12148.25
580.206	12187.12
580.566	12305.99
580.927	12490.39
581.287	12679.99
581.648	12747.11
582.008	12941.45
582.368	13025.52
582.728	13164.27
583.089	13269.58
583.449	13462.57
583.809	13638.61
584.169	13825.05
584.529	14007.19
584.889	14324.02
585.249	14407.86
585.609	14550
585.969	14772.59
586.329	14968.74
586.688	15173.03
587.048	15406.47
587.408	15583.42
587.768	15813.02
588.127	15998.77
588.487	16253.68
588.846	16588.82
589.206	16732.77
589.565	17111.29
589.925	17325.97
590.284	17553.99
590.643	17890.93
591.003	18175.67
591.362	18470.35
591.721	18727.29
592.08	18975.65
592.44	19270.33
592.799	19608.62
593.158	19801.16
593.517	20091.55
593.876	20385.55
594.235	20649.27
594.593	20951.86
594.952	21296.71
595.311	21558.18
595.67	21924.72
596.029	22320.42
596.387	22684.02
596.746	22919.27
597.104	23096.67
597.463	23452.14
597.822	23756.54
598.18	23980.71
598.538	24431.77
598.897	24676.74
599.255	24751.54
599.613	25403.27
599.972	25620.89
600.33	25932.3
600.688	25963.94
601.046	26490.25
601.404	26895.89
601.762	26999.39
602.12	27526.15
602.478	27748.97
602.836	27994.17
603.194	28231.45
603.552	28412.01
603.91	28594.83
604.268	29090.63
604.625	29239.1
604.983	29708.7
605.341	29688.81
605.698	30143.04
606.056	30439.3
606.413	30723.36
606.771	30926.07
607.128	31292.84
607.485	31273.4
607.843	31618.48
608.2	32117.67
608.557	32318.8
608.914	32410.09
609.272	32780.03
609.629	33111.77
609.986	33367.58
610.343	33403.06
610.7	33848.93
611.057	33934.12
611.414	34139.99
611.771	34343.83
612.127	34573.43
612.484	34726.19
612.841	35020.65
613.198	35057.71
613.554	35387.87
613.911	35678.26
614.267	35814.98
614.624	35769.55
614.98	36109.43
615.337	36559.36
615.693	36611.79
616.05	36698.12
616.406	37162.74
616.762	37035.51
617.118	37135.39
617.475	37286.35
617.831	37546.68
618.187	37749.61
618.543	37818.99
618.899	38298.75
619.255	38223.73
619.611	38257.4
619.967	38511.63
620.323	38764.05
620.678	38561.8
621.034	38752.07
621.39	38856.7
621.746	38962.46
622.101	39390.25
622.457	39115.91
622.812	39251.27
623.168	39485.84
623.523	39652.84
623.879	39747.75
624.234	39677.47
624.589	39801.54
624.945	39897.81
625.3	40200.17
625.655	40194.52
626.01	40248.76
626.365	40280.62
626.72	40234.3
627.075	40396.55
627.43	40485.59
627.785	40519.49
628.14	40581.18
628.495	40773.26
628.85	40666.37
629.205	40527.62
629.559	41036.31
629.914	40699.82
630.269	40870.44
630.623	40720.61
630.978	40801.74
631.332	41139.58
631.687	41100.94
632.041	41013.48
632.396	41180.26
632.75	41026.14
633.104	41260.48
633.459	40981.17
633.813	41013.26
634.167	41120.15
634.521	41181.61
634.875	41223.65
635.229	41143.42
635.583	40983.65
635.937	41005.57
636.291	40942.75
636.645	41070.43
636.999	41015.52
637.352	41239.92
637.706	40941.17
638.06	41149.3
638.413	41188.62
638.767	41087.38
639.121	41239.24
639.474	40903.43
639.828	41083.76
640.181	41172.12
640.534	41152.46
640.888	41006.03
641.241	40752.47
641.594	40943.2
641.947	41166.02
642.301	41032.24
642.654	41107.72
643.007	40963.54
643.36	41018
643.713	41017.33
644.066	41082.18
644.419	40830.44
644.771	40639.26
645.124	40319.94
645.477	40248.31
645.83	40035.43
646.182	39899.16
646.535	39784.36
646.888	39968.54
647.24	39701.88
647.593	39875.43
647.945	39903.23
648.298	39670.24
648.65	39720.41
649.002	39564.71
649.355	39743.01
649.707	39673.41
650.059	39961.76
650.411	40368.08
650.763	40368.98
651.115	40714.96
651.467	40572.37
651.819	40573.5
652.171	40548.86
652.523	40529.2
652.875	40455.98
653.227	40321.98
653.578	40642.42
653.93	40492.82
654.282	40400.84
654.633	40495.08
654.985	40433.39
655.337	40476.77
655.688	40431.13
656.039	40589.54
656.391	40201.75
656.742	40447.17
657.094	40367.63
657.445	40512.71
657.796	40491.24
658.147	40397
658.498	40453.5
658.849	40421.18
659.2	40355.42
659.551	40155.43
659.902	40388.64
660.253	40290.56
660.604	40552.03
660.955	40151.13
661.306	40379.15
661.656	40303.22
662.007	40075.88
662.358	40152.94
662.708	40190.23
663.059	40203.11
663.409	40019.39
663.76	40257.12
664.11	40257.12
664.461	40241.3
664.811	40231.13
665.161	40331.92
665.511	40132.83
665.862	40222.54
666.212	40170.57
666.562	40172.83
666.912	40190
667.262	40040.18
667.612	40146.16
667.962	40211.02
668.312	40162.21
668.662	40319.94
669.011	40199.49
669.361	40083.11
669.711	40140.51
670.06	40086.28
670.41	39972.61
670.76	39888.77
671.109	40137.8
671.459	40082.43
671.808	39928.99
672.157	40135.31
672.507	39750.47
672.856	39952.95
673.205	39872.72
673.554	40108.2
673.904	39812.61
674.253	39980.06
674.602	39898.03
674.951	39312.06
675.3	39275.22
675.649	39886.96
675.998	39772.84
676.346	39761.77
676.695	39773.06
677.044	39616.46
677.393	39763.35
677.741	39662.78
678.09	39558.38
678.438	39647.64
678.787	39687.87
679.135	39654.88
679.484	39346.63
679.832	39573.75
680.181	39331.95
680.529	39297.82
680.877	39297.82
681.225	39293.98
681.573	39586.85
681.922	39152.97
682.27	38980.54
682.618	39080.2
682.966	38999.75
683.314	39085.17
683.661	38933.76
684.009	38791.85
684.357	38715.24
684.705	38827.78
685.053	38862.35
685.4	38759.98
685.748	38675.24
686.095	38704.84
686.443	38427.11
686.79	38365.64
687.138	38526.77
687.485	38526.54
687.832	38334.91
688.18	38340.56
688.527	38124.75
688.874	38105.54
689.221	37958.42
689.568	37875.71
689.915	37903.74
690.262	37708.71
690.609	37623.29
690.956	37520.92
691.303	37531.99
691.65	37339
691.997	37303.98
692.344	36957.77
692.69	37173.13
693.037	37267.14
693.383	36772.92
693.73	37012.91
694.077	36676.2
694.423	36708.96
694.769	36747.83
695.116	36594.62
695.462	36536.77
695.808	36554.84
696.155	36609.08
696.501	36329.99
696.847	36373.83
697.193	36051.35
697.539	36196.21
697.885	35980.62
698.231	35886.61
698.577	35786.95
698.923	35832.15
699.269	35692.49
699.614	35380.19
699.96	35347.42
700.306	35456.57
700.651	35237.14
700.997	35099.51
701.342	35116.92
701.688	35135.9
702.033	34786.53
702.379	34884.15
702.724	34908.56
703.069	34944.49
703.415	34610.04
703.76	34652.07
704.105	34594.44
704.45	34513.09
704.795	34212.31
705.14	34227.22
705.485	34126.89
705.83	34054.34
706.175	34099.99
706.52	33931.41
706.865	33901.58
707.209	33772.09
707.554	33698.2
707.899	33772.09
708.243	33596.96
708.588	33530.06
708.932	33388.6
709.277	33265.44
709.621	33292.78
709.966	32969.85
710.31	33273.57
710.654	32885.56
710.998	32945.67
711.342	32937.99
711.687	32817.32
712.031	32622.07
712.375	32629.07
712.719	32675.4
713.063	32585
713.407	32546.14
713.75	32465.69
714.094	32490.54
714.438	32275.63
714.782	32260.95
715.125	32206.48
715.469	32281.28
715.812	32051.69
716.156	31896.44
716.499	31902.08
716.843	32051.69
717.186	31819.15
717.53	31954.06
717.873	32019.82
718.216	31732.82
718.559	31741.64
718.902	31452.38
719.246	31652.37
719.589	31438.14
719.932	31389.1
720.275	31261.42
720.617	31324.7
720.96	31123.35
721.303	31129.9
721.646	31151.6
721.989	30981.88
722.331	31095.55
722.674	31025.72
723.016	31030.7
723.359	31088.32
723.701	30933.75
724.044	30793.64
724.386	30745.73
724.729	30804.03
725.071	30667.09
725.413	30755
725.755	30591.16
726.097	30590.71
726.439	30308.45
726.782	30416.25
727.124	30576.02
727.465	30396.81
727.807	30325.86
728.149	30315.46
728.491	30175.35
728.833	30253.09
729.175	30151.85
729.516	30038.86
729.858	30006.77
730.199	29959.54
730.541	29891.06
730.882	29936.71
731.224	30063.04
731.565	29767.9
731.906	29751.41
732.248	29817.39
732.589	29715.7
732.93	29564.52
733.271	29593.67
733.612	29582.37
733.953	29579.66
734.294	29450.85
734.635	29367.46
734.976	29525.65
735.317	29322.94
735.658	29271.19
735.999	29272.78
736.339	29237.97
736.68	29371.3
737.021	29175.6
737.361	29036.4
737.702	29102.16
738.042	29011.54
738.383	29073.91
738.723	29146.23
739.063	28863.52
739.404	28949.17
739.744	28872.56
740.084	28774.94
740.424	28798.44
740.764	28706.46
741.104	28799.12
741.444	28675.05
741.784	28630.53
742.124	28699.91
742.464	28590.08
742.804	28453.36
743.143	28506.24
743.483	28500.59
743.823	28371.1
744.162	28381.73
744.502	28442.51
744.841	28167.72
745.181	28324.78
745.52	28125.69
745.86	28213.82
746.199	28182.86
746.538	28045.01
746.877	28201.62
747.216	28012.02
747.556	28085.91
747.895	28027.38
748.234	27944.67
748.573	27864.22
748.911	27833.27
749.25	27888.86
749.589	27785.13
749.928	27765.92
750.267	27859.93
750.605	27690.67
750.944	27541.75
751.283	27563.89
751.621	27511.24
751.96	27347.63
752.298	27419.72
752.636	27445.03
752.975	27316.22
753.313	27271.47
753.651	27310.79
753.989	27131.14
754.327	27122.32
754.666	27029.22
755.004	27074.64
755.342	27109.89
755.679	26984.02
756.017	26897.92
756.355	26825.61
756.693	26781.32
757.031	26795.1
757.368	26607.99
757.706	26782.9
758.044	26525.28
758.381	26626.97
758.719	26409.12
759.056	26400.08
759.394	26307.2
759.731	26111.73
760.068	26133.65
760.405	26097.94
760.743	26028.12
761.08	26088.68
761.417	25930.72
761.754	25840.55
762.091	25850.04
762.428	25689.59
762.765	25576.83
763.102	25721.68
763.438	25457.28
763.775	25393.56
764.112	25492.31
764.449	25410.96
764.785	25378.87
765.122	25164.18
765.458	24976.39
765.795	25150.85
766.131	25133.68
766.467	24905.43
766.804	24894.81
767.14	24711.99
767.476	24643.97
767.812	24562.39
768.148	24472.9
768.485	24488.95
768.821	24363.98
769.157	24273.13
769.492	24203.98
769.828	24168.5
770.164	24039.24
770.5	23860.49
770.836	23905.23
771.171	23757.21
771.507	23732.36
771.842	23489.2
772.178	23520.38
772.513	23473.61
772.849	23365.81
773.184	23191.81
773.519	23346.38
773.855	23175.31
774.19	23031.36
774.525	23065.48
774.86	22883.11
775.195	22792.27
775.53	22793.4
775.865	22633.4
776.2	22496.46
776.535	22427.76
776.87	22465.95
777.205	22340.3
777.539	22263.02
777.874	22268.67
778.209	22008.11
778.543	22062.12
778.878	22056.02
779.212	21923.59
779.547	21769.7
779.881	21875.23
780.215	21639.98
780.55	21738.06
780.884	21541.68
781.218	21498.29
781.552	21508.91
781.886	21289.03
782.22	21181.46
782.554	21209.26
782.888	20940.34
783.222	20952.32
783.556	20880
783.889	20750.06
784.223	20668.03
784.557	20582.61
784.89	20668.93
785.224	20438.88
785.557	20306.68
785.891	20339
786.224	20249.06
786.558	20264.2
786.891	20064.88
787.224	19898.56
787.557	19982.4
787.891	19941.5
788.224	19843.42
788.557	19843.64
788.89	19878.67
789.223	19814.04
789.556	19600.26
789.888	19555.97
790.221	19480.72
790.554	19245.02
790.887	19313.49
791.219	19264
791.552	19190.33
791.884	19162.31
792.217	18959.15
792.549	18987.4
792.882	18929.32
793.214	18799.83
793.546	18824.69
793.879	18724.8
794.211	18636.9
794.543	18701.08
794.875	18501.31
795.207	18610.01
795.539	18379.95
795.871	18445.94
796.203	18214.99
796.535	18141.77
796.867	18120.3
797.198	18142.67
797.53	18101.77
797.862	17984.48
798.193	18076.01
798.525	17903.81
798.856	17942.45
799.188	17750.59
799.519	17733.87
799.85	17626.08
800.182	17606.87
800.513	17662.46
800.844	17429.02
801.175	17514.21
801.506	17488.9
801.837	17388.57
802.168	17212.75
802.499	17292.75
802.83	17113.32
803.161	17175.24
803.491	17076.49
803.822	17097.73
804.153	16987.67
804.483	16863.16
804.814	16858.86
805.145	16803.27
805.475	16787
805.805	16766.44
806.136	16727.57
806.466	16695.48
806.796	16671.52
807.126	16547.69
807.457	16442.83
807.787	16455.94
808.117	16366.9
808.447	16340.69
808.777	16387.24
809.107	16307.01
809.436	16212.78
809.766	16139.56
810.096	16139.56
810.426	16036.06
810.755	16072.44
811.085	16054.82
811.414	15994.93
811.744	15892.79
812.073	15833.35
812.403	15919
812.732	15747.03
813.061	15768.27
813.39	15690.08
813.719	15573.02
814.049	15750.87
814.378	15579.58
814.707	15581.38
815.036	15561.95
815.365	15426.81
815.693	15349.53
816.022	15367.6
816.351	15316.76
816.68	15144.79
817.008	15276.31
817.337	15173.03
817.665	15119.48
817.994	15162.19
818.322	15101.17
818.651	15087.39
818.979	14961.51
819.307	15023.66
819.636	14865.47
819.964	14866.15
820.292	14936.43
820.62	14955.64
820.948	14855.98
821.276	14902.31
821.604	14830.9
821.932	14828.18
822.259	14897.56
822.587	14846.49
822.915	14852.36
823.243	14830.67
823.57	14737.34
823.898	14729.43
824.225	14680.62
824.553	14766.04
824.88	14760.16
825.207	14790.67
825.535	14700.96
825.862	14742.99
826.189	14730.78
826.516	14873.38
826.843	14781.41
827.17	14785.92
827.497	14773.72
827.824	14736.89
828.151	14795.19
828.478	14707.06
828.805	14774.17
829.131	14673.61
829.458	14808.3
829.785	14668.64
830.111	14758.13
830.438	14865.47
830.764	14694.85
831.09	14778.24
831.417	14686.49
831.743	14749.54
832.069	14659.83
832.395	14575.99
832.722	14714.97
833.048	14515.2
833.374	14604.91
833.7	14529.43
834.026	14558.59
834.351	14640.39
834.677	14620.73
835.003	14698.02
835.329	14533.5
835.654	14602.2
835.98	14485.59
836.306	14462.32
836.631	14452.83
836.956	14411.47
837.282	14478.14
837.607	14396.56
837.932	14312.72
838.258	14355.88
838.583	14311.81
838.908	14220.97
839.233	14286.5
839.558	14238.37
839.883	14244.7
840.208	14148.65
840.533	14142.78
840.858	14208.54
841.182	14216.9
841.507	14166.51
841.832	14001.31
842.156	14027.3
842.481	14009.67
842.805	13989.56
843.13	13957.47
843.454	13907.08
843.778	13898.04
844.103	13872.05
844.427	13730.13
844.751	13806.29
845.075	13743.47
845.399	13677.48
845.723	13634.09
846.047	13632.06
846.371	13503.92
846.695	13572.62
847.019	13461.44
847.343	13374.44
847.666	13278.85
847.99	13177.83
848.313	13250.15
848.637	13103.48
848.96	13234.55
849.284	13146.42
849.607	12997.05
849.931	12968.57
850.254	12940.32
850.577	12851.06
850.9	12736.49
851.223	12769.71
851.546	12724.28
851.869	12567.68
852.192	12703.04
852.515	12514.57
852.838	12496.27
853.161	12459.43
853.483	12435.25
853.806	12310.06
854.129	12333.33
854.451	12327.46
854.774	12221.47
855.096	12241.58
855.419	12152.32
855.741	12166.33
856.063	12084.75
856.385	12012.89
856.708	12038.2
857.03	12036.39
857.352	11987.81
857.674	11899.67
857.996	11881.82
858.318	11798.21
858.64	11805.44
858.961	11732.67
859.283	11765.21
859.605	11644.31
859.926	11754.14
860.248	11676.85
860.57	11598.89
860.891	11609.51
861.212	11560.7
861.534	11524.77
861.855	11481.15
862.176	11483.86
862.498	11548.72
862.819	11494.71
863.14	11400.25
863.461	11403.19
863.782	11351.21
864.103	11314.83
864.424	11300.59
864.745	11336.3
865.065	11225.79
865.386	11198.45
865.707	11174.04
866.027	11235.28
866.348	11181.05
866.668	11093.14
866.989	11121.61
867.309	11059.24
867.63	11061.95
867.95	11084.78
868.27	11054.95
868.59	10987.61
868.91	10976.31
869.23	11049.98
869.55	10941.96
869.87	11004.33
870.19	10951.9
870.51	10956.87
870.83	10948.06
871.15	10890.89
871.469	10961.39
871.789	10971.34
872.109	10844.33
872.428	10841.17
872.748	10821.28
873.067	10799.14
873.386	10778.12
873.706	10771.12
874.025	10692.7
874.344	10654.73
874.663	10682.98
874.982	10702.64
875.301	10624
875.62	10616.77
875.939	10649.54
876.258	10566.37
876.577	10599.37
876.896	10630.1
877.214	10472.37
877.533	10546.49
877.852	10543.55
878.17	10528.86
878.489	10573.61
878.807	10442.76
879.125	10506.72
879.444	10470.11
879.762	10396.44
880.08	10377.45
880.398	10339.71
880.716	10433.95
881.034	10294.97
881.352	10245.48
881.67	10239.15
881.988	10222.88
882.306	10232.82
882.624	10227.63
882.941	10166.61
883.259	10117.8
883.577	10112.38
883.894	10100.85
884.212	10038.93
884.529	10066.5
884.846	10014.75
885.164	10049.78
885.481	9987.86
885.798	9978.82
886.115	9975.2
886.432	9908.76
886.75	9903.57
887.067	9983.34
887.383	9886.39
887.7	9888.88
888.017	9840.29
888.334	9792.84
888.651	9764.59
888.967	9690.69
889.284	9737.02
889.6	9733.18
889.917	9691.6
890.233	9711.93
890.55	9640.75
890.866	9610.24
891.182	9670.35
891.498	9570.92
891.815	9556.46
892.131	9464.03
892.447	9427.87
892.763	9392.39
893.079	9415.67
893.395	9397.14
893.71	9353.07
894.026	9332.96
894.342	9282.57
894.657	9297.93
894.973	9224.26
895.289	9221.78
895.604	9194.66
895.92	9202.34
896.235	9142.46
896.55	9072.4
896.865	9064.49
897.181	9031.27
897.496	9038.51
897.811	8972.74
898.126	8937.49
898.441	8894.78
898.756	8872.86
899.071	8838.28
899.386	8831.05
899.7	8745.41
900.015	8738.63
900.33	8674
900.644	8641.45
900.959	8699.31
901.273	8677.38
901.588	8602.58
901.902	8600.55
902.216	8526.88
902.531	8521.46
902.845	8492.98
903.159	8478.97
903.473	8419.31
903.787	8385.19
904.101	8348.13
904.415	8363.49
904.729	8221.13
905.042	8189.26
905.356	8220.67
905.67	8222.48
905.984	8144.52
906.297	8094.12
906.611	8047.12
906.924	8133.67
907.237	8078.08
907.551	8015.93
907.864	8020.9
908.177	7961.92
908.491	7910.63
908.804	7834.92
909.117	7868.59
909.43	7817.75
909.743	7783.62
910.056	7777.3
910.368	7670.18
910.681	7674.93
910.994	7655.49
911.307	7678.99
911.619	7605.55
911.932	7526.23
912.244	7521.03
912.557	7533.23
912.869	7469.96
913.181	7411.2
913.494	7469.06
913.806	7427.93
914.118	7308.38
914.43	7332.56
914.742	7352.67
915.054	7273.35
915.366	7199.23
915.678	7150.65
915.99	7170.08
916.302	7076.07
916.613	7107.71
916.925	7126.01
917.236	7057.99
917.548	7002.85
917.859	6991.55
918.171	6973.47
918.482	6908.39
918.794	6898.22
919.105	6908.84
919.416	6844.44
919.727	6760.6
920.038	6824.1
920.349	6747.72
920.66	6739.13
920.971	6750.66
921.282	6723.76
921.593	6676.08
921.903	6669.3
922.214	6561.51
922.525	6622.07
922.835	6591.56
923.146	6542.3
923.456	6486.48
923.767	6471.79
924.077	6401.51
924.387	6375.75
924.697	6375.07
925.008	6371.68
925.318	6270.89
925.628	6320.84
925.938	6262.76
926.248	6228.64
926.558	6172.59
926.867	6181.18
927.177	6145.25
927.487	6117
927.796	6072.26
928.106	6064.35
928.416	6037.91
928.725	6048.53
929.034	6011.47
929.344	5983.67
929.653	5996.55
929.962	5957.91
930.271	5933.73
930.581	5880.85
930.89	5845.37
931.199	5824.8
931.508	5796.78
931.817	5781.42
932.125	5777.35
932.434	5750.68
932.743	5726.73
933.051	5649.22
933.36	5624.58
933.669	5590.01
933.977	5553.85
934.286	5563.12
934.594	5535.55
934.902	5534.19
935.21	5542.78
935.519	5516.34
935.827	5470.46
936.135	5424.81
936.443	5404.93
936.751	5383.01
937.059	5413.74
937.367	5330.35
937.674	5332.16
937.982	5354.76
938.29	5238.61
938.597	5275.44
938.905	5235.44
939.213	5230.92
939.52	5167.19
939.827	5238.83
940.135	5156.8
940.442	5124.03
940.749	5099.4
941.056	5134.2
941.363	5066.63
941.67	5025.5
941.977	5030.7
942.284	4989.8
942.591	4949.35
942.898	4945.28
943.205	4953.19
943.511	4903.92
943.818	4885.39
944.125	4896.02
944.431	4899.41
944.738	4886.3
945.044	4821.44
945.35	4765.62
945.657	4782.57
945.963	4736.92
946.269	4758.39
946.575	4690.6
946.881	4700.77
947.187	4655.34
947.493	4579.41
947.799	4640.2
948.105	4601.33
948.41	4595.68
948.716	4552.97
949.022	4543.48
949.327	4541.9
949.633	4512.3
949.938	4471.62
950.244	4484.95
950.549	4411.73
950.854	4378.74
951.16	4436.82
951.465	4401.57
951.77	4403.37
952.075	4351.4
952.38	4369.25
952.685	4317.5
952.99	4303.49
953.294	4286.99
953.599	4256.94
953.904	4238.86
954.209	4207.22
954.513	4214.9
954.818	4142.36
955.122	4155.7
955.426	4157.5
955.731	4108.24
956.035	4105.98
956.339	4100.1
956.643	4071.18
956.948	4082.93
957.252	4075.47
957.556	4046.55
957.86	4011.74
958.163	4003.16
958.467	3970.16
958.771	3963.61
959.075	3929.49
959.378	3930.17
959.682	3924.29
959.985	3889.04
960.289	3857.4
960.592	3838.42
960.896	3848.13
961.199	3804.52
961.502	3799.32
961.805	3790.06
962.108	3748.93
962.411	3771.3
962.714	3708.25
963.017	3706.89
963.32	3689.72
963.623	3684.75
963.926	3654.24
964.228	3648.82
964.531	3644.75
964.833	3642.71
965.136	3612.89
965.438	3583.73
965.741	3574.47
966.043	3575.15
966.345	3541.47
966.648	3518.2
966.95	3550.97
967.252	3497.63
967.554	3529.95
967.856	3461.48
968.158	3415.6
968.46	3417.86
968.761	3398.2
969.063	3406.34
969.365	3399.56
969.666	3407.24
969.968	3322.5
970.269	3299.22
970.571	3343.74
970.872	3358.65
971.174	3283.18
971.475	3277.75
971.776	3278.2
972.077	3258.09
972.378	3267.58
972.679	3259.22
972.98	3229.84
973.281	3222.61
973.582	3208.15
973.883	3194.82
974.183	3203.86
974.484	3149.62
974.785	3136.74
975.085	3143.75
975.386	3121.6
975.686	3101.03
975.986	3115.05
976.287	3080.92
976.587	3054.48
976.887	3031.21
977.187	3033.24
977.487	3018.55
977.787	2994.82
978.087	2990.08
978.387	2970.19
978.687	3022.39
978.987	2954.6
979.286	2955.73
979.586	2922.51
979.885	2902.17
980.185	2847.26
980.484	2897.2
980.784	2880.93
981.083	2837.54
981.382	2873.24
981.682	2840.02
981.981	2833.7
982.28	2820.59
982.579	2755.73
982.878	2810.19
983.177	2792.12
983.475	2736.75
983.774	2747.6
984.073	2741.27
984.372	2727.26
984.67	2714.6
984.969	2686.81
985.267	2683.64
985.566	2687.49
985.864	2671.44
986.162	2645.68
986.461	2623.98
986.759	2610.88
987.057	2611.33
987.355	2599.13
987.653	2592.57
987.951	2568.84
988.249	2592.57
988.547	2560.03
988.844	2541.5
989.142	2543.31
989.44	2491.11
989.737	2527.26
990.035	2500.6
990.332	2517.09
990.63	2468.73
990.927	2453.59
991.224	2490.2
991.521	2418.11
991.819	2448.4
992.116	2416.98
992.413	2393.93
992.71	2394.84
993.006	2397.32
993.303	2368.62
993.6	2369.08
993.897	2348.29
994.193	2379.25
994.49	2348.74
994.787	2348.06
995.083	2289.53
995.379	2294.73
995.676	2315.74
995.972	2276.2
996.268	2264.9
996.565	2256.76
996.861	2241.4
997.157	2247.72
997.453	2246.59
997.749	2209.31
998.044	2173.83
998.34	2183.09
998.636	2184.67
998.932	2184.45
999.227	2172.25
999.523	2175.41
999.818	2153.49
1000.114	2111.91
1000.409	2127.5
1000.704	2115.75
1001	2094.73
1001.295	2099.93
1001.59	2097.22
1001.885	2048.86
1002.18	2039.37
1002.475	2023.1
1002.77	1994.4
1003.065	2014.06
1003.359	1971.8
1003.654	1982.65
1003.949	1995.98
1004.243	1981.74
1004.538	1964.34
1004.832	1977.9
1005.127	1920.95
1005.421	1947.62
1005.715	1941.97
1006.009	1947.62
1006.304	1908.75
1006.598	1887.51
1006.892	1894.51
1007.186	1854.51
1007.48	1867.85
1007.773	1858.81
1008.067	1838.47
1008.361	1829.2
1008.655	1822.2
1008.948	1777.91
1009.242	1786.27
1009.535	1784.68
1009.829	1785.81
1010.122	1767.96
1010.415	1754.85
1010.708	1767.51
1011.001	1720.73
1011.295	1716.89
1011.588	1713.5
1011.881	1678.47
1012.173	1712.6
1012.466	1656.78
1012.759	1690.68
1013.052	1686.83
1013.344	1672.82
1013.637	1650.45
1013.93	1652.94
1014.222	1628.3
1014.514	1607.29
1014.807	1611.36
1015.099	1613.39
1015.391	1585.82
1015.683	1598.47
1015.976	1584.92
1016.268	1553.5
1016.56	1547.18
1016.851	1530.68
1017.143	1534.07
1017.435	1521.41
1017.727	1511.25
1018.018	1514.18
1018.31	1497.91
1018.602	1464.92
1018.893	1486.61
1019.185	1488.2
1019.476	1462.43
1019.767	1497.46
1020.058	1431.25
1020.35	1405.49
1020.641	1399.38
1020.932	1399.38
1021.223	1421.76
1021.514	1407.75
1021.804	1370.01
1022.095	1360.06
1022.386	1388.76
1022.677	1388.99
1022.967	1338.37
1023.258	1357.13
1023.548	1326.84
1023.839	1335.43
1024.129	1338.59
1024.419	1314.19
1024.709	1282.1
1025	1305.83
1025.29	1273.51
1025.58	1261.99
1025.87	1273.74
1026.16	1233.29
1026.449	1237.35
1026.739	1236.9
1027.029	1253.63
1027.319	1257.92
1027.608	1224.7
1027.898	1233.06
1028.187	1214.3
1028.477	1202.33
1028.766	1212.5
1029.055	1188.99
1029.344	1152.84
1029.634	1158.26
1029.923	1162.1
1030.212	1158.03
1030.501	1143.35
1030.79	1119.39
1031.078	1137.47
1031.367	1083.46
1031.656	1101.76
1031.945	1097.02
1032.233	1123.46
1032.522	1110.35
1032.81	1081.65
1033.099	1083.46
1033.387	1065.61
1033.675	1074.87
1033.963	1041.2
1034.251	1079.84
1034.54	1050.47
1034.828	1041.88
1035.116	1040.07
1035.403	1014.99
1035.691	1000.3
1035.979	1021.77
1036.267	994.87
1036.554	994.42
1036.842	1006.4
1037.129	996.23
1037.417	969.11
1037.704	956.01
1037.992	968.89
1038.279	955.55
1038.566	971.82
1038.853	971.82
1039.14	971.82
