Data from hue_10_FLMS001491_27.txt Node
Date: Mon Feb 06 15:31:40 GMT 2017
User: dcchb
Spectrometer: FLMS00149
Trigger mode: 0
Integration Time (sec): 2.000000E-2
Scans to average: 10
Electric dark correction enabled: true
Nonlinearity correction enabled: false
Boxcar width: 0
XAxis mode: Wavelengths
Number of Pixels in Spectrum: 2048
>>>>>Begin Spectral Data<<<<<
341.393	-9.42
341.776	-9.42
342.16	-9.42
342.543	-76.99
342.927	-84.45
343.31	-61.17
343.693	-64.33
344.077	-69.98
344.46	-69.08
344.843	-66.82
345.226	-43.54
345.61	-41.06
345.993	-23.88
346.376	3.46
346.759	-0.61
347.142	26.74
347.525	67.87
347.908	62.22
348.291	67.41
348.674	92.72
349.057	120.07
349.44	128.88
349.823	139.73
350.206	149.22
350.588	198.03
350.971	215.88
351.354	230.35
351.737	250.01
352.119	231.48
352.502	246.84
352.884	283.68
353.267	297.69
353.65	299.05
354.032	297.46
354.414	308.76
354.797	319.61
355.179	308.09
355.562	310.12
355.944	313.96
356.326	328.65
356.709	348.99
357.091	354.86
357.473	343.11
357.855	331.81
358.238	354.41
358.62	339.72
359.002	336.78
359.384	348.31
359.766	336.56
360.148	345.37
360.53	337.91
360.912	347.41
361.294	342.43
361.676	316.22
362.057	338.82
362.439	315.32
362.821	333.85
363.203	323
363.584	311.7
363.966	320.06
364.348	337.01
364.729	312.15
365.111	309.67
365.493	318.03
365.874	315.09
366.256	336.78
366.637	334.07
367.019	324.81
367.4	321.42
367.781	305.83
368.163	324.13
368.544	332.72
368.925	315.09
369.306	320.06
369.688	321.64
370.069	318.71
370.45	318.71
370.831	315.54
371.212	315.99
371.593	314.64
371.974	300.63
372.355	301.76
372.736	321.87
373.117	311.93
373.498	337.69
373.879	321.87
374.26	321.19
374.641	316.45
375.021	318.03
375.402	316.67
375.783	344.02
376.163	304.92
376.544	308.99
376.925	327.29
377.305	308.09
377.686	325.03
378.066	324.81
378.447	339.95
378.827	322.77
379.208	354.19
379.588	328.2
379.968	345.82
380.349	324.58
380.729	322.1
381.109	318.71
381.489	322.77
381.87	340.17
382.25	348.99
382.63	332.04
383.01	331.36
383.39	318.93
383.77	311.93
384.15	352.6
384.53	319.61
384.91	343.11
385.29	351.7
385.67	340.4
386.049	349.21
386.429	351.02
386.809	358.25
387.189	343.56
387.568	330.91
387.948	360.29
388.328	346.28
388.707	348.76
389.087	355.09
389.466	368.42
389.846	381.98
390.225	348.54
390.605	357.58
390.984	352.38
391.363	362.32
391.743	362.77
392.122	341.08
392.501	381.53
392.881	363.68
393.26	382.43
393.639	372.04
394.018	378.82
394.397	368.2
394.776	376.33
395.155	348.76
395.534	356.9
395.913	365.94
396.292	365.48
396.671	374.75
397.05	360.97
397.429	378.14
397.808	386.95
398.186	371.81
398.565	371.81
398.944	363.9
399.323	379.95
399.701	383.56
400.08	386.73
400.458	401.42
400.837	407.97
401.215	394.18
401.594	425.6
401.972	393.73
402.351	418.36
402.729	399.38
403.107	403
403.486	390.79
403.864	398.25
404.242	402.32
404.62	404.13
404.999	417.46
405.377	420.85
405.755	393.28
406.133	435.77
406.511	415.43
406.889	393.73
407.267	421.75
407.645	434.86
408.023	405.03
408.401	415.2
408.779	408.42
409.156	446.16
409.534	413.85
409.912	424.24
410.29	431.47
410.667	436.9
411.045	443.9
411.422	438.7
411.8	431.25
412.178	444.13
412.555	445.93
412.933	448.19
413.31	460.4
413.687	457.01
414.065	463.34
414.442	479.38
414.819	424.01
415.197	466.95
415.574	508.08
415.951	476.89
416.328	508.98
416.705	456.33
417.082	504.69
417.46	496.33
417.837	483.22
418.214	473.28
418.591	466.73
418.967	485.03
419.344	516.44
419.721	465.14
420.098	495.65
420.475	493.84
420.852	492.26
421.228	502.43
421.605	523.45
421.982	511.02
422.358	511.47
422.735	536.1
423.111	536.55
423.488	518.93
423.864	515.99
424.241	533.84
424.617	556.44
424.994	534.97
425.37	542.2
425.746	560.96
426.123	567.51
426.499	548.98
426.875	540.4
427.251	555.99
427.627	544.01
428.003	562.54
428.379	563.9
428.756	581.3
429.132	588.08
429.507	577.23
429.883	589.21
430.259	581.98
430.635	579.49
431.011	596.21
431.387	632.6
431.763	610
432.138	591.92
432.514	587.63
432.89	627.4
433.265	632.82
433.641	612.71
434.016	631.92
434.392	612.03
434.767	650.9
435.143	671.92
435.518	671.01
435.894	662.2
436.269	655.42
436.644	661.52
437.02	661.97
437.395	685.48
437.77	690.9
438.145	702.2
438.52	704.46
438.895	720.96
439.271	691.35
439.646	696.55
440.021	695.87
440.395	714.4
440.77	720.28
441.145	713.05
441.52	713.05
441.895	726.61
442.27	732.71
442.645	719.6
443.019	759.6
443.394	760.5
443.769	745.59
444.143	733.16
444.518	751.46
444.892	757.56
445.267	766.83
445.641	764.12
446.016	771.58
446.39	758.92
446.764	775.64
447.139	793.04
447.513	783.78
447.887	786.26
448.262	769.99
448.636	773.84
449.01	793.04
449.384	826.26
449.758	805.93
450.132	788.75
450.506	785.36
450.88	805.7
451.254	830.78
451.628	819.71
452.002	854.51
452.376	869.88
452.75	859.26
453.123	854.51
453.497	869.43
453.871	846.15
454.244	898.13
454.618	886.15
454.992	867.62
455.365	862.19
455.739	888.18
456.112	911.46
456.486	916.2
456.859	935.19
457.232	930.67
457.606	933.61
457.979	937.9
458.352	952.59
458.725	991.01
459.099	987.39
459.472	996.65
459.845	1000.27
460.218	1012.93
460.591	1027.16
460.964	1029.87
461.337	1050.44
461.71	1047.27
462.083	1075.75
462.456	1056.99
462.829	1061.74
463.201	1075.97
463.574	1071
463.947	1080.49
464.32	1095.64
464.692	1108.52
465.065	1130.89
465.438	1152.36
465.81	1141.96
466.183	1166.14
466.555	1214.28
466.928	1168.85
467.3	1210.21
467.672	1229.64
468.045	1247.27
468.417	1253.15
468.789	1265.8
469.161	1278
469.534	1290.43
469.906	1311.45
470.278	1314.16
470.65	1336.31
471.022	1328.4
471.394	1377.89
471.766	1372.24
472.138	1408.17
472.51	1430.32
472.882	1454.5
473.253	1485
473.625	1484.55
473.997	1504.21
474.369	1532.23
474.74	1559.35
475.112	1577.66
475.484	1604.77
475.855	1632.12
476.227	1658.11
476.598	1722.96
476.97	1730.65
477.341	1730.19
477.713	1763.87
478.084	1793.47
478.455	1830.53
478.827	1866.01
479.198	1911.66
479.569	1945.78
479.94	1966.35
480.311	1989.85
480.682	2071.88
481.053	2078.66
481.424	2100.35
481.795	2157.75
482.166	2208.83
482.537	2199.11
482.908	2306.68
483.279	2352.78
483.65	2340.57
484.021	2409.95
484.391	2422.61
484.762	2503.28
485.133	2475.94
485.503	2561.59
485.874	2576.05
486.244	2581.25
486.615	2676.61
486.985	2726.33
487.356	2734.24
487.726	2795.03
488.097	2851.52
488.467	2895.81
488.837	2932.87
489.207	2980.56
489.578	3017.62
489.948	3057.62
490.318	3076.6
490.688	3143.72
491.058	3162.25
491.428	3234.56
491.798	3258.29
492.168	3357.5
492.538	3366.08
492.908	3398.85
493.278	3383.48
493.648	3430.71
494.017	3485.63
494.387	3542.12
494.757	3538.28
495.126	3601.11
495.496	3617.38
495.866	3639.75
496.235	3669.58
496.605	3765.17
496.974	3800.2
497.344	3773.76
497.713	3824.38
498.082	3874.77
498.452	3869.57
498.821	3934.88
499.19	3895.79
499.559	4008.33
499.928	4017.37
500.298	4045.61
500.667	4035.67
501.036	4077.7
501.405	4096.01
501.774	4124.26
502.143	4104.82
502.512	4151.37
502.88	4218.26
503.249	4160.19
503.618	4258.26
503.987	4299.84
504.356	4305.27
504.724	4313.18
505.093	4324.02
505.462	4356.79
505.83	4365.61
506.199	4390.01
506.567	4452.38
506.936	4442.21
507.304	4455.77
507.672	4503.91
508.041	4540.29
508.409	4541.65
508.777	4547.07
509.145	4599.5
509.514	4642.89
509.882	4608.31
510.25	4636.33
510.618	4657.35
510.986	4682.43
511.354	4700.74
511.722	4732.38
512.09	4780.74
512.458	4810.79
512.826	4839.04
513.193	4819.15
513.561	4800.85
513.929	4863.67
514.297	4873.61
514.664	4944.35
515.032	4870.23
515.4	4950.22
515.767	4947.29
516.135	4984.35
516.502	4925.14
516.869	5007.62
517.237	5019.6
517.604	5013.72
517.972	5068.64
518.339	5088.52
518.706	5022.31
519.073	5109.09
519.44	5063.21
519.808	5133.04
520.175	5147.28
520.542	5181.18
520.909	5259.14
521.276	5206.71
521.643	5233.38
522.009	5278.8
522.376	5297.33
522.743	5330.33
523.11	5375.97
523.477	5428.4
523.843	5407.61
524.21	5457.33
524.577	5475.41
524.943	5485.35
525.31	5514.95
525.676	5515.86
526.043	5570.55
526.409	5588.85
526.776	5669.98
527.142	5699.58
527.508	5679.92
527.874	5678.11
528.241	5755.63
528.607	5724.21
528.973	5787.49
529.339	5821.61
529.705	5889.86
530.071	5939.58
530.437	5976.18
530.803	5949.52
531.169	6015.73
531.535	5981.83
531.901	6047.37
532.267	6030.65
532.632	6102.06
532.998	6069.52
533.364	6127.59
533.73	6107.25
534.095	6145.22
534.461	6186.35
534.826	6243.52
535.192	6253.24
535.557	6251.43
535.923	6336.18
536.288	6309.51
536.653	6349.28
537.019	6331.66
537.384	6337.98
537.749	6456.62
538.114	6412.33
538.479	6455.04
538.845	6489.39
539.21	6530.29
539.575	6549.28
539.94	6517.19
540.305	6606.9
540.67	6551.76
541.034	6610.07
541.399	6659.56
541.764	6674.47
542.129	6698.88
542.494	6768.25
542.858	6758.99
543.223	6718.99
543.587	6775.49
543.952	6862.72
544.316	6844.41
544.681	6907.69
545.045	6897.52
545.41	6907.46
545.774	6951.98
546.138	6967.35
546.503	7019.55
546.867	6975.48
547.231	7018.19
547.595	7087.57
547.959	7128.24
548.324	7112.88
548.688	7120.56
549.052	7170.28
549.416	7282.82
549.779	7245.3
550.143	7258.41
550.507	7323.49
550.871	7321.01
551.235	7344.28
551.599	7372.98
551.962	7426.99
552.326	7430.16
552.689	7467.22
553.053	7443.04
553.417	7467.22
553.78	7478.74
554.143	7514.68
554.507	7462.02
554.87	7569.14
555.234	7623.15
555.597	7592.41
555.96	7651.85
556.323	7700.89
556.686	7702.01
557.05	7794.67
557.413	7765.29
557.776	7722.35
558.139	7868.34
558.502	7820.88
558.865	7866.3
559.228	7895.46
559.59	7888.9
559.953	7882.58
560.316	7995.79
560.679	7972.52
561.041	8079.18
561.404	8022.91
561.767	8132.96
562.129	8084.15
562.492	8139.74
562.854	8196.47
563.217	8123.7
563.579	8175.9
563.941	8272.4
564.304	8257.03
564.666	8262.23
565.028	8286.86
565.39	8302.9
565.753	8351.94
566.115	8434.65
566.477	8410.24
566.839	8452.05
567.201	8519.62
567.563	8546.06
567.925	8544.03
568.287	8559.39
568.648	8599.62
569.01	8649.33
569.372	8719.84
569.734	8701.76
570.095	8785.38
570.457	8890.91
570.819	8852.49
571.18	8816.79
571.542	8910.57
571.903	8955.32
572.265	8943.56
572.626	9052.04
572.987	9104.01
573.349	9128.19
573.71	9203.67
574.071	9251.8
574.432	9340.62
574.794	9324.35
575.155	9448.86
575.516	9475.3
575.877	9583.32
576.238	9581.29
576.599	9696.31
576.96	9755.29
577.32	9775.18
577.681	9884.56
578.042	9917.55
578.403	10072.8
578.763	10154.61
579.124	10270.76
579.485	10373.36
579.845	10508.95
580.206	10543.3
580.566	10627.14
580.927	10801.14
581.287	10987.58
581.648	11083.85
582.008	11222.83
582.368	11330.85
582.728	11494.01
583.089	11653.1
583.449	11788.24
583.809	12060.32
584.169	12172.86
584.529	12414.66
584.889	12517.48
585.249	12710.24
585.609	12959.05
585.969	13241.3
586.329	13458.93
586.688	13762.19
587.048	13886.03
587.408	14068.4
587.768	14360.37
588.127	14582.74
588.487	14773.24
588.846	15174.13
589.206	15300.01
589.565	15612.09
589.925	15963.94
590.284	16191.51
590.643	16530.03
591.003	16887.31
591.362	17173.4
591.721	17497.01
592.08	17694.07
592.44	18094.06
592.799	18430.55
593.158	18682.52
593.517	18973.36
593.876	19350.3
594.235	19776.05
594.593	20093.55
594.952	20391.17
595.311	20614.9
595.67	21074.09
596.029	21519.28
596.387	21788.2
596.746	22213.95
597.104	22513.38
597.463	22661.62
597.822	23228.61
598.18	23421.6
598.538	23685.32
598.897	24347
599.255	24269.94
599.613	24927.55
599.972	25020.43
600.33	25596.23
600.688	25779.96
601.046	26144.47
601.404	26744.45
601.762	26971.56
602.12	27345.11
602.478	27498.33
602.836	27983.06
603.194	28073.46
603.552	28568.58
603.91	28727.9
604.268	29096.71
604.625	29389.13
604.983	29773.53
605.341	29940.75
605.698	30347.3
606.056	30717.23
606.413	31019.37
606.771	31304.33
607.128	31516.08
607.485	31810.08
607.843	32076.52
608.2	32426.56
608.557	32904.52
608.914	32895.48
609.272	33431.73
609.629	33595.35
609.986	33925.73
610.343	34033.98
610.7	34507.19
611.057	34770
611.414	34976.33
611.771	35128.19
612.127	35463.09
612.484	35588.51
612.841	36001.16
613.198	36054.94
613.554	36391.88
613.911	36632.78
614.267	36714.36
614.624	36943.51
614.98	37255.36
615.337	37639.53
615.693	37812.64
616.05	37689.25
616.406	38230.7
616.762	38204.26
617.118	38385.05
617.475	38510.47
617.831	38878.37
618.187	38883.34
618.543	39120.17
618.899	39519.03
619.255	39498.24
619.611	39509.99
619.967	39855.07
620.323	40045.35
620.678	39979.36
621.034	40187.71
621.39	40336.41
621.746	40419.12
622.101	40829.73
622.457	40628.38
622.812	40939.79
623.168	41029.95
623.523	41182.72
623.879	41288.48
624.234	41199.44
624.589	41509.26
624.945	41592.88
625.3	41692.08
625.655	41841.91
626.01	41765.07
626.365	41915.35
626.72	41941.34
627.075	42073.77
627.43	42059.3
627.785	42109.02
628.14	42124.39
628.495	42212.52
628.85	42245.29
629.205	42256.59
629.559	42663.36
629.914	42584.04
630.269	42525.96
630.623	42524.15
630.978	42553.53
631.332	42599.85
631.687	42898.15
632.041	42653.41
632.396	42836.68
632.75	42673.98
633.104	42742
633.459	42671.94
633.813	42872.62
634.167	42930.92
634.521	42794.88
634.875	42935.89
635.229	42918.49
635.583	42737.03
635.937	42954.87
636.291	42867.64
636.645	42907.64
636.999	42884.59
637.352	43047.75
637.706	42711.49
638.06	42964.82
638.413	42831.94
638.767	42933.86
639.121	42891.82
639.474	42685.28
639.828	42829.68
640.181	42787.65
640.534	42813.86
640.888	42818.83
641.241	42630.59
641.594	42683.92
641.947	42930.92
642.301	42783.58
642.654	42771.38
643.007	42924.82
643.36	42819.74
643.713	42685.95
644.066	42937.92
644.419	42643.7
644.771	42379.3
645.124	41968.46
645.477	41970.49
645.83	41758.29
646.182	41738.41
646.535	41427.68
646.888	41540
647.24	41503.84
647.593	41751.52
647.945	41666.09
648.298	41499.77
648.65	41407.8
649.002	41217.74
649.355	41590.62
649.707	41268.59
650.059	41423.39
650.411	42098.62
650.763	42080.09
651.115	42496.13
651.467	42363.7
651.819	42452.74
652.171	42203.48
652.523	42244.16
652.875	42252.52
653.227	42048.46
653.578	42364.15
653.93	42249.36
654.282	41943.37
654.633	41996.25
654.985	42029.7
655.337	42187.66
655.688	42135.46
656.039	42239.86
656.391	41849.59
656.742	42041
657.094	41965.97
657.445	42191.05
657.796	42013.88
658.147	41974.11
658.498	41928.23
658.849	42098.62
659.2	41869.03
659.551	41841.91
659.902	42094.56
660.253	42096.36
660.604	42083.03
660.955	41910.38
661.306	42035.35
661.656	41963.71
662.007	41847.33
662.358	41911.28
662.708	41844.85
663.059	41695.47
663.409	41715.58
663.76	41870.61
664.11	42030.6
664.461	41936.14
664.811	42008.46
665.161	42025.41
665.511	41801.01
665.862	41954.22
666.212	42013.2
666.562	42022.69
666.912	41808.46
667.262	41821.8
667.612	41826.77
667.962	41875.58
668.312	41701.35
668.662	41955.8
669.011	41789.25
669.361	41678.07
669.711	41729.82
670.06	41629.94
670.41	41567.79
670.76	41542.48
671.109	41796.49
671.459	41675.36
671.808	41599.65
672.157	41631.52
672.507	41489.6
672.856	41482.6
673.205	41431.3
673.554	41536.61
673.904	41520.33
674.253	41675.58
674.602	41549.03
674.951	40976.85
675.3	40806.46
675.649	41398.08
675.998	41361.02
676.346	41395.37
676.695	41537.96
677.044	41193.34
677.393	41306.56
677.741	41305.43
678.09	41329.15
678.438	41122.38
678.787	41243.05
679.135	41435.82
679.484	41075.37
679.832	41291.64
680.181	41017.75
680.529	41104.98
680.877	41020.01
681.225	40984.3
681.573	41014.81
681.922	40787.02
682.27	40743.63
682.618	40778.43
682.966	40709.06
683.314	40635.39
683.661	40493.47
684.009	40414.83
684.357	40226.13
684.705	40114.72
685.053	40351.78
685.4	40210.76
685.748	40067.94
686.095	40069.75
686.443	39964.67
686.79	39850.32
687.138	39945.23
687.485	40067.04
687.832	39828.63
688.18	39793.15
688.527	39599.03
688.874	39679.93
689.221	39491.69
689.568	39586.15
689.915	39406.72
690.262	39398.36
690.609	39245.37
690.956	39179.83
691.303	38997.24
691.65	38908.43
691.997	38927.63
692.344	38746.62
692.69	38675.89
693.037	38619.62
693.383	38353.64
693.73	38512.5
694.077	38280.87
694.423	38402
694.769	38147.99
695.116	38058.05
695.462	38039.75
695.808	37872.3
696.155	38044.49
696.501	37668.23
696.847	37672.3
697.193	37492.19
697.539	37576.26
697.885	37273.44
698.231	37082.94
698.577	37258.75
698.923	37106.67
699.269	36895.6
699.614	36818.09
699.96	36656.51
700.306	36817.41
700.651	36582.84
700.997	36623.51
701.342	36412.9
701.688	36405.22
702.033	36240.93
702.379	36240.7
702.724	36233.24
703.069	36176.97
703.415	35756.42
703.76	35928.17
704.105	35799.36
704.45	35780.6
704.795	35531.34
705.14	35360.72
705.485	35480.95
705.83	35417.67
706.175	35270.78
706.52	35200.95
706.865	35080.96
707.209	34992.14
707.554	34909.89
707.899	35017.45
708.243	34829.66
708.588	34815.43
708.932	34580.4
709.277	34566.39
709.621	34629.89
709.966	34387.42
710.31	34351.48
710.654	34172.05
710.998	34247.08
711.342	34232.39
711.687	34101.55
712.031	33852.06
712.375	33865.85
712.719	33821.78
713.063	33873.98
713.407	33898.61
713.75	33780.88
714.094	33667.21
714.438	33488
714.782	33561.45
715.125	33305.86
715.469	33323.71
715.812	33154.68
716.156	33031.52
716.499	33130.95
716.843	33106.77
717.186	32888.47
717.53	33017.06
717.873	32937.74
718.216	32858.42
718.559	32747.91
718.902	32446.45
719.246	32690.74
719.589	32523.96
719.932	32470.18
720.275	32394.7
720.617	32415.26
720.96	32342.5
721.303	32474.92
721.646	32253.46
721.989	32137.76
722.331	32260.24
722.674	32131.88
723.016	32112.9
723.359	32084.65
723.701	32125.33
724.044	31928.95
724.386	31674.72
724.729	31817.31
725.071	31815.28
725.413	31787.71
725.755	31781.16
726.097	31677.66
726.439	31519.24
726.782	31549.07
727.124	31627.04
727.465	31310.66
727.807	31414.39
728.149	31243.77
728.491	31295.74
728.833	31310.66
729.175	31146.82
729.516	31154.51
729.858	31027.5
730.199	31094.85
730.541	30979.14
730.882	31027.28
731.224	31041.74
731.565	30749.09
731.906	30843.55
732.248	30797.23
732.589	30752.93
732.93	30606.27
733.271	30550.68
733.612	30617.8
733.953	30682.65
734.294	30515.2
734.635	30296.68
734.976	30520.62
735.317	30271.37
735.658	30297.58
735.999	30352.72
736.339	30361.08
736.68	30338.48
737.021	30073.63
737.361	30051.03
737.702	30303
738.042	30160.18
738.383	30116.11
738.723	30078.6
739.063	29969.9
739.404	30055.55
739.744	29851.49
740.084	29748.21
740.424	29854.2
740.764	29706.18
741.104	29755.67
741.444	29579.86
741.784	29598.61
742.124	29649.23
742.464	29551.16
742.804	29557.94
743.143	29460.09
743.483	29504.61
743.823	29338.28
744.162	29290.83
744.502	29369.02
744.841	29161.79
745.181	29345.06
745.52	29274.1
745.86	29254.89
746.199	29121.34
746.538	29220.09
746.877	29160.43
747.216	29144.84
747.556	29011.51
747.895	29026.43
748.234	28790.05
748.573	28938.74
748.911	28833.66
749.25	28817.84
749.589	28658.53
749.928	28757.96
750.267	28700.33
750.605	28618.3
750.944	28632.09
751.283	28575.59
751.621	28582.14
751.96	28322.04
752.298	28367.01
752.636	28416.95
752.975	28217.63
753.313	28126.34
753.651	28245.2
753.989	28075.94
754.327	28144.87
754.666	27913.01
755.004	27997.75
755.342	28048.37
755.679	28056.28
756.017	27718.21
756.355	27882.05
756.693	27629.85
757.031	27802.28
757.368	27485.68
757.706	27399.12
758.044	27511.21
758.381	27454.04
758.719	27433.02
759.056	27373.36
759.394	27238.68
759.731	27109.19
760.068	27200.94
760.405	27014.05
760.743	26881.85
761.08	27008.63
761.417	26872.81
761.754	26797.56
762.091	26733.83
762.428	26604.12
762.765	26424.01
763.102	26497.45
763.438	26387.85
763.775	26247.06
764.112	26264.46
764.449	26275.99
764.785	26185.6
765.122	25919.16
765.458	25843.91
765.795	25902.21
766.131	25887.75
766.467	25771.6
766.804	25561.21
767.14	25468.55
767.476	25464.94
767.812	25409.57
768.148	25409.12
768.485	25271.5
768.821	25111.05
769.157	25104.27
769.492	25043.03
769.828	24934.33
770.164	24802.81
770.5	24681.46
770.836	24682.59
771.171	24542.93
771.507	24560.55
771.842	24253.22
772.178	24373.67
772.513	24281.01
772.849	24207.34
773.184	24108.36
773.519	24034.92
773.855	24011.64
774.19	23854.58
774.525	23803.96
774.86	23794.93
775.195	23738.43
775.53	23627.25
775.865	23441.71
776.2	23215.05
776.535	23160.37
776.87	23216.86
777.205	23137.09
777.539	23082.85
777.874	23034.04
778.209	22823.43
778.543	22794.05
778.878	22695.75
779.212	22626.37
779.547	22509.54
779.881	22554.73
780.215	22414.17
780.55	22424.34
780.884	22243.33
781.218	22165.82
781.552	22144.35
781.886	22155.42
782.22	21987.52
782.554	21894.18
782.888	21669.56
783.222	21759.72
783.556	21492.39
783.889	21496.45
784.223	21308.21
784.557	21347.53
784.89	21310.02
785.224	21164.94
785.557	21082.45
785.891	21051.27
786.224	20973.76
786.558	20992.06
786.891	20729.7
787.224	20790.03
787.557	20689.92
787.891	20594.56
788.224	20569.93
788.557	20462.13
788.89	20472.53
789.223	20417.39
789.556	20333.77
789.888	20132.65
790.221	20065.08
790.554	19949.38
790.887	20044.29
791.219	19823.28
791.552	19955.7
791.884	19790.06
792.217	19770.62
792.549	19634.36
792.882	19479.11
793.214	19401.82
793.546	19438.66
793.879	19356.85
794.211	19221.94
794.543	19326.34
794.875	19227.36
795.207	19240.69
795.539	19076.63
795.871	19027.37
796.203	18903.53
796.535	18875.73
796.867	18765.23
797.198	18727.71
797.53	18717.54
797.862	18548.51
798.193	18656.98
798.525	18510.32
798.856	18640.03
799.188	18334.73
799.519	18308.97
799.85	18157.79
800.182	18289.31
800.513	18237.78
800.844	18051.57
801.175	18026.04
801.506	18021.29
801.837	17874.63
802.168	17955.53
802.499	17856.55
802.83	17694.75
803.161	17707.85
803.491	17715.76
803.822	17678.48
804.153	17559.38
804.483	17428.31
804.814	17444.13
805.145	17423.12
805.475	17280.75
805.805	17290.69
806.136	17339.95
806.466	17248.43
806.796	17255.89
807.126	17042.79
807.457	16959.85
807.787	17023.13
808.117	17011.6
808.447	16910.59
808.777	16965.05
809.107	16816.58
809.436	16731.38
809.766	16732.06
810.096	16678.5
810.426	16623.36
810.755	16664.27
811.085	16642.8
811.414	16596.02
811.744	16448.9
812.073	16396.25
812.403	16361.45
812.732	16256.59
813.061	16320.32
813.39	16156.03
813.719	16178.85
814.049	16199.87
814.378	16117.84
814.707	15981.35
815.036	16070.16
815.365	15946.32
815.693	15874.46
816.022	15806.43
816.351	15822.71
816.68	15702.93
817.008	15769.37
817.337	15561.92
817.665	15652.54
817.994	15603.73
818.322	15724.85
818.651	15501.36
818.979	15525.31
819.307	15553.33
819.636	15395.82
819.964	15321.93
820.292	15498.87
820.62	15427.69
820.948	15406.67
821.276	15396.05
821.604	15298.88
821.932	15378.65
822.259	15383.17
822.587	15307.92
822.915	15281.25
823.243	15268.14
823.57	15297.07
823.898	15214.36
824.225	15139.56
824.553	15274.25
824.88	15259.1
825.207	15240.12
825.535	15128.94
825.862	15224.3
826.189	15173.23
826.516	15235.15
826.843	15231.99
827.17	15304.07
827.497	15285.32
827.824	15166.9
828.151	15285.77
828.478	15313.79
828.805	15318.54
829.131	15184.3
829.458	15215.72
829.785	15057.75
830.111	15161.48
830.438	15208.94
830.764	15135.94
831.09	15196.96
831.417	15115.38
831.743	15200.35
832.069	15257.07
832.395	15081.48
832.722	15123.97
833.048	15092.1
833.374	15113.35
833.7	15067.25
834.026	15103.85
834.351	15126.68
834.677	15003.07
835.003	15126
835.329	14988.38
835.654	15010.75
835.98	14975.27
836.306	14993.8
836.631	14950.19
836.956	14991.31
837.282	14897.53
837.607	14863.41
837.932	14820.47
838.258	14815.73
838.583	14847.14
838.908	14709.97
839.233	14699.35
839.558	14647.37
839.883	14633.36
840.208	14642.85
840.533	14595.62
840.858	14616.41
841.182	14603.08
841.507	14582.06
841.832	14443.53
842.156	14439.01
842.481	14453.93
842.805	14466.13
843.13	14371.44
843.454	14434.49
843.778	14276.31
844.103	14250.77
844.427	14258.23
844.751	14159.7
845.075	14251.9
845.399	14149.76
845.723	14034.05
846.047	14131
846.371	13949.76
846.695	13954.96
847.019	13829.99
847.343	13920.16
847.666	13793.38
847.99	13739.6
848.313	13658.02
848.637	13615.98
848.96	13593.16
849.284	13551.35
849.607	13459.38
849.931	13441.53
850.254	13309.33
850.577	13253.51
850.9	13178.03
851.223	13103.91
851.546	13113.4
851.869	12965.61
852.192	13053.06
852.515	12871.14
852.838	12872.95
853.161	12798.6
853.483	12766.97
853.806	12748.21
854.129	12792.95
854.451	12626.41
854.774	12589.34
855.096	12580.08
855.419	12580.53
855.741	12480.87
856.063	12505.96
856.385	12416.92
856.708	12413.98
857.03	12309.13
857.352	12420.31
857.674	12234.1
857.996	12293.98
858.318	12196.13
858.64	12253.76
858.961	12164.72
859.283	12060.09
859.605	11995.24
859.926	12053.09
860.248	12017.83
860.57	11928.12
860.891	12036.82
861.212	11892.87
861.534	11800.89
861.855	11844.05
862.176	11762.02
862.498	11860.32
862.819	11838.86
863.14	11696.03
863.461	11780.1
863.782	11755.24
864.103	11721.57
864.424	11720.21
864.745	11612.87
865.065	11622.59
865.386	11606.55
865.707	11568.35
866.027	11527.9
866.348	11534.68
866.668	11498.07
866.989	11477.28
867.309	11368.13
867.63	11422.82
867.95	11405.87
868.27	11340.11
868.59	11373.56
868.91	11386.66
869.23	11328.36
869.55	11252.43
869.87	11367.23
870.19	11289.27
870.51	11314.8
870.83	11256.72
871.15	11211.75
871.469	11160.68
871.789	11279.77
872.109	11228.7
872.428	11108.71
872.748	11175.6
873.067	11222.15
873.386	11164.97
873.706	11141.25
874.025	11114.35
874.344	11120.91
874.663	11049.95
874.982	10937.18
875.301	10967.47
875.62	10961.59
875.939	10902.61
876.258	10930.4
876.577	10874.36
876.896	10876.62
877.214	10882.27
877.533	10877.07
877.852	10880.91
878.17	10874.13
878.489	10877.07
878.807	10840.46
879.125	10796.4
879.444	10817.41
879.762	10767.47
880.08	10724.53
880.398	10663.52
880.716	10753.69
881.034	10633.24
881.352	10634.14
881.67	10637.53
881.988	10611.77
882.306	10622.84
882.624	10504.88
882.941	10527.93
883.259	10448.61
883.577	10398.44
883.894	10443.41
884.212	10342.17
884.529	10330.65
884.846	10356.63
885.164	10340.59
885.481	10279.12
885.798	10372.45
886.115	10310.31
886.432	10240.25
886.75	10224.66
887.067	10171.55
887.383	10188.05
887.7	10124.78
888.017	10131.33
888.334	10136.3
888.651	10035.06
888.967	10011.33
889.284	10021.5
889.6	9996.87
889.917	9901.05
890.233	9909.19
890.55	9939.92
890.866	9910.77
891.182	9816.08
891.498	9759.36
891.815	9799.13
892.131	9747.84
892.447	9778.34
892.763	9728.18
893.079	9711.45
893.395	9714.62
893.71	9645.01
894.026	9590.78
894.342	9548.52
894.657	9504.91
894.973	9522.98
895.289	9562.08
895.604	9484.34
895.92	9416.55
896.235	9319.6
896.55	9348.3
896.865	9286.15
897.181	9225.82
897.496	9283.89
897.811	9251.58
898.126	9165.93
898.441	9197.34
898.756	9202.54
899.071	9062.43
899.386	9111.24
899.7	9036.22
900.015	9031.92
900.33	8959.84
900.644	8891.14
900.959	8968.42
901.273	8854.75
901.588	8850.46
901.902	8779.95
902.216	8826.51
902.531	8728.2
902.845	8735.89
903.159	8678.94
903.473	8661.54
903.787	8665.38
904.101	8561.88
904.415	8544.25
904.729	8542.9
905.042	8525.72
905.356	8468.32
905.67	8415.44
905.984	8397.59
906.297	8436.23
906.611	8246.18
906.924	8292.06
907.237	8323.02
907.551	8251.61
907.864	8246.86
908.177	8100.42
908.491	8160.76
908.804	8115.11
909.117	8086.86
909.43	8067.88
909.743	7973.42
910.056	7993.76
910.368	7969.35
910.681	7966.41
910.994	7859.75
911.307	7795.8
911.619	7771.62
911.932	7849.81
912.244	7746.31
912.557	7735.91
912.869	7675.58
913.181	7579.08
913.494	7685.97
913.806	7549.02
914.118	7580.21
914.43	7550.15
914.742	7469.7
915.054	7394.9
915.366	7426.32
915.678	7412.08
915.99	7338.18
916.302	7359.65
916.613	7264.29
916.925	7291.18
917.236	7297.05
917.548	7206.43
917.859	7183.84
918.171	7145.65
918.482	7082.37
918.794	7079.21
919.105	7083.5
919.416	7023.16
919.727	7057.74
920.038	7005.99
920.349	6962.83
920.66	6911.53
920.971	6929.38
921.282	6836.28
921.593	6885.99
921.903	6839.21
922.214	6761.93
922.525	6775.26
922.835	6748.14
923.146	6681.25
923.456	6683.28
923.767	6612.33
924.077	6610.29
924.387	6555.83
924.697	6544.76
925.008	6564.42
925.318	6539.33
925.628	6538.88
925.938	6472.89
926.248	6429.28
926.558	6416.85
926.867	6395.16
927.177	6368.04
927.487	6354.48
927.796	6276.74
928.106	6237.65
928.416	6255.05
928.725	6192.22
929.034	6240.58
929.344	6165.33
929.653	6160.59
929.962	6117.2
930.271	6084.66
930.581	6078.78
930.89	6038.33
931.199	5978.67
931.508	5977.99
931.817	5944.55
932.125	5927.37
932.434	5946.58
932.743	5904.77
933.051	5852.8
933.36	5839.01
933.669	5765.34
933.977	5770.09
934.286	5748.62
934.594	5703.42
934.902	5681.5
935.21	5699.81
935.519	5660.94
935.827	5617.32
936.135	5584.78
936.443	5595.4
936.751	5508.63
937.059	5511.11
937.367	5444.9
937.674	5527.38
937.982	5437.44
938.29	5446.71
938.597	5393.15
938.905	5413.49
939.213	5357.9
939.52	5325.58
939.827	5345.47
940.135	5281.29
940.442	5248.97
940.749	5246.49
941.056	5248.29
941.363	5170.1
941.67	5153.83
941.977	5194.96
942.284	5128.07
942.591	5130.78
942.898	5101.63
943.205	5024.57
943.511	5050.56
943.818	5029.09
944.125	4988.87
944.431	4992.26
944.738	4959.49
945.044	4960.39
945.35	4923.78
945.657	4839.72
945.963	4874.29
946.269	4855.31
946.575	4839.49
946.881	4803.79
947.187	4759.95
947.493	4775.54
947.799	4755.2
948.105	4724.24
948.41	4701.87
948.716	4700.96
949.022	4687.86
949.327	4670.68
949.633	4561.08
949.938	4589.33
950.244	4582.77
950.549	4566.05
950.854	4517.92
951.16	4554.98
951.465	4454.19
951.77	4477.69
952.075	4459.39
952.38	4450.12
952.685	4440.41
952.99	4347.75
953.294	4422.33
953.599	4341.2
953.904	4321.76
954.209	4332.39
954.513	4291.26
954.818	4298.71
955.122	4287.87
955.426	4261.2
955.731	4201.32
956.035	4240.41
956.339	4189.11
956.643	4171.26
956.948	4199.06
957.252	4149.57
957.556	4131.04
957.86	4128.1
958.163	4112.73
958.467	4051.94
958.771	4078.38
959.075	4011.26
959.378	4025.95
959.682	4042.45
959.985	3963.13
960.289	3960.87
960.592	3957.25
960.896	3915.9
961.199	3907.54
961.502	3898.27
961.805	3897.14
962.108	3864.15
962.411	3856.92
962.714	3803.36
963.017	3804.04
963.32	3817.15
963.623	3809.46
963.926	3775.56
964.228	3747.32
964.531	3712.97
964.833	3717.26
965.136	3650.14
965.438	3655.12
965.741	3650.37
966.043	3657.6
966.345	3658.05
966.648	3630.03
966.95	3634.78
967.252	3590.71
967.554	3590.71
967.856	3573.76
968.158	3537.83
968.46	3558.62
968.761	3531.28
969.063	3475.91
969.365	3479.98
969.666	3463.93
969.968	3439.98
970.269	3449.25
970.571	3402.02
970.872	3404.95
971.174	3366.99
971.475	3382.58
971.776	3405.18
972.077	3336.93
972.378	3317.95
972.679	3319.53
972.98	3348.46
973.281	3332.86
973.582	3277.95
973.883	3246.09
974.183	3227.1
974.484	3227.1
974.785	3208.12
975.085	3218.97
975.386	3189.14
975.686	3148.91
975.986	3143.94
976.287	3151.63
976.587	3122.02
976.887	3103.72
977.187	3114.11
977.487	3082.25
977.787	3053.1
978.087	3052.19
978.387	3058.3
978.687	3038.86
978.987	3007.9
979.286	3001.8
979.586	2973.33
979.885	2977.17
980.185	2993.44
980.484	2965.64
980.784	2955.47
981.083	2940.33
981.382	2937.39
981.682	2884.51
981.981	2866.89
982.28	2831.63
982.579	2837.06
982.878	2842.93
983.177	2853.55
983.475	2860.11
983.774	2814.91
984.073	2789.6
984.372	2776.49
984.67	2816.27
984.969	2762.94
985.267	2743.28
985.566	2789.6
985.864	2708.7
986.162	2725.87
986.461	2722.26
986.759	2703.95
987.057	2650.4
987.355	2658.98
987.653	2677.29
987.951	2637.06
988.249	2636.84
988.547	2620.34
988.844	2588.48
989.142	2577.18
989.44	2590.74
989.737	2576.95
990.035	2545.09
990.332	2560.91
990.63	2541.7
990.927	2501.25
991.224	2537.41
991.521	2484.07
991.819	2513.68
992.116	2483.17
992.413	2487.24
992.71	2462.15
993.006	2451.53
993.303	2435.49
993.6	2419.89
993.897	2410.85
994.193	2398.65
994.49	2386.67
994.787	2362.95
995.083	2378.31
995.379	2332.89
995.676	2345.77
995.972	2335.6
996.268	2327.02
996.565	2334.02
996.861	2320.01
997.157	2295.6
997.453	2268.94
997.749	2281.59
998.044	2211.76
998.34	2241.14
998.636	2224.64
998.932	2228.26
999.227	2216.51
999.523	2202.5
999.818	2165.21
1000.114	2198.2
1000.409	2180.35
1000.704	2139
1001	2132.67
1001.295	2143.29
1001.59	2122.5
1001.885	2081.37
1002.18	2084.54
1002.475	2116.85
1002.77	2074.14
1003.065	2075.5
1003.359	2075.72
1003.654	2050.41
1003.949	2040.24
1004.243	2041.6
1004.538	2032.33
1004.832	2013.8
1005.127	2020.36
1005.421	1957.31
1005.715	1955.5
1006.009	1951.21
1006.304	1949.17
1006.598	1958.21
1006.892	1906.01
1007.186	1886.57
1007.48	1892
1007.773	1877.99
1008.067	1853.36
1008.361	1863.75
1008.655	1865.33
1008.948	1824.88
1009.242	1872.56
1009.535	1833.69
1009.829	1815.16
1010.122	1801.38
1010.415	1830.53
1010.708	1778.33
1011.001	1771.32
1011.295	1802.28
1011.588	1728.84
1011.881	1755.96
1012.173	1710.76
1012.466	1721.16
1012.759	1701.72
1013.052	1705.34
1013.344	1708.95
1013.637	1707.82
1013.93	1667.6
1014.222	1678.22
1014.514	1695.62
1014.807	1646.81
1015.099	1601.84
1015.391	1623.53
1015.683	1620.59
1015.976	1606.36
1016.268	1602.51
1016.56	1615.17
1016.851	1584.21
1017.143	1590.31
1017.435	1586.7
1017.727	1562.29
1018.018	1545.11
1018.31	1538.56
1018.602	1522.97
1018.893	1496.98
1019.185	1490.2
1019.476	1491.1
1019.767	1490.65
1020.058	1469.18
1020.35	1438.45
1020.641	1451.33
1020.932	1431.45
1021.223	1433.25
1021.514	1455.85
1021.804	1419.92
1022.095	1400.26
1022.386	1389.41
1022.677	1401.84
1022.967	1375.85
1023.258	1395.29
1023.548	1372.24
1023.839	1359.13
1024.129	1359.36
1024.419	1327.95
1024.709	1314.16
1025	1313.48
1025.29	1334.5
1025.58	1318
1025.87	1290.66
1026.16	1291.34
1026.449	1284.33
1026.739	1265.8
1027.029	1275.97
1027.319	1215.18
1027.608	1244.11
1027.898	1257.89
1028.187	1235.52
1028.477	1235.74
1028.766	1209.98
1029.055	1197.78
1029.344	1194.62
1029.634	1221.73
1029.923	1215.63
1030.212	1157.55
1030.501	1167.72
1030.79	1149.42
1031.078	1153.71
1031.367	1141.96
1031.656	1151
1031.945	1121.17
1032.233	1125.24
1032.522	1129.76
1032.81	1117.1
1033.099	1083.88
1033.387	1112.81
1033.675	1105.58
1033.963	1085.24
1034.251	1046.82
1034.54	1045.92
1034.828	1066.03
1035.116	1045.47
1035.403	1052.47
1035.691	1009.76
1035.979	1038.69
1036.267	1023.55
1036.554	1011.57
1036.842	1013.6
1037.129	1014.51
1037.417	988.75
1037.704	993.04
1037.992	994.62
1038.279	985.81
1038.566	972.25
1038.853	972.25
1039.14	972.25
