Data from hue_350_FLMS001491_83.txt Node
Date: Mon Feb 06 15:38:38 GMT 2017
User: dcchb
Spectrometer: FLMS00149
Trigger mode: 0
Integration Time (sec): 2.000000E-2
Scans to average: 10
Electric dark correction enabled: true
Nonlinearity correction enabled: false
Boxcar width: 0
XAxis mode: Wavelengths
Number of Pixels in Spectrum: 2048
>>>>>Begin Spectral Data<<<<<
341.393	-9.58
341.776	-9.58
342.16	-9.58
342.543	-50.93
342.927	-44.15
343.31	-84.6
343.693	-69.24
344.077	-60.2
344.46	-58.39
344.843	-65.62
345.226	-41.89
345.61	-31.04
345.993	-37.6
346.376	-10.48
346.759	-0.54
347.142	40.37
347.525	58.22
347.908	68.84
348.291	75.17
348.674	101.61
349.057	115.39
349.44	130.99
349.823	141.61
350.206	146.8
350.588	213.69
350.971	219.34
351.354	220.47
351.737	229.51
352.119	253.24
352.502	264.99
352.884	272.45
353.267	283.75
353.65	301.15
354.032	275.84
354.414	281.94
354.797	316.97
355.179	304.31
355.562	322.84
355.944	306.8
356.326	331.88
356.709	347.02
357.091	347.02
357.473	333.92
357.855	325.56
358.238	347.25
358.62	348.61
359.002	352
359.384	346.12
359.766	328.95
360.148	360.58
360.53	344.31
360.912	328.27
361.294	351.54
361.676	348.15
362.057	322.17
362.439	335.5
362.821	322.62
363.203	324.88
363.584	333.47
363.966	318.32
364.348	323.75
364.729	319
365.111	313.35
365.493	320.81
365.874	327.36
366.256	329.62
366.637	325.56
367.019	323.3
367.4	313.81
367.781	310.19
368.163	324.65
368.544	323.97
368.925	324.43
369.306	317.87
369.688	302.73
370.069	301.6
370.45	308.38
370.831	297.53
371.212	313.81
371.593	313.58
371.974	332.34
372.355	341.38
372.736	321.04
373.117	305.44
373.498	301.38
373.879	304.31
374.26	325.56
374.641	314.03
375.021	319.23
375.402	335.27
375.783	321.26
376.163	326.23
376.544	356.06
376.925	314.26
377.305	314.26
377.686	317.65
378.066	327.14
378.447	326.91
378.827	327.59
379.208	329.62
379.588	334.82
379.968	358.55
380.349	365.56
380.729	348.38
381.109	322.84
381.489	338.66
381.87	336.86
382.25	334.82
382.63	333.69
383.01	337.08
383.39	341.6
383.77	338.66
384.15	337.08
384.53	344.99
384.91	328.04
385.29	334.6
385.67	347.25
386.049	351.09
386.429	357.65
386.809	339.34
387.189	362.39
387.568	360.36
387.948	367.59
388.328	370.75
388.707	351.77
389.087	353.8
389.466	362.39
389.846	351.77
390.225	368.04
390.605	362.62
390.984	367.36
391.363	353.58
391.743	370.53
392.122	389.51
392.501	375.5
392.881	371.2
393.26	382.05
393.639	391.09
394.018	365.56
394.397	352.9
394.776	376.4
395.155	364.43
395.534	384.99
395.913	367.82
396.292	368.49
396.671	375.72
397.05	393.58
397.429	398.77
397.808	402.84
398.186	360.58
398.565	371.2
398.944	388.83
399.323	395.16
399.701	390.87
400.08	402.39
400.458	397.19
400.837	392.45
401.215	408.27
401.594	383.41
401.972	397.87
402.351	390.64
402.729	390.64
403.107	405.55
403.486	410.98
403.864	398.55
404.242	401.71
404.62	393.58
404.999	394.71
405.377	430.19
405.755	414.37
406.133	392.22
406.511	407.59
406.889	411.2
407.267	401.71
407.645	412.33
408.023	447.59
408.401	424.31
408.779	421.37
409.156	421.83
409.534	434.71
409.912	427.25
410.29	434.25
410.667	460.92
411.045	449.62
411.422	441.94
411.8	455.5
412.178	463.41
412.555	449.39
412.933	471.09
413.31	475.61
413.687	477.19
414.065	470.41
414.442	482.39
414.819	483.97
415.197	483.97
415.574	492.11
415.951	477.87
416.328	489.17
416.705	480.35
417.082	518.32
417.46	454.59
417.837	520.13
418.214	522.39
418.591	516.74
418.967	517.87
419.344	507.7
419.721	526
420.098	509.73
420.475	517.19
420.852	537.98
421.228	559.67
421.605	533.23
421.982	538.43
422.358	540.24
422.735	548.6
423.111	568.94
423.488	553.57
423.864	529.84
424.241	566.91
424.617	550.18
424.994	596.51
425.37	577.3
425.746	583.63
426.123	581.59
426.499	568.94
426.875	597.64
427.251	581.14
427.627	584.08
428.003	614.36
428.379	588.37
428.756	598.77
429.132	611.65
429.507	613.01
429.883	626.11
430.259	612.33
430.635	632.67
431.011	629.5
431.387	643.29
431.763	650.97
432.138	647.81
432.514	650.52
432.89	655.04
433.265	680.35
433.641	676.51
434.016	656.17
434.392	673.34
434.767	675.38
435.143	692.33
435.518	712.21
435.894	691.65
436.269	691.87
436.644	698.65
437.02	728.71
437.395	728.94
437.77	727.35
438.145	736.85
438.52	735.94
438.895	740.01
439.271	771.19
439.646	735.94
440.021	775.26
440.395	767.58
440.77	770.06
441.145	780.46
441.52	765.09
441.895	782.95
442.27	774.81
442.645	786.11
443.019	793.79
443.394	811.19
443.769	800.8
444.143	770.52
444.518	795.37
444.892	812.55
445.267	834.24
445.641	808.03
446.016	826.33
446.39	841.48
446.764	827.69
447.139	837.41
447.513	839.22
447.887	850.97
448.262	841.48
448.636	826.56
449.01	852.1
449.384	852.55
449.758	871.08
450.132	863.85
450.506	892.77
450.88	861.59
451.254	882.6
451.628	893.23
452.002	873.79
452.376	885.09
452.75	892.1
453.123	897.52
453.497	896.16
453.871	914.24
454.244	914.47
454.618	915.6
454.992	914.47
455.365	933
455.739	932.32
456.112	997.63
456.486	992.88
456.859	973
457.232	992.66
457.606	992.21
457.979	1005.76
458.352	1023.17
458.725	1013.22
459.099	1029.04
459.472	1033.33
459.845	1051.64
460.218	1066.55
460.591	1071.3
460.964	1060.9
461.337	1102.49
461.71	1112.88
462.083	1100.45
462.456	1096.16
462.829	1138.42
463.201	1117.4
463.574	1123.95
463.947	1147.91
464.32	1173.67
464.692	1186.1
465.065	1172.77
465.438	1196.72
465.81	1198.75
466.183	1220.9
466.555	1250.73
466.928	1249.37
467.3	1245.76
467.672	1269.71
468.045	1291.18
468.417	1303.84
468.789	1300.67
469.161	1331.18
469.534	1350.61
469.906	1367.11
470.278	1351.07
470.65	1387.9
471.022	1417.05
471.394	1441.46
471.766	1436.94
472.138	1460.22
472.51	1500.21
472.882	1531.4
473.253	1528.91
473.625	1533.89
473.997	1546.99
474.369	1591.96
474.74	1610.49
475.112	1624.28
475.484	1657.72
475.855	1689.81
476.227	1695.01
476.598	1704.96
476.97	1751.96
477.341	1770.04
477.713	1826.99
478.084	1833.99
478.455	1895.91
478.827	1869.47
479.198	1929.58
479.569	1939.75
479.94	1951.73
480.311	2040.77
480.682	2066.3
481.053	2073.99
481.424	2118.73
481.795	2123.48
482.166	2212.51
482.537	2217.48
482.908	2280.76
483.279	2285.96
483.65	2332.28
484.021	2372.51
484.391	2370.7
484.762	2406.41
485.133	2458.38
485.503	2445.05
485.874	2494.76
486.244	2533.86
486.615	2571.37
486.985	2604.14
487.356	2661.31
487.726	2695.44
488.097	2750.13
488.467	2751.03
488.837	2821.99
489.207	2847.98
489.578	2895.88
489.948	2886.84
490.318	2949.67
490.688	3010.68
491.058	2992.38
491.428	3056.78
491.798	3097.23
492.168	3117.12
492.538	3156.22
492.908	3180.85
493.278	3213.84
493.648	3256.1
494.017	3301.3
494.387	3354.86
494.757	3321.64
495.126	3381.07
495.496	3378.36
495.866	3408.41
496.235	3452.03
496.605	3479.37
496.974	3512.14
497.344	3504.68
497.713	3534.51
498.082	3624
498.452	3600.72
498.821	3622.42
499.19	3663.32
499.559	3699.7
499.928	3709.87
500.298	3756.65
500.667	3738.12
501.036	3787.39
501.405	3841.17
501.774	3791.91
502.143	3831.9
502.512	3838.01
502.88	3900.38
503.249	3899.7
503.618	3854.73
503.987	3906.25
504.356	4015.18
504.724	3959.81
505.093	3962.07
505.462	3982.41
505.83	4010.66
506.199	4020.83
506.567	4124.78
506.936	4118.9
507.304	4096.08
507.672	4118.68
508.041	4174.95
508.409	4188.05
508.777	4170.2
509.145	4247.26
509.514	4246.58
509.882	4258.33
510.25	4240.48
510.618	4260.59
510.986	4328.39
511.354	4341.95
511.722	4344.66
512.09	4374.94
512.458	4366.58
512.826	4348.5
513.193	4448.84
513.561	4381.04
513.929	4443.41
514.297	4458.56
514.664	4488.84
515.032	4489.97
515.4	4494.94
515.767	4528.84
516.135	4542.17
516.502	4504.43
516.869	4583.75
517.237	4625.33
517.604	4542.85
517.972	4647.48
518.339	4652.9
518.706	4656.97
519.073	4697.19
519.44	4696.06
519.808	4722.05
520.175	4730.64
520.542	4755.72
520.909	4746.68
521.276	4738.55
521.643	4836.85
522.009	4853.57
522.376	4879.56
522.743	4848.83
523.11	4863.97
523.477	4892.67
523.843	4919.79
524.21	5008.82
524.577	5016.73
524.943	5047.24
525.31	5030.29
525.676	5108.03
526.043	5113.45
526.409	5093.11
526.776	5181.02
527.142	5216.5
527.508	5232.55
527.874	5223.73
528.241	5263.51
528.607	5263.51
528.973	5318.87
529.339	5333.33
529.705	5323.84
530.071	5377.63
530.437	5404.97
530.803	5421.47
531.169	5479.55
531.535	5528.36
531.901	5454.69
532.267	5521.35
532.632	5562.03
532.998	5571.29
533.364	5561.58
533.73	5625.08
534.095	5641.12
534.461	5632.31
534.826	5682.7
535.192	5700.56
535.557	5760.89
535.923	5743.72
536.288	5767.45
536.653	5822.81
537.019	5851.29
537.384	5870.27
537.749	5854.9
538.114	5863.72
538.479	5882.47
538.845	5926.99
539.21	5904.17
539.575	5955.46
539.94	5999.98
540.305	6072.75
540.67	6080.43
541.034	6008.8
541.399	6108.23
541.764	6144.16
542.129	6122.47
542.494	6187.55
542.858	6242.24
543.223	6183.93
543.587	6238.62
543.952	6228
544.316	6284.04
544.681	6322.01
545.045	6250.6
545.41	6373.76
545.774	6388.45
546.138	6382.35
546.503	6453.53
546.867	6412.63
547.231	6510.7
547.595	6481.33
547.959	6506.64
548.324	6563.36
548.688	6536.92
549.052	6556.35
549.416	6575.79
549.779	6610.36
550.143	6627.76
550.507	6700.98
550.871	6689.91
551.235	6712.51
551.599	6721.09
551.962	6776.01
552.326	6819.4
552.689	6822.11
553.053	6759.51
553.417	6759.74
553.78	6881.99
554.143	6886.29
554.507	6886.74
554.87	6921.99
555.234	6988.21
555.597	6993.86
555.96	6959.73
556.323	7011.93
556.686	6992.73
557.05	7091.25
557.413	7100.97
557.776	7109.11
558.139	7132.84
558.502	7200.63
558.865	7136.9
559.228	7225.26
559.59	7212.61
559.953	7214.41
560.316	7315.66
560.679	7268.65
561.041	7332.38
561.404	7361.98
561.767	7408.76
562.129	7392.94
562.492	7440.17
562.854	7479.27
563.217	7459.83
563.579	7426.16
563.941	7579.6
564.304	7604.91
564.666	7609.43
565.028	7635.87
565.39	7678.36
565.753	7651.92
566.115	7640.39
566.477	7680.84
566.839	7750.45
567.201	7780.28
567.563	7768.07
567.925	7870.22
568.287	7844.23
568.648	7923.77
569.01	7963.55
569.372	8024.34
569.734	7975.75
570.095	8013.26
570.457	8081.96
570.819	8093.26
571.18	8109.53
571.542	8183.65
571.903	8206.25
572.265	8229.76
572.626	8262.07
572.987	8329.87
573.349	8330.77
573.71	8388.4
574.071	8462.52
574.432	8495.74
574.794	8579.58
575.155	8609.63
575.516	8633.81
575.877	8718.33
576.238	8743.41
576.599	8802.17
576.96	8895.73
577.32	8894.82
577.681	9003.97
578.042	9125.55
578.403	9159.22
578.763	9248.03
579.124	9317.18
579.485	9403.96
579.845	9449.16
580.206	9565.77
580.566	9691.19
580.927	9765.76
581.287	9963.72
581.648	10002.14
582.008	10180.66
582.368	10277.16
582.728	10413.2
583.089	10541.33
583.449	10645.29
583.809	10887.76
584.169	11025.61
584.529	11165.5
584.889	11418.15
585.249	11436.45
585.609	11588.99
585.969	11866.04
586.329	12078.24
586.688	12246.37
587.048	12372.47
587.408	12613.59
587.768	12782.86
588.127	13030.99
588.487	13261.26
588.846	13492.22
589.206	13675.26
589.565	13842.26
589.925	14145.98
590.284	14311.18
590.643	14669.13
591.003	14978.96
591.362	15237.25
591.721	15456.68
592.08	15704.14
592.44	16010.34
592.799	16224.35
593.158	16542.31
593.517	16760.6
593.876	17114.04
594.235	17332.34
594.593	17643.97
594.952	17974.81
595.311	18247.35
595.67	18587
596.029	18837.39
596.387	19128.9
596.746	19436.01
597.104	19641.66
597.463	20023.12
597.822	20278.03
598.18	20603.67
598.538	20760.73
598.897	21163.2
599.255	21365.23
599.613	21912.33
599.972	21994.59
600.33	22336.73
600.688	22513.45
601.046	22874.12
601.404	23146.88
601.762	23295.35
602.12	23798.61
602.478	24040.19
602.836	24284.7
603.194	24477.24
603.552	24730.34
603.91	24944.57
604.268	25370.32
604.625	25685.79
604.983	25926.69
605.341	26036.52
605.698	26417.75
606.056	26744.75
606.413	26956.49
606.771	27201.69
607.128	27370.04
607.485	27517.84
607.843	27767.09
608.2	28140.42
608.557	28448.43
608.914	28588.99
609.272	28839.16
609.629	29127.28
609.986	29358.92
610.343	29446.6
610.7	29750.09
611.057	29957.77
611.414	30075.96
611.771	30452
612.127	30739.9
612.484	30823.96
612.841	31051.3
613.198	31270.05
613.554	31451.07
613.911	31590.5
614.267	31829.36
614.624	31892.18
614.98	32083.82
615.337	32479.06
615.693	32569.45
616.05	32610.36
616.406	32976.22
616.762	32890.12
617.118	33091.02
617.475	33245.59
617.831	33479.49
618.187	33644.68
618.543	33749.08
618.899	33953.37
619.255	34077.44
619.611	34204.21
619.967	34337.77
620.323	34562.62
620.678	34587.93
621.034	34719
621.39	34785.22
621.746	34734.82
622.101	35399.44
622.457	35208.93
622.812	35167.13
623.168	35370.51
623.523	35422.49
623.879	35816.83
624.234	35408.25
624.589	35711.74
624.945	35851.85
625.3	35895.47
625.655	35964.17
626.01	36180.66
626.365	36179.75
626.72	36121.23
627.075	36283.03
627.43	36211.84
627.785	36284.38
628.14	36498.16
628.495	36591.04
628.85	36572.29
629.205	36472.85
629.559	36846.86
629.914	36704.71
630.269	36864.26
630.623	36635.11
630.978	36698.61
631.332	36940.64
631.687	36965.95
632.041	36997.13
632.396	36980.64
632.75	37011.6
633.104	37105.38
633.459	36833.07
633.813	36806.41
634.167	36977.93
634.521	37111.48
634.875	37133.18
635.229	37104.93
635.583	36878.95
635.937	36985.16
636.291	37084.59
636.645	37098.6
636.999	36898.38
637.352	37084.59
637.706	36871.71
638.06	37078.26
638.413	37020.18
638.767	36983.12
639.121	37110.35
639.474	36785.84
639.828	36953.75
640.181	36912.17
640.534	37082.33
640.888	36884.14
641.241	36798.72
641.594	36859.06
641.947	37036.68
642.301	36897.02
642.654	36950.36
643.007	37087.75
643.36	36972.73
643.713	36861.09
644.066	37131.14
644.419	36642.57
644.771	36682.34
645.124	36155.35
645.477	36241.22
645.83	35955.58
646.182	35902.47
646.535	35822.02
646.888	35918.07
647.24	35670.16
647.593	35997.61
647.945	35809.37
648.298	35701.12
648.65	35630.16
649.002	35478.76
649.355	35821.35
649.707	35662.93
650.059	35819.31
650.411	36224.95
650.763	36340.2
651.115	36690.25
651.467	36493.64
651.819	36569.8
652.171	36436.25
652.523	36548.33
652.875	36395.34
653.227	36400.31
653.578	36579.29
653.93	36486.41
654.282	36437.6
654.633	36329.36
654.985	36229.02
655.337	36320.99
655.688	36311.5
656.039	36539.29
656.391	36227.21
656.742	36241.45
657.094	36317.6
657.445	36422.69
657.796	36298.4
658.147	36291.39
658.498	36315.57
658.849	36462.69
659.2	36230.15
659.551	36187.89
659.902	36363.7
660.253	36255.69
660.604	36357.83
660.955	36099.53
661.306	36332.29
661.656	36157.83
662.007	36249.13
662.358	36161.68
662.708	36022.24
663.059	36053.66
663.409	35950.83
663.76	36203.94
664.11	36157.83
664.461	36247.1
664.811	36278.96
665.161	36182.69
665.511	36086.2
665.862	36058.18
666.212	36264.27
666.562	36353.54
666.912	36208.91
667.262	36170.04
667.612	36113.77
667.962	36231.96
668.312	35988.57
668.662	36061.11
669.011	36045.75
669.361	35972.08
669.711	36029.25
670.06	35926.43
670.41	35968.24
670.76	35973.43
671.109	35986.54
671.459	35942.02
671.808	36015.01
672.157	36097.27
672.507	35666.77
672.856	35898.18
673.205	35905.41
673.554	35974.79
673.904	35815.7
674.253	35988.35
674.602	35986.09
674.951	35423.84
675.3	35127.35
675.649	35723.72
675.998	35791.29
676.346	35785.87
676.695	35863.38
677.044	35533.67
677.393	35710.39
677.741	35631.52
678.09	35587.45
678.438	35418.87
678.787	35652.76
679.135	35662.25
679.484	35343.17
679.832	35460.68
680.181	35362.15
680.529	35460.45
680.877	35427.01
681.225	35349.72
681.573	35553.56
681.922	35233.11
682.27	35149.73
682.618	35054.36
682.966	35044.87
683.314	35201.93
683.661	35025.43
684.009	34974.36
684.357	34891.2
684.705	34886.23
685.053	34791.77
685.4	34761.94
685.748	34624.99
686.095	34579.8
686.443	34583.86
686.79	34509.97
687.138	34530.31
687.485	34476.75
687.832	34309.07
688.18	34483.3
688.527	34150.2
688.874	34246.02
689.221	34172.12
689.568	34025.69
689.915	33931
690.262	33864.56
690.609	33966.71
690.956	33745.69
691.303	33684
691.65	33526.27
691.997	33562.65
692.344	33401.97
692.69	33502.76
693.037	33397
693.383	33151.13
693.73	33323.78
694.077	32990.69
694.423	32990.46
694.769	33013.51
695.116	32961.31
695.462	32859.39
695.808	32838.37
696.155	32824.59
696.501	32489.23
696.847	32576.46
697.193	32260.08
697.539	32543.69
697.885	32256.02
698.231	32091.5
698.577	32194.32
698.923	32021.45
699.269	31740.32
699.614	31763.15
699.96	31776.25
700.306	31828.68
700.651	31579.88
700.997	31477.05
701.342	31313.89
701.688	31443.61
702.033	31314.57
702.379	31315.02
702.724	31232.54
703.069	31159.32
703.415	30788.94
703.76	30898.31
704.105	30865.54
704.45	30797.98
704.795	30652.67
705.14	30608.6
705.485	30549.17
705.83	30424.43
706.175	30444.76
706.52	30389.17
706.865	30328.16
707.209	30259.01
707.554	30246.58
707.899	30199.12
708.243	29946.92
708.588	30086.36
708.932	29787.15
709.277	29788.28
709.621	29831.67
709.966	29708.74
710.31	29752.35
710.654	29401.4
710.998	29495.18
711.342	29477.33
711.687	29440.05
712.031	29251.58
712.375	29240.05
712.719	29262.65
713.063	29113.95
713.407	29220.84
713.75	29038.93
714.094	29071.69
714.438	28824.02
714.782	28961.87
715.125	28792.15
715.469	28884.35
715.812	28699.95
716.156	28621.31
716.499	28483.91
716.843	28538.37
717.186	28413.86
717.53	28525.94
717.873	28407.08
718.216	28339.96
718.559	28241.21
718.902	27995.34
719.246	28180.64
719.589	28095.9
719.932	27962.12
720.275	28046.41
720.617	27850.71
720.96	27851.16
721.303	27877.6
721.646	27895.45
721.989	27704.95
722.331	27730.03
722.674	27762.12
723.016	27674.89
723.359	27560.55
723.701	27649.36
724.044	27413.43
724.386	27364.85
724.729	27514.22
725.071	27347.9
725.413	27370.27
725.755	27395.58
726.097	27178.41
726.439	27076.72
726.782	27096.83
727.124	27137.05
727.465	27020.9
727.807	27138.18
728.149	26963.05
728.491	26983.84
728.833	26979.77
729.175	26866.55
729.516	26795.37
729.858	26770.51
730.199	26783.84
730.541	26730.29
730.882	26657.75
731.224	26794.92
731.565	26661.14
731.906	26574.13
732.248	26552.44
732.589	26578.65
732.93	26483.74
733.271	26390.86
733.612	26455.26
733.953	26480.8
734.294	26323.29
734.635	26229.51
734.976	26281.48
735.317	26105.67
735.658	26157.87
735.999	26137.53
736.339	26086.69
736.68	26107.93
737.021	26128.95
737.361	25913.81
737.702	26051.66
738.042	25898.9
738.383	25972.34
738.723	25898.67
739.063	25928.73
739.404	25832.46
739.744	25843.53
740.084	25652.8
740.424	25689.18
740.764	25682.18
741.104	25681.95
741.444	25571.45
741.784	25467.49
742.124	25607.15
742.464	25399.02
742.804	25378.91
743.143	25283.09
743.483	25303.88
743.823	25211
744.162	25238.35
744.502	25275.63
744.841	25109.09
745.181	25241.06
745.52	25083.1
745.86	25129.88
746.199	25151.57
746.538	25040.16
746.877	25050.33
747.216	25060.95
747.556	25109.09
747.895	25073.15
748.234	24886.04
748.573	24791.35
748.911	24809.88
749.25	24719.72
749.589	24730.34
749.928	24753.39
750.267	24660.06
750.605	24611.25
750.944	24643.11
751.283	24538.71
751.621	24536.67
751.96	24447.86
752.298	24473.62
752.636	24342.78
752.975	24300.29
753.313	24192.27
753.651	24307.07
753.989	24178.71
754.327	24112.73
754.666	24005.84
755.004	24056.01
755.342	24145.5
755.679	24050.81
756.017	23811.72
756.355	23919.51
756.693	23734.43
757.031	23749.35
757.368	23605.17
757.706	23672.51
758.044	23549.8
758.381	23572.18
758.719	23517.71
759.056	23560.43
759.394	23354.33
759.731	23217.38
760.068	23258.51
760.405	23061.68
760.743	23078.86
761.08	23178.97
761.417	23041.57
761.754	22965.64
762.091	22948.24
762.428	22876.83
762.765	22706.44
763.102	22781.01
763.438	22616.95
763.775	22498.76
764.112	22521.36
764.449	22629.38
764.785	22324.53
765.122	22230.29
765.458	22207.47
765.795	22347.8
766.131	22074.14
766.467	22108.49
766.804	21998.43
767.14	21952.56
767.476	21914.82
767.812	21760.92
768.148	21869.4
768.485	21601.16
768.821	21596.86
769.157	21600.48
769.492	21507.82
769.828	21411.56
770.164	21230.32
770.5	21097.21
770.836	21054.28
771.171	21110.55
771.507	20959.59
771.842	20885.47
772.178	20915.3
772.513	20795.75
772.849	20820.38
773.184	20675.76
773.519	20640.05
773.855	20487.06
774.19	20372.71
774.525	20368.19
774.86	20361.19
775.195	20268.08
775.53	20139.5
775.865	20133.62
776.2	20062.66
776.535	19767.98
776.87	19915.1
777.205	19765.27
777.539	19715.56
777.874	19759.17
778.209	19474.43
778.543	19481.44
778.878	19395.79
779.212	19285.96
779.547	19231.5
779.881	19279.63
780.215	19103.14
780.55	19209.35
780.884	19046.42
781.218	19031.05
781.552	19004.39
781.886	18934.33
782.22	18820.89
782.554	18763.94
782.888	18564.85
783.222	18555.59
783.556	18401.47
783.889	18405.31
784.223	18226.55
784.557	18203.28
784.89	18315.82
785.224	18153.56
785.557	18015.49
785.891	18084.41
786.224	17953.34
786.558	17931.65
786.891	17738.66
787.224	17747.25
787.557	17677.42
787.891	17672.22
788.224	17620.24
788.557	17600.58
788.89	17528.27
789.223	17500.92
789.556	17305.67
789.888	17279.46
790.221	17165.79
790.554	17033.14
790.887	17085.12
791.219	16932.35
791.552	16997.89
791.884	16890.09
792.217	16874.05
792.549	16801.51
792.882	16645.58
793.214	16625.47
793.546	16612.36
793.879	16538.46
794.211	16499.82
794.543	16504.34
794.875	16421.4
795.207	16470.89
795.539	16361.97
795.871	16374.17
796.203	16226.61
796.535	16114.29
796.867	16127.17
797.198	16131.69
797.53	16076.1
797.862	15906.84
798.193	15961.98
798.525	15829.78
798.856	15877.01
799.188	15714.53
799.519	15731.03
799.85	15578.94
800.182	15587.3
800.513	15540.75
800.844	15531.48
801.175	15522.67
801.506	15473.41
801.837	15361.32
802.168	15346.4
802.499	15315.22
802.83	15156.58
803.161	15253.53
803.491	15172.17
803.822	15040.88
804.153	15031.16
804.483	14931.05
804.814	14897.38
805.145	14884.72
805.475	14832.29
805.805	14799.53
806.136	14838.4
806.466	14776.7
806.796	14719.3
807.126	14655.58
807.457	14604.95
807.787	14594.79
808.117	14523.38
808.447	14437.05
808.777	14552.75
809.107	14361.8
809.436	14385.98
809.766	14407.67
810.096	14352.98
810.426	14280.44
810.755	14325.64
811.085	14199.32
811.414	14127.91
811.744	14078.42
812.073	13998.87
812.403	13976.95
812.732	13970.4
813.061	13953.67
813.39	13837.07
813.719	13823.28
814.049	13906.22
814.378	13881.36
814.707	13816.05
815.036	13729.05
815.365	13717.75
815.693	13659.9
816.022	13621.25
816.351	13527.47
816.68	13393.46
817.008	13428.71
817.337	13372.9
817.665	13302.84
817.994	13450.64
818.322	13385.33
818.651	13251.32
818.979	13246.57
819.307	13324.99
819.636	13261.94
819.964	13078.44
820.292	13245.22
820.62	13154.15
820.948	13122.51
821.276	13178.33
821.604	13025.11
821.932	13156.18
822.259	13109.63
822.587	13150.3
822.915	13005
823.243	13145.56
823.57	13062.62
823.898	13113.92
824.225	13068.95
824.553	13037.31
824.88	13043.87
825.207	13018.1
825.535	13014.49
825.862	13098.33
826.189	13069.63
826.516	13130.64
826.843	13131.55
827.17	13034.6
827.497	13113.02
827.824	12986.92
828.151	13192.56
828.478	13146.24
828.805	13129.74
829.131	13024.43
829.458	13020.14
829.785	13008.84
830.111	13000.93
830.438	13160.02
830.764	13066.69
831.09	13095.62
831.417	12989.18
831.743	13132.23
832.069	13035.5
832.395	12972.46
832.722	13075.96
833.048	12936.75
833.374	12963.64
833.7	12895.85
834.026	12966.13
834.351	12979.23
834.677	12890.88
835.003	12996.64
835.329	12863.08
835.654	12879.8
835.98	12782.86
836.306	12817.66
836.631	12764.78
836.956	12781.27
837.282	12793.25
837.607	12729.75
837.932	12687.94
838.258	12597.78
838.583	12677.55
838.908	12624.67
839.233	12644.55
839.558	12673.93
839.883	12578.79
840.208	12539.47
840.533	12588.74
840.858	12566.14
841.182	12598.91
841.507	12516.87
841.832	12366.6
842.156	12387.61
842.481	12462.86
842.805	12391.68
843.13	12374.73
843.454	12362.3
843.778	12290.89
844.103	12227.62
844.427	12203.44
844.751	12200.95
845.075	12161.18
845.399	12091.12
845.723	12069.43
846.047	12052.48
846.371	12054.97
846.695	11991.01
847.019	11982.65
847.343	11860.17
847.666	11766.61
847.99	11727.97
848.313	11797.35
848.637	11631.7
848.96	11669.89
849.284	11644.58
849.607	11483.68
849.931	11518.03
850.254	11404.14
850.577	11304.7
850.9	11224.93
851.223	11251.82
851.546	11181.77
851.869	11177.47
852.192	11240.3
852.515	11067.87
852.838	11044.6
853.161	11085.95
853.483	11025.16
853.806	10944.49
854.129	10946.75
854.451	10868.33
854.774	10926.41
855.096	10822.46
855.419	10773.87
855.741	10715.79
856.063	10619.07
856.385	10679.86
856.708	10658.39
857.03	10624.72
857.352	10586.76
857.674	10520.77
857.996	10493.88
858.318	10447.55
858.64	10549.69
858.961	10424.95
859.283	10331.62
859.605	10309.25
859.926	10346.31
860.248	10341.56
860.57	10253.43
860.891	10318.06
861.212	10208.91
861.534	10231.06
861.855	10207.56
862.176	10188.12
862.498	10178.63
862.819	10182.25
863.14	10085.07
863.461	10023.15
863.782	10067.9
864.103	10071.29
864.424	9983.83
864.745	10021.57
865.065	9955.59
865.386	9939.09
865.707	9951.74
866.027	9925.76
866.348	9893.21
866.668	9881.69
866.989	9809.83
867.309	9789.49
867.63	9861.12
867.95	9807.79
868.27	9749.49
868.59	9768.02
868.91	9721.92
869.23	9757.85
869.55	9698.19
869.87	9779.09
870.19	9713.56
870.51	9737.51
870.83	9742.94
871.15	9668.14
871.469	9619.55
871.789	9688.93
872.109	9592.88
872.428	9522.38
872.748	9598.53
873.067	9567.57
873.386	9598.08
873.706	9612.32
874.025	9493.68
874.344	9431.31
874.663	9560.12
874.982	9458.88
875.301	9466.56
875.62	9429.27
875.939	9414.81
876.258	9419.55
876.577	9364.41
876.896	9394.24
877.214	9390.4
877.533	9340.69
877.852	9323.96
878.17	9291.65
878.489	9357.86
878.807	9288.94
879.125	9255.49
879.444	9252.55
879.762	9314.02
880.08	9264.76
880.398	9167.36
880.716	9184.08
881.034	9212.55
881.352	9246.23
881.67	9154.25
881.988	9135.95
882.306	9130.97
882.624	9113.57
882.941	9092.33
883.259	8985.44
883.577	8983.86
883.894	8950.87
884.212	9008.27
884.529	9024.08
884.846	8931.43
885.164	8947.25
885.481	8847.14
885.798	8870.87
886.115	8865.67
886.432	8877.87
886.75	8803.53
887.067	8793.58
887.383	8702.74
887.7	8748.39
888.017	8716.75
888.334	8741.61
888.651	8761.72
888.967	8631.78
889.284	8580.03
889.6	8566.02
889.917	8453.25
890.233	8551.55
890.55	8533.93
890.866	8502.74
891.182	8468.17
891.498	8422.74
891.815	8464.78
892.131	8384.78
892.447	8332.58
892.763	8306.14
893.079	8332.13
893.395	8276.31
893.71	8283.54
894.026	8242.64
894.342	8206.48
894.657	8183.2
894.973	8167.38
895.289	8192.24
895.604	8156.76
895.92	8140.27
896.235	8030.66
896.55	8132.13
896.865	8031.79
897.181	7988.41
897.496	7987.95
897.811	7970.55
898.126	7875.64
898.441	7878.13
898.756	7887.62
899.071	7853.49
899.386	7815.98
899.7	7749.77
900.015	7737.79
900.33	7648.3
900.644	7664.8
900.959	7703.67
901.273	7617.12
901.588	7598.36
901.902	7512.26
902.216	7563.33
902.531	7545.25
902.845	7490.79
903.159	7457.57
903.473	7419.61
903.787	7431.58
904.101	7373.05
904.415	7379.16
904.729	7364.92
905.042	7323.34
905.356	7285.6
905.67	7269.55
905.984	7262.1
906.297	7237.92
906.611	7153.17
906.924	7146.39
907.237	7097.58
907.551	7119.73
907.864	7086.96
908.177	7081.76
908.491	7046.96
908.804	6984.82
909.117	6957.47
909.43	6867.76
909.743	6908.89
910.056	6891.03
910.368	6929
910.681	6828.66
910.994	6807.87
911.307	6775.56
911.619	6729
911.932	6631.15
912.244	6662.79
912.557	6700.76
912.869	6645.84
913.181	6587.54
913.494	6608.33
913.806	6568.33
914.118	6549.57
914.43	6501.89
914.742	6479.07
915.054	6494.66
915.366	6439.97
915.678	6451.27
915.99	6382.57
916.302	6304.16
916.613	6307.09
916.925	6275.91
917.236	6331.27
917.548	6218.73
917.859	6209.47
918.171	6193.88
918.482	6158.17
918.794	6164.27
919.105	6151.84
919.416	6107.55
919.727	6095.35
920.038	6093.09
920.349	6006.31
920.66	5938.06
920.971	5976.71
921.282	5971.06
921.593	5938.97
921.903	5897.39
922.214	5856.94
922.525	5808.8
922.835	5814.45
923.146	5767.67
923.456	5784.17
923.767	5736.71
924.077	5720.44
924.387	5694.91
924.697	5679.31
925.008	5659.43
925.318	5597.96
925.628	5626.89
925.938	5607
926.248	5551.41
926.558	5533.1
926.867	5531.52
927.177	5476.38
927.487	5471.86
927.796	5435.93
928.106	5455.59
928.416	5389.15
928.725	5415.14
929.034	5380.79
929.344	5335.37
929.653	5274.58
929.962	5243.39
930.271	5258.31
930.581	5193
930.89	5247.46
931.199	5179.21
931.508	5167.24
931.817	5201.13
932.125	5194.13
932.434	5163.17
932.743	5065.09
933.051	5063.74
933.36	5017.41
933.669	5032.1
933.977	5006.79
934.286	4951.88
934.594	4938.32
934.902	4943.51
935.21	4863.52
935.519	4914.14
935.827	4889.96
936.135	4848.15
936.443	4798.89
936.751	4802.5
937.059	4753.46
937.367	4809.05
937.674	4788.94
937.982	4759.56
938.29	4694.93
938.597	4747.14
938.905	4635.73
939.213	4676.85
939.52	4620.36
939.827	4637.31
940.135	4619.68
940.442	4578.78
940.749	4577.42
941.056	4593.69
941.363	4490.42
941.67	4496.07
941.977	4431.66
942.284	4459.23
942.591	4453.81
942.898	4429.63
943.205	4458.1
943.511	4391.44
943.818	4326.36
944.125	4348.05
944.431	4360.48
944.738	4316.86
945.044	4296.98
945.35	4264.44
945.657	4269.18
945.963	4247.04
946.269	4221.95
946.575	4208.39
946.881	4134.27
947.187	4151.67
947.493	4202.06
947.799	4154.16
948.105	4068.28
948.41	4061.73
948.716	4108.51
949.022	4062.18
949.327	4050.2
949.633	4000.94
949.938	4032.13
950.244	3978.57
950.549	3961.62
950.854	3988.74
951.16	3985.57
951.465	3954.16
951.77	3904.45
952.075	3888.4
952.38	3934.05
952.685	3880.72
952.99	3833.49
953.294	3824.22
953.599	3808.4
953.904	3805.69
954.209	3744.45
954.513	3731.79
954.818	3722.53
955.122	3706.26
955.426	3717.78
955.731	3682.76
956.035	3702.19
956.339	3674.85
956.643	3653.38
956.948	3632.14
957.252	3610.67
957.556	3601.63
957.86	3581.06
958.163	3579.26
958.467	3581.06
958.771	3543.78
959.075	3531.8
959.378	3497.9
959.682	3471.69
959.985	3485.02
960.289	3460.62
960.592	3471.24
960.896	3443.67
961.199	3418.81
961.502	3415.42
961.805	3423.33
962.108	3353.95
962.411	3390.56
962.714	3344.46
963.017	3370.67
963.32	3361.18
963.623	3314.63
963.926	3315.99
964.228	3274.63
964.531	3285.7
964.833	3267.85
965.136	3250.23
965.438	3216.33
965.741	3198.48
966.043	3178.14
966.345	3158.93
966.648	3170.68
966.95	3171.58
967.252	3143.79
967.554	3084.81
967.856	3111.02
968.158	3095.2
968.46	3108.99
968.761	3077.57
969.063	3077.35
969.365	3058.14
969.666	3045.26
969.968	3041.64
970.269	3022.66
970.571	2958.93
970.872	2971.36
971.174	2966.16
971.475	2954.19
971.776	2928.2
972.077	2922.55
972.378	2937.92
972.679	2915.32
972.98	2876.68
973.281	2900.86
973.582	2855.66
973.883	2843.91
974.183	2836
974.484	2847.75
974.785	2824.93
975.085	2805.94
975.386	2822.89
975.686	2781.99
975.986	2772.05
976.287	2789.22
976.587	2738.83
976.887	2720.07
977.187	2720.3
977.487	2692.95
977.787	2688.66
978.087	2697.92
978.387	2649.56
978.687	2683.46
978.987	2661.09
979.286	2636
979.586	2607.08
979.885	2585.16
980.185	2593.29
980.484	2607.98
980.784	2560.07
981.083	2579.06
981.382	2544.03
981.682	2551.03
981.981	2558.49
982.28	2502.45
982.579	2510.58
982.878	2514.88
983.177	2473.75
983.475	2480.3
983.774	2459.74
984.073	2461.09
984.372	2451.6
984.67	2445.73
984.969	2445.95
985.267	2416.35
985.566	2423.13
985.864	2385.84
986.162	2363.69
986.461	2393.52
986.759	2362.11
987.057	2360.08
987.355	2339.06
987.653	2332.28
987.951	2337.71
988.249	2288.67
988.547	2297.48
988.844	2294.54
989.142	2278.5
989.44	2269.91
989.737	2236.01
990.035	2216.35
990.332	2258.39
990.63	2210.93
990.927	2223.81
991.224	2252.06
991.521	2240.53
991.819	2186.07
992.116	2193.3
992.413	2188.78
992.71	2188.56
993.006	2197.15
993.303	2152.85
993.6	2121.44
993.897	2138.39
994.193	2128.67
994.49	2118.96
994.787	2108.11
995.083	2092.06
995.379	2068.79
995.676	2088.67
995.972	2064.49
996.268	2062.91
996.565	2042.12
996.861	2037.6
997.157	2030.37
997.453	1999.18
997.749	1993.08
998.044	1980.65
998.34	1986.53
998.636	1968.23
998.932	1935.91
999.227	1977.94
999.523	1930.49
999.818	1954.44
1000.114	1906.53
1000.409	1902.24
1000.704	1910.6
1001	1885.29
1001.295	1889.58
1001.59	1875.12
1001.885	1887.78
1002.18	1859.3
1002.475	1837.16
1002.77	1842.58
1003.065	1845.29
1003.359	1826.53
1003.654	1803.26
1003.949	1794.67
1004.243	1743.37
1004.538	1751.28
1004.832	1764.39
1005.127	1735.91
1005.421	1745.86
1005.715	1743.15
1006.009	1747.89
1006.304	1729.59
1006.598	1692.98
1006.892	1680.1
1007.186	1682.13
1007.48	1725.07
1007.773	1650.49
1008.067	1659.76
1008.361	1640.78
1008.655	1638.74
1008.948	1622.47
1009.242	1630.61
1009.535	1599.87
1009.829	1618.63
1010.122	1584.96
1010.415	1566.43
1010.708	1575.92
1011.001	1593.55
1011.295	1551.06
1011.588	1566.2
1011.881	1541.12
1012.173	1530.72
1012.466	1558.52
1012.759	1509.93
1013.052	1521.68
1013.344	1527.11
1013.637	1493.66
1013.93	1475.58
1014.222	1495.24
1014.514	1461.8
1014.807	1478.52
1015.099	1457.5
1015.391	1453.66
1015.683	1431.97
1015.976	1447.11
1016.268	1418.86
1016.56	1441.69
1016.851	1418.64
1017.143	1395.36
1017.435	1396.49
1017.727	1375.25
1018.018	1366.88
1018.31	1364.85
1018.602	1344.96
1018.893	1362.14
1019.185	1349.03
1019.476	1360.33
1019.767	1314
1020.058	1321.01
1020.35	1308.36
1020.641	1283.27
1020.932	1293.21
1021.223	1275.59
1021.514	1267
1021.804	1262.25
1022.095	1227.91
1022.386	1256.83
1022.677	1248.24
1022.967	1236.72
1023.258	1238.3
1023.548	1227
1023.839	1198.98
1024.129	1214.35
1024.419	1170.51
1024.709	1197.62
1025	1192.2
1025.29	1177.96
1025.58	1180
1025.87	1148.81
1026.16	1154.01
1026.449	1131.64
1026.739	1110.85
1027.029	1125.31
1027.319	1104.29
1027.608	1124.18
1027.898	1111.3
1028.187	1083.95
1028.477	1087.12
1028.766	1074.46
1029.055	1071.98
1029.344	1086.67
1029.634	1084.63
1029.923	1062.03
1030.212	1070.4
1030.501	1035.37
1030.79	1049.38
1031.078	1046.22
1031.367	1026.78
1031.656	1035.14
1031.945	1027.23
1032.233	1011.41
1032.522	1014.58
1032.81	1001.92
1033.099	993.34
1033.387	989.95
1033.675	970.96
1033.963	992.21
1034.251	971.64
1034.54	954.92
1034.828	937.74
1035.116	977.74
1035.403	956.95
1035.691	956.27
1035.979	935.71
1036.267	909.72
1036.554	938.2
1036.842	911.53
1037.129	916.95
1037.417	917.18
1037.704	897.97
1037.992	888.71
1038.279	902.49
1038.566	883.51
1038.853	883.51
1039.14	883.51
