Data from hue_180_FLMS001491_00070.txt Node
Date: Tue Feb 07 16:47:20 GMT 2017
User: dcchb
Spectrometer: FLMS00149
Trigger mode: 0
Integration Time (sec): 2.000000E-2
Scans to average: 10
Electric dark correction enabled: true
Nonlinearity correction enabled: false
Boxcar width: 0
XAxis mode: Wavelengths
Number of Pixels in Spectrum: 2048
>>>>>Begin Spectral Data<<<<<
341.393	-24.87
341.776	-24.87
342.16	-24.87
342.543	-62.61
342.927	-65.55
343.31	-74.36
343.693	-70.75
344.077	-60.8
344.46	-62.61
344.843	-37.98
345.226	-44.53
345.61	-33.23
345.993	-4.76
346.376	-9.96
346.759	2.7
347.142	21
347.525	39.53
347.908	61.91
348.291	61.23
348.674	98.51
349.057	114.11
349.44	114.56
349.823	141
350.206	164.95
350.588	167.44
350.971	225.74
351.354	223.03
351.737	221
352.119	238.62
352.502	250.15
352.884	272.97
353.267	277.27
353.65	309.13
354.032	287.89
354.414	298.06
354.797	302.12
355.179	307.1
355.562	316.36
355.944	340.99
356.326	322.69
356.709	324.05
357.091	330.6
357.473	345.51
357.855	336.25
358.238	328.11
358.62	340.54
359.002	337.15
359.384	320.2
359.766	317.94
360.148	354.1
360.53	323.37
360.912	324.05
361.294	321.33
361.676	332.86
362.057	336.93
362.439	314.55
362.821	319.53
363.203	307.55
363.584	312.97
363.966	316.59
364.348	323.14
364.729	341.45
365.111	332.63
365.493	310.94
365.874	334.21
366.256	320.88
366.637	322.46
367.019	311.84
367.4	310.03
367.781	283.59
368.163	310.03
368.544	303.93
368.925	286.53
369.306	314.78
369.688	320.2
370.069	326.3
370.45	297.61
370.831	310.03
371.212	282.24
371.593	298.74
371.974	301.67
372.355	304.38
372.736	294.44
373.117	303.71
373.498	313.88
373.879	315.46
374.26	285.63
374.641	297.38
375.021	306.64
375.402	324.27
375.783	323.14
376.163	316.36
376.544	317.27
376.925	301.67
377.305	319.75
377.686	320.2
378.066	331.28
378.447	317.72
378.827	309.13
379.208	316.14
379.588	331.5
379.968	307.1
380.349	306.64
380.729	320.88
381.109	330.6
381.489	314.33
381.87	330.37
382.25	326.08
382.63	325.85
383.01	331.5
383.39	312.52
383.77	308.9
384.15	322.24
384.53	333.76
384.91	351.39
385.29	336.47
385.67	345.51
386.049	336.93
386.429	340.54
386.809	334.67
387.189	335.57
387.568	336.93
387.948	326.98
388.328	348.23
388.707	358.39
389.087	333.31
389.466	360.2
389.846	367.89
390.225	352.97
390.605	342.58
390.984	358.62
391.363	349.13
391.743	360.65
392.122	357.26
392.501	358.62
392.881	363.82
393.26	362.46
393.639	391.16
394.018	353.87
394.397	366.53
394.776	357.94
395.155	366.53
395.534	369.24
395.913	388.22
396.292	385.51
396.671	376.02
397.05	375.8
397.429	393.2
397.808	375.34
398.186	370.6
398.565	371.73
398.944	363.37
399.323	392.97
399.701	414.66
400.08	380.09
400.458	392.29
400.837	412.63
401.215	398.62
401.594	394.33
401.972	394.55
402.351	430.71
402.729	413.08
403.107	410.14
403.486	424.83
403.864	416.25
404.242	411.27
404.62	423.48
404.999	417.15
405.377	430.48
405.755	412.18
406.133	440.88
406.511	435.91
406.889	453.53
407.267	435.91
407.645	466.64
408.023	464.61
408.401	451.05
408.779	458.96
409.156	463.93
409.534	479.07
409.912	496.47
410.29	497.6
410.667	491.27
411.045	486.53
411.422	533.53
411.8	530.59
412.178	507.09
412.555	521.33
412.933	502.12
413.31	547.32
413.687	571.5
414.065	554.55
414.442	551.16
414.819	558.16
415.197	574.21
415.574	567.2
415.951	586.64
416.328	604.04
416.705	589.57
417.082	598.39
417.46	617.14
417.837	602.91
418.214	626.86
418.591	641.55
418.967	642.23
419.344	639.07
419.721	659.18
420.098	655.79
420.475	679.97
420.852	703.7
421.228	691.04
421.605	680.19
421.982	731.72
422.358	716.35
422.735	741.44
423.111	731.94
423.488	754.54
423.864	765.39
424.241	789.12
424.617	793.64
424.994	798.38
425.37	773.75
425.746	811.72
426.123	829.57
426.499	837.93
426.875	847.42
427.251	851.49
427.627	889
428.003	879.51
428.379	901.21
428.756	906.85
429.132	925.84
429.507	905.27
429.883	920.87
430.259	941.43
430.635	914.31
431.011	929.45
431.387	997.7
431.763	979.62
432.138	983.01
432.514	999.06
432.89	1023.91
433.265	1043.57
433.641	1050.81
434.016	1069.34
434.392	1053.52
434.767	1090.58
435.143	1105.04
435.518	1119.73
435.894	1147.07
436.269	1168.77
436.644	1173.29
437.02	1192.95
437.395	1217.81
437.77	1208.99
438.145	1243.79
438.52	1263.91
438.895	1298.93
439.271	1302.1
439.646	1364.24
440.021	1333.96
440.395	1359.72
440.77	1366.73
441.145	1363.11
441.52	1400.18
441.895	1382.77
442.27	1422.55
442.645	1404.69
443.019	1451.25
443.394	1451.25
443.769	1504.81
444.143	1474.75
444.518	1519.04
444.892	1507.52
445.267	1541.41
445.641	1539.61
446.016	1541.64
446.39	1597.01
446.764	1574.63
447.139	1613.05
447.513	1604.92
447.887	1640.62
448.262	1618.25
448.636	1634.52
449.01	1653.95
449.384	1668.42
449.758	1703.22
450.132	1708.19
450.506	1742.54
450.88	1730.11
451.254	1732.6
451.628	1745.25
452.002	1766.04
452.376	1781.63
452.75	1803.78
453.123	1827.28
453.497	1845.59
453.871	1865.02
454.244	1911.12
454.618	1928.07
454.992	1942.31
455.365	1944.34
455.739	2019.14
456.112	2011.68
456.486	2026.37
456.859	2039.48
457.232	2084.22
457.606	2066.82
457.979	2093.49
458.352	2174.39
458.725	2180.72
459.099	2183.66
459.472	2240.38
459.845	2264.79
460.218	2253.26
460.591	2287.61
460.964	2312.02
461.337	2359.47
461.71	2401.5
462.083	2414.61
462.456	2471.11
462.829	2472.01
463.201	2498
463.574	2507.26
463.947	2581.84
464.32	2600.37
464.692	2631.1
465.065	2643.53
465.438	2696.19
465.81	2761.72
466.183	2781.61
466.555	2849.4
466.928	2814.38
467.3	2844.43
467.672	2895.73
468.045	2991.09
468.417	2986.57
468.789	3028.38
469.161	3080.81
469.534	3142.05
469.906	3225.21
470.278	3221.14
470.65	3265.89
471.022	3332.33
471.394	3409.39
471.766	3423.17
472.138	3465.21
472.51	3540.46
472.882	3602.15
473.253	3614.13
473.625	3710.62
473.997	3788.36
474.369	3806.21
474.74	3915.36
475.112	3930.96
475.484	4027.9
475.855	4097.73
476.227	4149.48
476.598	4246.43
476.97	4323.71
477.341	4413.2
477.713	4474.44
478.084	4517.16
478.455	4641.45
478.827	4663.82
479.198	4821.55
479.569	4862.46
479.94	4990.59
480.311	5060.19
480.682	5150.13
481.053	5354.42
481.424	5420.63
481.795	5480.29
482.166	5549.67
482.537	5669.44
482.908	5777.01
483.279	5857.68
483.65	6019.49
484.021	6108.53
484.391	6207.96
484.762	6231.91
485.133	6332.93
485.503	6450.66
485.874	6593.48
486.244	6663.77
486.615	6804.33
486.985	6829.64
487.356	7002.06
487.726	7113.92
488.097	7237.31
488.467	7297.42
488.837	7384.88
489.207	7475.95
489.578	7717.52
489.948	7751.42
490.318	7882.26
490.688	7866.67
491.058	8080.9
491.428	8094.46
491.798	8271.18
492.168	8435.24
492.538	8486.09
492.908	8491.06
493.278	8612.87
493.648	8654.67
494.017	8777.61
494.387	8877.49
494.757	8989.81
495.126	9082.46
495.496	9052.18
495.866	9121.55
496.235	9251.27
496.605	9355.45
496.974	9391.6
497.344	9460.53
497.713	9517.7
498.082	9592.5
498.452	9688.77
498.821	9696.45
499.19	9704.14
499.559	9831.82
499.928	9861.87
500.298	9869.1
500.667	10007.63
501.036	10018.03
501.405	10134.41
501.774	10098.7
502.143	10199.94
502.512	10150
502.88	10258.93
503.249	10273.84
503.618	10310
503.987	10347.51
504.356	10373.72
504.724	10442.2
505.093	10498.92
505.462	10506.38
505.83	10566.94
506.199	10555.41
506.567	10711.57
506.936	10662.98
507.304	10745.01
507.672	10813.94
508.041	10814.62
508.409	10858.46
508.777	10928.06
509.145	10901.17
509.514	10942.97
509.882	11020.49
510.25	10978
510.618	11024.1
510.986	11095.06
511.354	11115.85
511.722	11081.28
512.09	11243.53
512.458	11194.27
512.826	11258.22
513.193	11309.07
513.561	11281.27
513.929	11380.93
514.297	11406.24
514.664	11486.69
515.032	11405.56
515.4	11435.39
515.767	11513.13
516.135	11453.02
516.502	11489.85
516.869	11552
517.237	11527.14
517.604	11387.71
517.972	11599
518.339	11528.72
518.706	11597.2
519.073	11591.55
519.44	11579.79
519.808	11704.31
520.175	11658.66
520.542	11687.14
520.909	11789.73
521.276	11737.98
521.643	11707.02
522.009	11791.09
522.376	11788.15
522.743	11800.58
523.11	11783.86
523.477	11868.83
523.843	11823.63
524.21	11952.67
524.577	11901.37
524.943	11999.22
525.31	11881.26
525.676	12049.84
526.043	11952.21
526.409	11916.73
526.776	12016.17
527.142	12023.85
527.508	11997.86
527.874	12063.85
528.241	12036.96
528.607	11947.02
528.973	12025.88
529.339	12001.7
529.705	12028.14
530.071	12054.36
530.437	12039.44
530.803	12018.2
531.169	12002.38
531.535	11913.57
531.901	11934.14
532.267	11931.2
532.632	11908.37
532.998	11942.5
533.364	11918.32
533.73	11871.09
534.095	11831.54
534.461	11823.18
534.826	11787.02
535.192	11745.89
535.557	11813.23
535.923	11737.76
536.288	11649.4
536.653	11654.14
537.019	11588.83
537.384	11605.1
537.749	11553.81
538.114	11552.68
538.479	11458.44
538.845	11521.94
539.21	11364.21
539.575	11387.48
539.94	11376.41
540.305	11421.83
540.67	11284.89
541.034	11254.15
541.399	11326.47
541.764	11138.9
542.129	11153.36
542.494	11094.16
542.858	11111.11
543.223	11077.43
543.587	11015.74
543.952	10943.88
544.316	10977.1
544.681	10933.48
545.045	10843.32
545.41	10884.22
545.774	10822.3
546.138	10772.13
546.503	10758.35
546.867	10657.56
547.231	10599.03
547.595	10610.33
547.959	10569.65
548.324	10548.18
548.688	10501.4
549.052	10506.6
549.416	10438.13
549.779	10373.5
550.143	10331.01
550.507	10359.94
550.871	10335.76
551.235	10206.72
551.599	10216.89
551.962	10149.78
552.326	10132.6
552.689	10136.67
553.053	10011.25
553.417	10042.89
553.78	10040.4
554.143	9932.15
554.507	10023.45
554.87	9887.86
555.234	9946.39
555.597	9902.78
555.96	9896.9
556.323	9834.53
556.686	9820.29
557.05	9830.91
557.413	9763.57
557.776	9734.87
558.139	9800.18
558.502	9728.09
558.865	9735.1
559.228	9688.32
559.59	9705.72
559.953	9684.48
560.316	9747.07
560.679	9718.37
561.041	9714.31
561.404	9640.64
561.767	9663.46
562.129	9654.87
562.492	9677.02
562.854	9623.46
563.217	9590.47
563.579	9603.35
563.941	9591.6
564.304	9638.38
564.666	9690.8
565.028	9620.52
565.39	9654.87
565.753	9648.09
566.115	9637.7
566.477	9623.46
566.839	9663.69
567.201	9699.39
567.563	9664.59
567.925	9696
568.287	9671.14
568.648	9646.74
569.01	9669.34
569.372	9712.95
569.734	9644.25
570.095	9705.72
570.457	9700.75
570.819	9697.13
571.18	9591.82
571.542	9705.04
571.903	9668.66
572.265	9752.05
572.626	9709.34
572.987	9723.12
573.349	9716.57
573.71	9735.55
574.071	9742.1
574.432	9742.78
574.794	9782.55
575.155	9749.11
575.516	9731.26
575.877	9715.21
576.238	9678.15
576.599	9737.36
576.96	9702.78
577.32	9701.2
577.681	9764.93
578.042	9642.9
578.403	9701.43
578.763	9687.87
579.124	9691.93
579.485	9703.91
579.845	9708.66
580.206	9728.32
580.566	9679.51
580.927	9764.02
581.287	9736
581.648	9677.92
582.008	9730.8
582.368	9710.47
582.728	9675.21
583.089	9667.3
583.449	9630.69
583.809	9653.07
584.169	9669.79
584.529	9628.43
584.889	9731.93
585.249	9645.83
585.609	9587.53
585.969	9593.63
586.329	9599.96
586.688	9651.03
587.048	9578.72
587.408	9575.55
587.768	9562.22
588.127	9508.66
588.487	9528.77
588.846	9651.48
589.206	9429.79
589.565	9501.88
589.925	9521.32
590.284	9523.58
590.643	9496.69
591.003	9508.66
591.362	9523.13
591.721	9450.13
592.08	9522.22
592.44	9530.58
592.799	9533.07
593.158	9463.69
593.517	9397.48
593.876	9460.08
594.235	9429.57
594.593	9485.16
594.952	9463.24
595.311	9382.79
595.67	9417.37
596.029	9448.78
596.387	9445.39
596.746	9413.75
597.104	9346.41
597.463	9391.6
597.822	9351.6
598.18	9395.67
598.538	9389.34
598.897	9377.82
599.255	9317.71
599.613	9377.82
599.972	9338.5
600.33	9431.83
600.688	9369.01
601.046	9330.14
601.404	9425.5
601.762	9361.32
602.12	9335.56
602.478	9360.64
602.836	9394.09
603.194	9289.01
603.552	9425.27
603.91	9221.89
604.268	9321.1
604.625	9310.02
604.983	9345.95
605.341	9269.35
605.698	9318.84
606.056	9324.03
606.413	9347.54
606.771	9364.71
607.128	9364.94
607.485	9318.38
607.843	9284.71
608.2	9355.9
608.557	9349.57
608.914	9334.66
609.272	9347.54
609.629	9334.43
609.986	9436.57
610.343	9379.4
610.7	9476.57
611.057	9389.57
611.414	9369.68
611.771	9376.46
612.127	9433.86
612.484	9442.45
612.841	9486.06
613.198	9420.53
613.554	9418.27
613.911	9464.37
614.267	9453.3
614.624	9439.51
614.98	9443.13
615.337	9444.48
615.693	9395.9
616.05	9395.45
616.406	9488.55
616.762	9427.76
617.118	9441.77
617.475	9468.44
617.831	9457.59
618.187	9453.97
618.543	9458.49
618.899	9566.74
619.255	9520.41
619.611	9493.3
619.967	9559.51
620.323	9557.7
620.678	9531.71
621.034	9531.26
621.39	9477.02
621.746	9494.43
622.101	9561.09
622.457	9501.66
622.812	9540.98
623.168	9497.82
623.523	9498.27
623.879	9570.58
624.234	9467.99
624.589	9570.58
624.945	9503.69
625.3	9543.01
625.655	9540.53
626.01	9593.86
626.365	9585.27
626.72	9482
627.075	9505.27
627.43	9488.55
627.785	9488.55
628.14	9501.88
628.495	9508.89
628.85	9508.66
629.205	9529.45
629.559	9471.15
629.914	9435.22
630.269	9467.99
630.623	9432.96
630.978	9420.3
631.332	9456.23
631.687	9424.14
632.041	9444.26
632.396	9463.69
632.75	9324.94
633.104	9381.43
633.459	9352.73
633.813	9336.46
634.167	9334.66
634.521	9293.98
634.875	9287.88
635.229	9285.17
635.583	9213.98
635.937	9302.11
636.291	9197.03
636.645	9275
636.999	9239.97
637.352	9270.02
637.706	9227.09
638.06	9233.64
638.413	9223.47
638.767	9159.97
639.121	9173.98
639.474	9137.15
639.828	9161.78
640.181	9129.92
640.534	9159.75
640.888	9171.72
641.241	9100.54
641.594	9124.04
641.947	9119.97
642.301	9041.56
642.654	9111.84
643.007	9171.5
643.36	9065.96
643.713	9089.24
644.066	9117.03
644.419	9063.7
644.771	9009.24
645.124	8936.47
645.477	8896.02
645.83	8877.49
646.182	8776.7
646.535	8845.18
646.888	8754.56
647.24	8789.36
647.593	8821.45
647.945	8763.82
648.298	8761.34
648.65	8765.86
649.002	8766.76
649.355	8734.67
649.707	8789.13
650.059	8815.8
650.411	8894.67
650.763	8960.2
651.115	8995
651.467	8961.11
651.819	8996.13
652.171	9014.44
652.523	8990.48
652.875	8932.86
653.227	8915.91
653.578	9066.19
653.93	8910.71
654.282	8984.83
654.633	8939.41
654.985	8938.96
655.337	8991.61
655.688	8926.98
656.039	9009.01
656.391	8870.71
656.742	8962.69
657.094	8961.56
657.445	8937.38
657.796	8988.9
658.147	8875.68
658.498	8986.64
658.849	8962.24
659.2	8909.58
659.551	8969.02
659.902	8993.65
660.253	9017.15
660.604	9014.89
660.955	8961.11
661.306	8997.94
661.656	9056.47
662.007	8992.52
662.358	8992.97
662.708	9039.07
663.059	9093.98
663.409	9029.13
663.76	9058.28
664.11	9025.96
664.461	9067.32
664.811	9056.92
665.161	9038.62
665.511	9023.03
665.862	9086.75
666.212	9050.14
666.562	9056.47
666.912	9034.32
667.262	9048.34
667.612	9036.81
667.962	9026.64
668.312	8998.85
668.662	9072.74
669.011	9011.5
669.361	9051.5
669.711	9023.25
670.06	8961.56
670.41	8963.59
670.76	8938.73
671.109	8970.15
671.459	8976.7
671.808	9062.57
672.157	8979.41
672.507	8969.24
672.856	9018.96
673.205	9006.3
673.554	9001.78
673.904	8964.5
674.253	9018.96
674.602	8943.93
674.951	8850.37
675.3	8797.72
675.649	8904.16
675.998	8926.53
676.346	8924.72
676.695	8915.68
677.044	8870.04
677.393	8871.84
677.741	8925.63
678.09	8810.83
678.438	8817.38
678.787	8846.76
679.135	8798.85
679.484	8776.7
679.832	8754.78
680.181	8854.22
680.529	8817.16
680.877	8773.31
681.225	8661
681.573	8761.11
681.922	8750.94
682.27	8729.25
682.618	8717.27
682.966	8675.24
683.314	8674.11
683.661	8677.5
684.009	8562.02
684.357	8561.79
684.705	8586.43
685.053	8561.12
685.4	8557.95
685.748	8473.89
686.095	8495.36
686.443	8427.11
686.79	8485.41
687.138	8457.62
687.485	8469.14
687.832	8444.74
688.18	8396.38
688.527	8390.27
688.874	8332.65
689.221	8394.79
689.568	8268.47
689.915	8282.71
690.262	8277.28
690.609	8248.58
690.956	8184.18
691.303	8207.68
691.65	8127.91
691.997	8106.21
692.344	8097.17
692.69	8061.69
693.037	8069.6
693.383	7954.58
693.73	8018.08
694.077	7958.42
694.423	7970.17
694.769	7859.89
695.116	7955.03
695.462	7852.89
695.808	7810.63
696.155	7771.31
696.501	7735.83
696.847	7724.3
697.193	7653.34
697.539	7626.68
697.885	7649.05
698.231	7638.66
698.577	7570.86
698.923	7601.59
699.269	7525.66
699.614	7498.77
699.96	7443.63
700.306	7433.69
700.651	7430.75
700.997	7357.76
701.342	7410.19
701.688	7357.53
702.033	7275.95
702.379	7300.58
702.724	7261.49
703.069	7257.87
703.415	7178.1
703.76	7217.65
704.105	7238.67
704.45	7141.94
704.795	7137.43
705.14	7145.33
705.485	7094.71
705.83	7017.88
706.175	7109.63
706.52	7033.47
706.865	6953.93
707.209	6995.73
707.554	7015.17
707.899	6956.87
708.243	6913.02
708.588	6956.19
708.932	6811.11
709.277	6837.77
709.621	6825.12
709.966	6789.19
710.31	6793.25
710.654	6694.5
710.998	6720.26
711.342	6736.53
711.687	6763.88
712.031	6685.91
712.375	6677.1
712.719	6698.34
713.063	6683.43
713.407	6720.04
713.75	6659.25
714.094	6604.33
714.438	6620.6
714.782	6597.78
715.125	6573.15
715.469	6607.5
715.812	6578.34
716.156	6500.38
716.499	6554.16
716.843	6555.07
717.186	6482.08
717.53	6522.98
717.873	6547.38
718.216	6513.26
718.559	6514.84
718.902	6486.37
719.246	6433.94
719.589	6457.67
719.932	6450.21
720.275	6426.03
720.617	6396.43
720.96	6435.07
721.303	6381.06
721.646	6448.18
721.989	6344.23
722.331	6360.04
722.674	6348.29
723.016	6369.54
723.359	6348.75
723.701	6324.34
724.044	6332.47
724.386	6316.43
724.729	6350.33
725.071	6299.48
725.413	6282.31
725.755	6292.25
726.097	6298.13
726.439	6275.53
726.782	6264.91
727.124	6275.75
727.465	6295.87
727.807	6325.02
728.149	6288.86
728.491	6241.86
728.833	6269.88
729.175	6230.56
729.516	6313.49
729.858	6240.95
730.199	6280.5
730.541	6218.13
730.882	6262.87
731.224	6261.06
731.565	6176.55
731.906	6209.31
732.248	6257.67
732.589	6226.71
732.93	6238.24
733.271	6264.45
733.612	6226.26
733.953	6227.17
734.294	6247.73
734.635	6231.91
734.976	6274.62
735.317	6268.3
735.658	6293.61
735.999	6221.97
736.339	6319.37
736.68	6234.4
737.021	6237.34
737.361	6247.05
737.702	6337.22
738.042	6326.15
738.383	6235.98
738.723	6277.33
739.063	6350.1
739.404	6376.99
739.744	6334.06
740.084	6331.12
740.424	6328.86
740.764	6317.56
741.104	6414.73
741.444	6369.31
741.784	6402.08
742.124	6408.18
742.464	6432.36
742.804	6447.95
743.143	6411.79
743.483	6499.93
743.823	6479.36
744.162	6501.06
744.502	6547.61
744.841	6563.88
745.181	6603.43
745.52	6588.97
745.86	6663.09
746.199	6672.58
746.538	6700.37
746.877	6798.45
747.216	6832.57
747.556	6811.11
747.895	6854.72
748.234	6906.7
748.573	6934.49
748.911	7035.06
749.25	7075.51
749.589	7123.19
749.928	7156.18
750.267	7249.74
750.605	7292.45
750.944	7351.88
751.283	7496.96
751.621	7511.43
751.96	7608.15
752.298	7713.23
752.636	7793.45
752.975	7797.97
753.313	7904.18
753.651	8006.1
753.989	8110.28
754.327	8168.13
754.666	8310.73
755.004	8421.91
755.342	8609.7
755.679	8722.47
756.017	8773.99
756.355	8943.48
756.693	9001.56
757.031	9223.47
757.368	9293.75
757.706	9408.78
758.044	9540.75
758.381	9787.3
758.719	9914.75
759.056	10023
759.394	10218.93
759.731	10305.93
760.068	10451.69
760.405	10599.03
760.743	10748.86
761.08	10894.84
761.417	11049.64
761.754	11251.22
762.091	11375.05
762.428	11534.82
762.765	11683.29
763.102	11891.2
763.438	12013.23
763.775	12169.38
764.112	12380.45
764.449	12508.36
764.785	12600.33
765.122	12818.63
765.458	12970.04
765.795	13043.26
766.131	13217.04
766.467	13388.56
766.804	13497.03
767.14	13597.59
767.476	13772.96
767.812	13851.83
768.148	14096.34
768.485	14108.32
768.821	14248.65
769.157	14459.04
769.492	14480.74
769.828	14686.83
770.164	14681.63
770.5	14792.37
770.836	14954.85
771.171	14998.69
771.507	15218.79
771.842	15190.32
772.178	15217.44
772.513	15386.93
772.849	15488.17
773.184	15510.99
773.519	15584.43
773.855	15720.7
774.19	15808.38
774.525	15863.07
774.86	16047.7
775.195	15990.07
775.53	16016.97
775.865	16056.06
776.2	16179
776.535	16062.16
776.87	16294.25
777.205	16256.51
777.539	16308.48
777.874	16411.98
778.209	16273
778.543	16371.31
778.878	16342.38
779.212	16399.55
779.547	16411.31
779.881	16570.85
780.215	16531.98
780.55	16569.27
780.884	16493.11
781.218	16558.87
781.552	16715.03
781.886	16659.66
782.22	16569.72
782.554	16569.04
782.888	16526.33
783.222	16544.86
783.556	16510.74
783.889	16540.57
784.223	16458.76
784.557	16493.34
784.89	16651.3
785.224	16490.17
785.557	16506.9
785.891	16597.06
786.224	16430.74
786.558	16412.66
786.891	16429.61
787.224	16319.78
787.557	16384.19
787.891	16409.27
788.224	16377.86
788.557	16431.87
788.89	16503.73
789.223	16466.22
789.556	16356.62
789.888	16380.57
790.221	16277.52
790.554	16160.01
790.887	16268.94
791.219	16170.63
791.552	16209.5
791.884	16179.67
792.217	16181.26
792.549	16162.05
792.882	16005.44
793.214	16032.11
793.546	15986.23
793.879	15942.84
794.211	15900.81
794.543	15930.64
794.875	15932.67
795.207	15937.19
795.539	15924.76
795.871	15861.94
796.203	15823.75
796.535	15769.29
796.867	15788.27
797.198	15783.3
797.53	15703.3
797.862	15537.2
798.193	15702.17
798.525	15610.65
798.856	15532.01
799.188	15462.4
799.519	15384.21
799.85	15334.72
800.182	15311.9
800.513	15305.35
800.844	15248.85
801.175	15332.69
801.506	15245.46
801.837	15181.96
802.168	15207.5
802.499	15221.51
802.83	14954.62
803.161	15062.41
803.491	15082.08
803.822	15109.19
804.153	14978.12
804.483	14999.59
804.814	14863.78
805.145	14798.01
805.475	14822.87
805.805	14800.95
806.136	14737
806.466	14805.7
806.796	14794.17
807.126	14659.71
807.457	14611.58
807.787	14671.01
808.117	14605.7
808.447	14433.5
808.777	14544.46
809.107	14451.13
809.436	14534.29
809.766	14445.71
810.096	14358.48
810.426	14368.42
810.755	14383.56
811.085	14401.87
811.414	14362.77
811.744	14157.13
812.073	14287.07
812.403	14165.72
812.732	14165.04
813.061	14206.17
813.39	14079.62
813.719	14024.48
814.049	14114.42
814.378	14123.91
814.707	13984.02
815.036	14012.05
815.365	13961.43
815.693	13865.38
816.022	13809.79
816.351	13852.28
816.68	13759.62
817.008	13833.52
817.337	13710.36
817.665	13670.59
817.994	13711.04
818.322	13718.95
818.651	13703.81
818.979	13540.87
819.307	13685.05
819.636	13601.89
819.964	13519.4
820.292	13663.36
820.62	13588.56
820.948	13577.48
821.276	13596.92
821.604	13526.41
821.932	13597.14
822.259	13584.04
822.587	13621.55
822.915	13482.8
823.243	13495.45
823.57	13487.31
823.898	13577.93
824.225	13485.96
824.553	13541.78
824.88	13481.21
825.207	13609.12
825.535	13503.36
825.862	13583.13
826.189	13539.29
826.516	13635.33
826.843	13612.06
827.17	13566.86
827.497	13553.53
827.824	13564.6
828.151	13658.16
828.478	13504.26
828.805	13641.44
829.131	13563.25
829.458	13570.02
829.785	13460.2
830.111	13535.9
830.438	13637.14
830.764	13509.69
831.09	13642.79
831.417	13523.7
831.743	13602.11
832.069	13637.14
832.395	13492.74
832.722	13455
833.048	13507.2
833.374	13490.03
833.7	13403.93
834.026	13461.33
834.351	13515.11
834.677	13441.89
835.003	13474.43
835.329	13394.89
835.654	13385.4
835.98	13392.18
836.306	13352.4
836.631	13362.12
836.956	13446.86
837.282	13432.63
837.607	13323.7
837.932	13278.96
838.258	13282.12
838.583	13357.83
838.908	13204.38
839.233	13226.98
839.558	13208
839.883	13067.89
840.208	13129.36
840.533	13130.49
840.858	13170.26
841.182	13071.05
841.507	13093.65
841.832	13095.23
842.156	12975.46
842.481	13040.55
842.805	12981.34
843.13	12931.62
843.454	12920.32
843.778	12888.01
844.103	12787.9
844.427	12836.03
844.751	12788.35
845.075	12773.21
845.399	12745.87
845.723	12576.6
846.047	12691.63
846.371	12556.94
846.695	12600.11
847.019	12547
847.343	12394.24
847.666	12374.12
847.99	12300
848.313	12323.28
848.637	12230.4
848.96	12214.81
849.284	12212.77
849.607	12024.3
849.931	11985.21
850.254	12011.42
850.577	11888.94
850.9	11844.42
851.223	11824.76
851.546	11835.83
851.869	11739.56
852.192	11785.21
852.515	11662.28
852.838	11619.79
853.161	11581.38
853.483	11628.61
853.806	11484.43
854.129	11506.58
854.451	11497.99
854.774	11355.62
855.096	11365.79
855.419	11338.44
855.741	11318.11
856.063	11213.48
856.385	11208.05
856.708	11225
857.03	11129.64
857.352	11162.86
857.674	11076.98
857.996	11019.13
858.318	11071.79
858.64	11073.37
858.961	10907.27
859.283	10898.91
859.605	10799.25
859.926	10923.09
860.248	10879.25
860.57	10809.42
860.891	10845.58
861.212	10825.69
861.534	10683.55
861.855	10668.18
862.176	10761.96
862.498	10667.28
862.819	10715.18
863.14	10642.42
863.461	10599.26
863.782	10529.43
864.103	10559.48
864.424	10547.05
864.745	10597
865.065	10470.45
865.386	10428.41
865.707	10432.71
866.027	10433.84
866.348	10418.47
866.668	10422.54
866.989	10462.99
867.309	10362.43
867.63	10425.25
867.95	10301.41
868.27	10281.07
868.59	10351.58
868.91	10267.06
869.23	10225.71
869.55	10209.43
869.87	10254.18
870.19	10244.46
870.51	10262.09
870.83	10245.59
871.15	10206.05
871.469	10250.34
871.789	10190.68
872.109	10168.76
872.428	10097.12
872.748	10195.65
873.067	10166.5
873.386	10083.34
873.706	10113.84
874.025	10040.17
874.344	10018.71
874.663	10015.99
874.982	10012.6
875.301	10002.89
875.62	9996.56
875.939	9957.24
876.258	9966.5
876.577	9886.05
876.896	9898.26
877.214	9871.14
877.533	9845.83
877.852	9856.9
878.17	9884.92
878.489	9778.71
878.807	9844.02
879.125	9767.64
879.444	9795.43
879.762	9696.91
880.08	9733.52
880.398	9749.11
880.716	9676.12
881.034	9731.93
881.352	9670.69
881.67	9663.69
881.988	9653.97
882.306	9611.94
882.624	9613.74
882.941	9576.46
883.259	9481.54
883.577	9519.06
883.894	9459.4
884.212	9487.65
884.529	9473.18
884.846	9426.4
885.164	9417.82
885.481	9449
885.798	9409.68
886.115	9316.13
886.432	9373.75
886.75	9291.27
887.067	9261.44
887.383	9245.62
887.7	9315.9
888.017	9240.19
888.334	9230.7
888.651	9158.84
888.967	9114.55
889.284	9123.81
889.6	9152.06
889.917	9038.62
890.233	9078.84
890.55	9043.14
890.866	9049.24
891.182	8909.81
891.498	8950.03
891.815	8977.83
892.131	8925.17
892.447	8859.64
892.763	8868.91
893.079	8739.64
893.395	8753.43
893.71	8728.34
894.026	8710.27
894.342	8705.97
894.657	8701
894.973	8683.15
895.289	8557.05
895.604	8669.81
895.92	8569.25
896.235	8511.63
896.55	8493.32
896.865	8449.03
897.181	8435.7
897.496	8515.02
897.811	8345.76
898.126	8373.55
898.441	8364.51
898.756	8283.16
899.071	8231.18
899.386	8268.24
899.7	8182.37
900.015	8196.61
900.33	8124.07
900.644	8101.02
900.959	8130.39
901.273	8091.07
901.588	8071.86
901.902	7983.05
902.216	7956.16
902.531	7909.38
902.845	7881.36
903.159	7894.69
903.473	7844.07
903.787	7788.71
904.101	7721.82
904.415	7750.29
904.729	7684.08
905.042	7689.05
905.356	7663.97
905.67	7666
905.984	7625.55
906.297	7637.75
906.611	7531.09
906.924	7540.8
907.237	7466
907.551	7491.77
907.864	7407.02
908.177	7347.14
908.491	7393.46
908.804	7350.3
909.117	7287.25
909.43	7244.32
909.743	7234.6
910.056	7189.85
910.368	7169.29
910.681	7146.92
910.994	7156.18
911.307	7126.35
911.619	7029.63
911.932	7095.62
912.244	7002.29
912.557	7002.74
912.869	6932.46
913.181	6909.63
913.494	6947.83
913.806	6872.35
914.118	6840.48
914.43	6763.2
914.742	6795.29
915.054	6768.62
915.366	6736.31
915.678	6702.86
915.99	6707.38
916.302	6679.13
916.613	6598.23
916.925	6581.28
917.236	6567.95
917.548	6519.14
917.859	6567.27
918.171	6495.63
918.482	6486.82
918.794	6460.83
919.105	6471.91
919.416	6398.24
919.727	6361.4
920.038	6350.1
920.349	6304.23
920.66	6323.44
920.971	6253.83
921.282	6291.57
921.593	6231.91
921.903	6155.76
922.214	6165.47
922.525	6136.1
922.835	6147.85
923.146	6062.43
923.456	6083.22
923.767	6022.88
924.077	6041.86
924.387	6027.85
924.697	5951.92
925.008	5941.52
925.318	5893.84
925.628	5871.7
925.938	5873.05
926.248	5834.41
926.558	5814.52
926.867	5791.7
927.177	5764.35
927.487	5751.7
927.796	5693.4
928.106	5702.89
928.416	5686.39
928.725	5678.03
929.034	5677.12
929.344	5630.12
929.653	5598.26
929.962	5581.76
930.271	5516.23
930.581	5565.26
930.89	5508.77
931.199	5485.27
931.508	5436.68
931.817	5447.07
932.125	5394.42
932.434	5444.14
932.743	5329.79
933.051	5351.48
933.36	5322.56
933.669	5313.29
933.977	5341.77
934.286	5233.29
934.594	5214.09
934.902	5222.45
935.21	5187.42
935.519	5210.24
935.827	5156.91
936.135	5146.74
936.443	5115.56
936.751	5111.72
937.059	5077.37
937.367	5007.31
937.674	5020.19
937.982	4986.75
938.29	5005.73
938.597	5026.07
938.905	4962.12
939.213	4914.43
939.52	4904.94
939.827	4948.1
940.135	4841.44
940.442	4848.9
940.749	4837.6
941.056	4856.58
941.363	4766.19
941.67	4764.61
941.977	4717.38
942.284	4691.16
942.591	4726.19
942.898	4708.56
943.205	4690.71
943.511	4620.88
943.818	4613.42
944.125	4559.19
944.431	4590.83
944.738	4575.01
945.044	4557.38
945.35	4543.14
945.657	4470.15
945.963	4469.47
946.269	4433.32
946.575	4431.96
946.881	4404.16
947.187	4419.3
947.493	4375.24
947.799	4390.15
948.105	4376.37
948.41	4290.27
948.716	4309.48
949.022	4285.07
949.327	4293.66
949.633	4259.53
949.938	4250.72
950.244	4245.3
950.549	4222.93
950.854	4182.02
951.16	4180.89
951.465	4168.46
951.77	4142.7
952.075	4130.72
952.38	4120.1
952.685	4085.08
952.99	4063.16
953.294	4021.35
953.599	4050.73
953.904	4014.34
954.209	3996.94
954.513	4017.51
954.818	3964.63
955.122	3970.5
955.426	3932.31
955.731	3904.52
956.035	3916.95
956.339	3903.84
956.643	3867.91
956.948	3811.86
957.252	3863.84
957.556	3854.8
957.86	3793.11
958.163	3789.04
958.467	3763.5
958.771	3743.16
959.075	3773.45
959.378	3715.37
959.682	3725.76
959.985	3700.45
960.289	3637.4
960.592	3648.7
960.896	3656.84
961.199	3613.68
961.502	3600.34
961.805	3604.64
962.108	3576.61
962.411	3553.34
962.714	3533.23
963.017	3538.42
963.32	3522.61
963.623	3506.56
963.926	3490.74
964.228	3471.53
964.531	3481.7
964.833	3421.59
965.136	3418.2
965.438	3385.43
965.741	3396.28
966.043	3366.9
966.345	3374.13
966.648	3356.96
966.95	3391.31
967.252	3309.5
967.554	3293.23
967.856	3279.67
968.158	3242.39
968.46	3283.29
968.761	3269.96
969.063	3248.71
969.365	3243.74
969.666	3200.58
969.968	3191.77
970.269	3142.95
970.571	3193.35
970.872	3173.69
971.174	3106.34
971.475	3146.57
971.776	3122.62
972.077	3116.29
972.378	3092.79
972.679	3077.65
972.98	3068.38
973.281	3024.99
973.582	3024.99
973.883	3026.35
974.183	3004.65
974.484	3016.86
974.785	2962.39
975.085	2977.53
975.386	2956.97
975.686	2951.32
975.986	2931.66
976.287	2925.33
976.587	2885.33
976.887	2899.34
977.187	2912.45
977.487	2889.85
977.787	2867.26
978.087	2859.35
978.387	2820.25
978.687	2811.66
978.987	2812.12
979.286	2814.6
979.586	2789.97
979.885	2767.82
980.185	2748.16
980.484	2733.02
980.784	2760.59
981.083	2731.67
981.382	2718.78
981.682	2713.13
981.981	2683.08
982.28	2652.8
982.579	2643.76
982.878	2658.45
983.177	2646.7
983.475	2626.58
983.774	2627.04
984.073	2620.93
984.372	2578.45
984.67	2589.52
984.969	2601.05
985.267	2590.2
985.566	2590.43
985.864	2528.51
986.162	2565.79
986.461	2492.58
986.759	2519.24
987.057	2474.5
987.355	2490.77
987.653	2494.61
987.951	2469.75
988.249	2474.05
988.547	2442.63
988.844	2415.74
989.142	2419.13
989.44	2388.4
989.737	2410.09
990.035	2363.31
990.332	2361.73
990.63	2334.39
990.927	2367.61
991.224	2318.12
991.521	2310.43
991.819	2292.81
992.116	2288.29
992.413	2289.42
992.71	2253.03
993.006	2274.05
993.303	2253.26
993.6	2281.96
993.897	2264.79
994.193	2229.76
994.49	2218.01
994.787	2199.7
995.083	2185.69
995.379	2181.85
995.676	2176.43
995.972	2144.56
996.268	2146.6
996.565	2125.81
996.861	2124.22
997.157	2108.63
997.453	2109.53
997.749	2119.48
998.044	2093.94
998.34	2084.68
998.636	2072.7
998.932	2044.45
999.227	2057.33
999.523	2020.5
999.818	2032.47
1000.114	2015.75
1000.409	1995.64
1000.704	1963.78
1001	1991.57
1001.295	1987.28
1001.59	1975.75
1001.885	1975.98
1002.18	1945.47
1002.475	1956.54
1002.77	1924
1003.065	1926.26
1003.359	1890.11
1003.654	1886.04
1003.949	1877.45
1004.243	1880.39
1004.538	1843.78
1004.832	1858.02
1005.127	1856.89
1005.421	1844.23
1005.715	1813.95
1006.009	1798.13
1006.304	1822.99
1006.598	1813.27
1006.892	1780.73
1007.186	1763.1
1007.48	1744.35
1007.773	1757.91
1008.067	1746.15
1008.361	1752.03
1008.655	1719.94
1008.948	1695.08
1009.242	1701.64
1009.535	1691.01
1009.829	1649.66
1010.122	1660.96
1010.415	1669.55
1010.708	1652.15
1011.001	1646.72
1011.295	1618.47
1011.588	1613.05
1011.881	1618.02
1012.173	1601.53
1012.466	1594.52
1012.759	1597.23
1013.052	1591.13
1013.344	1608.76
1013.637	1571.24
1013.93	1544.58
1014.222	1559.49
1014.514	1535.99
1014.807	1543.9
1015.099	1502.32
1015.391	1511.36
1015.683	1503.45
1015.976	1494.64
1016.268	1490.79
1016.56	1500.06
1016.851	1451.02
1017.143	1449.21
1017.435	1446.95
1017.727	1448.54
1018.018	1438.82
1018.31	1436.11
1018.602	1408.99
1018.893	1401.53
1019.185	1382.55
1019.476	1410.12
1019.767	1389.1
1020.058	1347.07
1020.35	1343.23
1020.641	1340.06
1020.932	1360.4
1021.223	1336.67
1021.514	1343.45
1021.804	1309.56
1022.095	1306.84
1022.386	1311.59
1022.677	1311.82
1022.967	1291.03
1023.258	1263.46
1023.548	1267.75
1023.839	1250.35
1024.129	1267.98
1024.419	1237.47
1024.709	1213.97
1025	1222.78
1025.29	1195.66
1025.58	1220.97
1025.87	1208.32
1026.16	1183.91
1026.449	1208.32
1026.739	1162.89
1027.029	1180.75
1027.319	1159.5
1027.608	1154.08
1027.898	1145.04
1028.187	1121.09
1028.477	1130.8
1028.766	1130.58
1029.055	1113.63
1029.344	1114.53
1029.634	1104.36
1029.923	1099.84
1030.212	1094.19
1030.501	1108.21
1030.79	1077.92
1031.078	1083.57
1031.367	1061.65
1031.656	1051.48
1031.945	1046.51
1032.233	1051.26
1032.522	1046.74
1032.81	1030.02
1033.099	983.24
1033.387	1032.73
1033.675	994.76
1033.963	1005.84
1034.251	1007.42
1034.54	1007.87
1034.828	973.29
1035.116	983.46
1035.403	972.39
1035.691	964.93
1035.979	962.67
1036.267	969.23
1036.554	942.79
1036.842	951.15
1037.129	956.57
1037.417	941.66
1037.704	946.85
1037.992	926.74
1038.279	896.69
1038.566	919.28
1038.853	919.28
1039.14	919.28
