Data from hue_36_FLMS001491_00061.txt Node
Date: Tue Feb 07 17:30:07 GMT 2017
User: dcchb
Spectrometer: FLMS00149
Trigger mode: 0
Integration Time (sec): 2.000000E-2
Scans to average: 10
Electric dark correction enabled: true
Nonlinearity correction enabled: false
Boxcar width: 0
XAxis mode: Wavelengths
Number of Pixels in Spectrum: 2048
>>>>>Begin Spectral Data<<<<<
341.393	3.16
341.776	3.16
342.16	3.16
342.543	-71.64
342.927	-54.01
343.31	-64.18
343.693	-62.82
344.077	-68.25
344.46	-47.46
344.843	-64.86
345.226	-32.32
345.61	-25.08
345.993	-23.73
346.376	-4.07
346.759	13.78
347.142	35.71
347.525	48.59
347.908	48.81
348.291	57.85
348.674	86.78
349.057	101.24
349.44	125.19
349.823	133.33
350.206	142.37
350.588	174.91
350.971	195.02
351.354	228.24
351.737	251.74
352.119	246.1
352.502	254.23
352.884	282.48
353.267	285.87
353.65	303.49
354.032	292.65
354.414	323.16
354.797	297.62
355.179	301.01
355.562	345.08
355.944	328.8
356.326	328.35
356.709	349.37
357.091	338.75
357.473	344.4
357.855	336.26
358.238	362.48
358.62	334.45
359.002	342.59
359.384	346.43
359.766	332.65
360.148	336.26
360.53	324.51
360.912	325.19
361.294	343.95
361.676	327.68
362.057	320.44
362.439	327.45
362.821	331.97
363.203	327.68
363.584	336.49
363.966	342.36
364.348	329.03
364.729	318.86
365.111	326.09
365.493	325.42
365.874	323.38
366.256	305.08
366.637	317.96
367.019	293.78
367.4	340.33
367.781	316.15
368.163	304.17
368.544	306.43
368.925	314.34
369.306	326.55
369.688	309.14
370.069	312.31
370.45	283.61
370.831	310.73
371.212	290.84
371.593	325.87
371.974	314.57
372.355	311.86
372.736	316.38
373.117	345.3
373.498	314.57
373.879	310.05
374.26	302.82
374.641	315.25
375.021	296.26
375.402	310.27
375.783	310.05
376.163	331.29
376.544	321.8
376.925	323.61
377.305	316.83
377.686	350.95
378.066	320.44
378.447	322.48
378.827	327.68
379.208	327.9
379.588	325.19
379.968	325.19
380.349	330.16
380.729	335.13
381.109	325.87
381.489	330.39
381.87	333.1
382.25	335.36
382.63	324.06
383.01	332.42
383.39	348.24
383.77	349.14
384.15	347.34
384.53	364.51
384.91	342.82
385.29	336.26
385.67	352.99
386.049	349.14
386.429	359.31
386.809	336.04
387.189	339.2
387.568	364.06
387.948	342.59
388.328	359.54
388.707	376.04
389.087	363.38
389.466	359.09
389.846	355.47
390.225	360.89
390.605	362.93
390.984	362.02
391.363	352.76
391.743	345.98
392.122	349.14
392.501	355.7
392.881	352.53
393.26	376.94
393.639	368.13
394.018	355.92
394.397	371.52
394.776	378.3
395.155	381.68
395.534	369.26
395.913	350.05
396.292	373.55
396.671	393.66
397.05	358.18
397.429	362.93
397.808	370.16
398.186	383.04
398.565	359.99
398.944	402.48
399.323	381.23
399.701	376.49
400.08	391.63
400.458	384.4
400.837	400.22
401.215	375.81
401.594	391.63
401.972	387.11
402.351	383.49
402.729	395.92
403.107	374.91
403.486	397.28
403.864	396.83
404.242	391.18
404.62	390.05
404.999	395.02
405.377	414.9
405.755	404.28
406.133	412.64
406.511	407.67
406.889	426.88
407.267	406.09
407.645	406.32
408.023	416.03
408.401	418.07
408.779	420.78
409.156	410.61
409.534	418.07
409.912	442.93
410.29	450.16
410.667	452.87
411.045	435.92
411.422	428.92
411.8	441.8
412.178	458.75
412.555	447.9
412.933	467.33
413.31	469.14
413.687	453.55
414.065	448.12
414.442	459.65
414.819	456.94
415.197	490.83
415.574	475.69
415.951	495.81
416.328	460.1
416.705	467.56
417.082	496.71
417.46	476.82
417.837	484.06
418.214	483.15
418.591	492.87
418.967	479.08
419.344	482.02
419.721	506.65
420.098	475.24
420.475	507.33
420.852	509.37
421.228	500.1
421.605	530.16
421.982	516.37
422.358	509.59
422.735	516.6
423.111	514.56
423.488	517.27
423.864	530.38
424.241	545.97
424.617	530.16
424.994	539.19
425.37	543.71
425.746	546.43
426.123	526.31
426.499	533.77
426.875	559.76
427.251	563.15
427.627	548.91
428.003	543.04
428.379	581.91
428.756	572.19
429.132	585.3
429.507	595.69
429.883	580.55
430.259	583.71
430.635	608.8
431.011	585.3
431.387	578.52
431.763	620.55
432.138	599.08
432.514	597.27
432.89	620.32
433.265	614
433.641	604.73
434.016	618.29
434.392	628.01
434.767	647.21
435.143	628.91
435.518	642.02
435.894	629.81
436.269	671.62
436.644	657.84
437.02	664.16
437.395	659.19
437.77	679.53
438.145	696.25
438.52	685.86
438.895	692.86
439.271	682.69
439.646	687.67
440.021	705.07
440.395	728.34
440.77	703.94
441.145	694.9
441.52	719.53
441.895	727.44
442.27	734.22
442.645	730.38
443.019	722.24
443.394	713.88
443.769	733.54
444.143	721.11
444.518	746.42
444.892	722.24
445.267	744.39
445.641	752.75
446.016	722.69
446.39	744.84
446.764	766.53
447.139	759.98
447.513	776.93
447.887	766.99
448.262	754.78
448.636	773.76
449.01	789.58
449.384	788.45
449.758	794.78
450.132	786.42
450.506	811.28
450.88	808.57
451.254	797.49
451.628	817.61
452.002	836.14
452.376	839.07
452.75	821.67
453.123	827.1
453.497	845.4
453.871	856.02
454.244	849.24
454.618	882.24
454.992	897.38
455.365	886.53
455.739	903.48
456.112	914.33
456.486	910.94
456.859	936.02
457.232	928.34
457.606	934.89
457.979	954.33
458.352	956.36
458.725	977.83
459.099	959.75
459.472	989.13
459.845	1006.08
460.218	981.22
460.591	1037.71
460.964	982.12
461.337	1016.02
461.71	1067.99
462.083	1061.22
462.456	1067.09
462.829	1068.22
463.201	1064.15
463.574	1082.23
463.947	1126.3
464.32	1156.35
464.692	1127.65
465.065	1135.34
465.438	1170.14
465.81	1179.63
466.183	1176.24
466.555	1199.06
466.928	1200.42
467.3	1237.93
467.672	1250.81
468.045	1270.7
468.417	1298.27
468.789	1279.74
469.161	1334.65
469.534	1322
469.906	1357.25
470.278	1375.78
470.65	1401.55
471.022	1442.9
471.394	1432.5
471.766	1419.85
472.138	1501.66
472.51	1545.72
472.882	1534.65
473.253	1583.69
473.625	1596.57
473.997	1661.88
474.369	1662.56
474.74	1691.25
475.112	1727.86
475.484	1764.7
475.855	1805.38
476.227	1810.35
476.598	1887.18
476.97	1942.1
477.341	1969.89
477.713	2019.61
478.084	2008.76
478.455	2091.7
478.827	2149.1
479.198	2204.91
479.569	2189.55
479.94	2316.55
480.311	2336.66
480.682	2414.17
481.053	2492.59
481.424	2557.45
481.795	2603.1
482.166	2668.18
482.537	2707.5
482.908	2843.09
483.279	2856.42
483.65	2937.32
484.021	3030.2
484.391	3133.7
484.762	3149.75
485.133	3228.62
485.503	3323.3
485.874	3430.42
486.244	3480.81
486.615	3536.86
486.985	3657.98
487.356	3771.65
487.726	3808.49
488.097	3918.32
488.467	3997.86
488.837	4080.8
489.207	4172.32
489.578	4326.89
489.948	4375.03
490.318	4462.03
490.688	4546.77
491.058	4635.36
491.428	4783.83
491.798	4854.34
492.168	5004.16
492.538	5051.84
492.908	5151.95
493.278	5236.47
493.648	5266.53
494.017	5421.78
494.387	5519.4
494.757	5614.99
495.126	5673.75
495.496	5743.8
495.866	5852.95
496.235	5936.12
496.605	6054.3
496.974	6099.5
497.344	6186.05
497.713	6225.83
498.082	6324.81
498.452	6428.31
498.821	6489.09
499.19	6582.88
499.559	6685.47
499.928	6763.89
500.298	6807.05
500.667	6915.07
501.036	6909.87
501.405	7067.84
501.774	7081.4
502.143	7167.72
502.512	7229.64
502.88	7346.25
503.249	7394.38
503.618	7436.87
503.987	7557.09
504.356	7523.64
504.724	7711.44
505.093	7713.92
505.462	7828.95
505.83	7858.55
506.199	7974.25
506.567	8080.69
506.936	8056.06
507.304	8200.46
507.672	8246.56
508.041	8311.65
508.409	8346.45
508.777	8385.77
509.145	8509.15
509.514	8519.55
509.882	8600
510.25	8638.19
510.618	8663.73
510.986	8698.08
511.354	8839.32
511.722	8916.15
512.09	8977.62
512.458	8998.18
512.826	9017.39
513.193	9120.66
513.561	9191.85
513.929	9250.6
514.297	9353.88
514.664	9379.64
515.032	9413.54
515.4	9476.14
515.767	9625.51
516.135	9593.19
516.502	9601.56
516.869	9771.95
517.237	9811.27
517.604	9755.22
517.972	9890.36
518.339	9923.13
518.706	10007.87
519.073	10000.64
519.44	10100.53
519.808	10151.37
520.175	10133.74
520.542	10275.21
520.909	10371.25
521.276	10319.05
521.643	10480.85
522.009	10555.2
522.376	10637.91
522.743	10599.72
523.11	10705.03
523.477	10820.28
523.843	10874.29
524.21	10929.66
524.577	11081.06
524.943	11081.29
525.31	11141.18
525.676	11273.38
526.043	11283.32
526.409	11365.35
526.776	11478.12
527.142	11434.73
527.508	11550.2
527.874	11599.47
528.241	11683.08
528.607	11668.17
528.973	11834.04
529.339	11895.28
529.705	12012.79
530.071	12083.75
530.437	12100.7
530.803	12208.94
531.169	12206.91
531.535	12257.98
531.901	12292.33
532.267	12343.18
532.632	12411.43
532.998	12489.62
533.364	12617.97
533.73	12635.37
534.095	12664.53
534.461	12677.18
534.826	12791.98
535.192	12886.89
535.557	13029.26
535.923	12936.83
536.288	13056.15
536.653	12988.59
537.019	12981.35
537.384	13094.12
537.749	13176.38
538.114	13255.47
538.479	13317.84
538.845	13395.35
539.21	13267.22
539.575	13478.97
539.94	13461.11
540.305	13521.23
540.67	13548.8
541.034	13625.18
541.399	13657.04
541.764	13712.41
542.129	13753.31
542.494	13721.22
542.858	13882.8
543.223	13919.63
543.587	14053.87
543.952	14026.07
544.316	14129.12
544.681	14135.67
545.045	14268.33
545.41	14249.12
545.774	14332.96
546.138	14374.09
546.503	14402.79
546.867	14429.68
547.231	14494.53
547.595	14501.54
547.959	14558.04
548.324	14584.02
548.688	14655.66
549.052	14783.34
549.416	14732.04
549.779	14823.57
550.143	14844.13
550.507	14960.96
550.871	15033.73
551.235	15033.73
551.599	15101.98
551.962	15184.69
552.326	15193.5
552.689	15240.73
553.053	15234.4
553.417	15245.93
553.78	15526.15
554.143	15354.62
554.507	15495.19
554.87	15512.81
555.234	15583.55
555.597	15666.71
555.96	15566.14
556.323	15755.52
556.686	15759.59
557.05	15905.8
557.413	15912.58
557.776	16014.27
558.139	16101.05
558.502	16176.52
558.865	16152.34
559.228	16240.7
559.59	16230.53
559.953	16348.95
560.316	16439.12
560.679	16478.21
561.041	16503.97
561.404	16535.16
561.767	16633.91
562.129	16626.46
562.492	16796.62
562.854	16830.07
563.217	16872.55
563.579	16906.9
563.941	16991.64
564.304	16989.61
564.666	17141.02
565.028	17210.17
565.39	17175.37
565.753	17272.54
566.115	17438.64
566.477	17402.93
566.839	17440.67
567.201	17628.01
567.563	17679.76
567.925	17752.75
568.287	17768.57
568.648	17769.93
569.01	17943.48
569.372	18135.34
569.734	17942.35
570.095	18167.21
570.457	18227.09
570.819	18303.7
571.18	18286.3
571.542	18382.34
571.903	18447.65
572.265	18516.12
572.626	18596.12
572.987	18667.31
573.349	18807.64
573.71	18824.82
574.071	18962.89
574.432	19000.86
574.794	19228.87
575.155	19180.51
575.516	19225.48
575.877	19544.12
576.238	19501.86
576.599	19676.54
576.96	19787.5
577.32	19784.56
577.681	20037.67
578.042	20110.66
578.403	20164.44
578.763	20281.27
579.124	20449.41
579.485	20508.16
579.845	20683.07
580.206	20814.14
580.566	20941.82
580.927	21073.8
581.287	21340
581.648	21339.1
582.008	21675.81
582.368	21710.84
582.728	21930.27
583.089	21996.94
583.449	22163.03
583.809	22346.31
584.169	22677.82
584.529	22839.63
584.889	23078.04
585.249	23174.31
585.609	23245.49
585.969	23588.98
586.329	23735.65
586.688	23923.89
587.048	24068.29
587.408	24249.53
587.768	24542.18
588.127	24684.1
588.487	24857.88
588.846	25322.95
589.206	25423.74
589.565	25513.91
589.925	25823.95
590.284	26070.95
590.643	26194.57
591.003	26654.44
591.362	26823.02
591.721	26934.66
592.08	27111.83
592.44	27507.53
592.799	27595.21
593.158	27809.66
593.517	28060.28
593.876	28428.41
594.235	28448.07
594.593	28687.16
594.952	28949.07
595.311	29178.89
595.67	29330.3
596.029	29710.63
596.387	29814.36
596.746	30176.61
597.104	30176.61
597.463	30446.43
597.822	30783.15
598.18	30919.41
598.538	30981.33
598.897	31505.39
599.255	31303.13
599.613	32018.37
599.972	31943.57
600.33	32318.92
600.688	32299.94
601.046	32613.38
601.404	33032.8
601.762	32899.25
602.12	33367.03
602.478	33376.75
602.836	33579.23
603.194	33502.4
603.552	33858.09
603.91	33912.33
604.268	34227.8
604.625	34343.28
604.983	34601.12
605.341	34529.04
605.698	34819.88
606.056	35022.58
606.413	35164.95
606.771	35344.16
607.128	35496.47
607.485	35521.1
607.843	35635
608.2	35907.08
608.557	36091.71
608.914	36203.34
609.272	36354.98
609.629	36645.82
609.986	36695.76
610.343	36670.67
610.7	37214.16
611.057	37081.74
611.414	37217.55
611.771	37403.31
612.127	37621.61
612.484	37602.85
612.841	37926.23
613.198	37799.91
613.554	38039.9
613.911	38243.74
614.267	38273.34
614.624	38392.21
614.98	38523.51
615.337	38775.03
615.693	38754.46
616.05	38660.9
616.406	38996.71
616.762	38926.21
617.118	39135.24
617.475	39222.02
617.831	39332.98
618.187	39334.78
618.543	39503.37
618.899	39814.55
619.255	39764.83
619.611	39638.51
619.967	39986.52
620.323	40106.29
620.678	39930.25
621.034	40008.21
621.39	40201.43
621.746	40107.19
622.101	40517.58
622.457	40117.14
622.812	40518.71
623.168	40645.71
623.523	40588.09
623.879	40741.53
624.234	40498.14
624.589	40685.48
624.945	40784.24
625.3	40841.64
625.655	40942.2
626.01	40902.2
626.365	40940.17
626.72	41017
627.075	41029.66
627.43	40991.01
627.785	41009.32
628.14	41040.5
628.495	41050.45
628.85	41133.38
629.205	41059.94
629.559	41350.55
629.914	41092.25
630.269	41150.33
630.623	41092.93
630.978	41053.16
631.332	41399.59
631.687	41362.53
632.041	41134.96
632.396	41294.06
632.75	41149.43
633.104	41183.1
633.459	41086.83
633.813	41134.29
634.167	41196.2
634.521	41115.98
634.875	41359.82
635.229	41224.45
635.583	41145.58
635.937	41160.5
636.291	40978.58
636.645	41141.29
636.999	41006.83
637.352	41219.71
637.706	40872.6
638.06	41074.63
638.413	40862.65
638.767	40850.68
639.121	40921.64
639.474	40767.52
639.828	40942.65
640.181	40771.13
640.534	40976.78
640.888	40796.89
641.241	40640.06
641.594	40668.08
641.947	40915.53
642.301	40851.58
642.654	40951.24
643.007	40804.58
643.36	40867.4
643.713	40835.99
644.066	40868.98
644.419	40700.17
644.771	40470.35
645.124	39921.89
645.477	40017.25
645.83	39748.11
646.182	39596.25
646.535	39555.8
646.888	39638.51
647.24	39384.5
647.593	39605.06
647.945	39540.66
648.298	39257.27
648.65	39250.27
649.002	39253.66
649.355	39478.74
649.707	39285.52
650.059	39479.19
650.411	39976.12
650.763	39954.88
651.115	40347.41
651.467	40137.7
651.819	40242.78
652.171	40190.13
652.523	40066.74
652.875	40159.62
653.227	39957.37
653.578	40294.08
653.93	40012.28
654.282	39901.32
654.633	39784.94
654.985	39976.12
655.337	40008.89
655.688	39984.71
656.039	40000.53
656.391	39746.3
656.742	39869.69
657.094	39794.66
657.445	39921.21
657.796	39891.83
658.147	39869.01
658.498	39769.35
658.849	39834.43
659.2	39795.34
659.551	39674.44
659.902	39960.08
660.253	39635.57
660.604	39733.19
660.955	39649.13
661.306	39763.93
661.656	39567.32
662.007	39658.17
662.358	39606.87
662.708	39563.71
663.059	39590.37
663.409	39527.55
663.76	39848.44
664.11	39682.12
664.461	39701.33
664.811	39793.08
665.161	39807.77
665.511	39579.98
665.862	39673.76
666.212	39833.98
666.562	39701.1
666.912	39501.33
667.262	39591.73
667.612	39657.26
667.962	39681.89
668.312	39687.54
668.662	39670.37
669.011	39536.14
669.361	39475.57
669.711	39538.85
670.06	39625.4
670.41	39387.89
670.76	39388.79
671.109	39530.49
671.459	39505.4
671.808	39382.92
672.157	39464.5
672.507	39344.28
672.856	39301.57
673.205	39436.03
673.554	39422.69
673.904	39279.87
674.253	39567.32
674.602	39485.29
674.951	38655.71
675.3	38594.24
675.649	39200.1
675.998	39273.54
676.346	39208.91
676.695	39287.33
677.044	39061.12
677.393	39236.03
677.741	39309.93
678.09	39128.46
678.438	39099.08
678.787	39137.95
679.135	39139.76
679.484	38814.35
679.832	39034.45
680.181	38760.34
680.529	38935.02
680.877	38635.37
681.225	38697.97
681.573	38954.91
681.922	38681.69
682.27	38533.45
682.618	38640.79
682.966	38526.9
683.314	38533.22
683.661	38570.74
684.009	38147.25
684.357	38079.45
684.705	38163.06
685.053	38086.68
685.4	38088.94
685.748	38047.81
686.095	37900.02
686.443	37832.9
686.79	37747.71
687.138	37782.51
687.485	37728.73
687.832	37613.7
688.18	37656.86
688.527	37480.14
688.874	37586.81
689.221	37384.33
689.568	37255.29
689.915	37121.74
690.262	37170.1
690.609	37121.06
690.956	37127.84
691.303	37110.89
691.65	36824.34
691.997	36776.43
692.344	36593.84
692.69	36639.49
693.037	36609.21
693.383	36365.6
693.73	36465.93
694.077	36132.61
694.423	36185.26
694.769	36023.91
695.116	36066.17
695.462	36018.26
695.808	35968.77
696.155	35857.14
696.501	35675.22
696.847	35629.35
697.193	35507.09
697.539	35526.3
697.885	35350.93
698.231	35238.85
698.577	35151.39
698.923	35112.3
699.269	35108.46
699.614	34954.79
699.96	34878.63
700.306	34898.97
700.651	34804.51
700.997	34578.07
701.342	34581.24
701.688	34562.48
702.033	34289.27
702.379	34384.63
702.724	34255.37
703.069	34264.18
703.415	33981.93
703.76	34052.66
704.105	33971.54
704.45	33901.03
704.795	33764.31
705.14	33680.24
705.485	33525.45
705.83	33477.76
706.175	33626.91
706.52	33313.47
706.865	33309.18
707.209	33258.33
707.554	32978.57
707.899	33228.28
708.243	33075.97
708.588	33094.27
708.932	32752.59
709.277	32774.96
709.621	32755.3
709.966	32634.17
710.31	32625.36
710.654	32414.29
710.998	32376.1
711.342	32394.85
711.687	32377.23
712.031	32207.51
712.375	32054.75
712.719	32119.61
713.063	32095.88
713.407	32074.18
713.75	31811.14
714.094	31917.35
714.438	31822.44
714.782	31799.62
715.125	31685.49
715.469	31672.84
715.812	31466.97
716.156	31285.51
716.499	31338.16
716.843	31395.78
717.186	31174.32
717.53	31323.92
717.873	31351.94
718.216	31162.8
718.559	31165.73
718.902	30784.73
719.246	30990.82
719.589	30735.92
719.932	30706.31
720.275	30750.83
720.617	30671.28
720.96	30625.18
721.303	30707.22
721.646	30653.66
721.989	30588.57
722.331	30541.8
722.674	30464.28
723.016	30476.94
723.359	30306.55
723.701	30482.81
724.044	30213.22
724.386	30028.81
724.729	30188.58
725.071	30162.6
725.413	30145.2
725.755	30127.8
726.097	30015.48
726.439	29940
726.782	29943.85
727.124	29928.7
727.465	29737.75
727.807	29623.18
728.149	29716.28
728.491	29696.17
728.833	29634.25
729.175	29507.47
729.516	29595.15
729.858	29481.71
730.199	29478.09
730.541	29449.17
730.882	29350.41
731.224	29460.47
731.565	29180.48
731.906	29338.66
732.248	29253.92
732.589	28984.55
732.93	28928.73
733.271	29071.1
733.612	28981.61
733.953	29065.9
734.294	29042.4
734.635	28905.45
734.976	28944.1
735.317	28733.93
735.658	28783.42
735.999	28718.34
736.339	28780.49
736.68	28778
737.021	28631.79
737.361	28508.85
737.702	28693.03
738.042	28463.88
738.383	28538.68
738.723	28621.62
739.063	28289.65
739.404	28363.1
739.744	28350.44
740.084	28247.17
740.424	28235.64
740.764	28186.15
741.104	28338.92
741.444	28183.44
741.784	28074.52
742.124	28149.54
742.464	28163.55
742.804	28051.01
743.143	27894.86
743.483	27907.74
743.823	27769.67
744.162	27726.28
744.502	27767.63
744.841	27614.64
745.181	27689.67
745.52	27759.5
745.86	27617.35
746.199	27678.82
746.538	27447.19
746.877	27453.52
747.216	27578.48
747.556	27466.85
747.895	27420.75
748.234	27256.01
748.573	27214.65
748.911	27245.16
749.25	27270.7
749.589	27081.77
749.928	27086.29
750.267	27126.52
750.605	27114.09
750.944	26985.96
751.283	26884.04
751.621	27007.65
751.96	26823.25
752.298	26834.55
752.636	26772.63
752.975	26710.26
753.313	26573.76
753.651	26711.61
753.989	26484.28
754.327	26483.15
754.666	26388.46
755.004	26470.49
755.342	26473.65
755.679	26260.78
756.017	26167.45
756.355	26302.81
756.693	26177.16
757.031	26296.71
757.368	25971.52
757.706	26029.15
758.044	25868.02
758.381	25941.46
758.719	25865.31
759.056	25786.21
759.394	25676.16
759.731	25483.85
760.068	25509.39
760.405	25350.29
760.743	25285.21
761.08	25348.94
761.417	25196.63
761.754	25077.53
762.091	25086.8
762.428	25067.14
762.765	24882.51
763.102	25021.49
763.438	24829.86
763.775	24711.21
764.112	24712.12
764.449	24755.51
764.785	24609.52
765.122	24459.7
765.458	24334.95
765.795	24411.34
766.131	24367.04
766.467	24177.44
766.804	24145.35
767.14	23996.21
767.476	24034.4
767.812	24044.11
768.148	23942.65
768.485	23829.43
768.821	23539.72
769.157	23647.97
769.492	23619.27
769.828	23567.97
770.164	23244.81
770.5	23274.19
770.836	23371.59
771.171	23128.43
771.507	23044.59
771.842	22885.5
772.178	22865.39
772.513	22857.48
772.849	22787.42
773.184	22658.61
773.519	22670.59
773.855	22458.84
774.19	22421.33
774.525	22353.54
774.86	22351.73
775.195	22378.62
775.53	22188.12
775.865	22084.17
776.2	21948.35
776.535	21803.72
776.87	21826.77
777.205	21786.77
777.539	21579.55
777.874	21574.35
778.209	21434.69
778.543	21441.47
778.878	21296.62
779.212	21294.13
779.547	21088.26
779.881	21193.57
780.215	20982.5
780.55	21049.16
780.884	20845.78
781.218	20989.28
781.552	20820.24
781.886	20716.97
782.22	20607.37
782.554	20557.43
782.888	20317.66
783.222	20316.75
783.556	20222.75
783.889	20219.81
784.223	20068.4
784.557	19945.92
784.89	20140.94
785.224	19902.98
785.557	19804.23
785.891	19771.91
786.224	19722.19
786.558	19618.92
786.891	19556.32
787.224	19400.62
787.557	19360.17
787.891	19386.83
788.224	19306.39
788.557	19341.41
788.89	19153.17
789.223	19132.15
789.556	19014.19
789.888	19041.08
790.221	18922.67
790.554	18823.46
790.887	18812.39
791.219	18715.21
791.552	18672.28
791.884	18645.61
792.217	18496.46
792.549	18431.15
792.882	18361.33
793.214	18277.26
793.546	18256.24
793.879	18125.17
794.211	18013.09
794.543	18148.9
794.875	18072.52
795.207	18071.39
795.539	17945.06
795.871	17959.98
796.203	17817.84
796.535	17701
796.867	17690.83
797.198	17598.63
797.53	17653.1
797.862	17466.21
798.193	17573.32
798.525	17335.59
798.856	17468.69
799.188	17190.51
799.519	17178.76
799.85	17036.61
800.182	17141.24
800.513	17081.58
800.844	16907.13
801.175	16953
801.506	16962.49
801.837	16865.32
802.168	16904.64
802.499	16710.52
802.83	16631.88
803.161	16673.91
803.491	16595.27
803.822	16713.68
804.153	16580.13
804.483	16376.97
804.814	16314.15
805.145	16290.19
805.475	16293.81
805.805	16217.2
806.136	16283.19
806.466	16241.83
806.796	16108.05
807.126	16045.23
807.457	15981.95
807.787	15954.83
808.117	15966.36
808.447	15901.28
808.777	15889.53
809.107	15882.29
809.436	15820.15
809.766	15797.78
810.096	15637.33
810.426	15663.99
810.755	15595.52
811.085	15557.11
811.414	15549.65
811.744	15458.12
812.073	15413.83
812.403	15375.64
812.732	15290.9
813.061	15290.22
813.39	15181.3
813.719	15243.44
814.049	15252.71
814.378	15165.93
814.707	15063.56
815.036	15105.14
815.365	14993.28
815.693	14926.84
816.022	14886.16
816.351	14793.74
816.68	14824.69
817.008	14800.06
817.337	14657.24
817.665	14694.98
817.994	14656.56
818.322	14699.05
818.651	14545.61
818.979	14570.92
819.307	14632.38
819.636	14559.62
819.964	14481.43
820.292	14523.23
820.62	14479.62
820.948	14411.37
821.276	14459.28
821.604	14396.46
821.932	14468.32
822.259	14470.35
822.587	14317.36
822.915	14396.68
823.243	14351.49
823.57	14285.5
823.898	14370.7
824.225	14288.21
824.553	14278.04
824.88	14300.19
825.207	14367.76
825.535	14307.19
825.862	14324.37
826.189	14372.28
826.516	14313.97
826.843	14450.69
827.17	14330.92
827.497	14397.59
827.824	14288.44
828.151	14369.34
828.478	14391.26
828.805	14396.01
829.131	14265.84
829.458	14259.29
829.785	14224.71
830.111	14292.28
830.438	14321.88
830.764	14247.53
831.09	14268.33
831.417	14239.63
831.743	14280.98
832.069	14328.21
832.395	14099.52
832.722	14232.62
833.048	14155.79
833.374	14132.06
833.7	14149.68
834.026	14149.46
834.351	14149.46
834.677	14199.85
835.003	14189.91
835.329	14147.42
835.654	14086.86
835.98	14042.12
836.306	13969.35
836.631	13977.49
836.956	14010.93
837.282	14002.12
837.607	13960.54
837.932	13874.66
838.258	13929.58
838.583	13944.94
838.908	13836.92
839.233	13862.91
839.558	13826.98
839.883	13750.6
840.208	13772.52
840.533	13708.57
840.858	13642.35
841.182	13657.04
841.507	13648.23
841.832	13632.18
842.156	13566.42
842.481	13556.48
842.805	13518.74
843.13	13586.08
843.454	13527.78
843.778	13490.27
844.103	13486.2
844.427	13365.3
844.751	13413.21
845.075	13340.44
845.399	13297.05
845.723	13166.89
846.047	13359.42
846.371	13048.92
846.695	13134.57
847.019	12996.72
847.343	12967.79
847.666	12876.95
847.99	12810.28
848.313	12881.24
848.637	12753.34
848.96	12852.32
849.284	12732.09
849.607	12609.39
849.931	12634.7
850.254	12471.31
850.577	12382.27
850.9	12419.11
851.223	12391.09
851.546	12330.3
851.869	12183.86
852.192	12267.93
852.515	12174.14
852.838	12040.36
853.161	12100.02
853.483	11986.58
853.806	11995.84
854.129	12000.81
854.451	11865.68
854.774	11827.49
855.096	11825.45
855.419	11790.2
855.741	11799.24
856.063	11627.26
856.385	11625.46
856.708	11649.19
857.03	11609.41
857.352	11651.22
857.674	11561.5
857.996	11505.23
858.318	11368.06
858.64	11521.5
858.961	11368.06
859.283	11385.69
859.605	11255.98
859.926	11354.5
860.248	11288.06
860.57	11286.93
860.891	11293.49
861.212	11222.53
861.534	11184.56
861.855	11138.46
862.176	11135.98
862.498	11212.36
862.819	11098.69
863.14	11095.53
863.461	11086.49
863.782	10999.03
864.103	11008.75
864.424	11004
864.745	10933.95
865.065	10940.96
865.386	10913.84
865.707	10858.7
866.027	10883.1
866.348	10863.9
866.668	10911.58
866.989	10835.87
867.309	10794.74
867.63	10766.95
867.95	10737.8
868.27	10684.01
868.59	10705.48
868.91	10706.16
869.23	10639.04
869.55	10588.87
869.87	10665.93
870.19	10677.01
870.51	10649.44
870.83	10617.8
871.15	10576.9
871.469	10527.86
871.789	10521.76
872.109	10514.98
872.428	10455.54
872.748	10499.38
873.067	10514.98
873.386	10429.78
873.706	10430.01
874.025	10398.14
874.344	10352.72
874.663	10486.5
874.982	10358.15
875.301	10347.75
875.62	10271.82
875.939	10303.01
876.258	10358.82
876.577	10277.24
876.896	10270.46
877.214	10226.17
877.533	10262.33
877.852	10247.19
878.17	10173.07
878.489	10261.43
878.807	10179.39
879.125	10110.47
879.444	10168.77
879.762	10083.12
880.08	10099.17
880.398	10059.85
880.716	10101.2
881.034	10124.25
881.352	9999.06
881.67	9959.96
881.988	9950.7
882.306	9976.23
882.624	9886.75
882.941	9883.58
883.259	9826.86
883.577	9869.57
883.894	9759.74
884.212	9820.53
884.529	9804.04
884.846	9764.94
885.164	9733.3
885.481	9672.51
885.798	9730.37
886.115	9640.65
886.432	9652.63
886.75	9658.96
887.067	9593.42
887.383	9581.67
887.7	9635
888.017	9588.67
888.334	9546.19
888.651	9546.64
888.967	9506.19
889.284	9431.39
889.6	9409.02
889.917	9300.32
890.233	9395.69
890.55	9310.94
890.866	9326.76
891.182	9321.79
891.498	9299.19
891.815	9268.68
892.131	9177.61
892.447	9155.01
892.763	9131.74
893.079	9174.9
893.395	9079.99
893.71	9089.93
894.026	9104.17
894.342	9011.29
894.657	8967.45
894.973	8968.13
895.289	8949.14
895.604	8947.79
895.92	8917.96
896.235	8824.17
896.55	8810.84
896.865	8730.39
897.181	8764.06
897.496	8741.92
897.811	8700.56
898.126	8673.9
898.441	8628.93
898.756	8582.6
899.071	8554.8
899.386	8545.31
899.7	8466.22
900.015	8430.06
900.33	8384.41
900.644	8393.68
900.959	8434.35
901.273	8381.7
901.588	8307.13
901.902	8238.88
902.216	8254.47
902.531	8235.49
902.845	8216.73
903.159	8170.86
903.473	8086.12
903.787	8052.67
904.101	8070.3
904.415	8051.99
904.729	8028.26
905.042	7988.72
905.356	7959.56
905.67	7906.23
905.984	7886.57
906.297	7897.65
906.611	7848.61
906.924	7829.85
907.237	7773.35
907.551	7784.88
907.864	7754.6
908.177	7739.46
908.491	7744.66
908.804	7655.62
909.117	7546.24
909.43	7528.16
909.743	7530.65
910.056	7560.93
910.368	7487.03
910.681	7477.77
910.994	7445.91
911.307	7390.77
911.619	7319.13
911.932	7352.35
912.244	7270.09
912.557	7313.25
912.869	7228.28
913.181	7269.41
913.494	7193.26
913.806	7182.86
914.118	7145.57
914.43	7065.12
914.742	7070.32
915.054	7026.26
915.366	7006.82
915.678	7003.66
915.99	6984
916.302	6934.05
916.613	6895.41
916.925	6875.98
917.236	6878.01
917.548	6821.52
917.859	6814.96
918.171	6769.09
918.482	6676.43
918.794	6725.25
919.105	6677.34
919.416	6631.24
919.727	6644.12
920.038	6593.95
920.349	6569.09
920.66	6507.17
920.971	6545.36
921.282	6508.53
921.593	6403.9
921.903	6436.89
922.214	6400.74
922.525	6387.4
922.835	6315.54
923.146	6323.9
923.456	6273.96
923.767	6241.19
924.077	6246.16
924.387	6220.63
924.697	6172.95
925.008	6163
925.318	6147.63
925.628	6154.19
925.938	6128.2
926.248	6046.85
926.558	6080.07
926.867	6066.96
927.177	6001.42
927.487	5928.43
927.796	5905.61
928.106	5875.1
928.416	5875.78
928.725	5840.75
929.034	5830.58
929.344	5812.5
929.653	5797.59
929.962	5743.13
930.271	5692.96
930.581	5750.58
930.89	5679.4
931.199	5659.06
931.508	5657.25
931.817	5634.2
932.125	5659.74
932.434	5579.74
932.743	5545.16
933.051	5482.79
933.36	5463.36
933.669	5472.62
933.977	5500.19
934.286	5442.79
934.594	5438.5
934.902	5360.54
935.21	5328
935.519	5411.61
935.827	5310.37
936.135	5260.43
936.443	5308.11
936.751	5229.92
937.059	5241.22
937.367	5162.8
937.674	5172.29
937.982	5146.98
938.29	5134.55
938.597	5083.26
938.905	5113.76
939.213	5063.6
939.52	5041.68
939.827	5039.64
940.135	5014.78
940.442	4965.97
940.749	4973.65
941.056	4931.17
941.363	4895.92
941.67	4930.94
941.977	4849.59
942.284	4801.91
942.591	4825.64
942.898	4772.53
943.205	4783.15
943.511	4768.24
943.818	4743.6
944.125	4756.26
944.431	4709.25
944.738	4711.51
945.044	4671.29
945.35	4692.31
945.657	4572.76
945.963	4623.61
946.269	4594.68
946.575	4573.89
946.881	4572.54
947.187	4500.9
947.493	4538.64
947.799	4516.49
948.105	4455.02
948.41	4436.72
948.716	4423.16
949.022	4410.73
949.327	4409.38
949.633	4355.37
949.938	4376.16
950.244	4328.47
950.549	4285.54
950.854	4296.16
951.16	4293.9
951.465	4303.62
951.77	4252.09
952.075	4236.5
952.38	4211.41
952.685	4214.8
952.99	4133.22
953.294	4144.3
953.599	4131.87
953.904	4087.8
954.209	4075.83
954.513	4065.88
954.818	4079.21
955.122	4049.39
955.426	4015.94
955.731	4008.03
956.035	3971.65
956.339	3962.83
956.643	3954.02
956.948	3946.11
957.252	3857.75
957.556	3891.88
957.86	3886.23
958.163	3892.33
958.467	3916.51
958.771	3886.9
959.075	3878.32
959.378	3789.5
959.682	3808.04
959.985	3800.8
960.289	3800.35
960.592	3715.38
960.896	3702.73
961.199	3728.26
961.502	3691.65
961.805	3668.83
962.108	3635.84
962.411	3601.49
962.714	3617.08
963.017	3604.2
963.32	3641.26
963.623	3580.7
963.926	3562.17
964.228	3564.88
964.531	3506.12
964.833	3512.9
965.136	3506.12
965.438	3482.17
965.741	3485.11
966.043	3458.44
966.345	3451.89
966.648	3393.58
966.95	3388.39
967.252	3402.4
967.554	3402.4
967.856	3398.1
968.158	3357.88
968.46	3325.56
968.761	3340.25
969.063	3291.89
969.365	3322.62
969.666	3265.45
969.968	3255.51
970.269	3222.29
970.571	3235.62
970.872	3181.84
971.174	3183.19
971.475	3195.4
971.776	3176.41
972.077	3180.48
972.378	3158.11
972.679	3140.48
972.98	3127.15
973.281	3125.57
973.582	3068.85
973.883	3071.78
974.183	3085.34
974.484	3072.69
974.785	3054.61
975.085	3039.92
975.386	3023.2
975.686	3033.59
975.986	2984.1
976.287	3014.38
976.587	2954.72
976.887	2968.51
977.187	2941.39
977.487	2931.45
977.787	2917.21
978.087	2927.83
978.387	2891.22
978.687	2900.26
978.987	2895.07
979.286	2854.39
979.586	2846.03
979.885	2836.08
980.185	2813.71
980.484	2788.85
980.784	2787.72
981.083	2783.88
981.382	2772.81
981.682	2784.33
981.981	2755.86
982.28	2709.76
982.579	2736.43
982.878	2752.24
983.177	2716.99
983.475	2674.05
983.774	2649.65
984.073	2611.68
984.372	2636.09
984.67	2651.23
984.969	2616.88
985.267	2637.9
985.566	2599.48
985.864	2575.53
986.162	2569.88
986.461	2562.42
986.759	2540.05
987.057	2547.5
987.355	2519.71
987.653	2526.04
987.951	2541.63
988.249	2506.37
988.547	2456.88
988.844	2441.74
989.142	2450.11
989.44	2468.18
989.737	2446.94
990.035	2419.37
990.332	2458.69
990.63	2412.59
990.927	2408.07
991.224	2394.74
991.521	2372.14
991.819	2373.27
992.116	2329.66
992.413	2330.11
992.71	2344.12
993.006	2331.24
993.303	2289.88
993.6	2308.41
993.897	2302.54
994.193	2291.92
994.49	2225.93
994.787	2277.68
995.083	2249.43
995.379	2254.86
995.676	2260.96
995.972	2246.27
996.268	2214.41
996.565	2216.44
996.861	2168.98
997.157	2207.4
997.453	2176.67
997.749	2164.24
998.044	2155.2
998.34	2135.54
998.636	2123.33
998.932	2127.4
999.227	2081.98
999.523	2077.91
999.818	2095.76
1000.114	2078.59
1000.409	2060.74
1000.704	2025.48
1001	2048.53
1001.295	1995.43
1001.59	1978.25
1001.885	1999.5
1002.18	2003.56
1002.475	2000.85
1002.77	1982.55
1003.065	1950.46
1003.359	1933.51
1003.654	1929.21
1003.949	1915.88
1004.243	1908.88
1004.538	1899.39
1004.832	1923.57
1005.127	1905.26
1005.421	1870.46
1005.715	1868.65
1006.009	1858.71
1006.304	1850.35
1006.598	1846.51
1006.892	1840.4
1007.186	1828.88
1007.48	1784.13
1007.773	1789.11
1008.067	1790.46
1008.361	1799.05
1008.655	1754.53
1008.948	1782.55
1009.242	1763.8
1009.535	1743.01
1009.829	1728.77
1010.122	1722.89
1010.415	1718.6
1010.708	1697.36
1011.001	1671.37
1011.295	1669.11
1011.588	1691.71
1011.881	1659.62
1012.173	1657.58
1012.466	1656
1012.759	1642.67
1013.052	1639.28
1013.344	1627.75
1013.637	1610.58
1013.93	1606.74
1014.222	1610.58
1014.514	1565.16
1014.807	1554.76
1015.099	1555.89
1015.391	1554.99
1015.683	1528.55
1015.976	1554.08
1016.268	1510.47
1016.56	1509.34
1016.851	1501.43
1017.143	1478.15
1017.435	1477.48
1017.727	1467.31
1018.018	1475.89
1018.31	1468.89
1018.602	1441.09
1018.893	1461.2
1019.185	1429.79
1019.476	1400.87
1019.767	1418.04
1020.058	1408.78
1020.35	1416.91
1020.641	1380.3
1020.932	1374.2
1021.223	1381.66
1021.514	1374.88
1021.804	1332.17
1022.095	1330.59
1022.386	1337.37
1022.677	1338.5
1022.967	1326.74
1023.258	1295.11
1023.548	1301.89
1023.839	1274.32
1024.129	1314.09
1024.419	1265.96
1024.709	1250.14
1025	1283.58
1025.29	1250.81
1025.58	1220.53
1025.87	1246.97
1026.16	1225.5
1026.449	1221.89
1026.739	1195.22
1027.029	1170.36
1027.319	1193.87
1027.608	1204.04
1027.898	1169.69
1028.187	1172.4
1028.477	1144.83
1028.766	1147.54
1029.055	1133.53
1029.344	1148.67
1029.634	1138.28
1029.923	1124.49
1030.212	1120.42
1030.501	1114.1
1030.79	1145.05
1031.078	1097.15
1031.367	1094.89
1031.656	1084.04
1031.945	1077.71
1032.233	1077.49
1032.522	1041.78
1032.81	1070.25
1033.099	1042.46
1033.387	1026.41
1033.675	1050.82
1033.963	1035.68
1034.251	1012.18
1034.54	1028
1034.828	1019.63
1035.116	1000.2
1035.403	988.9
1035.691	992.29
1035.979	999.97
1036.267	985.28
1036.554	960.65
1036.842	968.79
1037.129	975.12
1037.417	966.08
1037.704	984.15
1037.992	963.14
1038.279	945.51
1038.566	936.7
1038.853	936.7
1039.14	936.7
