Data from hue_32_FLMS001491_00092.txt Node
Date: Tue Feb 07 17:24:16 GMT 2017
User: dcchb
Spectrometer: FLMS00149
Trigger mode: 0
Integration Time (sec): 2.000000E-2
Scans to average: 10
Electric dark correction enabled: true
Nonlinearity correction enabled: false
Boxcar width: 0
XAxis mode: Wavelengths
Number of Pixels in Spectrum: 2048
>>>>>Begin Spectral Data<<<<<
341.393	-2.12
341.776	-2.12
342.16	-2.12
342.543	-63.59
342.927	-60.65
343.31	-80.31
343.693	-64.26
344.077	-89.35
344.46	-70.59
344.843	-54.09
345.226	-45.96
345.61	-15.23
345.993	-21.33
346.376	-4.38
346.759	3.3
347.142	38.78
347.525	32.91
347.908	58.9
348.291	91.89
348.674	93.92
349.057	125.79
349.44	142.74
349.823	117.65
350.206	151.32
350.588	176.86
350.971	222.96
351.354	233.81
351.737	240.81
352.119	258.89
352.502	282.85
352.884	271.55
353.267	270.19
353.65	292.11
354.032	293.69
354.414	288.72
354.797	341.38
355.179	319.23
355.562	319.23
355.944	328.04
356.326	320.58
356.709	333.92
357.091	345.89
357.473	338.21
357.855	335.73
358.238	336.63
358.62	367.82
359.002	357.87
359.384	348.61
359.766	364.2
360.148	332.56
360.53	340.25
360.912	341.6
361.294	325.56
361.676	337.76
362.057	345.67
362.439	316.52
362.821	320.58
363.203	321.49
363.584	319.91
363.966	335.27
364.348	327.59
364.729	341.83
365.111	346.12
365.493	331.66
365.874	319.23
366.256	325.56
366.637	319.45
367.019	313.58
367.4	315.61
367.781	304.54
368.163	308.38
368.544	314.26
368.925	304.99
369.306	353.58
369.688	296.4
370.069	326.69
370.45	326.46
370.831	328.72
371.212	329.62
371.593	300.02
371.974	300.02
372.355	334.82
372.736	321.71
373.117	322.17
373.498	308.83
373.879	329.17
374.26	326.46
374.641	322.62
375.021	327.36
375.402	338.89
375.783	326.01
376.163	313.81
376.544	332.56
376.925	321.04
377.305	343.18
377.686	332.79
378.066	342.05
378.447	340.92
378.827	344.54
379.208	347.48
379.588	342.51
379.968	341.15
380.349	364.2
380.729	333.92
381.109	338.66
381.489	346.35
381.87	331.21
382.25	342.51
382.63	330.75
383.01	323.52
383.39	317.42
383.77	356.06
384.15	351.09
384.53	351.32
384.91	351.77
385.29	352.22
385.67	354.93
386.049	352
386.429	371.88
386.809	364.43
387.189	392
387.568	350.41
387.948	351.54
388.328	375.95
388.707	366.23
389.087	375.72
389.466	371.43
389.846	361.49
390.225	375.72
390.605	350.19
390.984	377.76
391.363	363.07
391.743	361.04
392.122	367.14
392.501	358.55
392.881	383.86
393.26	377.76
393.639	398.1
394.018	391.09
394.397	375.95
394.776	380.92
395.155	393.8
395.534	402.62
395.913	364.2
396.292	384.99
396.671	379.11
397.05	389.74
397.429	413.92
397.808	377.98
398.186	386.35
398.565	412.79
398.944	418.66
399.323	393.35
399.701	425.89
400.08	418.21
400.458	416.63
400.837	412.33
401.215	410.75
401.594	411.2
401.972	410.75
402.351	412.33
402.729	424.08
403.107	422.28
403.486	404.65
403.864	421.37
404.242	404.2
404.62	413.01
404.999	429.06
405.377	435.61
405.755	441.26
406.133	431.54
406.511	439.23
406.889	443.29
407.267	433.58
407.645	456.85
408.023	450.75
408.401	462.5
408.779	444.65
409.156	441.26
409.534	439.68
409.912	457.53
410.29	460.92
410.667	463.18
411.045	460.92
411.422	452.33
411.8	462.5
412.178	455.27
412.555	467.93
412.933	503.86
413.31	474.71
413.687	483.97
414.065	478.09
414.442	493.91
414.819	497.3
415.197	506.57
415.574	486.68
415.951	511.31
416.328	501.15
416.705	507.25
417.082	500.92
417.46	511.77
417.837	514.25
418.214	532.33
418.591	504.31
418.967	532.1
419.344	505.21
419.721	521.26
420.098	533.69
420.475	521.03
420.852	529.62
421.228	530.07
421.605	549.28
421.982	544.08
422.358	528.94
422.735	572.1
423.111	554.02
423.488	545.21
423.864	590.41
424.241	592.22
424.617	582.72
424.994	547.25
425.37	573.23
425.746	578.88
426.123	600.13
426.499	587.47
426.875	611.42
427.251	591.09
427.627	605.32
428.003	591.54
428.379	592.89
428.756	609.39
429.132	621.82
429.507	633.34
429.883	615.49
430.259	661.82
430.635	616.4
431.011	644.87
431.387	651.42
431.763	644.19
432.138	637.19
432.514	655.72
432.89	667.69
433.265	673.8
433.641	653.68
434.016	661.59
434.392	678.99
434.767	692.33
435.143	692.55
435.518	694.36
435.894	721.25
436.269	719.67
436.644	688.48
437.02	726.9
437.395	720.12
437.77	718.99
438.145	751.53
438.52	751.53
438.895	731.2
439.271	746.79
439.646	743.62
440.021	770.97
440.395	779.78
440.77	755.15
441.145	759.44
441.52	789.27
441.895	769.16
442.27	803.51
442.645	764.19
443.019	806.22
443.394	795.83
443.769	821.81
444.143	798.76
444.518	812.32
444.892	841.25
445.267	825.66
445.641	851.19
446.016	821.14
446.39	838.31
446.764	819.78
447.139	843.96
447.513	848.71
447.887	860.46
448.262	851.19
448.636	855.26
449.01	864.07
449.384	849.16
449.758	886.45
450.132	868.82
450.506	881.25
450.88	883.51
451.254	900
451.628	930.74
452.002	899.78
452.376	916.95
452.75	920.57
453.123	950.17
453.497	943.62
453.871	945.65
454.244	980.23
454.618	989.49
454.992	978.42
455.365	985.65
455.739	1013
456.112	1017.52
456.486	1026.55
456.859	1046.22
457.232	1038.31
457.606	1051.19
457.979	1044.63
458.352	1056.61
458.725	1107.46
459.099	1109.94
459.472	1101.13
459.845	1113.11
460.218	1137.74
460.591	1117.17
460.964	1136.61
461.337	1161.92
461.71	1176.16
462.083	1205.76
462.456	1186.32
462.829	1201.69
463.201	1198.08
463.574	1201.47
463.947	1222.26
464.32	1255.93
464.692	1280.33
465.065	1293.89
465.438	1289.15
465.81	1345.42
466.183	1351.29
466.555	1355.36
466.928	1356.26
467.3	1376.6
467.672	1393.78
468.045	1421.8
468.417	1424.96
468.789	1438.52
469.161	1435.58
469.534	1485.53
469.906	1524.39
470.278	1533.21
470.65	1532.76
471.022	1586.77
471.394	1613.21
471.766	1633.32
472.138	1658.63
472.51	1699.08
472.882	1711.96
473.253	1736.82
473.625	1751.28
473.997	1804.39
474.369	1822.92
474.74	1852.52
475.112	1876.25
475.484	1902.92
475.855	1947.21
476.227	1993.76
476.598	2050.71
476.97	2068.34
477.341	2118.73
477.713	2168.67
478.084	2179.07
478.455	2252.29
478.827	2278.27
479.198	2363.47
479.569	2415.9
479.94	2440.53
480.311	2499.51
480.682	2581.77
481.053	2614.31
481.424	2675.78
481.795	2754.65
482.166	2793.51
482.537	2803.91
482.908	2919.39
483.279	2976.33
483.65	3040.97
484.021	3128.87
484.391	3206.84
484.762	3241.64
485.133	3311.24
485.503	3393.27
485.874	3473.5
486.244	3513.27
486.615	3605.24
486.985	3683.89
487.356	3767.73
487.726	3841.4
488.097	3929.98
488.467	3979.7
488.837	4087.72
489.207	4140.82
489.578	4255.85
489.948	4336.07
490.318	4441.38
490.688	4424.66
491.058	4563.86
491.428	4634.82
491.798	4703.52
492.168	4844.53
492.538	4884.53
492.908	4972.67
493.278	5076.39
493.648	5133.79
494.017	5162.94
494.387	5285.88
494.757	5374.46
495.126	5422.6
495.496	5440
495.866	5553.67
496.235	5647.68
496.605	5699.88
496.974	5773.1
497.344	5833.43
497.713	5854.45
498.082	5939.19
498.452	6048.34
498.821	6091.96
499.19	6199.75
499.559	6241.79
499.928	6371.05
500.298	6328.11
500.667	6480.2
501.036	6469.8
501.405	6513.42
501.774	6595.45
502.143	6692.39
502.512	6688.55
502.88	6796.57
503.249	6820.53
503.618	6903.01
503.987	6956.12
504.356	6932.84
504.724	7022.78
505.093	7066.85
505.462	7078.83
505.83	7156.56
506.199	7263.91
506.567	7366.5
506.936	7343.45
507.304	7404.92
507.672	7481.53
508.041	7549.1
508.409	7561.07
508.777	7716.77
509.145	7728.53
509.514	7715.64
509.882	7816.43
510.25	7780.5
510.618	7859.14
510.986	7932.59
511.354	7976.65
511.722	8012.36
512.09	8125.58
512.458	8107.72
512.826	8177.55
513.193	8228.17
513.561	8263.88
513.929	8326.7
514.297	8433.82
514.664	8476.08
515.032	8502.29
515.4	8569.86
515.767	8570.54
516.135	8621.84
516.502	8582.29
516.869	8774.37
517.237	8745.22
517.604	8720.82
517.972	8823.19
518.339	8918.32
518.706	8974.14
519.073	8940.02
519.44	8946.35
519.808	9086.91
520.175	9007.81
520.542	9221.14
520.909	9271.54
521.276	9241.48
521.643	9374.13
522.009	9381.59
522.376	9411.87
522.743	9392.21
523.11	9525.99
523.477	9668.59
523.843	9617.97
524.21	9767.34
524.577	9755.59
524.943	9904.51
525.31	9835.81
525.676	9978.86
526.043	10029.71
526.409	10045.53
526.776	10146.99
527.142	10143.38
527.508	10203.26
527.874	10344.05
528.241	10356.93
528.607	10387.66
528.973	10490.49
529.339	10474.44
529.705	10557.38
530.071	10687.54
530.437	10699.07
530.803	10790.82
531.169	10791.95
531.535	10831.49
531.901	10813.64
532.267	10897.93
532.632	11039.62
532.998	11104.93
533.364	11142.22
533.73	11135.22
534.095	11236.46
534.461	11224.7
534.826	11295.66
535.192	11333.85
535.557	11323.69
535.923	11341.76
536.288	11484.36
536.653	11526.17
537.019	11532.04
537.384	11571.81
537.749	11594.19
538.114	11659.5
538.479	11680.74
538.845	11775.88
539.21	11795.99
539.575	11846.61
539.94	11882.09
540.305	12001.41
540.67	11978.36
541.034	11993.72
541.399	12043.89
541.764	12083.21
542.129	12155.3
542.494	12219.71
542.858	12250.67
543.223	12320.04
543.587	12321.63
543.952	12401.62
544.316	12463.54
544.681	12501.06
545.045	12546.25
545.41	12660.37
545.774	12639.13
546.138	12626.25
546.503	12709.86
546.867	12766.36
547.231	12860.82
547.595	12918.67
547.959	12902.4
548.324	12985.34
548.688	12952.34
549.052	13000.93
549.416	13106.69
549.779	13108.5
550.143	13201.83
550.507	13214.26
550.871	13329.73
551.235	13236.63
551.599	13419.68
551.962	13419.45
552.326	13364.54
552.689	13511.65
553.053	13413.57
553.417	13511.42
553.78	13706.67
554.143	13611.99
554.507	13654.25
554.87	13718.88
555.234	13861.02
555.597	13740.8
555.96	13882.71
556.323	13927.68
556.686	13938.08
557.05	14010.62
557.413	14099.43
557.776	14046.55
558.139	14242.25
558.502	14161.58
558.865	14247.22
559.228	14335.58
559.59	14375.58
559.953	14441.12
560.316	14542.58
560.679	14453.77
561.041	14685.86
561.404	14642.47
561.767	14683.37
562.129	14728.79
562.492	14855.34
562.854	14781.22
563.217	14885.63
563.579	14921.56
563.941	14975.79
564.304	15049.46
564.666	15137.14
565.028	15187.54
565.39	15245.84
565.753	15296.91
566.115	15247.42
566.477	15414.2
566.839	15367.87
567.201	15473.41
567.563	15575.55
567.925	15667.07
568.287	15677.47
568.648	15705.49
569.01	15857.13
569.372	15875.43
569.734	15875.88
570.095	15977.12
570.457	15907.97
570.819	16102.54
571.18	16053.5
571.542	16162.65
571.903	16317.68
572.265	16327.17
572.626	16413.27
572.987	16411.24
573.349	16533.27
573.71	16700.95
574.071	16793.15
574.432	16793.6
574.794	16980.03
575.155	17009.41
575.516	16983.2
575.877	17154.49
576.238	17181.84
576.599	17343.19
576.96	17450.76
577.32	17514.71
577.681	17655.72
578.042	17806.45
578.403	17950.86
578.763	18003.96
579.124	18170.96
579.485	18248.93
579.845	18514.46
580.206	18645.75
580.566	18718.52
580.927	18855.24
581.287	19091.16
581.648	19170.03
582.008	19406.64
582.368	19461.32
582.728	19621.55
583.089	19909
583.449	20111.02
583.809	20170.91
584.169	20483.44
584.529	20501.07
584.889	20844.56
585.249	21018.57
585.609	21161.84
585.969	21487.03
586.329	21602.29
586.688	21894.93
587.048	22132.67
587.408	22194.13
587.768	22481.58
588.127	22830.05
588.487	22969.48
588.846	23453.99
589.206	23457.38
589.565	23603.14
589.925	24031.6
590.284	24262.55
590.643	24523.34
591.003	24804.69
591.362	25196.54
591.721	25433.37
592.08	25608.96
592.44	25886.47
592.799	26210.75
593.158	26399.45
593.517	26696.84
593.876	27005.31
594.235	27224.06
594.593	27348.57
594.952	27808.45
595.311	28023.59
595.67	28283.24
596.029	28656.56
596.387	28909.89
596.746	29196.44
597.104	29328.64
597.463	29488.63
597.822	29979.01
598.18	30081.84
598.538	30425.1
598.897	30817.18
599.255	30711.42
599.613	31382.59
599.972	31484.29
600.33	31759.98
600.688	31807.21
601.046	32231.61
601.404	32562
601.762	32641.99
602.12	33086.95
602.478	33153.17
602.836	33429.32
603.194	33473.61
603.552	33799.48
603.91	33836.31
604.268	34218.45
604.625	34370.54
604.983	34645.56
605.341	34770.98
605.698	35198.09
606.056	35235.15
606.413	35438.76
606.771	35525.76
607.128	35809.37
607.485	35885.98
607.843	36170.49
608.2	36480.09
608.557	36690.02
608.914	36631.27
609.272	36998.72
609.629	37255.66
609.986	37500.4
610.343	37487.07
610.7	37923.21
611.057	37904.46
611.414	38157.33
611.771	38331.56
612.127	38441.16
612.484	38494.27
612.841	38814.26
613.198	38865.33
613.554	38909.85
613.911	39239.56
614.267	39466
614.624	39456.28
614.98	39648.59
615.337	39831.64
615.693	39974.46
616.05	39863.95
616.406	40341.23
616.762	40153.44
617.118	40335.58
617.475	40370.38
617.831	40639.52
618.187	40833.64
618.543	40880.42
618.899	41193.18
619.255	41172.84
619.611	41285.16
619.967	41456.9
620.323	41588.43
620.678	41628.43
621.034	41592.04
621.39	41754.3
621.746	41663.23
622.101	42212.36
622.457	41870.68
622.812	41943.45
623.168	42258.92
623.523	42252.36
623.879	42492.36
624.234	42207.62
624.589	42459.14
624.945	42375.3
625.3	42586.82
625.655	42634.73
626.01	42655.29
626.365	42749.98
626.72	42772.35
627.075	42597.21
627.43	42778.45
627.785	42746.81
628.14	42964.21
628.495	42923.98
628.85	42824.33
629.205	42868.17
629.559	43150.19
629.914	43047.82
630.269	43161.27
630.623	43043.98
630.978	43033.13
631.332	43281.49
631.687	43324.43
632.041	43212.79
632.396	43276.52
632.75	43063.42
633.104	43188.61
633.459	43032.46
633.813	43239
634.167	43078.33
634.521	43080.36
634.875	43053.25
635.229	43021.38
635.583	43033.36
635.937	43041.72
636.291	43012.34
636.645	43043.3
636.999	43008.95
637.352	43161.72
637.706	43003.08
638.06	42979.58
638.413	42992.91
638.767	43036.07
639.121	43145.22
639.474	42739.13
639.828	42867.94
640.181	43014.6
640.534	42834.04
640.888	42745.01
641.241	42687.83
641.594	42752.69
641.947	42861.39
642.301	42883.99
642.654	42803.08
643.007	42916.53
643.36	42952.23
643.713	42879.24
644.066	42890.76
644.419	42749.3
644.771	42678.12
645.124	42124.46
645.477	42093.5
645.83	41888.76
646.182	41717.69
646.535	41617.58
646.888	41641.76
647.24	41444.7
647.593	41658.71
647.945	41491.93
648.298	41489.22
648.65	41363.12
649.002	41198.61
649.355	41429.56
649.707	41438.37
650.059	41658.25
650.411	42198.13
650.763	42120.62
651.115	42517.89
651.467	42302.98
651.819	42394.96
652.171	42251.69
652.523	42251.23
652.875	42227.51
653.227	42051.92
653.578	42352.25
653.93	42206.49
654.282	42126.49
654.633	42081.97
654.985	42074.52
655.337	42102.99
655.688	42072.03
656.039	42321.51
656.391	42033.84
656.742	42041.97
657.094	42062.31
657.445	42180.05
657.796	42069.54
658.147	41952.71
658.498	41941.86
658.849	42122.88
659.2	41951.58
659.551	41941.64
659.902	41982.31
660.253	41883.56
660.604	42085.59
660.955	41791.58
661.306	42004.69
661.656	41772.38
662.007	41947.51
662.358	41904.12
662.708	41923.11
663.059	41909.1
663.409	41700.74
663.76	41949.09
664.11	41934.41
664.461	41968.08
664.811	41879.94
665.161	41855.09
665.511	41733.73
665.862	41956.33
666.212	41919.04
666.562	41845.37
666.912	41729.89
667.262	41664.81
667.612	41496.9
667.962	41754.3
668.312	41722.66
668.662	41843.11
669.011	41770.34
669.361	41635.66
669.711	41646.96
670.06	41661.64
670.41	41654.87
670.76	41645.6
671.109	41728.76
671.459	41599.73
671.808	41547.98
672.157	41770.12
672.507	41448.54
672.856	41534.64
673.205	41531.93
673.554	41685.37
673.904	41482.21
674.253	41785.26
674.602	41742.32
674.951	40870.71
675.3	40918.39
675.649	41461.2
675.998	41390.69
676.346	41369.9
676.695	41507.52
677.044	41302.33
677.393	41311.15
677.741	41471.82
678.09	41258.04
678.438	41187.31
678.787	41285.61
679.135	41347.75
679.484	41058.04
679.832	41093.07
680.181	40913.64
680.529	41094.43
680.877	40907.09
681.225	40853.3
681.573	41151.6
681.922	40894.21
682.27	40722.69
682.618	40661.67
682.966	40635.91
683.314	40711.39
683.661	40648.34
684.009	40447.44
684.357	40337.84
684.705	40330.61
685.053	40424.39
685.4	40335.35
685.748	40105.75
686.095	40172.19
686.443	39966.1
686.79	39954.12
687.138	40101.69
687.485	39972.88
687.832	39813.11
688.18	39837.96
688.527	39749.38
688.874	39736.27
689.221	39569.04
689.568	39440.69
689.915	39502.38
690.262	39488.37
690.609	39260.35
690.956	39194.14
691.303	39240.01
691.65	39034.14
691.997	38977.42
692.344	38698.78
692.69	38702.85
693.037	38672.8
693.383	38312.13
693.73	38588.96
694.077	38359.36
694.423	38332.01
694.769	38199.36
695.116	38217.44
695.462	38085.02
695.808	37964.57
696.155	38029.2
696.501	37779.03
696.847	37829.2
697.193	37639.83
697.539	37626.95
697.885	37462.89
698.231	37320.74
698.577	37266.96
698.923	37291.14
699.269	36986.97
699.614	36965.72
699.96	36995.1
700.306	36950.13
700.651	36583.13
700.997	36552.63
701.342	36471.05
701.688	36467.66
702.033	36341.78
702.379	36295.68
702.724	36237.83
703.069	36313.08
703.415	35765.3
703.76	35829.03
704.105	36159.64
704.45	35864.73
704.795	35622.48
705.14	35591.75
705.485	35663.61
705.83	35528.7
706.175	35616.61
706.52	35528.7
706.865	35192.21
707.209	35231.98
707.554	35198.31
707.899	35057.98
708.243	34853.69
708.588	34805.1
708.932	34613.47
709.277	34653.02
709.621	34843.29
709.966	34373.47
710.31	34601.04
710.654	34270.65
710.998	34252.12
711.342	34385
711.687	34198.79
712.031	34165.57
712.375	33928.74
712.719	34107.94
713.063	33972.13
713.407	34035.63
713.75	33792.25
714.094	33764
714.438	33685.36
714.782	33722.19
715.125	33571.24
715.469	33538.69
715.812	33404.46
716.156	33193.39
716.499	33369.89
716.843	33248.98
717.186	33145.26
717.53	33271.58
717.873	33248.08
718.216	33035.2
718.559	32989.33
718.902	32707.98
719.246	32750.92
719.589	32672.95
719.932	32595.67
720.275	32711.6
720.617	32551.6
720.96	32554.99
721.303	32488.55
721.646	32521.55
721.989	32260.08
722.331	32418.72
722.674	32320.87
723.016	32312.74
723.359	32248.78
723.701	32308.44
724.044	32056.02
724.386	31937.38
724.729	31986.42
725.071	31866.2
725.413	31947.32
725.755	31894.22
726.097	31757.72
726.439	31649.03
726.782	31604.73
727.124	31754.33
727.465	31568.35
727.807	31680.21
728.149	31449.94
728.491	31461.01
728.833	31448.58
729.175	31360.45
729.516	31323.39
729.858	31240.22
730.199	31273.44
730.541	31214.01
730.882	31071.41
731.224	31135.37
731.565	30947.12
731.906	31033
732.248	30950.51
732.589	30779.9
732.93	30764.08
733.271	30744.19
733.612	30802.04
733.953	30879.33
734.294	30700.58
734.635	30572.67
734.976	30776.06
735.317	30499.68
735.658	30441.15
735.999	30453.8
736.339	30384.65
736.68	30330.64
737.021	30423.07
737.361	30264.66
737.702	30359.34
738.042	30451.77
738.383	30306.91
738.723	30174.94
739.063	30155.96
739.404	30252.45
739.744	30045.45
740.084	30029.63
740.424	30049.97
740.764	29979.24
741.104	29943.76
741.444	29754.39
741.784	29710.77
742.124	29817.89
742.464	29769.98
742.804	29583.77
743.143	29710.55
743.483	29543.77
743.823	29515.98
744.162	29515.52
744.502	29618.35
744.841	29411.12
745.181	29507.84
745.52	29393.04
745.86	29280.95
746.199	29380.16
746.538	29225.36
746.877	29360.05
747.216	29239.82
747.556	29154.4
747.895	29149.21
748.234	28952.37
748.573	28950.34
748.911	28962.54
749.25	28870.79
749.589	28887.74
749.928	28855.2
750.267	28793.96
750.605	28818.14
750.944	28706.05
751.283	28645.72
751.621	28780.63
751.96	28496.57
752.298	28604.59
752.636	28648.43
752.975	28384.25
753.313	28282.79
753.651	28365.27
753.989	28125.96
754.327	28092.06
754.666	28059.29
755.004	28078.05
755.342	28021.33
755.679	27980.87
756.017	27818.84
756.355	28051.38
756.693	27719.41
757.031	27892.97
757.368	27686.42
757.706	27659.98
758.044	27543.82
758.381	27698.85
758.719	27616.14
759.056	27493.66
759.394	27443.26
759.731	27234.68
760.068	27121.91
760.405	27086.66
760.743	27099.09
761.08	27122.82
761.417	26911.3
761.754	26860.45
762.091	26822.03
762.428	26833.79
762.765	26509.05
763.102	26669.95
763.438	26508.14
763.775	26461.59
764.112	26376.17
764.449	26463.17
764.785	26363.52
765.122	26110.42
765.458	25959.46
765.795	25921.04
766.131	26017.99
766.467	25760.82
766.804	25730.76
767.14	25684.44
767.476	25576.19
767.812	25490.54
768.148	25614.83
768.485	25312.92
768.821	25303.88
769.157	25204.45
769.492	25084
769.828	25078.13
770.164	24869.77
770.5	24900.05
770.836	24883.33
771.171	24695.54
771.507	24590.23
771.842	24405.6
772.178	24428.88
772.513	24394.53
772.849	24274.53
773.184	24181.65
773.519	24176.45
773.855	24060.75
774.19	23976.46
774.525	23900.98
774.86	23902.11
775.195	23761.1
775.53	23712.51
775.865	23584.38
776.2	23343.71
776.535	23289.47
776.87	23296.03
777.205	23133.77
777.539	23059.65
777.874	23085.64
778.209	22913.89
778.543	22836.38
778.878	22661.47
779.212	22706.89
779.547	22594.35
779.881	22543.73
780.215	22414.02
780.55	22470.51
780.884	22335.15
781.218	22234.58
781.552	22287.01
781.886	22135.83
782.22	21992.33
782.554	21926.12
782.888	21800.7
783.222	21694.49
783.556	21546.47
783.889	21536.75
784.223	21394.83
784.557	21346.25
784.89	21390.09
785.224	21263.54
785.557	21092.24
785.891	21089.76
786.224	21060.15
786.558	20960.04
786.891	20773.15
787.224	20677.34
787.557	20712.36
787.891	20616.55
788.224	20588.75
788.557	20633.72
788.89	20475.54
789.223	20421.75
789.556	20301.98
789.888	20294.07
790.221	20146.28
790.554	20094.98
790.887	20075.09
791.219	19983.34
791.552	19896.57
791.884	19887.98
792.217	19767.08
792.549	19695.22
792.882	19627.2
793.214	19526.18
793.546	19502.45
793.879	19405.96
794.211	19310.14
794.543	19311.72
794.875	19278.73
795.207	19347.2
795.539	19210.94
795.871	19207.32
796.203	18980.89
796.535	18977.95
796.867	18833.54
797.198	18799.87
797.53	18765.07
797.862	18710.16
798.193	18702.25
798.525	18590.16
798.856	18676.26
799.188	18402.37
799.519	18385.87
799.85	18214.13
800.182	18289.38
800.513	18209.83
800.844	18054.58
801.175	18104.3
801.506	18127.57
801.837	18015.03
802.168	18037.41
802.499	17809.39
802.83	17789.96
803.161	17750.18
803.491	17806.9
803.822	17701.6
804.153	17566.23
804.483	17555.61
804.814	17470.87
805.145	17446.46
805.475	17428.38
805.805	17396.75
806.136	17339.35
806.466	17307.03
806.796	17328.5
807.126	17174.6
807.457	17010.77
807.787	17071.1
808.117	16988.62
808.447	16897.1
808.777	17012.58
809.107	16916.08
809.436	16861.17
809.766	16775.75
810.096	16757.21
810.426	16822.52
810.755	16689.19
811.085	16643.55
811.414	16581.85
811.744	16538.46
812.073	16531.91
812.403	16417.79
812.732	16409.88
813.061	16373.95
813.39	16311.12
813.719	16279.71
814.049	16331.01
814.378	16215.99
814.707	16108.42
815.036	16178.92
815.365	16071.36
815.693	15863.9
816.022	15918.59
816.351	15835.43
816.68	15759.05
817.008	15884.47
817.337	15698.49
817.665	15632.05
817.994	15747.75
818.322	15635.21
818.651	15622.1
818.979	15573.29
819.307	15543.69
819.636	15509.34
819.964	15469.79
820.292	15518.6
820.62	15438.38
820.948	15360.19
821.276	15425.72
821.604	15402
821.932	15467.31
822.259	15394.31
822.587	15294.2
822.915	15359.29
823.243	15357.93
823.57	15344.82
823.898	15345.27
824.225	15265.95
824.553	15282.45
824.88	15288.78
825.207	15295.33
825.535	15292.39
825.862	15288.33
826.189	15254.43
826.516	15265.5
826.843	15332.85
827.17	15311.38
827.497	15378.04
827.824	15305.95
828.151	15278.16
828.478	15237.03
828.805	15355.9
829.131	15324.48
829.458	15285.39
829.785	15200.87
830.111	15296.01
830.438	15398.83
830.764	15276.12
831.09	15319.96
831.417	15171.04
831.743	15253.98
832.069	15230.48
832.395	15182.11
832.722	15135.11
833.048	15150.03
833.374	15224.83
833.7	15109.12
834.026	15068.9
834.351	15134.66
834.677	15024.38
835.003	15122.68
835.329	15034.1
835.654	15038.84
835.98	15040.42
836.306	14938.73
836.631	14944.38
836.956	15022.12
837.282	15029.35
837.607	14935.34
837.932	14880.88
838.258	14894.66
838.583	14889.69
838.908	14713.43
839.233	14790.71
839.558	14680.66
839.883	14668.68
840.208	14612.19
840.533	14677.5
840.858	14606.08
841.182	14699.64
841.507	14588.46
841.832	14517.05
842.156	14513.66
842.481	14540.1
842.805	14503.71
843.13	14443.6
843.454	14397.95
843.778	14364.51
844.103	14305.98
844.427	14326.77
844.751	14322.93
845.075	14203.38
845.399	14229.37
845.723	14091.97
846.047	14176.27
846.371	14016.5
846.695	14018.08
847.019	13878.19
847.343	13919.32
847.666	13729.95
847.99	13817.41
848.313	13771.3
848.637	13671.65
848.96	13607.47
849.284	13581.03
849.607	13472.78
849.931	13479.33
850.254	13441.14
850.577	13315.72
850.9	13181.72
851.223	13192.34
851.546	13162.06
851.869	13107.14
852.192	13117.99
852.515	12942.4
852.838	12907.82
853.161	12959.8
853.483	12847.26
853.806	12770.2
854.129	12754.38
854.451	12693.59
854.774	12637.32
855.096	12666.7
855.419	12598.45
855.741	12540.38
856.063	12566.36
856.385	12526.82
856.708	12412.47
857.03	12449.76
857.352	12414.96
857.674	12326.37
857.996	12298.35
858.318	12309.2
858.64	12255.64
858.961	12172.02
859.283	12217.9
859.605	12153.95
859.926	12176.54
860.248	12111.91
860.57	12052.93
860.891	12118.47
861.212	11930
861.534	11929.32
861.855	11846.61
862.176	11962.76
862.498	11853.16
862.819	11829.21
863.14	11764.35
863.461	11741.08
863.782	11763.45
864.103	11799.6
864.424	11783.56
864.745	11738.82
865.065	11685.71
865.386	11624.69
865.707	11577.46
866.027	11657.91
866.348	11537.01
866.668	11552.38
866.989	11543.34
867.309	11461.31
867.63	11521.42
867.95	11487.97
868.27	11388.54
868.59	11393.97
868.91	11346.96
869.23	11419.28
869.55	11353.74
869.87	11356.9
870.19	11392.38
870.51	11396
870.83	11307.19
871.15	11275.32
871.469	11214.76
871.789	11324.36
872.109	11301.99
872.428	11220.41
872.748	11199.39
873.067	11192.39
873.386	11215.67
873.706	11132.73
874.025	11039.62
874.344	11166.63
874.663	11083.92
874.982	11130.92
875.301	11085.95
875.62	11071.49
875.939	11021.32
876.258	11068.78
876.577	10961.21
876.896	10994.65
877.214	10895.9
877.533	10949.68
877.852	10874.43
878.17	10925.96
878.489	10881.66
878.807	10856.8
879.125	10853.64
879.444	10818.16
879.762	10795.56
880.08	10814.55
880.398	10779.74
880.716	10798.28
881.034	10747.43
881.352	10652.74
881.67	10670.6
881.988	10612.29
882.306	10632.86
882.624	10570.03
882.941	10581.78
883.259	10495.23
883.577	10472.18
883.894	10514.22
884.212	10489.13
884.529	10465.63
884.846	10365.97
885.164	10391.05
885.481	10384.27
885.798	10327.1
886.115	10325.29
886.432	10294.79
886.75	10320.1
887.067	10295.24
887.383	10233.54
887.7	10181.57
888.017	10120.33
888.334	10179.31
888.651	10100.44
888.967	10136.37
889.284	10094.79
889.6	10064.28
889.917	9988.35
890.233	10037.62
890.55	9984.74
890.866	9995.58
891.182	9903.84
891.498	9973.44
891.815	9862.48
892.131	9810.96
892.447	9768.47
892.763	9786.55
893.079	9772.77
893.395	9691.64
893.71	9603.28
894.026	9637.18
894.342	9605.54
894.657	9544.98
894.973	9528.03
895.289	9505.43
895.604	9561.25
895.92	9451.87
896.235	9411.87
896.55	9365.32
896.865	9393.11
897.181	9356.51
897.496	9317.41
897.811	9286.22
898.126	9243.29
898.441	9164.65
898.756	9140.47
899.071	9135.95
899.386	9163.06
899.7	9059.79
900.015	9057.3
900.33	9036.74
900.644	8989.96
900.959	9022.73
901.273	8955.61
901.588	8891.21
901.902	8818.21
902.216	8800.59
902.531	8780.93
902.845	8786.12
903.159	8768.27
903.473	8648.73
903.787	8615.96
904.101	8627.94
904.415	8656.18
904.729	8599.01
905.042	8559.69
905.356	8504.32
905.67	8453.93
905.984	8500.03
906.297	8424.1
906.611	8449.41
906.924	8392.69
907.237	8298.91
907.551	8315.18
907.864	8310.66
908.177	8263.2
908.491	8168.29
908.804	8201.73
909.117	8093.49
909.43	8071.79
909.743	8091.23
910.056	8089.65
910.368	8001.96
910.681	7959.48
910.994	7968.97
911.307	7846.94
911.619	7882.65
911.932	7862.99
912.244	7845.36
912.557	7819.14
912.869	7632.93
913.181	7669.32
913.494	7730.56
913.806	7575.31
914.118	7626.16
914.43	7578.7
914.742	7535.08
915.054	7546.16
915.366	7491.92
915.678	7445.82
915.99	7392.72
916.302	7324.02
916.613	7376.44
916.925	7319.95
917.236	7310.46
917.548	7260.74
917.859	7251.93
918.171	7203.12
918.482	7171.03
918.794	7090.8
919.105	7169.44
919.416	7089.45
919.727	7077.47
920.038	7047.41
920.349	7000.64
920.66	6957.47
920.971	6989.56
921.282	6926.96
921.593	6945.04
921.903	6837.48
922.214	6805.84
922.525	6821.43
922.835	6753.18
923.146	6694.43
923.456	6725.61
923.767	6667.99
924.077	6616.92
924.387	6610.14
924.697	6555.22
925.008	6586.86
925.318	6513.64
925.628	6546.64
925.938	6465.28
926.248	6396.58
926.558	6366.75
926.867	6411.27
927.177	6356.36
927.487	6412.4
927.796	6263.48
928.106	6303.25
928.416	6325.62
928.725	6244.72
929.034	6220.09
929.344	6174.22
929.653	6209.92
929.962	6115.91
930.271	6098.51
930.581	6068.91
930.89	6046.76
931.199	6056.25
931.508	6000.21
931.817	5967.22
932.125	5944.62
932.434	5975.13
932.743	5884.28
933.051	5843.15
933.36	5824.17
933.669	5805.86
933.977	5830.95
934.286	5717.96
934.594	5742.36
934.902	5723.15
935.21	5659.2
935.519	5644.06
935.827	5682.7
936.135	5611.29
936.443	5575.59
936.751	5538.75
937.059	5543.27
937.367	5493.78
937.674	5516.38
937.982	5479.55
938.29	5463.5
938.597	5473.44
938.905	5360
939.213	5348.48
939.52	5360.23
939.827	5338.53
940.135	5312.54
940.442	5282.04
940.749	5273.67
941.056	5260.57
941.363	5243.62
941.67	5185.77
941.977	5184.19
942.284	5125.2
942.591	5156.39
942.898	5104.64
943.205	5146.45
943.511	5079.56
943.818	5079.1
944.125	5019.67
944.431	5000.91
944.738	4943.74
945.044	4963.17
945.35	4913.01
945.657	4925.89
945.963	4934.93
946.269	4858.09
946.575	4822.39
946.881	4843.63
947.187	4817.19
947.493	4824.2
947.799	4860.13
948.105	4795.95
948.41	4788.04
948.716	4731.32
949.022	4690.19
949.327	4671.66
949.633	4690.19
949.938	4650.41
950.244	4660.81
950.549	4604.99
950.854	4592.79
951.16	4573.13
951.465	4517.76
951.77	4548.27
952.075	4476.63
952.38	4496.52
952.685	4484.32
952.99	4407.93
953.294	4375.17
953.599	4394.15
953.904	4403.87
954.209	4365.22
954.513	4358.67
954.818	4291.1
955.122	4301.95
955.426	4251.33
955.731	4301.5
956.035	4219.47
956.339	4226.92
956.643	4229.18
956.948	4166.36
957.252	4201.39
957.556	4160.71
957.86	4122.52
958.163	4116.19
958.467	4097.43
958.771	4081.16
959.075	4048.85
959.378	4004.33
959.682	4021.28
959.985	3993.48
960.289	3990.77
960.592	4008.17
960.896	4000.94
961.199	3927.04
961.502	3950.09
961.805	3949.87
962.108	3893.15
962.411	3893.37
962.714	3889.08
963.017	3876.2
963.32	3880.27
963.623	3803.21
963.926	3855.18
964.228	3791.91
964.531	3742.87
964.833	3723.21
965.136	3689.99
965.438	3704.22
965.741	3661.97
966.043	3690.44
966.345	3653.6
966.648	3633.72
966.95	3632.14
967.252	3604.11
967.554	3598.46
967.856	3574.28
968.158	3560.95
968.46	3553.95
968.761	3547.17
969.063	3564.12
969.365	3492.25
969.666	3497.22
969.968	3462.65
970.269	3463.55
970.571	3491.8
970.872	3433.5
971.174	3410
971.475	3424.23
971.776	3394.63
972.077	3389.2
972.378	3372.48
972.679	3353.73
972.98	3309.88
973.281	3329.55
973.582	3304.91
973.883	3301.07
974.183	3249.77
974.484	3277.8
974.785	3250
975.085	3237.8
975.386	3224.46
975.686	3217.23
975.986	3192.15
976.287	3141.08
976.587	3172.26
976.887	3160.06
977.187	3194.63
977.487	3142.43
977.787	3075.09
978.087	3090.46
978.387	3082.55
978.687	3052.72
978.987	3040.74
979.286	3005.94
979.586	3040.29
979.885	2988.09
980.185	3003
980.484	2985.6
980.784	2997.35
981.083	2923
981.382	2923.45
981.682	2929.56
981.981	2920.29
982.28	2916.9
982.579	2918.03
982.878	2878.03
983.177	2882.1
983.475	2894.08
983.774	2850.46
984.073	2812.27
984.372	2762.55
984.67	2798.49
984.969	2820.63
985.267	2773.18
985.566	2779.28
985.864	2733.4
986.162	2737.47
986.461	2714.87
986.759	2702.67
987.057	2686.17
987.355	2680.97
987.653	2686.17
987.951	2632.61
988.249	2618.83
988.547	2603.01
988.844	2608.66
989.142	2647.98
989.44	2606.4
989.737	2578.15
990.035	2579.06
990.332	2590.36
990.63	2517.82
990.927	2559.62
991.224	2502.67
991.521	2526.85
991.819	2522.33
992.116	2495.67
992.413	2497.25
992.71	2466.97
993.006	2487.99
993.303	2476.01
993.6	2434.2
993.897	2417.7
994.193	2414.77
994.49	2389.46
994.787	2414.32
995.083	2372.51
995.379	2396.46
995.676	2396.24
995.972	2346.07
996.268	2349.23
996.565	2318.5
996.861	2326.18
997.157	2312.17
997.453	2286.18
997.749	2286.18
998.044	2267.2
998.34	2265.62
998.636	2248.44
998.932	2219.07
999.227	2228.56
999.523	2189.91
999.818	2207.99
1000.114	2200.08
1000.409	2164.38
1000.704	2151.72
1001	2154.66
1001.295	2132.74
1001.59	2140.42
1001.885	2147.2
1002.18	2125.74
1002.475	2075.34
1002.77	2068.56
1003.065	2069.69
1003.359	2078.73
1003.654	2038.51
1003.949	2046.42
1004.243	2033.31
1004.538	1991.28
1004.832	2038.73
1005.127	2009.35
1005.421	1979.07
1005.715	1982.46
1006.009	1954.21
1006.304	1954.67
1006.598	1943.59
1006.892	1927.1
1007.186	1911.73
1007.48	1913.54
1007.773	1895.23
1008.067	1890.26
1008.361	1875.57
1008.655	1868.79
1008.948	1858.17
1009.242	1862.24
1009.535	1817.95
1009.829	1840.32
1010.122	1820.88
1010.415	1806.42
1010.708	1804.61
1011.001	1746.76
1011.295	1778.17
1011.588	1768.68
1011.881	1742.02
1012.173	1763.03
1012.466	1744.73
1012.759	1712.64
1013.052	1701.79
1013.344	1698.63
1013.637	1692.3
1013.93	1683.49
1014.222	1636.48
1014.514	1692.53
1014.807	1646.2
1015.099	1636.48
1015.391	1617.73
1015.683	1635.58
1015.976	1655.01
1016.268	1639.19
1016.56	1607.1
1016.851	1612.98
1017.143	1553.09
1017.435	1579.31
1017.727	1568.24
1018.018	1552.87
1018.31	1556.03
1018.602	1514.45
1018.893	1540.89
1019.185	1506.09
1019.476	1516.71
1019.767	1468.13
1020.058	1471.74
1020.35	1463.83
1020.641	1467.45
1020.932	1447.56
1021.223	1462.02
1021.514	1435.58
1021.804	1429.03
1022.095	1412.76
1022.386	1408.92
1022.677	1435.36
1022.967	1379.09
1023.258	1380.9
1023.548	1365.76
1023.839	1371.18
1024.129	1334.8
1024.419	1339.99
1024.709	1338.19
1025	1332.54
1025.29	1297.96
1025.58	1311.97
1025.87	1306.32
1026.16	1311.75
1026.449	1309.49
1026.739	1285.98
1027.029	1288.47
1027.319	1259.09
1027.608	1251.63
1027.898	1240.11
1028.187	1238.07
1028.477	1225.87
1028.766	1242.59
1029.055	1246.66
1029.344	1208.92
1029.634	1210.5
1029.923	1186.55
1030.212	1189.94
1030.501	1182.48
1030.79	1154.91
1031.078	1163.5
1031.367	1174.35
1031.656	1138.19
1031.945	1138.19
1032.233	1140.45
1032.522	1134.8
1032.81	1114.01
1033.099	1088.93
1033.387	1112.65
1033.675	1113.11
1033.963	1097.51
1034.251	1083.05
1034.54	1059.77
1034.828	1075.82
1035.116	1038.98
1035.403	1042.83
1035.691	1057.97
1035.979	1057.29
1036.267	1034.69
1036.554	1034.69
1036.842	1011.64
1037.129	1008.93
1037.417	1001.47
1037.704	1002.15
1037.992	986.78
1038.279	973.22
1038.566	968.25
1038.853	968.25
1039.14	968.25
