Data from hue_38_FLMS001491_00036.txt Node
Date: Tue Feb 07 17:31:25 GMT 2017
User: dcchb
Spectrometer: FLMS00149
Trigger mode: 0
Integration Time (sec): 2.000000E-2
Scans to average: 10
Electric dark correction enabled: true
Nonlinearity correction enabled: false
Boxcar width: 0
XAxis mode: Wavelengths
Number of Pixels in Spectrum: 2048
>>>>>Begin Spectral Data<<<<<
341.393	-18.35
341.776	-18.35
342.16	-18.35
342.543	-59.02
342.927	-77.1
343.31	-84.56
343.693	-67.16
344.077	-66.71
344.46	-71.23
344.843	-51.11
345.226	-42.75
345.61	-30.55
345.993	-20.15
346.376	2.44
346.759	18.49
347.142	17.13
347.525	42.67
347.908	80.63
348.291	61.2
348.674	110.01
349.057	101.65
349.44	132.16
349.823	147.07
350.206	184.13
350.588	211.7
350.971	208.31
351.354	236.56
351.737	219.84
352.119	243.12
352.502	252.61
352.884	275.88
353.267	288.09
353.65	292.83
354.032	316.33
354.414	303.45
354.797	311.81
355.179	337.35
355.562	305.71
355.944	324.47
356.326	342.77
356.709	335.99
357.091	337.12
357.473	350.46
357.855	367.86
358.238	335.77
358.62	330.57
359.002	358.37
359.384	335.99
359.766	352.94
360.148	354.3
360.53	342.1
360.912	333.73
361.294	338.48
361.676	345.94
362.057	342.55
362.439	346.84
362.821	331.7
363.203	347.07
363.584	344.58
363.966	328.54
364.348	323.56
364.729	343.45
365.111	329.44
365.493	325.82
365.874	310.91
366.256	337.35
366.637	317.69
367.019	321.31
367.4	321.31
367.781	307.52
368.163	305.71
368.544	310.01
368.925	329.21
369.306	331.02
369.688	316.79
370.069	312.94
370.45	339.61
370.831	340.06
371.212	304.36
371.593	326.28
371.974	329.89
372.355	321.76
372.736	321.31
373.117	328.31
373.498	328.08
373.879	322.66
374.26	328.08
374.641	311.14
375.021	332.6
375.402	319.5
375.783	332.38
376.163	333.28
376.544	327.41
376.925	345.26
377.305	331.25
377.686	333.96
378.066	341.64
378.447	337.12
378.827	321.76
379.208	338.25
379.588	326.28
379.968	335.99
380.349	350
380.729	331.47
381.109	349.33
381.489	348.65
381.87	331.7
382.25	331.25
382.63	354.98
383.01	366.28
383.39	340.74
383.77	343
384.15	337.12
384.53	348.2
384.91	366.28
385.29	348.65
385.67	350
386.049	357.24
386.429	366.05
386.809	343.9
387.189	349.78
387.568	360.4
387.948	342.1
388.328	360.85
388.707	370.12
389.087	373.06
389.466	369.44
389.846	375.54
390.225	371.7
390.605	358.37
390.984	389.1
391.363	373.51
391.743	358.37
392.122	372.15
392.501	354.07
392.881	374.41
393.26	387.52
393.639	374.86
394.018	385.94
394.397	364.69
394.776	374.41
395.155	382.55
395.534	372.15
395.913	393.39
396.292	376.44
396.671	397.01
397.05	388.87
397.429	385.26
397.808	396.33
398.186	394.98
398.565	383.22
398.944	387.07
399.323	395.43
399.701	381.42
400.08	406.73
400.458	390.68
400.837	387.74
401.215	423.22
401.594	397.69
401.972	382.32
402.351	425.48
402.729	411.92
403.107	435.2
403.486	420.06
403.864	414.18
404.242	422.55
404.62	427.74
404.999	410.34
405.377	413.96
405.755	417.8
406.133	391.13
406.511	426.39
406.889	431.36
407.267	435.88
407.645	426.16
408.023	440.17
408.401	436.33
408.779	411.92
409.156	452.38
409.534	446.27
409.912	449.44
410.29	459.15
410.667	453.73
411.045	430
411.422	443.34
411.8	470
412.178	485.37
412.555	476.78
412.933	438.82
413.31	479.72
413.687	468.19
414.065	469.55
414.442	501.87
414.819	507.29
415.197	498.48
415.574	509.77
415.951	495.99
416.328	495.09
416.705	477.69
417.082	501.87
417.46	507.06
417.837	478.59
418.214	495.31
418.591	502.54
418.967	558.81
419.344	529.66
419.721	534.18
420.098	500.74
420.475	528.98
420.852	522.43
421.228	552.71
421.605	548.42
421.982	519.72
422.358	509.77
422.735	553.62
423.111	542.09
423.488	559.04
423.864	553.84
424.241	559.94
424.617	561.98
424.994	565.82
425.37	558.59
425.746	580.06
426.123	570.34
426.499	561.98
426.875	593.84
427.251	560.62
427.627	583.45
428.003	593.39
428.379	619.83
428.756	585.48
429.132	623.67
429.507	632.26
429.883	635.42
430.259	637.23
430.635	611.02
431.011	644.69
431.387	611.69
431.763	631.81
432.138	655.53
432.514	628.87
432.89	656.89
433.265	655.08
433.641	662.09
434.016	671.58
434.392	691.92
434.767	694.4
435.143	695.31
435.518	686.72
435.894	674.52
436.269	725.36
436.644	715.87
437.02	717
437.395	728.98
437.77	717
438.145	727.4
438.52	744.8
438.895	752.48
439.271	749.54
439.646	757.23
440.021	749.32
440.395	764.68
440.77	738.92
441.145	771.24
441.52	770.11
441.895	776.66
442.27	787.06
442.645	763.1
443.019	778.02
443.394	780.28
443.769	789.77
444.143	785.02
444.518	795.19
444.892	806.49
445.267	807.62
445.641	801.74
446.016	811.91
446.39	830.67
446.764	823.89
447.139	828.64
447.513	822.53
447.887	844.46
448.262	848.3
448.636	839.03
449.01	855.75
449.384	848.97
449.758	869.09
450.132	872.03
450.506	864.12
450.88	861.18
451.254	884.45
451.628	882.65
452.002	911.12
452.376	930.33
452.75	907.96
453.123	924.68
453.497	941.85
453.871	914.51
454.244	955.41
454.618	946.83
454.992	968.07
455.365	991.12
455.739	970.78
456.112	998.12
456.486	989.08
456.859	1024.34
457.232	1020.5
457.606	1040.61
457.979	1030.66
458.352	1065.24
458.725	1046.03
459.099	1013.04
459.472	1076.77
459.845	1084.22
460.218	1110.21
460.591	1107.95
460.964	1108.18
461.337	1143.88
461.71	1155.86
462.083	1173.03
462.456	1196.31
462.829	1196.76
463.201	1181.17
463.574	1197.21
463.947	1204.45
464.32	1255.29
464.692	1233.15
465.065	1284.67
465.438	1267.49
465.81	1291.68
466.183	1326.93
466.555	1333.71
466.928	1348.17
467.3	1388.85
467.672	1379.58
468.045	1447.83
468.417	1425
468.789	1439.47
469.161	1457.09
469.534	1465.46
469.906	1529.86
470.278	1512.91
470.65	1541.16
471.022	1550.88
471.394	1611.21
471.766	1641.04
472.138	1667.26
472.51	1704.77
472.882	1726.69
473.253	1747.93
473.625	1778.44
473.997	1842.4
474.369	1846.46
474.74	1895.73
475.112	1918.55
475.484	1967.82
475.855	2005.55
476.227	2052.11
476.598	2098.89
476.97	2149.28
477.341	2196.28
477.713	2195.38
478.084	2292.33
478.455	2330.07
478.827	2385.21
479.198	2461.14
479.569	2527.12
479.94	2616.39
480.311	2650.51
480.682	2710.85
481.053	2815.02
481.424	2877.85
481.795	2930.95
482.166	2978.41
482.537	3016.83
482.908	3130.04
483.279	3204.17
483.65	3301.79
484.021	3427.66
484.391	3429.25
484.762	3545.18
485.133	3612.07
485.503	3667.66
485.874	3766.41
486.244	3857.26
486.615	3954.2
486.985	4027.87
487.356	4170.02
487.726	4196.91
488.097	4387.41
488.467	4437.36
488.837	4578.14
489.207	4623.79
489.578	4765.48
489.948	4899.72
490.318	4925.25
490.688	5045.93
491.058	5148.52
491.428	5238.92
491.798	5307.61
492.168	5496.08
492.538	5547.38
492.908	5670.54
493.278	5745.34
493.648	5824.21
494.017	6014.04
494.387	6052.45
494.757	6169.29
495.126	6270.3
495.496	6344.65
495.866	6417.42
496.235	6571.31
496.605	6631.42
496.974	6739.44
497.344	6792.55
497.713	6915.03
498.082	7024.18
498.452	7096.27
498.821	7140.33
499.19	7215.81
499.559	7356.6
499.928	7391.4
500.298	7540.1
500.667	7663.26
501.036	7661.68
501.405	7796.59
501.774	7866.19
502.143	7977.6
502.512	8006.75
502.88	8125.17
503.249	8176.47
503.618	8235.9
503.987	8298.5
504.356	8411.94
504.724	8503.91
505.093	8559.96
505.462	8685.6
505.83	8714.08
506.199	8799.27
506.567	8938.03
506.936	8943.23
507.304	9040.17
507.672	9153.16
508.041	9164.24
508.409	9289.88
508.777	9328.3
509.145	9412.14
509.514	9458.01
509.882	9504.34
510.25	9564.45
510.618	9653.49
510.986	9710.89
511.354	9799.47
511.722	9905.69
512.09	10033.37
512.458	9969.86
512.826	10109.07
513.193	10109.75
513.561	10181.61
513.929	10280.82
514.297	10327.14
514.664	10429.29
515.032	10418.67
515.4	10609.85
515.767	10591.77
516.135	10659.11
516.502	10676.97
516.869	10810.29
517.237	10879.9
517.604	10857.98
517.972	11063.85
518.339	11031.98
518.706	11077.41
519.073	11145.88
519.44	11253.9
519.808	11318.98
520.175	11351.3
520.542	11464.06
520.909	11577.05
521.276	11543.16
521.643	11654.11
522.009	11666.54
522.376	11771.85
522.743	11869.48
523.11	11938.17
523.477	12029.25
523.843	12186.53
524.21	12239.18
524.577	12359.18
524.943	12369.12
525.31	12529.57
525.676	12533.19
526.043	12589.46
526.409	12752.84
526.776	12911.93
527.142	12901.09
527.508	12881.88
527.874	12946.28
528.241	13052.5
528.607	13186.5
528.973	13282.32
529.339	13283.9
529.705	13424.46
530.071	13436.44
530.437	13549.88
530.803	13692.48
531.169	13727.51
531.535	13687.51
531.901	13721.4
532.267	13824.23
532.632	13944.9
532.998	13986.03
533.364	14040.49
533.73	14151.9
534.095	14190.54
534.461	14202.52
534.826	14223.76
535.192	14402.97
535.557	14453.59
535.923	14537.88
536.288	14579.01
536.653	14606.58
537.019	14609.97
537.384	14648.61
537.749	14743.3
538.114	14872.79
538.479	14850.41
538.845	14936.06
539.21	14872.33
539.575	14991.88
539.94	14983.52
540.305	15157.53
540.67	15175.83
541.034	15177.64
541.399	15225.09
541.764	15274.58
542.129	15405.88
542.494	15429.38
542.858	15473
543.223	15470.74
543.587	15704.18
543.952	15682.71
544.316	15704.18
544.681	15800.9
545.045	15938.3
545.41	15931.74
545.774	16091.06
546.138	16049.93
546.503	16119.53
546.867	16122.7
547.231	16221
547.595	16231.85
547.959	16313.65
548.324	16245.41
548.688	16350.71
549.052	16411.96
549.416	16463.93
549.779	16482.46
550.143	16530.6
550.507	16625.51
550.871	16738.95
551.235	16665.06
551.599	16874.99
551.962	16843.36
552.326	16937.14
552.689	17084.71
553.053	16991.83
553.417	17124.71
553.78	17359.5
554.143	17197.25
554.507	17306.85
554.87	17366.73
555.234	17600.62
555.597	17374.19
555.96	17545.94
556.323	17578.25
556.686	17560.63
557.05	17717.68
557.413	17740.28
557.776	17736.67
558.139	17884.46
558.502	17969.88
558.865	17968.98
559.228	18144.79
559.59	18205.13
559.953	18197.45
560.316	18361.06
560.679	18386.82
561.041	18432.69
561.404	18545.01
561.767	18675.17
562.129	18618.9
562.492	18749.3
562.854	18707.71
563.217	18738.67
563.579	18935.05
563.941	18916.75
564.304	19155.84
564.666	19237.64
565.028	19201.26
565.39	19389.05
565.753	19317.64
566.115	19477.41
566.477	19482.84
566.839	19528.48
567.201	19710.17
567.563	19648.03
567.925	19788.59
568.287	19843.73
568.648	19909.04
569.01	19979.32
569.372	20240.33
569.734	20000.79
570.095	20200.56
570.457	20337.95
570.819	20341.12
571.18	20403.49
571.542	20563.03
571.903	20579.98
572.265	20723.03
572.626	20733.65
572.987	20808.68
573.349	20970.71
573.71	21039.86
574.071	21104.04
574.432	21398.04
574.794	21354.2
575.155	21444.37
575.516	21477.58
575.877	21639.39
576.238	21714.41
576.599	21841.87
576.96	21947.4
577.32	21987.85
577.681	22143.56
578.042	22341.74
578.403	22473.94
578.763	22548.52
579.124	22718
579.485	22815.18
579.845	23070.31
580.206	23063.31
580.566	23154.83
580.927	23364.77
581.287	23614.7
581.648	23626.23
582.008	23816.96
582.368	23971.53
582.728	24087.69
583.089	24284.52
583.449	24491.97
583.809	24666.43
584.169	24868.23
584.529	24911.84
584.889	25366.3
585.249	25265.73
585.609	25470.25
585.969	25773.07
586.329	25765.38
586.688	26127.63
587.048	26292.83
587.408	26435.42
587.768	26647.17
588.127	26942.53
588.487	27053.48
588.846	27497.77
589.206	27422.06
589.565	27676.52
589.925	27915.38
590.284	28135.49
590.643	28295.71
591.003	28498.42
591.362	28841.46
591.721	28901.57
592.08	29122.13
592.44	29476.24
592.799	29624.72
593.158	29688.89
593.517	29928.89
593.876	30226.96
594.235	30268.31
594.593	30463.56
594.952	30772.93
595.311	30811.12
595.67	31270.32
596.029	31486.36
596.387	31676.64
596.746	31968.38
597.104	31883.41
597.463	32202.73
597.822	32498.09
598.18	32417.86
598.538	32649.95
598.897	33145.3
599.255	32865.08
599.613	33483.15
599.972	33373.09
600.33	33763.82
600.688	33764.95
601.046	34121.09
601.404	34242
601.762	34261.88
602.12	34569.9
602.478	34743.9
602.836	34887.18
603.194	34823
603.552	35210.78
603.91	35109.77
604.268	35500.95
604.625	35517.44
604.983	35747.49
605.341	35754.5
605.698	35910.43
606.056	36134.37
606.413	36309.74
606.771	36586.57
607.128	36622.05
607.485	36546.12
607.843	36770.06
608.2	36975.93
608.557	37252.09
608.914	37174.12
609.272	37510.84
609.629	37639.42
609.986	37753.54
610.343	37677.39
610.7	38081.89
611.057	38036.92
611.414	38141.33
611.771	38265.84
612.127	38583.35
612.484	38636.46
612.841	38802.55
613.198	38718.94
613.554	38770.69
613.911	39059.72
614.267	39158.48
614.624	39254.97
614.98	39424.46
615.337	39617.9
615.693	39657.67
616.05	39645.47
616.406	39892.69
616.762	39801.85
617.118	39896.99
617.475	40002.07
617.831	40340.59
618.187	40220.14
618.543	40386.69
618.899	40531.32
619.255	40524.77
619.611	40654.26
619.967	40875.72
620.323	40932.44
620.678	40754.82
621.034	40695.84
621.39	40772.22
621.746	40864.42
622.101	41301.24
622.457	41121.81
622.812	41103.96
623.168	41293.11
623.523	41439.77
623.879	41525.19
624.234	41270.74
624.589	41551.41
624.945	41542.59
625.3	41517.96
625.655	41539.66
626.01	41799.99
626.365	41641.8
626.72	41616.49
627.075	41644.06
627.43	41807.67
627.785	41783.27
628.14	41862.81
628.495	41882.92
628.85	41826.65
629.205	41744.17
629.559	42015.35
629.914	41807.9
630.269	41924.5
630.623	41789.14
630.978	41930.61
631.332	42051.06
631.687	42060.77
632.041	41785.75
632.396	42011.06
632.75	41825.07
633.104	41922.92
633.459	41949.59
633.813	41869.82
634.167	41842.47
634.521	41851.06
634.875	41907.1
635.229	41991.17
635.583	41737.62
635.937	41800.44
636.291	41878.86
636.645	41812.64
636.999	41728.35
637.352	42021.9
637.706	41649.71
638.06	41694.23
638.413	41673.21
638.767	41522.26
639.121	41562.25
639.474	41542.37
639.828	41634.8
640.181	41614
640.534	41486.55
640.888	41496.04
641.241	41344.41
641.594	41459.66
641.947	41544.18
642.301	41368.81
642.654	41524.52
643.007	41434.35
643.36	41381.92
643.713	41398.19
644.066	41518.64
644.419	41213.79
644.771	41092.89
645.124	40760.69
645.477	40579.46
645.83	40404.09
646.182	40371.1
646.535	40247.94
646.888	40304.89
647.24	40181.27
647.593	40365.45
647.945	40216.98
648.298	40126.59
648.65	40024.22
649.002	39882.98
649.355	40150.09
649.707	40038.45
650.059	40303.53
650.411	40667.14
650.763	40576.97
651.115	41019.44
651.467	41006.56
651.819	40961.37
652.171	40909.62
652.523	40837.98
652.875	40826.91
653.227	40522.51
653.578	41027.58
653.93	40846.34
654.282	40647.25
654.633	40540.13
654.985	40636.18
655.337	40635.27
655.688	40743.07
656.039	40723.41
656.391	40437.76
656.742	40512.34
657.094	40589.17
657.445	40609.74
657.796	40657.65
658.147	40466.69
658.498	40562.73
658.849	40604.99
659.2	40659.23
659.551	40497.2
659.902	40752.78
660.253	40575.16
660.604	40531.1
660.955	40367.48
661.306	40536.07
661.656	40619.45
662.007	40350.99
662.358	40499.01
662.708	40462.17
663.059	40466.01
663.409	40121.84
663.76	40543.98
664.11	40461.72
664.461	40474.15
664.811	40380.36
665.161	40454.26
665.511	40358.9
665.862	40399.8
666.212	40518.21
666.562	40426.24
666.912	40276.86
667.262	40491.1
667.612	40329.29
667.962	40343.3
668.312	40415.17
668.662	40463.75
669.011	40586.24
669.361	40285.23
669.711	40233.25
670.06	40220.37
670.41	40220.82
670.76	40115.74
671.109	40330.42
671.459	40218.11
671.808	40143.31
672.157	40230.54
672.507	39931.11
672.856	40078.23
673.205	40077.1
673.554	40021.5
673.904	40066.93
674.253	40219.92
674.602	40116.87
674.951	39671.68
675.3	39355.98
675.649	40016.53
675.998	40018.79
676.346	39948.96
676.695	40094.5
677.044	39841.85
677.393	40018.79
677.741	39885.69
678.09	39827.84
678.438	39755.3
678.787	39867.61
679.135	39867.38
679.484	39559.6
679.832	39696.54
680.181	39554.17
680.529	39632.81
680.877	39568.86
681.225	39465.13
681.573	39752.58
681.922	39413.16
682.27	39229.21
682.618	39276.44
682.966	39170.68
683.314	39285.25
683.661	39088.2
684.009	38929.1
684.357	38988.09
684.705	38878.26
685.053	38900.4
685.4	38885.26
685.748	38683.23
686.095	38734.31
686.443	38540.87
686.79	38369.8
687.138	38580.19
687.485	38533.41
687.832	38402.11
688.18	38483.47
688.527	38324.15
688.874	38200.54
689.221	38133.64
689.568	37933.65
689.915	37946.08
690.262	38004.61
690.609	37910.6
690.956	37807.33
691.303	37761.45
691.65	37524.62
691.997	37544.06
692.344	37298.64
692.69	37364.17
693.037	37415.7
693.383	37063.16
693.73	37163.95
694.077	36938.2
694.423	36862.04
694.769	36743.4
695.116	36702.5
695.462	36640.58
695.808	36661.14
696.155	36713.12
696.501	36248.95
696.847	36364.2
697.193	36135.05
697.539	36369.62
697.885	36006.92
698.231	35947.49
698.577	35982.29
698.923	35835.4
699.269	35689.41
699.614	35599.25
699.96	35524
700.306	35483.32
700.651	35382.08
700.997	35136.21
701.342	35250.1
701.688	35218.69
702.033	35067.06
702.379	34993.16
702.724	34895.09
703.069	34944.12
703.415	34568.09
703.76	34605.38
704.105	34590.01
704.45	34565.83
704.795	34334.87
705.14	34314.08
705.485	34230.24
705.83	34088.1
706.175	34183.47
706.52	34005.62
706.865	33983.7
707.209	33989.35
707.554	33828.67
707.899	33781.22
708.243	33670.26
708.588	33625.29
708.932	33476.59
709.277	33413.09
709.621	33446.76
709.966	33262.13
710.31	33335.58
710.654	33019.2
710.998	32997.73
711.342	33179.65
711.687	32890.17
712.031	32857.4
712.375	32667.35
712.719	32828.7
713.063	32609.5
713.407	32796.38
713.75	32644.52
714.094	32420.35
714.438	32282.05
714.782	32510.06
715.125	32269.62
715.469	32294.7
715.812	32086.35
716.156	31965.67
716.499	32103.52
716.843	32020.81
717.186	31861.27
717.53	31928.84
717.873	32063.52
718.216	31797.54
718.559	31688.16
718.902	31567.49
719.246	31538.34
719.589	31589.86
719.932	31375.63
720.275	31501.05
720.617	31294.73
720.96	31350.77
721.303	31150.1
721.646	31428.06
721.989	31115.52
722.331	31216.54
722.674	31081.4
723.016	31035.07
723.359	30924.12
723.701	31051.57
724.044	30778.36
724.386	30718.7
724.729	30834.4
725.071	30883.44
725.413	30771.8
725.755	30780.17
726.097	30563.9
726.439	30335.66
726.782	30434.19
727.124	30564.8
727.465	30390.8
727.807	30361.42
728.149	30383.34
728.491	30228.77
728.833	30356
729.175	30184.47
729.516	30079.39
729.858	29950.81
730.199	30082.78
730.541	29877.59
730.882	29926.85
731.224	29960.3
731.565	29867.19
731.906	29755.79
732.248	29878.27
732.589	29716.92
732.93	29539.29
733.271	29501.1
733.612	29684.6
733.953	29678.27
734.294	29561.89
734.635	29479.41
734.976	29547.2
735.317	29273.76
735.658	29325.06
735.999	29314.67
736.339	29161.68
736.68	29413.42
737.021	29280.77
737.361	29114.45
737.702	29242.13
738.042	29238.74
738.383	29017.5
738.723	29158.51
739.063	28939.31
739.404	28979.31
739.744	28921.91
740.084	28775.47
740.424	28880.55
740.764	28699.09
741.104	28932.3
741.444	28663.38
741.784	28696.38
742.124	28707.9
742.464	28622.48
742.804	28498.87
743.143	28480.34
743.483	28591.97
743.823	28371.64
744.162	28350.17
744.502	28318.76
744.841	28238.99
745.181	28434.46
745.52	28223.4
745.86	28209.16
746.199	28142.04
746.538	28141.82
746.877	28142.27
747.216	28081.25
747.556	28024.31
747.895	28022.05
748.234	27860.92
748.573	27854.59
748.911	27753.58
749.25	27811.66
749.589	27583.19
749.928	27775.72
750.267	27809.85
750.605	27633.81
750.944	27537.09
751.283	27418.67
751.621	27536.86
751.96	27416.86
752.298	27325.57
752.636	27431.33
752.975	27192.91
753.313	27088.51
753.651	27322.18
753.989	27076.99
754.327	27024.78
754.666	26928.74
755.004	26989.08
755.342	26932.58
755.679	26987.04
756.017	26753.38
756.355	26925.8
756.693	26619.82
757.031	26775.52
757.368	26509.09
757.706	26477.91
758.044	26458.02
758.381	26491.92
758.719	26344.35
759.056	26359.26
759.394	26180.06
759.731	26078.37
760.068	26039.27
760.405	25892.84
760.743	25831.82
761.08	25936.68
761.417	25675.44
761.754	25673.41
762.091	25656.91
762.428	25405.62
762.765	25512.06
763.102	25459.18
763.438	25331.04
763.775	25161.78
764.112	25378.5
764.449	25202.91
764.785	25089.47
765.122	24978.28
765.458	24884.95
765.795	24856.25
766.131	24782.81
766.467	24727.67
766.804	24511.86
767.14	24517.05
767.476	24472.53
767.812	24438.86
768.148	24362.93
768.485	24219.43
768.821	24139.89
769.157	24113.9
769.492	24047.23
769.828	23978.99
770.164	23723.63
770.5	23701.71
770.836	23787.35
771.171	23548.72
771.507	23581.48
771.842	23386.69
772.178	23388.72
772.513	23248.84
772.849	23303.98
773.184	23126.58
773.519	23059.46
773.855	22996.42
774.19	22946.7
774.525	22786.7
774.86	22782.86
775.195	22726.37
775.53	22702.64
775.865	22531.79
776.2	22352.14
776.535	22320.27
776.87	22083.9
777.205	22026.5
777.539	22001.86
777.874	22148.75
778.209	21861.08
778.543	21864.69
778.878	21804.13
779.212	21749.22
779.547	21528.43
779.881	21573.63
780.215	21462.9
780.55	21276.23
780.884	21320.53
781.218	21264.26
781.552	21270.81
781.886	21084.83
782.22	21062.23
782.554	20968.67
782.888	20781.33
783.222	20733.2
783.556	20436.48
783.889	20581.11
784.223	20397.61
784.557	20419.99
784.89	20349.03
785.224	20330.5
785.557	20293.66
785.891	20151.52
786.224	20153.33
786.558	20018.64
786.891	19885.08
787.224	19896.84
787.557	19800.79
787.891	19796.95
788.224	19693.45
788.557	19595.6
788.89	19567.35
789.223	19542.27
789.556	19379.34
789.888	19406.23
790.221	19267.47
790.554	19275.83
790.887	19243.07
791.219	19136.18
791.552	18985.45
791.884	18948.39
792.217	18944.77
792.549	18888.73
792.882	18726.47
793.214	18680.6
793.546	18709.97
793.879	18552.92
794.211	18402.86
794.543	18448.06
794.875	18378.23
795.207	18494.84
795.539	18352.47
795.871	18322.64
796.203	18141.4
796.535	18093.27
796.867	18105.02
797.198	18026.38
797.53	17960.62
797.862	17787.96
798.193	17872.03
798.525	17728.98
798.856	17801.3
799.188	17535.32
799.519	17532.38
799.85	17436.34
800.182	17470.23
800.513	17356.11
800.844	17254.87
801.175	17382.55
801.506	17310.46
801.837	17201.99
802.168	17171.71
802.499	17185.72
802.83	17073.63
803.161	17000.19
803.491	16950.02
803.822	16972.39
804.153	16878.38
804.483	16711.61
804.814	16617.6
805.145	16573.76
805.475	16565.62
805.805	16493.31
806.136	16586.87
806.466	16542.35
806.796	16514.33
807.126	16363.14
807.457	16329.47
807.787	16280.66
808.117	16152.53
808.447	16114.79
808.777	16166.31
809.107	16053.32
809.436	16041.8
809.766	16044.73
810.096	16032.08
810.426	15906.21
810.755	15919.31
811.085	15912.76
811.414	15896.26
811.744	15770.62
812.073	15651.07
812.403	15733.78
812.732	15692.65
813.061	15627.57
813.39	15557.06
813.719	15578.98
814.049	15596.16
814.378	15543.96
814.707	15369.95
815.036	15389.38
815.365	15327.01
815.693	15182.38
816.022	15193.23
816.351	15122.05
816.68	15115.27
817.008	15180.58
817.337	15000.69
817.665	14959.11
817.994	15009.96
818.322	14930.64
818.651	14943.29
818.979	14817.2
819.307	14950.98
819.636	14834.14
819.964	14689.06
820.292	14787.37
820.62	14716.86
820.948	14653.81
821.276	14729.74
821.604	14701.04
821.932	14799.34
822.259	14763.19
822.587	14668.5
822.915	14674.83
823.243	14755.28
823.57	14636.18
823.898	14590.99
824.225	14586.24
824.553	14563.42
824.88	14595.51
825.207	14719.8
825.535	14640.02
825.862	14706.92
826.189	14554.38
826.516	14662.62
826.843	14617.2
827.17	14694.94
827.497	14611.55
827.824	14603.64
828.151	14694.71
828.478	14638.89
828.805	14686.13
829.131	14555.06
829.458	14541.04
829.785	14587.6
830.111	14525.45
830.438	14608.16
830.764	14618.1
831.09	14536.75
831.417	14489.97
831.743	14529.75
832.069	14560.03
832.395	14412.01
832.722	14514.6
833.048	14553.93
833.374	14571.78
833.7	14418.11
834.026	14397.55
834.351	14467.37
834.677	14419.47
835.003	14409.97
835.329	14499.69
835.654	14343.31
835.98	14326.13
836.306	14316.87
836.631	14325.23
836.956	14379.24
837.282	14320.71
837.607	14258.34
837.932	14198.68
838.258	14172.69
838.583	14162.52
838.908	14125.91
839.233	14112.35
839.558	14003.88
839.883	14036.88
840.208	13958.23
840.533	13981.74
840.858	13948.29
841.182	13970.66
841.507	14008.18
841.832	13912.81
842.156	13852.02
842.481	13872.81
842.805	13889.08
843.13	13813.15
843.454	13750.78
843.778	13758.24
844.103	13675.3
844.427	13705.59
844.751	13686.83
845.075	13625.14
845.399	13551.92
845.723	13487.06
846.047	13488.42
846.371	13405.48
846.695	13404.8
847.019	13316.22
847.343	13262.89
847.666	13175.2
847.99	13162.1
848.313	13102.66
848.637	13047.07
848.96	13053.4
849.284	12966.17
849.607	12873.97
849.931	12875.33
850.254	12811.37
850.577	12721.43
850.9	12669.23
851.223	12585.39
851.546	12567.76
851.869	12530.25
852.192	12489.57
852.515	12331.84
852.838	12413.64
853.161	12345.62
853.483	12271.73
853.806	12254.1
854.129	12180.88
854.451	12165.74
854.774	12091.39
855.096	12115.8
855.419	12030.15
855.741	12005.74
856.063	11953.77
856.385	11989.7
856.708	11890.27
857.03	11798.97
857.352	11755.35
857.674	11749.48
857.996	11734.79
858.318	11669.26
858.64	11723.94
858.961	11599.88
859.283	11587.45
859.605	11548.13
859.926	11560.33
860.248	11537.51
860.57	11474.46
860.891	11589.71
861.212	11391.07
861.534	11345.42
861.855	11405.76
862.176	11347
862.498	11356.04
862.819	11380.68
863.14	11291.64
863.461	11297.51
863.782	11239.66
864.103	11231.98
864.424	11090.06
864.745	11246.89
865.065	11172.09
865.386	11147.01
865.707	11119.44
866.027	11152.88
866.348	11057.75
866.668	11081.7
866.989	11073.34
867.309	10998.76
867.63	10961.03
867.95	10981.36
868.27	10914.02
868.59	11013.68
868.91	10920.35
869.23	10906.11
869.55	10846.45
869.87	10949.5
870.19	10811.2
870.51	10850.97
870.83	10896.39
871.15	10799.22
871.469	10741.37
871.789	10849.39
872.109	10778.21
872.428	10687.13
872.748	10731.43
873.067	10694.14
873.386	10681.03
873.706	10657.98
874.025	10583.18
874.344	10601.03
874.663	10619.79
874.982	10585.22
875.301	10610.98
875.62	10491.66
875.939	10542.96
876.258	10523.3
876.577	10465.22
876.896	10506.12
877.214	10492.34
877.533	10448.95
877.852	10412.57
878.17	10426.12
878.489	10430.19
878.807	10342.74
879.125	10375.5
879.444	10292.57
879.762	10324.66
880.08	10316.52
880.398	10317.65
880.716	10290.08
881.034	10259.8
881.352	10243.3
881.67	10235.85
881.988	10232.68
882.306	10219.35
882.624	10173.02
882.941	10053.7
883.259	10076.98
883.577	10069.52
883.894	10079.92
884.212	10030.65
884.529	10036.76
884.846	9934.61
885.164	9956.53
885.481	9956.08
885.798	9933.93
886.115	9868.62
886.432	9921.28
886.75	9835.63
887.067	9896.87
887.383	9694.84
887.7	9780.27
888.017	9731.45
888.334	9789.3
888.651	9727.16
888.967	9719.48
889.284	9638.57
889.6	9583.89
889.917	9541.4
890.233	9518.35
890.55	9488.97
890.866	9521.97
891.182	9473.83
891.498	9456.66
891.815	9442.2
892.131	9479.03
892.447	9369.88
892.763	9373.04
893.079	9314.74
893.395	9225.93
893.71	9221.64
894.026	9204.46
894.342	9150
894.657	9100.51
894.973	9123.79
895.289	9130.57
895.604	9081.98
895.92	9076.56
896.235	9015.99
896.55	8968.76
896.865	8889.22
897.181	8906.39
897.496	8863.91
897.811	8879.27
898.126	8791.82
898.441	8844.7
898.756	8806.73
899.071	8787.75
899.386	8751.82
899.7	8672.27
900.015	8614.19
900.33	8627.75
900.644	8620.75
900.959	8627.08
901.273	8522.22
901.588	8531.26
901.902	8474.54
902.216	8522.22
902.531	8447.19
902.845	8409.91
903.159	8332.17
903.473	8307.76
903.787	8325.39
904.101	8260.76
904.415	8190.02
904.729	8253.75
905.042	8171.72
905.356	8150.03
905.67	8093.53
905.984	8115.9
906.297	8074.1
906.611	8065.51
906.924	8008.79
907.237	8013.98
907.551	7966.3
907.864	7886.08
908.177	7949.81
908.491	7847.89
908.804	7823.71
909.117	7755.69
909.43	7743.03
909.743	7718.17
910.056	7655.12
910.368	7663.26
910.681	7654.45
910.994	7529.25
911.307	7540.78
911.619	7504.17
911.932	7522.92
912.244	7486.54
912.557	7427.78
912.869	7386.66
913.181	7406.32
913.494	7308.69
913.806	7265.76
914.118	7287.45
914.43	7247.9
914.742	7200.45
915.054	7156.38
915.366	7174.91
915.678	7127.91
915.99	7096.95
916.302	7049.26
916.613	7012.88
916.925	7001.58
917.236	7031.41
917.548	6979.66
917.859	6949.61
918.171	6890.62
918.482	6858.31
918.794	6858.08
919.105	6839.1
919.416	6780.34
919.727	6728.14
920.038	6742.61
920.349	6687.47
920.66	6658.99
920.971	6656.96
921.282	6603.85
921.593	6577.64
921.903	6567.47
922.214	6478.21
922.525	6525.21
922.835	6471.88
923.146	6395.72
923.456	6428.94
923.767	6404.76
924.077	6377.42
924.387	6359.34
924.697	6316.18
925.008	6279.79
925.318	6257.65
925.628	6270.75
925.938	6235.27
926.248	6231.43
926.558	6135.62
926.867	6096.75
927.177	6147.37
927.487	6099.68
927.796	6061.95
928.106	6041.38
928.416	5982.63
928.725	6013.36
929.034	5917.54
929.344	5928.39
929.653	5873.02
929.962	5804.32
930.271	5848.39
930.581	5843.65
930.89	5789.41
931.199	5752.57
931.508	5724.55
931.817	5698.34
932.125	5703.76
932.434	5682.75
932.743	5611.34
933.051	5620.6
933.36	5575.86
933.669	5577.44
933.977	5508.51
934.286	5516.87
934.594	5510.32
934.902	5435.52
935.21	5414.5
935.519	5473.49
935.827	5409.98
936.135	5370.21
936.443	5350.1
936.751	5350.1
937.059	5337.67
937.367	5295.64
937.674	5259.48
937.982	5226.49
938.29	5222.65
938.597	5220.84
938.905	5167.28
939.213	5176.09
939.52	5097
939.827	5101.29
940.135	5129.99
940.442	5026.27
940.749	5095.42
941.056	5071.24
941.363	5015.19
941.67	4991.24
941.977	4950.11
942.284	4885.93
942.591	4927.06
942.898	4920.51
943.205	4870.34
943.511	4842.54
943.818	4915.53
944.125	4861.98
944.431	4778.82
944.738	4773.62
945.044	4791.47
945.35	4717.35
945.657	4689.1
945.963	4689.1
946.269	4669.67
946.575	4683.68
946.881	4639.38
947.187	4607.07
947.493	4575.66
947.799	4580.63
948.105	4583.11
948.41	4494.08
948.716	4554.87
949.022	4478.94
949.327	4475.77
949.633	4455.66
949.938	4432.61
950.244	4411.59
950.549	4416.11
950.854	4423.12
951.16	4324.36
951.465	4345.15
951.77	4335.21
952.075	4276.46
952.38	4313.97
952.685	4273.07
952.99	4246.85
953.294	4218.15
953.599	4205.5
953.904	4193.97
954.209	4213.63
954.513	4119.17
954.818	4151.26
955.122	4099.51
955.426	4138.15
955.731	4097.25
956.035	4056.12
956.339	4052.96
956.643	4043.92
956.948	4029.68
957.252	3975.67
957.556	3989.46
957.86	3979.06
958.163	3941.1
958.467	3935.45
958.771	3913.08
959.075	3909.91
959.378	3853.64
959.682	3856.81
959.985	3852.96
960.289	3829.24
960.592	3797.37
960.896	3797.37
961.199	3777.49
961.502	3766.41
961.805	3742.91
962.108	3740.88
962.411	3722.57
962.714	3706.98
963.017	3664.72
963.32	3683.02
963.623	3655.68
963.926	3665.4
964.228	3606.42
964.531	3602.57
964.833	3613.65
965.136	3568
965.438	3559.64
965.741	3542.92
966.043	3535.23
966.345	3536.36
966.648	3508.11
966.95	3512.18
967.252	3465.86
967.554	3459.3
967.856	3459.98
968.158	3403.94
968.46	3407.1
968.761	3381.56
969.063	3429.02
969.365	3364.61
969.666	3391.73
969.968	3317.16
970.269	3311.28
970.571	3296.82
970.872	3304.96
971.174	3246.65
971.475	3241.68
971.776	3263.15
972.077	3245.52
972.378	3196.94
972.679	3178.86
972.98	3194.68
973.281	3175.02
973.582	3169.59
973.883	3141.12
974.183	3153.77
974.484	3126.88
974.785	3126.66
975.085	3102.93
975.386	3070.84
975.686	3075.36
975.986	3038.97
976.287	3071.29
976.587	3009.37
976.887	2992.87
977.187	3008.24
977.487	2996.49
977.787	2963.95
978.087	2966.66
978.387	2937.96
978.687	2947.45
978.987	2921.91
979.286	2888.24
979.586	2898.64
979.885	2875.14
980.185	2867
980.484	2841.24
980.784	2854.12
981.083	2846.21
981.382	2827.91
981.682	2819.09
981.981	2780.45
982.28	2781.13
982.579	2766.21
982.878	2804.4
983.177	2794.01
983.475	2775.93
983.774	2703.39
984.073	2725.99
984.372	2670.17
984.67	2680.11
984.969	2676.27
985.267	2705.2
985.566	2660.68
985.864	2678.76
986.162	2618.19
986.461	2597.18
986.759	2624.07
987.057	2579.32
987.355	2575.03
987.653	2595.6
987.951	2551.53
988.249	2581.36
988.547	2534.35
988.844	2523.96
989.142	2509.27
989.44	2522.83
989.737	2442.15
990.035	2478.31
990.332	2481.02
990.63	2460.68
990.927	2460.01
991.224	2420.91
991.521	2419.33
991.819	2420.01
992.116	2390.4
992.413	2397.86
992.71	2401.93
993.006	2362.61
993.303	2348.82
993.6	2390.86
993.897	2331.2
994.193	2349.27
994.49	2314.7
994.787	2322.61
995.083	2310.18
995.379	2303.63
995.676	2309.73
995.972	2268.6
996.268	2238.99
996.565	2240.58
996.861	2231.99
997.157	2238.54
997.453	2207.58
997.749	2201.48
998.044	2144.31
998.34	2149.73
998.636	2176.85
998.932	2167.36
999.227	2146.34
999.523	2162.39
999.818	2103.18
1000.114	2103.18
1000.409	2083.74
1000.704	2073.12
1001	2044.88
1001.295	2074.03
1001.59	2063.41
1001.885	2040.81
1002.18	2029.51
1002.475	2011.2
1002.77	1999
1003.065	1966.01
1003.359	1965.1
1003.654	1961.04
1003.949	1956.97
1004.243	1935.95
1004.538	1958.55
1004.832	1901.83
1005.127	1923.75
1005.421	1895.95
1005.715	1913.35
1006.009	1891.43
1006.304	1874.71
1006.598	1860.93
1006.892	1868.84
1007.186	1845.11
1007.48	1838.1
1007.773	1834.71
1008.067	1815.73
1008.361	1811.89
1008.655	1799.91
1008.948	1798.1
1009.242	1823.86
1009.535	1799.01
1009.829	1782.51
1010.122	1759.01
1010.415	1760.36
1010.708	1731.21
1011.001	1728.05
1011.295	1724.66
1011.588	1694.38
1011.881	1694.6
1012.173	1671.1
1012.466	1688.73
1012.759	1666.81
1013.052	1673.13
1013.344	1633.81
1013.637	1605.11
1013.93	1619.12
1014.222	1647.6
1014.514	1607.6
1014.807	1621.61
1015.099	1615.28
1015.391	1589.52
1015.683	1574.83
1015.976	1583.19
1016.268	1560.82
1016.56	1536.87
1016.851	1538.22
1017.143	1516.53
1017.435	1537.77
1017.727	1537.09
1018.018	1506.13
1018.31	1496.87
1018.602	1469.07
1018.893	1476.75
1019.185	1477.66
1019.476	1462.74
1019.767	1460.48
1020.058	1436.98
1020.35	1430.65
1020.641	1404.44
1020.932	1387.27
1021.223	1398.11
1021.514	1389.07
1021.804	1376.19
1022.095	1368.74
1022.386	1345.01
1022.677	1323.09
1022.967	1343.65
1023.258	1339.81
1023.548	1309.75
1023.839	1331.45
1024.129	1292.35
1024.419	1310.66
1024.709	1281.51
1025	1292.35
1025.29	1291.22
1025.58	1290.55
1025.87	1256.87
1026.16	1277.21
1026.449	1254.61
1026.739	1255.97
1027.029	1232.02
1027.319	1210.77
1027.608	1193.15
1027.898	1194.5
1028.187	1195.18
1028.477	1185.01
1028.766	1172.13
1029.055	1161.73
1029.344	1166.25
1029.634	1154.5
1029.923	1159.48
1030.212	1139.36
1030.501	1126.71
1030.79	1102.75
1031.078	1125.13
1031.367	1097.78
1031.656	1109.98
1031.945	1117.22
1032.233	1072.25
1032.522	1086.93
1032.81	1081.74
1033.099	1078.35
1033.387	1065.24
1033.675	1054.85
1033.963	1055.75
1034.251	1038.57
1034.54	1035.64
1034.828	1028.63
1035.116	1053.26
1035.403	1022.76
1035.691	1021.63
1035.979	1014.62
1036.267	988.86
1036.554	978.24
1036.842	963.77
1037.129	989.54
1037.417	992.7
1037.704	959.93
1037.992	955.86
1038.279	961.97
1038.566	944.79
1038.853	944.79
1039.14	944.79
