Data from hue_320_FLMS001491_88.txt Node
Date: Mon Feb 06 15:47:50 GMT 2017
User: dcchb
Spectrometer: FLMS00149
Trigger mode: 0
Integration Time (sec): 2.000000E-2
Scans to average: 10
Electric dark correction enabled: true
Nonlinearity correction enabled: false
Boxcar width: 0
XAxis mode: Wavelengths
Number of Pixels in Spectrum: 2048
>>>>>Begin Spectral Data<<<<<
341.393	-26.37
341.776	-26.37
342.16	-26.37
342.543	-45.13
342.927	-67.95
343.31	-43.32
343.693	-72.92
344.077	-61.85
344.46	-71.57
344.843	-57.1
345.226	-43.54
345.61	-32.47
345.993	-40.83
346.376	3.69
346.759	29
347.142	17.47
347.525	64.02
347.908	72.39
348.291	54.31
348.674	85.04
349.057	97.7
349.44	120.75
349.823	149.9
350.206	165.72
350.588	192.83
350.971	207.97
351.354	237.58
351.737	238.26
352.119	237.8
352.502	266.73
352.884	257.69
353.267	294.53
353.65	286.62
354.032	287.52
354.414	311.7
354.797	331.36
355.179	319.38
355.562	330.23
355.944	341.76
356.326	319.84
356.709	330.91
357.091	348.08
357.473	358.25
357.855	329.33
358.238	334.98
358.62	370.68
359.002	345.37
359.384	325.49
359.766	351.47
360.148	316.45
360.53	313.51
360.912	329.1
361.294	328.88
361.676	329.1
362.057	338.37
362.439	320.74
362.821	344.69
363.203	341.98
363.584	330.46
363.966	329.78
364.348	316.22
364.729	329.78
365.111	338.59
365.493	319.38
365.874	318.03
366.256	308.31
366.637	317.12
367.019	310.57
367.4	332.72
367.781	305.37
368.163	320.97
368.544	328.42
368.925	301.08
369.306	309.67
369.688	327.29
370.069	311.93
370.45	332.72
370.831	314.41
371.212	319.61
371.593	308.54
371.974	312.83
372.355	330.68
372.736	312.6
373.117	304.7
373.498	332.27
373.879	306.28
374.26	328.42
374.641	336.56
375.021	329.78
375.402	328.2
375.783	313.06
376.163	345.6
376.544	328.88
376.925	332.27
377.305	314.19
377.686	315.77
378.066	346.73
378.447	343.34
378.827	334.75
379.208	324.13
379.588	328.88
379.968	343.11
380.349	344.92
380.729	321.87
381.109	340.17
381.489	333.4
381.87	330.01
382.25	364.13
382.63	358.48
383.01	343.56
383.39	337.01
383.77	330.46
384.15	348.31
384.53	341.08
384.91	353.06
385.29	335.43
385.67	348.99
386.049	360.51
386.429	344.24
386.809	355.32
387.189	351.47
387.568	356.45
387.948	362.32
388.328	358.93
388.707	374.98
389.087	369.33
389.466	376.11
389.846	372.94
390.225	365.48
390.605	373.17
390.984	356.67
391.363	374.07
391.743	354.19
392.122	395.77
392.501	381.08
392.881	365.03
393.26	383.11
393.639	358.03
394.018	358.48
394.397	382.43
394.776	372.04
395.155	369.1
395.534	366.84
395.913	395.77
396.292	390.57
396.671	398.25
397.05	391.7
397.429	403.22
397.808	375.88
398.186	393.28
398.565	396.9
398.944	400.51
399.323	397.57
399.701	388.99
400.08	406.16
400.458	405.48
400.837	395.54
401.215	409.78
401.594	423.34
401.972	407.52
402.351	420.85
402.729	420.85
403.107	420.17
403.486	427.18
403.864	444.35
404.242	436.22
404.62	438.03
404.999	426.27
405.377	454.07
405.755	430.12
406.133	459.72
406.511	447.97
406.889	431.92
407.267	463.79
407.645	447.97
408.023	446.61
408.401	457.01
408.779	466.5
409.156	459.27
409.534	473.5
409.912	480.96
410.29	485.93
410.667	479.15
411.045	504.92
411.422	478.93
411.8	504.24
412.178	537.68
412.555	508.08
412.933	525.48
413.31	545.37
413.687	529.77
414.065	531.13
414.442	539.04
414.819	534.75
415.197	560.28
415.574	557.57
415.951	562.99
416.328	557.34
416.705	589.66
417.082	580.17
417.46	587.4
417.837	603.44
418.214	616.78
418.591	605.93
418.967	607.96
419.344	620.39
419.721	642.77
420.098	637.79
420.475	645.03
420.852	666.27
421.228	667.4
421.605	675.08
421.982	673.73
422.358	668.98
422.735	682.76
423.111	683.67
423.488	708.3
423.864	691.8
424.241	688.41
424.617	703.78
424.994	708.53
425.37	726.15
425.746	729.54
426.123	746.27
426.499	741.07
426.875	731.12
427.251	764.12
427.627	779.03
428.003	801.41
428.379	803.89
428.756	793.72
429.132	786.72
429.507	786.49
429.883	812.7
430.259	823.1
430.635	840.27
431.011	855.87
431.387	857.22
431.763	866.71
432.138	854.51
432.514	879.6
432.89	887.5
433.265	883.89
433.641	918.01
434.016	921.85
434.392	929.76
434.767	960.72
435.143	941.51
435.518	956.88
435.894	970.21
436.269	968.63
436.644	960.27
437.02	986.26
437.395	988.97
437.77	1024.22
438.145	1008.63
438.52	1021.51
438.895	1028.52
439.271	1025.58
439.646	1045.92
440.021	1038.69
440.395	1058.35
440.77	1040.04
441.145	1058.8
441.52	1094.51
441.895	1065.13
442.27	1085.01
442.645	1119.59
443.019	1110.55
443.394	1115.97
443.769	1104.45
444.143	1118.91
444.518	1127.5
444.892	1129.53
445.267	1130.89
445.641	1129.31
446.016	1145.8
446.39	1133.15
446.764	1171.79
447.139	1166.59
447.513	1145.8
447.887	1141.51
448.262	1176.54
448.636	1170.21
449.01	1186.25
449.384	1181.06
449.758	1195.75
450.132	1170.66
450.506	1220.6
450.88	1203.2
451.254	1194.62
451.628	1223.09
452.002	1225.8
452.376	1249.3
452.75	1244.78
453.123	1238.91
453.497	1289.08
453.871	1240.49
454.244	1291.56
454.618	1264.44
454.992	1282.07
455.365	1314.61
455.739	1306.48
456.112	1357.55
456.486	1334.05
456.859	1311
457.232	1334.5
457.606	1353.48
457.979	1365.91
458.352	1377.66
458.725	1422.86
459.099	1410.2
459.472	1408.62
459.845	1443.2
460.218	1439.35
460.591	1448.85
460.964	1450.2
461.337	1469.18
461.71	1519.8
462.083	1525
462.456	1525.45
462.829	1522.29
463.201	1503.53
463.574	1544.21
463.947	1553.25
464.32	1587.15
464.692	1565.45
465.065	1594.83
465.438	1623.76
465.81	1598.9
466.183	1639.35
466.555	1655.62
466.928	1665.56
467.3	1670.76
467.672	1669.18
468.045	1714.6
468.417	1707.14
468.789	1721.83
469.161	1744.21
469.534	1746.69
469.906	1788.27
470.278	1803.41
470.65	1794.83
471.022	1849.06
471.394	1871.66
471.766	1839.12
472.138	1872.56
472.51	1899
472.882	1902.62
473.253	1923.41
473.625	1993.92
473.997	1993.92
474.369	1992.79
474.74	2037.98
475.112	2035.27
475.484	2056.97
475.855	2096.96
476.227	2111.2
476.598	2161.82
476.97	2159.11
477.341	2194.82
477.713	2207.02
478.084	2236.62
478.455	2257.86
478.827	2308.26
479.198	2349.39
479.569	2364.98
479.94	2385.32
480.311	2391.19
480.682	2443.4
481.053	2468.71
481.424	2508.48
481.795	2531.76
482.166	2556.61
482.537	2553.68
482.908	2664.86
483.279	2615.6
483.65	2647.46
484.021	2718.19
484.391	2736.95
484.762	2739.21
485.133	2788.7
485.503	2819.66
485.874	2838.64
486.244	2873.67
486.615	2913.44
486.985	2925.87
487.356	3006.09
487.726	3031.18
488.097	3051.74
488.467	3043.61
488.837	3074.34
489.207	3122.7
489.578	3154.79
489.948	3172.42
490.318	3269.14
490.688	3262.13
491.058	3270.95
491.428	3328.34
491.798	3356.37
492.168	3422.13
492.538	3412.86
492.908	3419.87
493.278	3422.13
493.648	3407.66
494.017	3464.16
494.387	3560.88
494.757	3563.37
495.126	3584.84
495.496	3568.11
495.866	3614.89
496.235	3652.86
496.605	3672.06
496.974	3694.89
497.344	3688.79
497.713	3724.49
498.082	3694.66
498.452	3790.03
498.821	3789.35
499.19	3791.38
499.559	3804.49
499.928	3842.23
500.298	3907.31
500.667	3872.29
501.036	3915.9
501.405	3963.13
501.774	3911.38
502.143	3960.87
502.512	3969.01
502.88	3978.72
503.249	3983.92
503.618	4009.68
503.987	4017.37
504.356	4024.37
504.724	4038.16
505.093	4053.07
505.462	4065.95
505.83	4098.27
506.199	4107.99
506.567	4124.48
506.936	4129.68
507.304	4186.85
507.672	4187.31
508.041	4207.64
508.409	4259.85
508.777	4254.2
509.145	4256.91
509.514	4242.67
509.882	4240.86
510.25	4294.19
510.618	4341.43
510.986	4324.25
511.354	4377.13
511.722	4394.31
512.09	4390.92
512.458	4378.71
512.826	4434.08
513.193	4453.51
513.561	4423.68
513.929	4474.76
514.297	4488.54
514.664	4535.54
515.032	4521.53
515.4	4545.49
515.767	4511.36
516.135	4559.5
516.502	4517.92
516.869	4642.43
517.237	4653.73
517.604	4610.34
517.972	4634.07
518.339	4667.97
518.706	4624.13
519.073	4702.32
519.44	4671.59
519.808	4725.6
520.175	4683.34
520.542	4753.39
520.909	4803.33
521.276	4818.47
521.643	4773.28
522.009	4804.69
522.376	4827.51
522.743	4850.11
523.11	4888.08
523.477	4963.33
523.843	4954.52
524.21	4989.54
524.577	4979.6
524.943	5050.11
525.31	5047.17
525.676	5072.03
526.043	5106.83
526.409	5086.49
526.776	5169.65
527.142	5166.26
527.508	5230.44
527.874	5242.42
528.241	5273.38
528.607	5257.11
528.973	5326.71
529.339	5276.09
529.705	5382.3
530.071	5411.68
530.437	5429.76
530.803	5456.88
531.169	5477.44
531.535	5452.13
531.901	5517.44
532.267	5512.69
532.632	5517.89
532.998	5552.02
533.364	5599.47
533.73	5597.66
534.095	5626.59
534.461	5591.11
534.826	5735.29
535.192	5708.85
535.557	5835.85
535.923	5754.27
536.288	5814.38
536.653	5826.13
537.019	5783.42
537.384	5859.58
537.749	5896.64
538.114	5885.34
538.479	5890.76
538.845	5924.66
539.21	5918.11
539.575	5975.51
539.94	5933.25
540.305	6020.93
540.67	6008.05
541.034	6088.05
541.399	6099.57
541.764	6158.1
542.129	6197.2
542.494	6156.74
542.858	6183.41
543.223	6185.9
543.587	6267.48
543.952	6254.14
544.316	6286.01
544.681	6262.5
545.045	6391.77
545.41	6351.32
545.774	6423.63
546.138	6350.64
546.503	6416.85
546.867	6427.7
547.231	6464.53
547.595	6492.56
547.959	6494.14
548.324	6488.94
548.688	6584.08
549.052	6540.46
549.416	6657.3
549.779	6609.84
550.143	6621.37
550.507	6673.34
550.871	6693
551.235	6724.19
551.599	6765.32
551.962	6761.47
552.326	6770.51
552.689	6834.92
553.053	6792.21
553.417	6831.98
553.78	6882.6
554.143	6896.39
554.507	6860.68
554.87	6891.87
555.234	7018.87
555.597	6954.46
555.96	6966.89
556.323	6999.43
556.686	7020
557.05	7112.65
557.413	7046.66
557.776	7184.29
558.139	7112.43
558.502	7152.88
558.865	7117.4
559.228	7213.44
559.59	7226.1
559.953	7259.09
560.316	7284.4
560.679	7307.68
561.041	7310.84
561.404	7364.62
561.767	7348.13
562.129	7387
562.492	7467.44
562.854	7394.23
563.217	7466.31
563.579	7500.89
563.941	7519.65
564.304	7543.6
564.666	7592.87
565.028	7528.46
565.39	7638.29
565.753	7618.4
566.115	7644.16
566.477	7695.91
566.839	7743.37
567.201	7790.6
567.563	7802.13
567.925	7858.4
568.287	7817.94
568.648	7848
569.01	7935.23
569.372	8048.22
569.734	7912.63
570.095	7967.77
570.457	8066.75
570.819	8050.25
571.18	8110.14
571.542	8193.98
571.903	8198.27
572.265	8234.2
572.626	8247.99
572.987	8275.11
573.349	8324.82
573.71	8354.2
574.071	8473.75
574.432	8463.12
574.794	8564.37
575.155	8599.39
575.516	8603.91
575.877	8695.44
576.238	8778.6
576.599	8831.02
576.96	8926.16
577.32	8963
577.681	9000.29
578.042	9120.06
578.403	9139.94
578.763	9220.62
579.124	9360.95
579.485	9468.3
579.845	9585.36
580.206	9681.17
580.566	9734.5
580.927	9821.96
581.287	10006.14
581.648	10056.98
582.008	10217.2
582.368	10296.07
582.728	10473.69
583.089	10551.43
583.449	10735.61
583.809	10908.94
584.169	11038.88
584.529	11127.46
584.889	11388.25
585.249	11515.47
585.609	11672.98
585.969	11859.42
586.329	12044.5
586.688	12323.36
587.048	12448.78
587.408	12669.12
587.768	12923.35
588.127	13117.01
588.487	13233.39
588.846	13584.8
589.206	13825.47
589.565	13931.91
589.925	14254.61
590.284	14564.66
590.643	14736.63
591.003	14965.55
591.362	15333
591.721	15562.83
592.08	15775.48
592.44	16125.52
592.799	16392.86
593.158	16637.37
593.517	16831.94
593.876	17280.52
594.235	17478.03
594.593	17768.87
594.952	18031.01
595.311	18255.18
595.67	18615.63
596.029	19140.81
596.387	19217.64
596.746	19532.66
597.104	19838.65
597.463	20010.39
597.822	20419.19
598.18	20521.56
598.538	20950.48
598.897	21321.32
599.255	21409
599.613	21982.54
599.972	22128.53
600.33	22414.85
600.688	22593.37
601.046	22923.08
601.404	23401.26
601.762	23530.98
602.12	23882.15
602.478	24186.33
602.836	24433.33
603.194	24586.09
603.552	24832.86
603.91	25071.5
604.268	25395.56
604.625	25603.24
604.983	25971.59
605.341	26060.63
605.698	26452.26
606.056	26638.69
606.413	26869.19
606.771	27178.34
607.128	27416.3
607.485	27562.74
607.843	27762.73
608.2	28222.15
608.557	28328.37
608.914	28434.8
609.272	28907.79
609.629	29121.56
609.986	29345.06
610.343	29430.03
610.7	29856.91
611.057	29946.85
611.414	30165.15
611.771	30422.55
612.127	30577.12
612.484	30664.12
612.841	30977.79
613.198	31108.41
613.554	31265.24
613.911	31615.74
614.267	31768.5
614.624	31835.62
614.98	31992.9
615.337	32357.19
615.693	32315.38
616.05	32472.66
616.406	33014.12
616.762	32948.13
617.118	32924.18
617.475	33140.22
617.831	33354.45
618.187	33402.58
618.543	33688
618.899	34068.78
619.255	33950.36
619.611	34206.63
619.967	34316
620.323	34461.76
620.678	34463.8
621.034	34519.39
621.39	34633.06
621.746	34805.48
622.101	35238.47
622.457	34998.25
622.812	35260.61
623.168	35376.32
623.523	35330.22
623.879	35452.7
624.234	35516.88
624.589	35763.88
624.945	35766.59
625.3	35902.18
625.655	35912.57
626.01	36084.55
626.365	36091.55
626.72	36033.02
627.075	36104.66
627.43	36224.65
627.785	36104.66
628.14	36333.58
628.495	36339.68
628.85	36430.98
629.205	36408.38
629.559	36656.96
629.914	36410.64
630.269	36636.17
630.623	36686.79
630.978	36575.61
631.332	36659.9
631.687	36822.38
632.041	36793.91
632.396	36883.62
632.75	36750.29
633.104	36833
633.459	36728.37
633.813	36835.26
634.167	36905.54
634.521	36736.28
634.875	36987.57
635.229	36879.55
635.583	36860.57
635.937	36750.29
636.291	36737.64
636.645	36866.22
636.999	36749.84
637.352	37004.97
637.706	36742.83
638.06	36953.45
638.413	36893.79
638.767	36758.65
639.121	36781.48
639.474	36821.02
639.828	36751.42
640.181	36689.05
640.534	36796.84
640.888	36757.52
641.241	36679.33
641.594	36742.38
641.947	36855.15
642.301	36792.32
642.654	36810.63
643.007	36963.17
643.36	36755.49
643.713	36685.43
644.066	36844.53
644.419	36635.04
644.771	36497.42
645.124	36218.33
645.477	36025.11
645.83	35873.48
646.182	35790.09
646.535	35767.94
646.888	35688.17
647.24	35416.77
647.593	35799.58
647.945	35648.85
648.298	35469.42
648.65	35496.09
649.002	35406.15
649.355	35597.78
649.707	35500.83
650.059	35669.42
650.411	36057.2
650.763	36153.47
651.115	36560.47
651.467	36380.36
651.819	36498.09
652.171	36314.14
652.523	36309.4
652.875	36251.77
653.227	36045.68
653.578	36396.85
653.93	36376.52
654.282	36172.9
654.633	36081.61
654.985	36110.08
655.337	36229.85
655.688	36212.68
656.039	36305.1
656.391	36011.78
656.742	36064.43
657.094	36101.49
657.445	36254.94
657.796	36207.48
658.147	36111.21
658.498	36035.06
658.849	36124.32
659.2	36155.28
659.551	36091.78
659.902	36071.21
660.253	36067.6
660.604	36142.17
660.955	36016.98
661.306	36093.13
661.656	36058.11
662.007	35949.86
662.358	35992.8
662.708	36061.5
663.059	35947.37
663.409	35826.25
663.76	35991.44
664.11	35958.9
664.461	36021.95
664.811	35926.36
665.161	36038.22
665.511	35717.55
665.862	36002.74
666.212	36065.11
666.562	35947.83
666.912	35948.96
667.262	35882.06
667.612	35870.77
667.962	36001.61
668.312	35770.43
668.662	36104.66
669.011	35931.33
669.361	35885
669.711	35887.04
670.06	35689.75
670.41	35798
670.76	35671.9
671.109	35843.65
671.459	35754.38
671.808	35718
672.157	35819.92
672.507	35559.59
672.856	35520.04
673.205	35692.69
673.554	35847.04
673.904	35695.86
674.253	35901.05
674.602	35635.52
674.951	35229.2
675.3	35009.32
675.649	35577.44
675.998	35518.91
676.346	35620.83
676.695	35564.33
677.044	35402.08
677.393	35462.64
677.741	35505.13
678.09	35387.16
678.438	35417.67
678.787	35439.14
679.135	35358.24
679.484	35183.55
679.832	35375.41
680.181	35136.55
680.529	35226.94
680.877	35221.29
681.225	35259.03
681.573	35274.4
681.922	35033.05
682.27	34934.97
682.618	34955.99
682.966	34903.79
683.314	35050.45
683.661	34798.93
684.009	34772.26
684.357	34786.73
684.705	34738.59
685.053	34711.25
685.4	34663.79
685.748	34415.66
686.095	34412.27
686.443	34278.27
686.79	34291.82
687.138	34371.37
687.485	34388.09
687.832	34049.8
688.18	34186.97
688.527	33960.08
688.874	33885.96
689.221	33838.05
689.568	33812.51
689.915	33774.78
690.262	33850.03
690.609	33610.71
690.956	33644.38
691.303	33577.94
691.65	33197.62
691.997	33417.05
692.344	33143.15
692.69	33189.93
693.037	33149.71
693.383	32959.66
693.73	33043.27
694.077	32797.17
694.423	32818.87
694.769	32774.35
695.116	32689.61
695.462	32679.89
695.808	32455.94
696.155	32653
696.501	32342.27
696.847	32249.39
697.193	32144.76
697.539	32286.45
697.885	32017.76
698.231	31934.6
698.577	31981.6
698.923	31785.22
699.269	31702.51
699.614	31521.73
699.96	31491.9
700.306	31458
700.651	31436.53
700.997	31328.29
701.342	31274.73
701.688	31135.75
702.033	31226.82
702.379	31071.57
702.724	30967.62
703.069	31135.52
703.415	30750.45
703.76	30817.11
704.105	30774.63
704.45	30594.29
704.795	30389.78
705.14	30400.18
705.485	30326.96
705.83	30313.62
706.175	30358.14
706.52	30246.96
706.865	30033.18
707.209	30148.88
707.554	29988.66
707.899	30028.43
708.243	29911.15
708.588	29746.86
708.932	29530.14
709.277	29649.91
709.621	29607.43
709.966	29468.22
710.31	29502.8
710.654	29245.18
710.998	29324.5
711.342	29208.57
711.687	29175.35
712.031	29103.94
712.375	28944.39
712.719	28931.29
713.063	29023.04
713.407	29057.84
713.75	28781.91
714.094	28818.07
714.438	28756.38
714.782	28701.01
715.125	28553.9
715.469	28548.02
715.812	28583.5
716.156	28286.11
716.499	28400.68
716.843	28354.81
717.186	28104.19
717.53	28364.3
717.873	28309.38
718.216	28235.71
718.559	28113
718.902	27950.3
719.246	28092.44
719.589	27979.22
719.932	27925.66
720.275	27941.26
720.617	27876.63
720.96	27717.53
721.303	27806.8
721.646	27770.64
721.989	27567.03
722.331	27670.53
722.674	27552.79
723.016	27590.53
723.359	27466.69
723.701	27481.83
724.044	27317.54
724.386	27171.56
724.729	27337.66
725.071	27215.63
725.413	27247.72
725.755	27207.26
726.097	27119.13
726.439	27026.25
726.782	26884.56
727.124	27144.44
727.465	26958.46
727.807	26937.67
728.149	26866.03
728.491	26750.55
728.833	26779.03
729.175	26689.99
729.516	26672.14
729.858	26652.48
730.199	26602.53
730.541	26568.19
730.882	26631.91
731.224	26604.34
731.565	26374.29
731.906	26405.48
732.248	26560.05
732.589	26303.56
732.93	26253.39
733.271	26354.63
733.612	26277.35
733.953	26212.04
734.294	26202.55
734.635	26116.67
734.976	26211.13
735.317	25987.18
735.658	26046.62
735.999	26063.34
736.339	25937.69
736.68	26015.21
737.021	25960.52
737.361	25869.9
737.702	25941.08
738.042	25853.63
738.383	25716.46
738.723	25750.13
739.063	25742.9
739.404	25738.38
739.744	25615.44
740.084	25450.25
740.424	25609.79
740.764	25610.7
741.104	25521.43
741.444	25415.45
741.784	25445.73
742.124	25516.69
742.464	25372.74
742.804	25347.65
743.143	25252.06
743.483	25207.32
743.823	25084.16
744.162	25161.44
744.502	25189.92
744.841	24952.86
745.181	25058.17
745.52	25002.8
745.86	24974.78
746.199	24991.5
746.538	24864.28
746.877	24959.87
747.216	24949.7
747.556	24892.07
747.895	24935.01
748.234	24749.7
748.573	24729.36
748.911	24768.91
749.25	24579.09
749.589	24496.15
749.928	24625.41
750.267	24569.59
750.605	24464.96
750.944	24463.38
751.283	24342.26
751.621	24534.57
751.96	24281.47
752.298	24313.1
752.636	24278.75
752.975	24168.25
753.313	24130.51
753.651	24113.79
753.989	23976.39
754.327	23912.89
754.666	23895.04
755.004	23832.66
755.342	23904.3
755.679	23770.29
756.017	23729.39
756.355	23674.48
756.693	23645.55
757.031	23657.98
757.368	23495.5
757.706	23436.52
758.044	23428.38
758.381	23346.8
758.719	23301.83
759.056	23365.56
759.394	23277.65
759.731	23152
760.068	23176.64
760.405	23063.87
760.743	22983.2
761.08	23068.16
761.417	22828.85
761.754	22843.31
762.091	22791.56
762.428	22627.05
762.765	22516.77
763.102	22680.83
763.438	22454.17
763.775	22423.89
764.112	22373.95
764.449	22466.6
764.785	22396.09
765.122	22181.63
765.458	22100.96
765.795	22051.24
766.131	21939.61
766.467	21958.59
766.804	21876.33
767.14	21784.36
767.476	21689.67
767.812	21560.41
768.148	21668.65
768.485	21449.22
768.821	21372.84
769.157	21370.36
769.492	21255.78
769.828	21275.9
770.164	21112.74
770.5	21065.51
770.836	21094.66
771.171	20929.24
771.507	20872.97
771.842	20733.99
772.178	20709.13
772.513	20718.17
772.849	20547.55
773.184	20512.3
773.519	20532.86
773.855	20322.93
774.19	20344.17
774.525	20209.71
774.86	20148.47
775.195	20082.48
775.53	20029.6
775.865	19969.04
776.2	19689.72
776.535	19709.61
776.87	19641.81
777.205	19607.69
777.539	19433.91
777.874	19528.82
778.209	19386.91
778.543	19433.91
778.878	19227.36
779.212	19167.7
779.547	19194.82
779.881	19140.81
780.215	19058.1
780.55	19108.27
780.884	18918.22
781.218	18759.58
781.552	18843.19
781.886	18803.42
782.22	18581.95
782.554	18565.23
782.888	18416.31
783.222	18330.21
783.556	18317.1
783.889	18370.89
784.223	18144.9
784.557	18051.57
784.89	18145.81
785.224	17967.73
785.557	17878.92
785.891	17911.24
786.224	17784.69
786.558	17854.74
786.891	17646.39
787.224	17613.17
787.557	17562.55
787.891	17485.26
788.224	17531.36
788.557	17486.62
788.89	17426.51
789.223	17311.03
789.556	17165.49
789.888	17116.23
790.221	17087.53
790.554	16990.13
790.887	16900.64
791.219	16943.81
791.552	16917.82
791.884	16840.31
792.217	16700.87
792.549	16678.73
792.882	16574.78
793.214	16549.47
793.546	16546.3
793.879	16437.15
794.211	16411.16
794.543	16346.31
794.875	16305.63
795.207	16353.54
795.539	16258.85
795.871	16245.75
796.203	16009.37
796.535	15970.72
796.867	16008.24
797.198	15968.01
797.53	15904.29
797.862	15738.19
798.193	15838.52
798.525	15666.78
798.856	15768.92
799.188	15598.3
799.519	15516.95
799.85	15482.38
800.182	15371.42
800.513	15451.19
800.844	15300.23
801.175	15358.31
801.506	15252.78
801.837	15275.15
802.168	15101.37
802.499	15150.86
802.83	15083.97
803.161	15011.65
803.491	15021.6
803.822	15067.25
804.153	14996.74
804.483	14837.19
804.814	14767.37
805.145	14756.29
805.475	14735.05
805.805	14765.33
806.136	14657.54
806.466	14589.07
806.796	14559.24
807.126	14462.29
807.457	14415.74
807.787	14486.47
808.117	14406.7
808.447	14409.41
808.777	14428.39
809.107	14330.54
809.436	14232.01
809.766	14295.74
810.096	14142.3
810.426	14131.68
810.755	14125.12
811.085	14084.45
811.414	14046.48
811.744	13915.86
812.073	13917.9
812.403	13909.54
812.732	13796.54
813.061	13817.56
813.39	13764.68
813.719	13684.91
814.049	13756.77
814.378	13690.33
814.707	13571.69
815.036	13668.64
815.365	13625.25
815.693	13442.66
816.022	13527.85
816.351	13437.46
816.68	13371.47
817.008	13375.99
817.337	13246.28
817.665	13276.78
817.994	13256.22
818.322	13299.83
818.651	13226.39
818.979	13168.31
819.307	13208.31
819.636	13115.88
819.964	13048.54
820.292	13072.5
820.62	13183.9
820.948	13080.63
821.276	13054.19
821.604	13035.66
821.932	13072.27
822.259	13045.83
822.587	13020.07
822.915	12999.5
823.243	13022.55
823.57	13037.47
823.898	13012.16
824.225	12943.23
824.553	12851.48
824.88	12949.79
825.207	12986.17
825.535	12881.99
825.862	12912.27
826.189	12876.12
826.516	12956.11
826.843	13008.99
827.17	13105.49
827.497	13003.57
827.824	12980.07
828.151	13000.18
828.478	12884.25
828.805	13030.46
829.131	13026.17
829.458	12944.36
829.785	12878.83
830.111	12972.16
830.438	12960.63
830.764	12852.61
831.09	12994.76
831.417	12917.25
831.743	12906.85
832.069	12918.38
832.395	12861.88
832.722	12898.71
833.048	12841.99
833.374	12833.63
833.7	12778.27
834.026	12752.96
834.351	12910.47
834.677	12836.12
835.003	12917.47
835.329	12799.06
835.654	12771.03
835.98	12742.79
836.306	12750.47
836.631	12600.19
836.956	12718.38
837.282	12694.88
837.607	12591.15
837.932	12600.19
838.258	12666.63
838.583	12630.92
838.908	12553.19
839.233	12538.72
839.558	12521.78
839.883	12476.35
840.208	12413.53
840.533	12346.41
840.858	12469.8
841.182	12451.04
841.507	12352.97
841.832	12324.49
842.156	12309.13
842.481	12265.51
842.805	12255.34
843.13	12287.66
843.454	12251.5
843.778	12202.91
844.103	12113.88
844.427	12107.1
844.751	12091.28
845.075	12048.57
845.399	12068
845.723	12038.4
846.047	12011.73
846.371	11860.32
846.695	11935.58
847.019	11758.18
847.343	11711.63
847.666	11688.12
847.99	11664.4
848.313	11665.53
848.637	11539.2
848.96	11550.05
849.284	11557.51
849.607	11461.46
849.931	11338.3
850.254	11301.02
850.577	11203.17
850.9	11186.44
851.223	11238.65
851.546	11138.31
851.869	11110.96
852.192	11095.37
852.515	10953.91
852.838	10952.33
853.161	10962.04
853.483	10905.09
853.806	10786.23
854.129	10819
854.451	10737.64
854.774	10758.21
855.096	10707.59
855.419	10648.6
855.741	10652.45
856.063	10618.77
856.385	10599.34
856.708	10565.89
857.03	10540.81
857.352	10458.1
857.674	10502.85
857.996	10395.05
858.318	10389.63
858.64	10372.23
858.961	10347.6
859.283	10309.63
859.605	10290.2
859.926	10220.14
860.248	10178.56
860.57	10167.71
860.891	10166.58
861.212	10097.43
861.534	10107.38
861.855	10082.74
862.176	10157.09
862.498	10096.3
862.819	10096.3
863.14	10052.24
863.461	10007.27
863.782	10004.33
864.103	9961.39
864.424	9913.48
864.745	9912.13
865.065	9884.1
865.386	9905.8
865.707	9815.63
866.027	9876.2
866.348	9814.28
866.668	9861.05
866.989	9835.07
867.309	9770.89
867.63	9728.4
867.95	9725.46
868.27	9689.31
868.59	9719.14
868.91	9737.22
869.23	9716.2
869.55	9633.26
869.87	9683.21
870.19	9599.14
870.51	9675.52
870.83	9625.13
871.15	9588.29
871.469	9570.44
871.789	9584.68
872.109	9610.89
872.428	9522.76
872.748	9560.5
873.067	9500.39
873.386	9516.66
873.706	9489.99
874.025	9453.16
874.344	9477.11
874.663	9463.78
874.982	9425.81
875.301	9430.78
875.62	9334.97
875.939	9316.21
876.258	9371.58
876.577	9296.78
876.896	9338.58
877.214	9299.04
877.533	9342.65
877.852	9230.56
878.17	9296.78
878.489	9212.48
878.807	9296.55
879.125	9222.65
879.444	9221.52
879.762	9140.17
880.08	9155.54
880.398	9143.78
880.716	9145.82
881.034	9140.17
881.352	9040.74
881.67	9067.18
881.988	9045.71
882.306	9106.27
882.624	9034.18
882.941	8966.61
883.259	8891.81
883.577	8939.5
883.894	8932.27
884.212	8888.42
884.529	8887.97
884.846	8866.96
885.164	8904.47
885.481	8798.71
885.798	8824.92
886.115	8797.81
886.432	8756.68
886.75	8734.08
887.067	8771.37
887.383	8667.64
887.7	8777.24
888.017	8636.45
888.334	8628.32
888.651	8611.6
888.967	8559.17
889.284	8494.99
889.6	8498.6
889.917	8465.61
890.233	8526.4
890.55	8443.24
890.866	8411.37
891.182	8396.69
891.498	8369.79
891.815	8341.55
892.131	8317.59
892.447	8311.72
892.763	8302.9
893.079	8337.7
893.395	8268.55
893.71	8258.61
894.026	8214.54
894.342	8245.5
894.657	8147.65
894.973	8130.93
895.289	8073.76
895.604	8140.42
895.92	8052.06
896.235	8028.56
896.55	8022.23
896.865	7958.05
897.181	7954.66
897.496	7976.81
897.811	7899.3
898.126	7878.96
898.441	7842.12
898.756	7807.77
899.071	7748.34
899.386	7726.87
899.7	7738.62
900.015	7665.41
900.33	7688.91
900.644	7635.35
900.959	7609.36
901.273	7554.9
901.588	7520.78
901.902	7516.48
902.216	7542.25
902.531	7447.33
902.845	7440.78
903.159	7438.75
903.473	7398.29
903.787	7338.86
904.101	7347.67
904.415	7318.3
904.729	7299.54
905.042	7185.87
905.356	7208.69
905.67	7198.98
905.984	7281.01
906.297	7178.86
906.611	7135.02
906.924	7150.62
907.237	7058.19
907.551	7088.25
907.864	7034.24
908.177	7030.39
908.491	6952.66
908.804	6914.24
909.117	6920.34
909.43	6884.41
909.743	6791.76
910.056	6823.17
910.368	6758.31
910.681	6786.33
910.994	6809.84
911.307	6692.1
911.619	6667.24
911.932	6687.58
912.244	6628.14
912.557	6637.18
912.869	6614.13
913.181	6567.36
913.494	6551.31
913.806	6493.46
914.118	6470.63
914.43	6455.49
914.742	6438.32
915.054	6355.61
915.366	6379.79
915.678	6344.31
915.99	6334.82
916.302	6282.17
916.613	6237.42
916.925	6281.26
917.236	6216.18
917.548	6154.26
917.859	6188.38
918.171	6125.11
918.482	6093.92
918.794	6106.12
919.105	6085.33
919.416	6017.54
919.727	6011.66
920.038	6016.64
920.349	5977.99
920.66	5995.62
920.971	5930.99
921.282	5924.66
921.593	5805.34
921.903	5850.31
922.214	5778
922.525	5882.18
922.835	5827.49
923.146	5720.82
923.456	5779.35
923.767	5673.59
924.077	5706.81
924.387	5676.08
924.697	5677.21
925.008	5613.03
925.318	5587.72
925.628	5560.38
925.938	5498.01
926.248	5468.63
926.558	5485.35
926.867	5467.27
927.177	5430.44
927.487	5413.26
927.796	5369.42
928.106	5376.43
928.416	5363.32
928.725	5367.61
929.034	5335.52
929.344	5277.9
929.653	5288.07
929.962	5202.65
930.271	5228.41
930.581	5219.82
930.89	5186.6
931.199	5141.63
931.508	5123.78
931.817	5113.16
932.125	5075.64
932.434	5048.07
932.743	4987.06
933.051	5025.02
933.36	4980.5
933.669	4977.34
933.977	4967.62
934.286	5006.04
934.594	4877.23
934.902	4876.78
935.21	4895.31
935.519	4886.04
935.827	4841.53
936.135	4799.72
936.443	4780.74
936.751	4777.12
937.059	4734.86
937.367	4728.76
937.674	4697.8
937.982	4690.79
938.29	4687.4
938.597	4667.52
938.905	4609.44
939.213	4614.64
939.52	4569.22
939.827	4569.67
940.135	4614.64
940.442	4491.25
940.749	4503.23
941.056	4510.69
941.363	4460.97
941.67	4457.13
941.977	4468.88
942.284	4381.42
942.591	4416.9
942.898	4413.51
943.205	4399.28
943.511	4331.71
943.818	4302.33
944.125	4346.4
944.431	4310.92
944.738	4286.06
945.044	4252.61
945.35	4231.15
945.657	4221.2
945.963	4221.65
946.269	4202.45
946.575	4183.24
946.881	4134.88
947.187	4131.94
947.493	4096.46
947.799	4114.54
948.105	4075.22
948.41	4081.55
948.716	4068.21
949.022	4042.22
949.327	4044.94
949.633	3968.33
949.938	3965.62
950.244	3987.31
950.549	3994.32
950.854	3890.36
951.16	3903.02
951.465	3919.74
951.77	3883.36
952.075	3846.75
952.38	3884.26
952.685	3848.56
952.99	3767.2
953.294	3841.1
953.599	3789.58
953.904	3760.65
954.209	3759.29
954.513	3747.54
954.818	3731.95
955.122	3705.51
955.426	3678.62
955.731	3625.51
956.035	3679.3
956.339	3658.96
956.643	3662.35
956.948	3583.25
957.252	3606.76
957.556	3598.62
957.86	3567.89
958.163	3554.1
958.467	3508.68
958.771	3509.58
959.075	3506.87
959.378	3454.22
959.682	3461.45
959.985	3451.28
960.289	3440.88
960.592	3375.35
960.896	3415.35
961.199	3398.17
961.502	3369.93
961.805	3375.12
962.108	3331.96
962.411	3353.2
962.714	3310.49
963.017	3279.08
963.32	3328.8
963.623	3299.87
963.926	3252.41
964.228	3269.82
964.531	3260.32
964.833	3250.15
965.136	3207.9
965.438	3175.35
965.741	3175.58
966.043	3178.74
966.345	3129.03
966.648	3121.57
966.95	3153.89
967.252	3125.86
967.554	3112.76
967.856	3082.93
968.158	3096.71
968.46	3062.81
968.761	3021.46
969.063	3035.7
969.365	3006.77
969.666	2999.54
969.968	2976.04
970.269	2981.24
970.571	2950.73
970.872	2992.99
971.174	2918.86
971.475	2875.7
971.776	2920.45
972.077	2898.3
972.378	2932.65
972.679	2869.6
972.98	2884.51
973.281	2827.11
973.582	2841.35
973.883	2843.61
974.183	2835.7
974.484	2837.74
974.785	2809.04
975.085	2811.3
975.386	2774.46
975.686	2799.77
975.986	2731.98
976.287	2749.83
976.587	2744.18
976.887	2710.51
977.187	2719.77
977.487	2654.92
977.787	2652.88
978.087	2651.07
978.387	2668.93
978.687	2635.48
978.987	2670.06
979.286	2640.45
979.586	2594.35
979.885	2620.57
980.185	2596.61
980.484	2570.85
980.784	2572.43
981.083	2549.83
981.382	2557.74
981.682	2529.95
981.981	2531.3
982.28	2501.25
982.579	2524.75
982.878	2552.32
983.177	2521.81
983.475	2496.73
983.774	2478.65
984.073	2485.43
984.372	2442.04
984.67	2411.08
984.969	2433.68
985.267	2434.81
985.566	2408.37
985.864	2359.56
986.162	2379.44
986.461	2347.58
986.759	2332.44
987.057	2342.83
987.355	2347.13
987.653	2315.04
987.951	2284.53
988.249	2333.34
988.547	2266.9
988.844	2275.49
989.142	2283.4
989.44	2265.77
989.737	2258.54
990.035	2212.67
990.332	2200.01
990.63	2233.68
990.927	2213.12
991.224	2188.94
991.521	2202.95
991.819	2180.13
992.116	2146.68
992.413	2181.48
992.71	2128.83
993.006	2146
993.303	2151.2
993.6	2100.13
993.897	2124.53
994.193	2116.63
994.49	2099.68
994.787	2078.21
995.083	2093.57
995.379	2049.96
995.676	2069.62
995.972	2051.54
996.268	2038.89
996.565	2047.02
996.861	2002.28
997.157	2010.19
997.453	2003.86
997.749	1999.11
998.044	1965.44
998.34	1961.37
998.636	1949.4
998.932	1956.63
999.227	1973.8
999.523	1886.12
999.818	1916.63
1000.114	1900.13
1000.409	1873.47
1000.704	1857.65
1001	1860.13
1001.295	1875.73
1001.59	1860.13
1001.885	1852.45
1002.18	1835.73
1002.475	1840.7
1002.77	1815.62
1003.065	1807.71
1003.359	1785.11
1003.654	1790.31
1003.949	1778.1
1004.243	1798.22
1004.538	1751.21
1004.832	1770.19
1005.127	1744.88
1005.421	1746.01
1005.715	1743.75
1006.009	1738.56
1006.304	1688.61
1006.598	1684.32
1006.892	1712.79
1007.186	1664.66
1007.48	1666.02
1007.773	1637.32
1008.067	1655.62
1008.361	1649.52
1008.655	1662.85
1008.948	1666.69
1009.242	1614.04
1009.535	1593.93
1009.829	1636.41
1010.122	1591.67
1010.415	1565.68
1010.708	1558.22
1011.001	1532.69
1011.295	1564.78
1011.588	1530.65
1011.881	1525.91
1012.173	1531.78
1012.466	1520.71
1012.759	1492.23
1013.052	1519.13
1013.344	1514.83
1013.637	1487.72
1013.93	1449.07
1014.222	1456.98
1014.514	1447.49
1014.807	1454.5
1015.099	1416.98
1015.391	1455.85
1015.683	1463.99
1015.976	1425.12
1016.268	1390.54
1016.56	1411.11
1016.851	1393.93
1017.143	1389.19
1017.435	1389.86
1017.727	1380.15
1018.018	1385.12
1018.31	1353.03
1018.602	1356.19
1018.893	1352.13
1019.185	1332.92
1019.476	1344.44
1019.767	1356.65
1020.058	1334.5
1020.35	1309.19
1020.641	1310.09
1020.932	1291.56
1021.223	1278.46
1021.514	1276.42
1021.804	1267.83
1022.095	1234.61
1022.386	1247.27
1022.677	1231.68
1022.967	1224.22
1023.258	1216.99
1023.548	1202.07
1023.839	1203.88
1024.129	1182.86
1024.419	1200.27
1024.709	1188.29
1025	1202.52
1025.29	1152.36
1025.58	1166.59
1025.87	1146.03
1026.16	1136.54
1026.449	1142.64
1026.739	1142.87
1027.029	1119.36
1027.319	1134.28
1027.608	1097.67
1027.898	1080.27
1028.187	1089.31
1028.477	1087.73
1028.766	1094.28
1029.055	1088.63
1029.344	1061.06
1029.634	1075.52
1029.923	1051.79
1030.212	1054.28
1030.501	1048.63
1030.79	1055.18
1031.078	1021.96
1031.367	1029.2
1031.656	1008.63
1031.945	995.98
1032.233	1000.95
1032.522	1005.02
1032.81	1022.19
1033.099	1020.38
1033.387	975.64
1033.675	1003.43
1033.963	993.26
1034.251	977.22
1034.54	957.33
1034.828	981.06
1035.116	963.44
1035.403	918.92
1035.691	934.06
1035.979	952.81
1036.267	916.2
1036.554	886.6
1036.842	915.3
1037.129	896.32
1037.417	885.02
1037.704	910.56
1037.992	884.34
1038.279	862.42
1038.566	870.56
1038.853	870.56
1039.14	870.56
