Data from hue_26_FLMS001491_00045.txt Node
Date: Tue Feb 07 17:14:03 GMT 2017
User: dcchb
Spectrometer: FLMS00149
Trigger mode: 0
Integration Time (sec): 2.000000E-2
Scans to average: 10
Electric dark correction enabled: true
Nonlinearity correction enabled: false
Boxcar width: 0
XAxis mode: Wavelengths
Number of Pixels in Spectrum: 2048
>>>>>Begin Spectral Data<<<<<
341.393	-23.66
341.776	-23.66
342.16	-23.66
342.543	-56.43
342.927	-59.36
343.31	-75.18
343.693	-65.92
344.077	-73.15
344.46	-71.57
344.843	-50.78
345.226	-40.61
345.61	-41.06
345.993	-12.58
346.376	18.6
346.759	9.56
347.142	17.92
347.525	29.45
347.908	62.44
348.291	79.16
348.674	109.67
349.057	104.02
349.44	127.07
349.823	151.93
350.206	180.86
350.588	195.55
350.971	206.84
351.354	219.05
351.737	236.9
352.119	263.57
352.502	262.44
352.884	275.77
353.267	300.85
353.65	306.5
354.032	302.66
354.414	323
354.797	303.34
355.179	334.07
355.562	320.74
355.944	333.62
356.326	341.3
356.709	338.82
357.091	336.56
357.473	355.77
357.855	361.64
358.238	344.69
358.62	336.33
359.002	342.43
359.384	327.97
359.766	354.64
360.148	343.79
360.53	348.76
360.912	349.89
361.294	326.84
361.676	328.88
362.057	331.59
362.439	327.52
362.821	325.03
363.203	347.63
363.584	346.05
363.966	332.72
364.348	348.99
364.729	301.98
365.111	342.66
365.493	318.48
365.874	333.62
366.256	330.23
366.637	352.6
367.019	329.55
367.4	323.45
367.781	322.32
368.163	314.86
368.544	336.78
368.925	334.53
369.306	341.98
369.688	305.83
370.069	325.03
370.45	317.12
370.831	313.06
371.212	316.67
371.593	338.82
371.974	334.53
372.355	323.23
372.736	351.25
373.117	293.62
373.498	343.56
373.879	336.11
374.26	326.39
374.641	323.45
375.021	309.89
375.402	306.05
375.783	330.91
376.163	325.49
376.544	343.79
376.925	330.68
377.305	317.35
377.686	326.84
378.066	337.01
378.447	328.65
378.827	320.51
379.208	340.4
379.588	318.93
379.968	351.7
380.349	334.75
380.729	327.07
381.109	366.39
381.489	342.43
381.87	335.88
382.25	357.8
382.63	349.67
383.01	350.57
383.39	336.78
383.77	339.95
384.15	346.5
384.53	367.74
384.91	358.71
385.29	351.93
385.67	352.6
386.049	350.57
386.429	348.99
386.809	354.41
387.189	342.66
387.568	369.55
387.948	359.61
388.328	376.11
388.707	384.47
389.087	339.95
389.466	395.31
389.846	375.65
390.225	369.1
390.605	370.23
390.984	380.17
391.363	396.67
391.743	364.13
392.122	350.12
392.501	355.77
392.881	380.4
393.26	357.35
393.639	395.09
394.018	359.61
394.397	378.82
394.776	379.95
395.155	405.03
395.534	397.12
395.913	378.59
396.292	396.67
396.671	393.73
397.05	383.34
397.429	387.18
397.808	396.22
398.186	385.82
398.565	389.44
398.944	376.78
399.323	390.57
399.701	397.35
400.08	379.95
400.458	379.04
400.837	400.29
401.215	409.1
401.594	424.01
401.972	399.16
402.351	415.43
402.729	413.39
403.107	402.09
403.486	398.93
403.864	403
404.242	393.73
404.62	396.22
404.999	411.13
405.377	426.95
405.755	400.51
406.133	425.6
406.511	431.47
406.889	425.82
407.267	424.01
407.645	416.56
408.023	421.98
408.401	440.74
408.779	435.09
409.156	431.92
409.534	451.81
409.912	438.7
410.29	442.77
410.667	454.3
411.045	458.14
411.422	457.23
411.8	472.15
412.178	441.19
412.555	467.18
412.933	480.96
413.31	456.56
413.687	476.22
414.065	477.12
414.442	467.85
414.819	463.34
415.197	480.51
415.574	468.53
415.951	482.32
416.328	483
416.705	467.4
417.082	463.79
417.46	533.84
417.837	495.65
418.214	499.94
418.591	510.79
418.967	491.13
419.344	504.46
419.721	524.8
420.098	517.35
420.475	532.26
420.852	525.25
421.228	519.15
421.605	532.49
421.982	529.32
422.358	534.52
422.735	527.97
423.111	531.36
423.488	549.89
423.864	554.86
424.241	553.73
424.617	543.56
424.994	548.08
425.37	543.79
425.746	558.02
426.123	574.74
426.499	570.45
426.875	551.92
427.251	590.79
427.627	577.68
428.003	585.82
428.379	585.37
428.756	609.09
429.132	592.6
429.507	588.53
429.883	593.73
430.259	607.96
430.635	608.42
431.011	618.36
431.387	617.23
431.763	622.88
432.138	656.55
432.514	626.27
432.89	636.44
433.265	643.67
433.641	640.05
434.016	665.36
434.392	653.61
434.767	645.93
435.143	662.43
435.518	669.21
435.894	665.36
436.269	683.44
436.644	691.58
437.02	707.62
437.395	713.27
437.77	705.14
438.145	714.63
438.52	699.71
438.895	730.45
439.271	713.95
439.646	728.87
440.021	737.23
440.395	739.26
440.77	730.45
441.145	742.65
441.52	738.81
441.895	736.1
442.27	755.3
442.645	771.58
443.019	760.28
443.394	744.68
443.769	765.02
444.143	777
444.518	796.21
444.892	776.32
445.267	777.23
445.641	770.67
446.016	789.2
446.39	806.6
446.764	809.09
447.139	797.79
447.513	804.8
447.887	816.09
448.262	805.02
448.636	807.28
449.01	821.07
449.384	838.92
449.758	837.11
450.132	840.5
450.506	836.21
450.88	826.04
451.254	851.35
451.628	853.16
452.002	847.73
452.376	871.91
452.75	892.25
453.123	877.79
453.497	922.31
453.871	882.99
454.244	895.64
454.618	927.5
454.992	908.97
455.365	914.4
455.739	947.84
456.112	980.61
456.486	935.19
456.859	914.62
457.232	989.88
457.606	1000.72
457.979	969.99
458.352	1002.08
458.725	983.55
459.099	1001.4
459.472	1030.1
459.845	1018.57
460.218	1029.2
460.591	1046.6
460.964	1070.1
461.337	1056.54
461.71	1084.56
462.083	1133.37
462.456	1097.67
462.829	1110.78
463.201	1115.75
463.574	1132.47
463.947	1147.61
464.32	1157.78
464.692	1169.31
465.065	1169.98
465.438	1209.76
465.81	1199.59
466.183	1236.42
466.555	1230.77
466.928	1237.55
467.3	1244.11
467.672	1284.56
468.045	1293.37
468.417	1305.12
468.789	1308.74
469.161	1324.33
469.534	1344.44
469.906	1356.87
470.278	1372.24
470.65	1409.3
471.022	1408.4
471.394	1430.09
471.766	1460.82
472.138	1485.91
472.51	1512.35
472.882	1512.12
473.253	1579.01
473.625	1593.25
473.997	1599.58
474.369	1612.23
474.74	1637.77
475.112	1683.64
475.484	1669.63
475.855	1727.93
476.227	1749.4
476.598	1796.18
476.97	1804.99
477.341	1851.1
477.713	1889.29
478.084	1889.96
478.455	1930.42
478.827	2004.31
479.198	2019.9
479.569	1995.5
479.94	2092.22
480.311	2120.92
480.682	2173.57
481.053	2225.32
481.424	2266.68
481.795	2315.04
482.166	2359.56
482.537	2362.72
482.908	2454.47
483.279	2463.73
483.65	2505.32
484.021	2559.33
484.391	2607.23
484.762	2630.96
485.133	2682.26
485.503	2736.72
485.874	2767
486.244	2814.46
486.615	2871.18
486.985	2884.29
487.356	2976.04
487.726	3028.24
488.097	3051.97
488.467	3100.78
488.837	3181.91
489.207	3181.23
489.578	3252.64
489.948	3291.28
490.318	3362.69
490.688	3383.26
491.058	3456.48
491.428	3497.15
491.798	3500.32
492.168	3557.94
492.538	3623.7
492.908	3669.13
493.278	3730.59
493.648	3738.5
494.017	3786.19
494.387	3868.22
494.757	3875.9
495.126	3914.32
495.496	3960.87
495.866	3933.75
496.235	4066.86
496.605	4058.27
496.974	4116.57
497.344	4162.22
497.713	4192.95
498.082	4243.12
498.452	4283.57
498.821	4272.95
499.19	4315.66
499.559	4335.55
499.928	4404.47
500.298	4404.7
500.667	4428.43
501.036	4472.5
501.405	4498.48
501.774	4488.54
502.143	4549.1
502.512	4586.39
502.88	4552.27
503.249	4603.11
503.618	4676.11
503.987	4725.82
504.356	4688.08
504.724	4742.77
505.093	4791.13
505.462	4789.1
505.83	4859.6
506.199	4863.67
506.567	4941.18
506.936	4934.63
507.304	4923.56
507.672	4936.89
508.041	5016.89
508.409	5004.68
508.777	5085.36
509.145	5095.3
509.514	5112.93
509.882	5141.18
510.25	5102.08
510.618	5126.94
510.986	5180.5
511.354	5255.75
511.722	5288.75
512.09	5306.6
512.458	5312.47
512.826	5319.03
513.193	5330.33
513.561	5394.05
513.929	5377.33
514.297	5406.26
514.664	5463.2
515.032	5503.65
515.4	5482.19
515.767	5539.13
516.135	5524.9
516.502	5496.65
516.869	5559.92
517.237	5625.91
517.604	5596.08
517.972	5652.13
518.339	5643.31
518.706	5669.98
519.073	5732.35
519.44	5799.24
519.808	5759.47
520.175	5743.2
520.542	5863.65
520.909	5856.19
521.276	5851.89
521.643	5876.75
522.009	5890.54
522.376	5929.41
522.743	5929.41
523.11	6008.27
523.477	6018.9
523.843	6053.24
524.21	6135.95
524.577	6183.41
524.943	6150.87
525.31	6209.4
525.676	6227.7
526.043	6282.84
526.409	6326.91
526.776	6416.85
527.142	6396.06
527.508	6402.16
527.874	6463.18
528.241	6511.54
528.607	6531.65
528.973	6559.9
529.339	6535.72
529.705	6552.21
530.071	6661.14
530.437	6680.35
530.803	6681.7
531.169	6734.58
531.535	6751.53
531.901	6742.04
532.267	6820.91
532.632	6814.81
532.998	6875.82
533.364	6933.45
533.73	6912.43
534.095	6973.45
534.461	7003.73
534.826	7033.78
535.192	7058.64
535.557	7105.65
535.923	7132.76
536.288	7174.8
536.653	7159.88
537.019	7151.52
537.384	7184.74
537.749	7256.15
538.114	7303.83
538.479	7241.91
538.845	7322.59
539.21	7271.07
539.575	7366.88
539.94	7464.06
540.305	7445.75
540.67	7427.67
541.034	7482.36
541.399	7553.32
541.764	7523.49
542.129	7601.68
542.494	7546.31
542.858	7628.12
543.223	7680.55
543.587	7652.07
543.952	7734.1
544.316	7758.06
544.681	7763.93
545.045	7834.67
545.41	7904.5
545.774	7894.1
546.138	7909.47
546.503	7982.46
546.867	7931.16
547.231	8019.07
547.595	8100.87
547.959	8088.9
548.324	8090.48
548.688	8127.09
549.052	8128.9
549.416	8154.43
549.779	8133.64
550.143	8149.46
550.507	8349
550.871	8250.02
551.235	8326.86
551.599	8292.28
551.962	8320.98
552.326	8429
552.689	8421.32
553.053	8403.69
553.417	8447.31
553.78	8558.04
554.143	8553.74
554.507	8545.61
554.87	8528.66
555.234	8683.91
555.597	8575.66
555.96	8629
556.323	8717.13
556.686	8719.39
557.05	8767.98
557.413	8769.33
557.776	8799.61
558.139	8827.18
558.502	8824.47
558.865	8899.5
559.228	8965.94
559.59	8927.97
559.953	8951.7
560.316	9066.5
560.679	9020.17
561.041	9018.14
561.404	9125.48
561.767	9206.83
562.129	9090.45
562.492	9238.02
562.854	9238.7
563.217	9177.23
563.579	9258.81
563.941	9433.04
564.304	9312.59
564.666	9386.94
565.028	9426.49
565.39	9447.28
565.753	9520.05
566.115	9518.01
566.477	9498.13
566.839	9568.63
567.201	9587.16
567.563	9602.98
567.925	9782.64
568.287	9713.94
568.648	9737.67
569.01	9785.12
569.372	9899.7
569.734	9896.76
570.095	9917.55
570.457	9967.27
570.819	9967.94
571.18	10026.02
571.542	10078.9
571.903	10134.49
572.265	10238.22
572.626	10254.49
572.987	10250.87
573.349	10341.95
573.71	10442.51
574.071	10465.11
574.432	10499.91
574.794	10579.91
575.155	10628.04
575.516	10553.92
575.877	10735.83
576.238	10777.41
576.599	10914.59
576.96	11026.45
577.32	11035.26
577.681	11156.84
578.042	11179.89
578.403	11173.34
578.763	11351.86
579.124	11467.79
579.485	11624.62
579.845	11721.57
580.206	11811.06
580.566	11875.69
580.927	12052.86
581.287	12185.29
581.648	12235.68
582.008	12446.75
582.368	12574.88
582.728	12718.83
583.089	12903.91
583.449	13080.18
583.809	13217.8
584.169	13396.55
584.529	13578.47
584.889	13823.89
585.249	13867.5
585.609	14052.58
585.969	14306.36
586.329	14530.08
586.688	14836.52
587.048	14899.57
587.408	15156.96
587.768	15385.43
588.127	15567.34
588.487	15795.59
588.846	16134.34
589.206	16269.47
589.565	16556.25
589.925	16859.51
590.284	17079.4
590.643	17452.27
591.003	17700.17
591.362	18039.82
591.721	18285.24
592.08	18494.05
592.44	18905.56
592.799	19127.25
593.158	19352.78
593.517	19609.5
593.876	19982.6
594.235	20160.44
594.593	20579.64
594.952	20864.83
595.311	21142.57
595.67	21517.47
596.029	21812.6
596.387	22212.37
596.746	22385.47
597.104	22699.81
597.463	22933.7
597.822	23417.08
598.18	23597.19
598.538	23963.96
598.897	24288.25
599.255	24437.85
599.613	24961.67
599.972	25219.97
600.33	25521.89
600.688	25614.76
601.046	26013.4
601.404	26504.46
601.762	26633.72
602.12	26971.56
602.478	27315.28
602.836	27470.08
603.194	27621.04
603.552	28092.89
603.91	28195.94
604.268	28593.67
604.625	28690.16
604.983	29230.49
605.341	29264.84
605.698	29658.27
606.056	30048.32
606.413	30196.11
606.771	30448.31
607.128	30743.67
607.485	30918.81
607.843	31146.6
608.2	31433.59
608.557	31791.33
608.914	31797.43
609.272	32142.5
609.629	32395.38
609.986	32815.03
610.343	32755.82
610.7	33260.44
611.057	33342.92
611.414	33463.82
611.771	33800.31
612.127	34077.37
612.484	34139.96
612.841	34482.78
613.198	34600.29
613.554	34740.4
613.911	35109.88
614.267	35268.07
614.624	35314.4
614.98	35460.16
615.337	35752.35
615.693	35987.37
616.05	35991.21
616.406	36558.43
616.762	36445.21
617.118	36369.51
617.475	36692.21
617.831	36945.31
618.187	37027.8
618.543	37105.99
618.899	37508.69
619.255	37423.49
619.611	37601.12
619.967	37811.96
620.323	37990.48
620.678	38026.64
621.034	38039.3
621.39	38067.09
621.746	38207.2
622.101	38802.44
622.457	38413.98
622.812	38744.36
623.168	38852.16
623.523	38907.07
623.879	38980.74
624.234	38934.87
624.589	39142.09
624.945	39194.52
625.3	39278.13
625.655	39512.93
626.01	39458.24
626.365	39580.72
626.72	39610.55
627.075	39745.24
627.43	39675.64
627.785	39633.83
628.14	39864.56
628.495	40032.24
628.85	39964.22
629.205	39953.14
629.559	40259.58
629.914	40009.64
630.269	40169.18
630.623	40056.64
630.978	40223.65
631.332	40277.88
631.687	40496.18
632.041	40326.69
632.396	40481.27
632.75	40294.6
633.104	40414.6
633.459	40214.83
633.813	40315.62
634.167	40319.69
634.521	40249.86
634.875	40494.37
635.229	40403.08
635.583	40125.34
635.937	40153.14
636.291	40262.51
636.645	40329.41
636.999	40258
637.352	40354.72
637.706	40235.17
638.06	40482.17
638.413	40374.15
638.767	40259.58
639.121	40473.36
639.474	40170.09
639.828	40282.4
640.181	40327.6
640.534	40390.87
640.888	40118.56
641.241	39959.47
641.594	40271.78
641.947	40489.85
642.301	40312.91
642.654	40272.68
643.007	40359.46
643.36	40338.22
643.713	40166.7
644.066	40434.71
644.419	40059.36
644.771	39805.13
645.124	39693.04
645.477	39437
645.83	39267.29
646.182	39114.07
646.535	39078.37
646.888	39189.77
647.24	38933.96
647.593	39145.48
647.945	39090.79
648.298	38982.77
648.65	38786.62
649.002	38750.92
649.355	38974.64
649.707	38956.11
650.059	39119.95
650.411	39492.37
650.763	39640.84
651.115	39905.91
651.467	39872.24
651.819	39949.98
652.171	39807.39
652.523	39710.21
652.875	39866.59
653.227	39562.87
653.578	39797.89
653.93	39689.87
654.282	39545.47
654.633	39532.82
654.985	39603.78
655.337	39675.64
655.688	39645.13
656.039	39794.73
656.391	39455.3
656.742	39447.17
657.094	39524.91
657.445	39638.35
657.796	39691
658.147	39573.49
658.498	39583.21
658.849	39566.49
659.2	39458.24
659.551	39446.27
659.902	39540.73
660.253	39739.36
660.604	39572.14
660.955	39331.01
661.306	39468.86
661.656	39418.7
662.007	39420.73
662.358	39320.84
662.708	39530.1
663.059	39425.47
663.409	39203.79
663.76	39419.83
664.11	39413.95
664.461	39506.83
664.811	39445.81
665.161	39444.01
665.511	39328.08
665.862	39371.46
666.212	39518.58
666.562	39442.42
666.912	39560.16
667.262	39426.38
667.612	39399.71
667.962	39468.86
668.312	39250.34
668.662	39479.26
669.011	39390.9
669.361	39311.35
669.711	39192.49
670.06	39211.92
670.41	39348.41
670.76	39291.47
671.109	39225.71
671.459	39160.17
671.808	39184.35
672.157	39255.31
672.507	38962.89
672.856	39078.14
673.205	39046.05
673.554	39242.2
673.904	39096.9
674.253	39201.3
674.602	39160.4
674.951	38522
675.3	38397.03
675.649	39026.84
675.998	39037.46
676.346	38996.56
676.695	38989.1
677.044	38741.65
677.393	38936.22
677.741	38918.82
678.09	38877.69
678.438	38706.4
678.787	38882.44
679.135	38881.08
679.484	38573.97
679.832	38784.36
680.181	38548.44
680.529	38573.52
680.877	38385.05
681.225	38403.13
681.573	38688.09
681.922	38312.96
682.27	38290.59
682.618	38296.92
682.966	38152.97
683.314	38337.82
683.661	38169.69
684.009	37907.1
684.357	38058.5
684.705	37813.54
685.053	37977.6
685.4	37913.42
685.748	37620.78
686.095	37756.59
686.443	37691.51
686.79	37639.08
687.138	37587.78
687.485	37595.47
687.832	37374.91
688.18	37545.3
688.527	37293.33
688.874	37289.26
689.221	37183.95
689.568	37171.3
689.915	37016.05
690.262	37037.51
690.609	36971.3
690.956	36934.47
691.303	36895.15
691.65	36507.59
691.997	36534.25
692.344	36431.2
692.69	36367.02
693.037	36381.03
693.383	36055.39
693.73	36189.4
694.077	36128.84
694.423	36125.9
694.769	35866.02
695.116	35814.04
695.462	35805
695.808	35643.43
696.155	35797.77
696.501	35457.9
696.847	35426.71
697.193	35262.87
697.539	35419.48
697.885	35181.97
698.231	35069.21
698.577	35139.26
698.923	34915.31
699.269	34882.77
699.614	34572.04
699.96	34580.18
700.306	34689.78
700.651	34456.57
700.997	34363.23
701.342	34287.53
701.688	34259.06
702.033	34094.09
702.379	34100.64
702.724	34017.93
703.069	34095.45
703.415	33852.06
703.76	33713.08
704.105	33831.95
704.45	33759.86
704.795	33536.14
705.14	33489.81
705.485	33352.19
705.83	33159.2
706.175	33223.15
706.52	33164.4
706.865	33000.56
707.209	33022.93
707.554	32817.06
707.899	32864.29
708.243	32865.87
708.588	32796.04
708.932	32573.23
709.277	32507.69
709.621	32521.02
709.966	32377.75
710.31	32340.69
710.654	32201.71
710.998	32208.49
711.342	32124.2
711.687	32065.67
712.031	32058.89
712.375	31858.89
712.719	31944.09
713.063	31804.88
713.407	32027.7
713.75	31758.33
714.094	31768.05
714.438	31484.89
714.782	31517.89
715.125	31363.09
715.469	31479.24
715.812	31366.7
716.156	31189.53
716.499	31015.3
716.843	31313.37
717.186	31039.93
717.53	31154.28
717.873	31185.92
718.216	30907.51
718.559	30871.8
718.902	30728.75
719.246	30680.85
719.589	30641.07
719.932	30456.67
720.275	30631.58
720.617	30566.95
720.96	30319.05
721.303	30475.65
721.646	30260.74
721.989	30303
722.331	30298.03
722.674	30344.58
723.016	30329.89
723.359	30199.28
723.701	30117.7
724.044	30099.39
724.386	29915.67
724.729	30072.5
725.071	29862.56
725.413	29968.55
725.755	29846.52
726.097	29747.54
726.439	29710.25
726.782	29712.51
727.124	29748.21
727.465	29591.16
727.807	29510.26
728.149	29658.95
728.491	29334.67
728.833	29384.61
729.175	29301.22
729.516	29310.71
729.858	29258.06
730.199	29296.25
730.541	29101.9
730.882	29167.89
731.224	29173.54
731.565	29088.57
731.906	29019.65
732.248	29100.32
732.589	28910.95
732.93	28863.04
733.271	28827.34
733.612	28798.64
733.953	28876.83
734.294	28699.2
734.635	28707.34
734.976	28793.66
735.317	28652.65
735.658	28662.14
735.999	28588.47
736.339	28584.18
736.68	28644.52
737.021	28469.38
737.361	28316.16
737.702	28469.38
738.042	28417.85
738.383	28340.34
738.723	28480
739.063	28221.48
739.404	28256.5
739.744	28203.62
740.084	28016.51
740.424	28098.54
740.764	28150.74
741.104	28110.74
741.444	27859.9
741.784	27924.99
742.124	28047.24
742.464	27977.19
742.804	27832.11
743.143	27755.27
743.483	27814.03
743.823	27519.57
744.162	27573.13
744.502	27674.15
744.841	27580.81
745.181	27559.35
745.52	27502.17
745.86	27498.33
746.199	27432.8
746.538	27355.06
746.877	27429.63
747.216	27401.16
747.556	27382.63
747.895	27374.49
748.234	27246.81
748.573	27192.8
748.911	27141.5
749.25	27184.67
749.589	27082.52
749.928	27093.37
750.267	27198.23
750.605	27148.74
750.944	27062.86
751.283	26927.05
751.621	26931.34
751.96	26838.01
752.298	26739.93
752.636	26761.63
752.975	26756.66
753.313	26634.17
753.651	26690.89
753.989	26631.91
754.327	26511.01
754.666	26393.5
755.004	26516.89
755.342	26492.48
755.679	26470.56
756.017	26259.72
756.355	26332.71
756.693	26207.07
757.031	26256.56
757.368	26141.98
757.706	25913.51
758.044	25971.59
758.381	26027.18
758.719	25906.28
759.056	25906.73
759.394	25842.33
759.731	25705.16
760.068	25623.13
760.405	25520.76
760.743	25443.02
761.08	25551.72
761.417	25329.57
761.754	25421.1
762.091	25218.39
762.428	25130.94
762.765	25040.32
763.102	25105.17
763.438	24957.61
763.775	25049.13
764.112	24817.5
764.449	24945.4
764.785	24665.18
765.122	24660.89
765.458	24542.02
765.795	24472.65
766.131	24497.96
766.467	24369.37
766.804	24279.66
767.14	24141.81
767.476	24198.08
767.812	24003.28
768.148	24083.96
768.485	23861.59
768.821	23719.67
769.157	23725.77
769.492	23763.74
769.828	23746.56
770.164	23394.03
770.5	23495.72
770.836	23451.43
771.171	23282.85
771.507	23134.15
771.842	23046.7
772.178	23214.15
772.513	23069.07
772.849	22920.37
773.184	22854.16
773.519	22763.99
773.855	22782.75
774.19	22537.33
774.525	22408.52
774.86	22522.87
775.195	22533.49
775.53	22311.35
775.865	22265.47
776.2	22089.21
776.535	22030.9
776.87	22064.8
777.205	21840.17
777.539	21816.45
777.874	21758.14
778.209	21663.23
778.543	21706.17
778.878	21412.39
779.212	21434.76
779.547	21303.92
779.881	21353.18
780.215	21263.01
780.55	21227.76
780.884	21037.71
781.218	21079.52
781.552	21025.05
781.886	20874.78
782.22	20779.19
782.554	20677.27
782.888	20540.1
783.222	20490.61
783.556	20359.31
783.889	20400.21
784.223	20137.85
784.557	20183.04
784.89	20138.98
785.224	20121.8
785.557	20030.5
785.891	19947.12
786.224	19889.27
786.558	19801.81
786.891	19643.4
787.224	19678.65
787.557	19595.04
787.891	19507.58
788.224	19533.12
788.557	19593.68
788.89	19423.51
789.223	19353.91
789.556	19193.92
789.888	19158.21
790.221	19079.12
790.554	18940.82
790.887	18908.73
791.219	18788.5
791.552	18736.08
791.884	18771.1
792.217	18631.45
792.549	18516.87
792.882	18471.68
793.214	18548.06
793.546	18479.81
793.879	18353.49
794.211	18222.42
794.543	18307.84
794.875	18222.19
795.207	18277.33
795.539	18150.55
795.871	18167.28
796.203	18064.68
796.535	17888.64
796.867	17753.95
797.198	17864.91
797.53	17783.56
797.862	17681.41
798.193	17733.84
798.525	17657.01
798.856	17592.38
799.188	17343.57
799.519	17354.42
799.85	17374.08
800.182	17233.29
800.513	17162.78
800.844	17056.35
801.175	17149.68
801.506	17167.3
801.837	16971.6
802.168	16964.82
802.499	16923.69
802.83	16871.04
803.161	16770.03
803.491	16756.47
803.822	16816.58
804.153	16644.38
804.483	16545.62
804.814	16494.33
805.145	16419.3
805.475	16530.26
805.805	16442.12
806.136	16371.17
806.466	16301.79
806.796	16331.17
807.126	16149.25
807.457	16129.82
807.787	16177.72
808.117	16062.02
808.447	16040.78
808.777	16025.41
809.107	15961.01
809.436	15814.8
809.766	15884.85
810.096	15809.15
810.426	15794.91
810.755	15775.48
811.085	15743.16
811.414	15662.94
811.744	15597.63
812.073	15577.51
812.403	15545.42
812.732	15458.2
813.061	15467.46
813.39	15373.45
813.719	15296.62
814.049	15383.39
814.378	15223.63
814.707	15308.82
815.036	15192.67
815.365	15115.15
815.693	14975.04
816.022	14999
816.351	14994.7
816.68	14804.2
817.008	15006.68
817.337	14880.13
817.665	14853.92
817.994	14869.28
818.322	14823.64
818.651	14724.66
818.979	14686.92
819.307	14650.31
819.636	14688.5
819.964	14640.36
820.292	14719.01
820.62	14551.33
820.948	14542.74
821.276	14613.92
821.604	14518.78
821.932	14639.23
822.259	14566.02
822.587	14515.4
822.915	14488.5
823.243	14430.2
823.57	14433.36
823.898	14498.22
824.225	14495.51
824.553	14410.77
824.88	14437.21
825.207	14493.25
825.535	14421.39
825.862	14472.01
826.189	14443.31
826.516	14507.49
826.843	14566.02
827.17	14459.8
827.497	14517.2
827.824	14513.81
828.151	14542.06
828.478	14474.49
828.805	14541.16
829.131	14539.12
829.458	14476.53
829.785	14380.48
830.111	14441.05
830.438	14497.99
830.764	14471.78
831.09	14485.34
831.417	14252.13
831.743	14402.86
832.069	14388.84
832.395	14403.76
832.722	14434.72
833.048	14283.08
833.374	14393.14
833.7	14281.95
834.026	14319.24
834.351	14345.68
834.677	14244.44
835.003	14305.46
835.329	14272.69
835.654	14302.29
835.98	14117.89
836.306	14252.58
836.631	14168.51
836.956	14261.62
837.282	14150.66
837.607	14130.55
837.932	14104.11
838.258	14091.9
838.583	14128.51
838.908	14026.59
839.233	14046.93
839.558	13887.39
839.883	13909.08
840.208	13914.73
840.533	13861.18
840.858	13910.21
841.182	13877.22
841.507	13841.97
841.832	13793.61
842.156	13714.29
842.481	13664.12
842.805	13777.79
843.13	13630.9
843.454	13606.27
843.778	13526.04
844.103	13522.88
844.427	13525.82
844.751	13573.95
845.075	13553.84
845.399	13441.07
845.723	13375.76
846.047	13377.12
846.371	13299.83
846.695	13289.44
847.019	13130.12
847.343	13081.53
847.666	12993.18
847.99	13057.58
848.313	12959.28
848.637	12857.81
848.96	12890.58
849.284	12820.75
849.607	12635.9
849.931	12651.04
850.254	12637.7
850.577	12578.27
850.9	12561.1
851.223	12441.33
851.546	12416.92
851.869	12347.32
852.192	12441.55
852.515	12261.22
852.838	12272.06
853.161	12216.25
853.483	12203.37
853.806	12074.78
854.129	12072.3
854.451	12045.86
854.774	11998.17
855.096	11934.9
855.419	11942.58
855.741	11860.32
856.063	11786.2
856.385	11738.29
856.708	11791.85
857.03	11740.33
857.352	11795.01
857.674	11656.94
857.996	11641.35
858.318	11625.3
858.64	11608.35
858.961	11549.15
859.283	11472.54
859.605	11468.02
859.926	11522.71
860.248	11453.55
860.57	11408.58
860.891	11322.94
861.212	11350.51
861.534	11222.15
861.855	11284.07
862.176	11256.72
862.498	11332.43
862.819	11323.61
863.14	11163.62
863.461	11179.89
863.782	11170.17
864.103	11107.35
864.424	11075.26
864.745	11078.88
865.065	11071.87
865.386	10966.79
865.707	11026.9
866.027	10907.35
866.348	11040.68
866.668	10972.66
866.989	10993.45
867.309	10932.66
867.63	11032.32
867.95	10870.29
868.27	10837.3
868.59	10844.76
868.91	10781.71
869.23	10806.79
869.55	10716.17
869.87	10832.55
870.19	10707.59
870.51	10724.08
870.83	10793.23
871.15	10704.2
871.469	10661.26
871.789	10733.8
872.109	10635.5
872.428	10587.36
872.748	10579.23
873.067	10566.57
873.386	10588.49
873.706	10586.91
874.025	10504.43
874.344	10558.44
874.663	10490.19
874.982	10444.32
875.301	10503.3
875.62	10487.03
875.939	10417.42
876.258	10467.37
876.577	10411.77
876.896	10358.89
877.214	10343.53
877.533	10335.39
877.852	10271.44
878.17	10366.13
878.489	10322.06
878.807	10322.29
879.125	10248.84
879.444	10249.97
879.762	10196.86
880.08	10207.03
880.398	10208.39
880.716	10230.76
881.034	10153.7
881.352	10136.53
881.67	10106.47
881.988	10128.17
882.306	10104.66
882.624	9977.21
882.941	9962.97
883.259	9958
883.577	9995.06
883.894	9932.24
884.212	9874.61
884.529	9926.59
884.846	9876.65
885.164	9889.98
885.481	9801.62
885.798	9852.24
886.115	9683.21
886.432	9727.5
886.75	9703.54
887.067	9762.3
887.383	9707.84
887.7	9733.15
888.017	9608.86
888.334	9670.32
888.651	9615.64
888.967	9635.75
889.284	9551.68
889.6	9539.71
889.917	9534.51
890.233	9548.07
890.55	9395.3
890.866	9469.65
891.182	9410.22
891.498	9344.68
891.815	9342.65
892.131	9287.96
892.447	9275.53
892.763	9235.08
893.079	9186.5
893.395	9242.31
893.71	9162.32
894.026	9139.72
894.342	9130.9
894.657	8995.31
894.973	8988.08
895.289	9012.26
895.604	8977.01
895.92	8916.22
896.235	8886.39
896.55	8933.62
896.865	8882.1
897.181	8898.37
897.496	8880.52
897.811	8800.52
898.126	8731.14
898.441	8725.72
898.756	8657.47
899.071	8631.93
899.386	8706.28
899.7	8564.37
900.015	8548.32
900.33	8527.53
900.644	8495.21
900.959	8477.36
901.273	8441.2
901.588	8417.7
901.902	8350.36
902.216	8356.24
902.531	8254.54
902.845	8305.39
903.159	8313.75
903.473	8247.09
903.787	8185.84
904.101	8173.64
904.415	8157.82
904.729	8120.76
905.042	8096.13
905.356	8085.51
905.67	8064.27
905.984	7947.21
906.297	7972.29
906.611	7927.09
906.924	7911.73
907.237	7901.11
907.551	7855.23
907.864	7778.4
908.177	7800.09
908.491	7773.65
908.804	7702.47
909.117	7662.24
909.43	7606.65
909.743	7684.61
910.056	7651.85
910.368	7493.43
910.681	7521
910.994	7514.9
911.307	7416.6
911.619	7458.86
911.932	7460.89
912.244	7422.25
912.557	7385.19
912.869	7335.24
913.181	7312.65
913.494	7228.13
913.806	7245.3
914.118	7169.37
914.43	7177.73
914.742	7161.01
915.054	7122.37
915.366	7078.08
915.678	7101.8
915.99	7008.25
916.302	7024.29
916.613	6931.19
916.925	6895.26
917.236	6978.19
917.548	6873.56
917.859	6950.4
918.171	6856.39
918.482	6788.37
918.794	6765.77
919.105	6804.64
919.416	6725.32
919.727	6721.7
920.038	6724.19
920.349	6608.48
920.66	6602.83
920.971	6618.2
921.282	6570.07
921.593	6536.17
921.903	6508.83
922.214	6433.57
922.525	6450.97
922.835	6397.42
923.146	6368.72
923.456	6383.41
923.767	6378.66
924.077	6335.72
924.387	6263.63
924.697	6221.83
925.008	6227.93
925.318	6230.64
925.628	6249.62
925.938	6124.43
926.248	6097.31
926.558	6114.03
926.867	6059.12
927.177	6065.22
927.487	6016.64
927.796	5953.13
928.106	5971.89
928.416	5912.91
928.725	5908.62
929.034	5934.83
929.344	5882.63
929.653	5895.28
929.962	5746.59
930.271	5777.77
930.581	5769.64
930.89	5704.78
931.199	5729.64
931.508	5681.73
931.817	5704.1
932.125	5664.1
932.434	5628.17
932.743	5577.78
933.051	5593.14
933.36	5528.51
933.669	5462.75
933.977	5534.39
934.286	5479.47
934.594	5449.64
934.902	5435.18
935.21	5414.39
935.519	5406.26
935.827	5348.63
936.135	5362.64
936.443	5319.03
936.751	5247.62
937.059	5263.66
937.367	5226.6
937.674	5231.8
937.982	5219.59
938.29	5152.7
938.597	5179.37
938.905	5121.74
939.213	5123.78
939.52	5094.85
939.827	5121.29
940.135	5025.25
940.442	5062.76
940.749	5049.43
941.056	5027.06
941.363	4937.34
941.67	4933.5
941.977	4885.82
942.284	4869.55
942.591	4845.37
942.898	4850.34
943.205	4838.81
943.511	4825.03
943.818	4813.05
944.125	4729.21
944.431	4693.28
944.738	4758.59
945.044	4724.24
945.35	4689.66
945.657	4662.77
945.963	4689.66
946.269	4603.79
946.575	4637.24
946.881	4614.64
947.187	4592.49
947.493	4573.06
947.799	4541.87
948.105	4511.36
948.41	4469.78
948.716	4489.67
949.022	4503.46
949.327	4449.22
949.633	4390.69
949.938	4409.45
950.244	4428.43
950.549	4391.14
950.854	4367.64
951.16	4334.19
951.465	4276.79
951.77	4314.08
952.075	4239.06
952.38	4294.19
952.685	4238.83
952.99	4238.15
953.294	4217.59
953.599	4151.83
953.904	4124.26
954.209	4139.17
954.513	4135.56
954.818	4064.37
955.122	4114.99
955.426	4117.7
955.731	4115.89
956.035	4036.8
956.339	4032.96
956.643	4016.24
956.948	4000.42
957.252	4021.21
957.556	3940.08
957.86	3942.34
958.163	3936.24
958.467	3934.2
958.771	3892.17
959.075	3903.02
959.378	3804.94
959.682	3840.87
959.985	3836.58
960.289	3784.15
960.592	3806.52
960.896	3765.62
961.199	3751.84
961.502	3735.79
961.805	3709.13
962.108	3700.99
962.411	3682.23
962.714	3678.17
963.017	3605.63
963.32	3611.05
963.623	3637.72
963.926	3635.68
964.228	3563.59
964.531	3619.18
964.833	3585.97
965.136	3566.08
965.438	3509.58
965.741	3514.33
966.043	3467.55
966.345	3497.61
966.648	3463.93
966.95	3463.93
967.252	3445.4
967.554	3418.29
967.856	3420.32
968.158	3377.83
968.46	3417.83
968.761	3383.71
969.063	3358.4
969.365	3341.23
969.666	3321.11
969.968	3258.52
970.269	3296.48
970.571	3300.55
970.872	3286.76
971.174	3279.53
971.475	3273.66
971.776	3223.26
972.077	3202.02
972.378	3197.95
972.679	3197.27
972.98	3198.4
973.281	3153.66
973.582	3134.45
973.883	3145.07
974.183	3127.67
974.484	3090.38
974.785	3066.43
975.085	3079.31
975.386	3088.8
975.686	3010.16
975.986	3047.9
976.287	3036.15
976.587	3001.57
976.887	2993.44
977.187	2991.4
977.487	3013.1
977.787	2940.33
978.087	2941.24
978.387	2918.19
978.687	2948.02
978.987	2916.83
979.286	2892.42
979.586	2893.1
979.885	2864.18
980.185	2805.42
980.484	2798.64
980.784	2810.62
981.083	2808.81
981.382	2785.99
981.682	2777.85
981.981	2806.1
982.28	2769.49
982.579	2744.63
982.878	2794.35
983.177	2756.16
983.475	2734.69
983.774	2724.07
984.073	2677.29
984.372	2671.41
984.67	2680.23
984.969	2654.01
985.267	2665.31
985.566	2638.19
985.864	2633.22
986.162	2615.37
986.461	2588.7
986.759	2581.92
987.057	2569.95
987.355	2528.14
987.653	2535.82
987.951	2575.37
988.249	2553.9
988.547	2538.76
988.844	2526.33
989.142	2510.97
989.44	2468.25
989.737	2469.38
990.035	2469.16
990.332	2440.91
990.63	2447.69
990.927	2432.1
991.224	2415.37
991.521	2369.05
991.819	2418.76
992.116	2403.62
992.413	2378.31
992.71	2409.72
993.006	2378.09
993.303	2318.43
993.6	2331.99
993.897	2333.12
994.193	2291.08
994.49	2316.39
994.787	2287.92
995.083	2268.71
995.379	2267.81
995.676	2246.79
995.972	2220.13
996.268	2211.99
996.565	2220.35
996.861	2214.93
997.157	2224.64
997.453	2204.76
997.749	2201.37
998.044	2160.01
998.34	2148.94
998.636	2120.69
998.932	2183.29
999.227	2142.39
999.523	2138.09
999.818	2090.64
1000.114	2076.4
1000.409	2113.24
1000.704	2087.02
1001	2059.9
1001.295	2059.68
1001.59	2058.55
1001.885	2045.44
1002.18	2009.96
1002.475	2002.05
1002.77	1998.44
1003.065	1999.34
1003.359	1967.25
1003.654	1983.3
1003.949	1975.84
1004.243	1918.66
1004.538	1919.57
1004.832	1934.26
1005.127	1943.3
1005.421	1921.15
1005.715	1905.78
1006.009	1898.1
1006.304	1879.34
1006.598	1901.49
1006.892	1859.91
1007.186	1835.05
1007.48	1830.3
1007.773	1820.81
1008.067	1821.04
1008.361	1804.32
1008.655	1773.13
1008.948	1759.57
1009.242	1734.26
1009.535	1757.99
1009.829	1750.08
1010.122	1748.5
1010.415	1699.01
1010.708	1729.97
1011.001	1692.68
1011.295	1703.98
1011.588	1682.96
1011.881	1680.25
1012.173	1677.77
1012.466	1661.5
1012.759	1684.77
1013.052	1654.94
1013.344	1644.1
1013.637	1612.23
1013.93	1580.82
1014.222	1586.24
1014.514	1616.75
1014.807	1554.61
1015.099	1560.03
1015.391	1548.5
1015.683	1562.97
1015.976	1555.51
1016.268	1535.4
1016.56	1514.38
1016.851	1537.43
1017.143	1505.34
1017.435	1491.78
1017.727	1496.98
1018.018	1475.74
1018.31	1486.36
1018.602	1470.31
1018.893	1452.01
1019.185	1464.89
1019.476	1442.97
1019.767	1428.96
1020.058	1424.89
1020.35	1398
1020.641	1378.57
1020.932	1402.07
1021.223	1379.92
1021.514	1392.58
1021.804	1375.85
1022.095	1388.73
1022.386	1346.93
1022.677	1349.64
1022.967	1343.99
1023.258	1340.6
1023.548	1319.58
1023.839	1286.36
1024.129	1314.16
1024.419	1295.63
1024.709	1277.33
1025	1275.52
1025.29	1276.2
1025.58	1249.08
1025.87	1240.04
1026.16	1249.76
1026.449	1246.82
1026.739	1251.34
1027.029	1219.25
1027.319	1213.82
1027.608	1220.83
1027.898	1170.66
1028.187	1191
1028.477	1180.38
1028.766	1184.22
1029.055	1172.92
1029.344	1165.24
1029.634	1174.73
1029.923	1144.67
1030.212	1135.18
1030.501	1127.5
1030.79	1125.92
1031.078	1115.07
1031.367	1089.08
1031.656	1086.6
1031.945	1108.52
1032.233	1074.17
1032.522	1099.02
1032.81	1068.97
1033.099	1057.22
1033.387	1042.53
1033.675	1056.77
1033.963	1043.43
1034.251	1039.82
1034.54	1063.77
1034.828	1004.11
1035.116	1022.42
1035.403	1021.96
1035.691	1006.37
1035.979	999.82
1036.267	1009.08
1036.554	994.17
1036.842	999.14
1037.129	963.44
1037.417	984.68
1037.704	971.34
1037.992	953.27
1038.279	967.95
1038.566	943.32
1038.853	943.32
1039.14	943.32
