Data from hue_310_FLMS001491_100.txt Node
Date: Mon Feb 06 15:50:30 GMT 2017
User: dcchb
Spectrometer: FLMS00149
Trigger mode: 0
Integration Time (sec): 2.000000E-2
Scans to average: 10
Electric dark correction enabled: true
Nonlinearity correction enabled: false
Boxcar width: 0
XAxis mode: Wavelengths
Number of Pixels in Spectrum: 2048
>>>>>Begin Spectral Data<<<<<
341.393	-9.67
341.776	-9.67
342.16	-9.67
342.543	-59.17
342.927	-68.2
343.31	-52.16
343.693	-63.23
344.077	-65.94
344.46	-69.56
344.843	-43.12
345.226	-51.03
345.61	-46.28
345.993	-27.08
346.376	-8.77
346.759	7.05
347.142	32.58
347.525	49.98
347.908	55.41
348.291	76.2
348.674	88.4
349.057	117.55
349.44	143.09
349.823	125.46
350.206	143.99
350.588	202.52
350.971	197.78
351.354	216.53
351.737	225.35
352.119	258.11
352.502	250.43
352.884	284.1
353.267	271
353.65	281.16
354.032	280.04
354.414	301.73
354.797	306.7
355.179	313.25
355.562	309.19
355.944	311.45
356.326	331.79
356.709	325.68
357.091	340.82
357.473	350.99
357.855	321.39
358.238	337.66
358.62	332.91
359.002	353.71
359.384	302.86
359.766	327.49
360.148	328.85
360.53	333.82
360.912	325.91
361.294	337.21
361.676	307.6
362.057	314.16
362.439	339.92
362.821	315.97
363.203	316.19
363.584	325.68
363.966	311.22
364.348	303.54
364.729	308.28
365.111	308.51
365.493	312.35
365.874	311.67
366.256	316.64
366.637	321.39
367.019	302.41
367.4	298.57
367.781	309.64
368.163	310.99
368.544	312.8
368.925	302.63
369.306	303.54
369.688	298.11
370.069	318.68
370.45	297.44
370.831	327.27
371.212	316.64
371.593	298.11
371.974	305.8
372.355	307.6
372.736	296.08
373.117	294.5
373.498	311.9
373.879	308.51
374.26	330.66
374.641	317.77
375.021	277.55
375.402	313.03
375.783	319.58
376.163	321.39
376.544	328.17
376.925	310.32
377.305	330.66
377.686	319.81
378.066	299.92
378.447	332.46
378.827	332.01
379.208	320.71
379.588	330.2
379.968	316.19
380.349	336.08
380.729	332.69
381.109	329.75
381.489	329.98
381.87	339.24
382.25	331.11
382.63	312.8
383.01	339.92
383.39	354.61
383.77	336.76
384.15	324.1
384.53	343.54
384.91	328.85
385.29	358.68
385.67	330.2
386.049	353.25
386.429	366.13
386.809	363.87
387.189	344.89
387.568	362.52
387.948	353.48
388.328	350.32
388.707	345.8
389.087	350.99
389.466	341.28
389.846	360.94
390.225	345.57
390.605	356.64
390.984	359.81
391.363	331.11
391.743	363.42
392.122	367.04
392.501	379.69
392.881	375.4
393.26	382.18
393.639	372.69
394.018	367.26
394.397	353.48
394.776	377.21
395.155	368.62
395.534	393.93
395.913	391.44
396.292	367.49
396.671	382.41
397.05	364.78
397.429	394.38
397.808	384.67
398.186	410.65
398.565	392.8
398.944	385.57
399.323	365.91
399.701	393.25
400.08	406.81
400.458	410.43
400.837	399.81
401.215	407.94
401.594	395.74
401.972	409.75
402.351	408.62
402.729	416.53
403.107	409.07
403.486	436.64
403.864	412.46
404.242	410.65
404.62	440.93
404.999	417.43
405.377	414.95
405.755	449.97
406.133	436.64
406.511	436.87
406.889	482.52
407.267	459.24
407.645	451.1
408.023	461.05
408.401	472.35
408.779	479.8
409.156	479.35
409.534	462.63
409.912	487.49
410.29	509.41
410.667	504.21
411.045	505.34
411.422	497.88
411.8	496.75
412.178	496.75
412.555	523.19
412.933	538.11
413.31	566.36
413.687	561.61
414.065	545.11
414.442	582.85
414.819	576.07
415.197	565
415.574	591.21
415.951	596.41
416.328	608.61
416.705	608.39
417.082	632.12
417.46	619.46
417.837	627.14
418.214	658.1
418.591	647.48
418.967	643.19
419.344	652.91
419.721	679.12
420.098	670.08
420.475	692
420.852	681.15
421.228	713.47
421.605	710.53
421.982	732.23
422.358	722.51
422.735	726.12
423.111	730.42
423.488	734.49
423.864	763.19
424.241	770.64
424.617	783.07
424.994	766.12
425.37	782.39
425.746	775.62
426.123	804.77
426.499	809.74
426.875	820.36
427.251	820.59
427.627	846.35
428.003	850.19
428.379	827.82
428.756	859.45
429.132	875.27
429.507	884.09
429.883	906.23
430.259	904.88
430.635	870.53
431.011	915.95
431.387	964.08
431.763	948.04
432.138	955.05
432.514	958.66
432.89	977.87
433.265	995.95
433.641	1014.7
434.016	1022.16
434.392	1023.97
434.767	1029.85
435.143	1024.65
435.518	1026.91
435.894	1084.31
436.269	1114.14
436.644	1087.02
437.02	1110.52
437.395	1113.46
437.77	1116.17
438.145	1118.43
438.52	1152.78
438.895	1167.02
439.271	1152.33
439.646	1181.48
440.021	1190.75
440.395	1202.04
440.77	1172.89
441.145	1187.36
441.52	1178.09
441.895	1185.55
442.27	1209.05
442.645	1232.55
443.019	1226.9
443.394	1210.18
443.769	1222.38
444.143	1259.9
444.518	1260.12
444.892	1237.52
445.267	1276.84
445.641	1255.38
446.016	1269.84
446.39	1291.08
446.764	1315.26
447.139	1282.49
447.513	1302.16
447.887	1316.84
448.262	1334.92
448.636	1310.29
449.01	1322.49
449.384	1308.71
449.758	1318.88
450.132	1338.31
450.506	1360.01
450.88	1376.96
451.254	1353.45
451.628	1333.57
452.002	1348.03
452.376	1354.58
452.75	1367.46
453.123	1380.12
453.497	1365.66
453.871	1412.66
454.244	1424.86
454.618	1418.08
454.992	1445.65
455.365	1445.88
455.739	1469.61
456.112	1479.1
456.486	1474.81
456.859	1488.82
457.232	1484.98
457.606	1515.03
457.979	1522.71
458.352	1543.5
458.725	1543.28
459.099	1571.3
459.472	1579.89
459.845	1571.3
460.218	1594.58
460.591	1605.65
460.964	1601.81
461.337	1659.21
461.71	1663.05
462.083	1643.84
462.456	1679.55
462.829	1653.33
463.201	1681.35
463.574	1678.42
463.947	1696.27
464.32	1704.4
464.692	1745.99
465.065	1741.24
465.438	1769.94
465.81	1750.96
466.183	1749.6
466.555	1778.75
466.928	1826.66
467.3	1838.41
467.672	1842.93
468.045	1888.81
468.417	1887.22
468.789	1867.11
469.161	1916.6
469.534	1897.39
469.906	1940.33
470.278	1949.37
470.65	1962.02
471.022	1974.91
471.394	1985.07
471.766	2026.43
472.138	2021.23
472.51	2062.81
472.882	2067.11
473.253	2129.93
473.625	2113.89
473.997	2137.39
474.369	2138.52
474.74	2184.62
475.112	2216.71
475.484	2219.42
475.855	2297.38
476.227	2266.42
476.598	2282.92
476.97	2293.09
477.341	2363.6
477.713	2402.47
478.084	2358.4
478.455	2408.34
478.827	2437.94
479.198	2522.69
479.569	2460.99
479.94	2538.51
480.311	2520.88
480.682	2569.92
481.053	2601.56
481.424	2673.64
481.795	2677.03
482.166	2709.8
482.537	2733.08
482.908	2736.47
483.279	2743.7
483.65	2809.01
484.021	2861.21
484.391	2865.96
484.762	2879.29
485.133	2888.33
485.503	2917.93
485.874	2995.9
486.244	2987.31
486.615	3078.38
486.985	3095.78
487.356	3072.73
487.726	3133.75
488.097	3118.38
488.467	3140.3
488.837	3227.53
489.207	3242.22
489.578	3284.02
489.948	3287.64
490.318	3332.16
490.688	3308.66
491.058	3377.35
491.428	3394.76
491.798	3396.56
492.168	3430.46
492.538	3492.15
492.908	3509.78
493.278	3524.02
493.648	3577.35
494.017	3603.56
494.387	3564.24
494.757	3601.76
495.126	3641.08
495.496	3667.74
495.866	3648.53
496.235	3659.61
496.605	3737.12
496.974	3775.54
497.344	3754.52
497.713	3768.08
498.082	3773.05
498.452	3839.94
498.821	3871.8
499.19	3829.77
499.559	3855.08
499.928	3899.83
500.298	3916.55
500.667	3945.02
501.036	3896.21
501.405	3922.2
501.774	3909.32
502.143	3962.65
502.512	3985.47
502.88	4015.3
503.249	3985.02
503.618	4009.88
503.987	4008.3
504.356	4041.97
504.724	4085.58
505.093	4098.47
505.462	4086.26
505.83	4080.16
506.199	4110.44
506.567	4219.14
506.936	4214.39
507.304	4174.62
507.672	4188.18
508.041	4221.85
508.409	4227.28
508.777	4264.79
509.145	4275.64
509.514	4297.56
509.882	4270.66
510.25	4302.75
510.618	4336.65
510.986	4300.27
511.354	4336.88
511.722	4334.84
512.09	4395.18
512.458	4379.14
512.826	4392.02
513.193	4372.58
513.561	4451.9
513.929	4438.34
514.297	4473.37
514.664	4483.54
515.032	4482.18
515.4	4476.76
515.767	4518.12
516.135	4489.19
516.502	4508.17
516.869	4515.4
517.237	4562.63
517.604	4558.79
517.972	4627.27
518.339	4625.46
518.706	4623.42
519.073	4570.09
519.44	4595.85
519.808	4640.37
520.175	4623.65
520.542	4630.2
520.909	4674.5
521.276	4649.41
521.643	4697.77
522.009	4728.28
522.376	4714.49
522.743	4753.36
523.11	4777.32
523.477	4804.21
523.843	4829.97
524.21	4895.96
524.577	4946.13
524.943	4944.09
525.31	4918.11
525.676	4991.1
526.043	4969.63
526.409	5004.66
526.776	5027.71
527.142	5010.76
527.508	5099.34
527.874	5129.63
528.241	5127.82
528.607	5134.37
528.973	5174.82
529.339	5155.61
529.705	5222.28
530.071	5213.46
530.437	5268.6
530.803	5286.68
531.169	5302.28
531.535	5343.86
531.901	5354.7
532.267	5343.86
532.632	5371.65
532.998	5446.45
533.364	5416.85
533.73	5426.11
534.095	5432.44
534.461	5497.52
534.826	5590.4
535.192	5560.12
535.557	5563.06
535.923	5593.34
536.288	5615.26
536.653	5658.88
537.019	5622.04
537.384	5611.42
537.749	5696.39
538.114	5744.3
538.479	5720.12
538.845	5714.02
539.21	5695.94
539.575	5771.87
539.94	5786.33
540.305	5876.05
540.67	5845.54
541.034	5877.85
541.399	5869.49
541.764	5912.88
542.129	5949.72
542.494	6011.86
542.858	6031.3
543.223	6032.65
543.587	6018.42
543.952	6067
544.316	6135.02
544.681	6075.36
545.045	6125.31
545.41	6176.38
545.774	6234.91
546.138	6210.73
546.503	6214.34
546.867	6235.36
547.231	6276.49
547.595	6322.81
547.959	6271.97
548.324	6321.46
548.688	6313.55
549.052	6394.68
549.416	6412.76
549.779	6398.52
550.143	6425.64
550.507	6445.07
550.871	6503.83
551.235	6504.5
551.599	6570.49
551.962	6534.11
552.326	6598.06
552.689	6631.73
553.053	6668.34
553.417	6626.99
553.78	6678.28
554.143	6650.26
554.507	6726.19
554.87	6702.24
555.234	6751.28
555.597	6725.29
555.96	6732.52
556.323	6752.18
556.686	6752.18
557.05	6812.29
557.413	6852.74
557.776	6853.2
558.139	6881.9
558.502	6956.47
558.865	6895.68
559.228	6993.98
559.59	6977.71
559.953	6975.68
560.316	7021.33
560.679	7042.34
561.041	7107.2
561.404	7108.56
561.767	7110.36
562.129	7087.31
562.492	7187.88
562.854	7214.77
563.217	7125.05
563.579	7211.15
563.941	7277.14
564.304	7273.98
564.666	7331.6
565.028	7291.38
565.39	7332.5
565.753	7371.83
566.115	7367.08
566.477	7388.55
566.839	7394.2
567.201	7435.33
567.563	7467.42
567.925	7524.36
568.287	7581.09
568.648	7531.14
569.01	7560.07
569.372	7686.17
569.734	7681.42
570.095	7661.31
570.457	7773.17
570.819	7780.18
571.18	7742.89
571.542	7812.49
571.903	7866.95
572.265	7960.29
572.626	7948.53
572.987	8014.97
573.349	8043.45
573.71	8063.11
574.071	8168.19
574.432	8156.21
574.794	8219.26
575.155	8366.38
575.516	8335.42
575.877	8405.25
576.238	8448.86
576.599	8572.92
576.96	8618.12
577.32	8655.41
577.681	8778.34
578.042	8838.23
578.403	8911.67
578.763	8958.22
579.124	9063.53
579.485	9168.16
579.845	9375.62
580.206	9327.71
580.566	9498.55
580.927	9656.06
581.287	9762.05
581.648	9803.4
582.008	10050.4
582.368	10203.39
582.728	10397.28
583.089	10522.93
583.449	10664.39
583.809	10802.24
584.169	10976.7
584.529	11085.17
584.889	11412.62
585.249	11520.64
585.609	11751.37
585.969	11973.06
586.329	12224.35
586.688	12421.86
587.048	12629.54
587.408	12883.09
587.768	13074.27
588.127	13387.04
588.487	13559.91
588.846	13852.11
589.206	14137.98
589.565	14304.07
589.925	14579.32
590.284	14852.76
590.643	15135.46
591.003	15435.79
591.362	15834.2
591.721	16055.21
592.08	16386.05
592.44	16668.98
592.799	16978.8
593.158	17216.54
593.517	17507.83
593.876	17805.22
594.235	18156.4
594.593	18455.38
594.952	18800.23
595.311	19015.36
595.67	19392.3
596.029	19816.92
596.387	20039.06
596.746	20480.86
597.104	20679.5
597.463	20915.88
597.822	21242.42
598.18	21516.54
598.538	21766.02
598.897	22154.94
599.255	22432.67
599.613	22849.16
599.972	23107.91
600.33	23457.5
600.688	23667.44
601.046	24105.85
601.404	24415.22
601.762	24553.3
602.12	24955.54
602.478	25313.5
602.836	25614.06
603.194	25654.74
603.552	26076.19
603.91	26287.03
604.268	26569.74
604.625	26802.73
604.983	27064.42
605.341	27325.43
605.698	27662.14
606.056	28005.18
606.413	28208.57
606.771	28507.77
607.128	28721.55
607.485	28839.74
607.843	29050.8
608.2	29539.38
608.557	29782.54
608.914	29980.27
609.272	30219.36
609.629	30438.56
609.986	30864.77
610.343	30749.74
610.7	31188.37
611.057	31324.87
611.414	31530.29
611.771	31771.86
612.127	32099.31
612.484	32290.04
612.841	32453.43
613.198	32416.82
613.554	32718.5
613.911	33025.84
614.267	33101.54
614.624	33323.91
614.98	33554.41
615.337	33735.43
615.693	33924.35
616.05	33973.61
616.406	34427.16
616.762	34255.64
617.118	34509.64
617.475	34664.67
617.831	34825.34
618.187	35014.04
618.543	35139.91
618.899	35405.67
619.255	35407.02
619.611	35523.63
619.967	35844.3
620.323	35834.13
620.678	35816.5
621.034	35973.11
621.39	36207
621.746	36260.11
622.101	36680.21
622.457	36504.17
622.812	36687.21
623.168	36885.63
623.523	36860.77
623.879	37121.55
624.234	36922.69
624.589	37261.89
624.945	37321.09
625.3	37427.98
625.655	37459.17
626.01	37605.83
626.365	37578.49
626.72	37733.29
627.075	37826.62
627.43	37801.99
627.785	37728.54
628.14	37828.2
628.495	37944.81
628.85	37980.06
629.205	37904.13
629.559	38290.34
629.914	38141.64
630.269	38201.75
630.623	38072.26
630.978	38147.97
631.332	38290.56
631.687	38387.28
632.041	38281.07
632.396	38428.18
632.75	38324.68
633.104	38391.35
633.459	38333.27
633.813	38359.26
634.167	38366.49
634.521	38377.11
634.875	38480.61
635.229	38425.92
635.583	38172.37
635.937	38334.18
636.291	38416.66
636.645	38479.26
636.999	38385.93
637.352	38599.03
637.706	38293.05
638.06	38553.83
638.413	38422.76
638.767	38329.88
639.121	38522.65
639.474	38276.1
639.828	38166.5
640.181	38274.97
640.534	38344.57
640.888	38215.99
641.241	38255.76
641.594	38295.31
641.947	38437.9
642.301	38299.15
642.654	38394.74
643.007	38331.46
643.36	38432.93
643.713	38142.32
644.066	38501.4
644.419	38175.31
644.771	37900.29
645.124	37632.27
645.477	37620.75
645.83	37285.16
646.182	37242
646.535	37199.74
646.888	37273.19
647.24	36853.54
647.593	37175.34
647.945	37226.18
648.298	37018.5
648.65	36963.82
649.002	37108.9
649.355	37089.24
649.707	37014.66
650.059	37173.3
650.411	37577.36
650.763	37594.76
651.115	38051.47
651.467	37844.7
651.819	37874.75
652.171	37766.73
652.523	37828.88
652.875	37730.58
653.227	37627.08
653.578	38092.6
653.93	37831.59
654.282	37589.34
654.633	37699.62
654.985	37611.48
655.337	37720.18
655.688	37621.65
656.039	37708.43
656.391	37451.26
656.742	37598.83
657.094	37576.23
657.445	37779.61
657.796	37492.62
658.147	37598.6
658.498	37558.15
658.849	37594.99
659.2	37589.79
659.551	37530.58
659.902	37559.28
660.253	37534.42
660.604	37633.4
660.955	37469.34
661.306	37518.83
661.656	37447.42
662.007	37478.6
662.358	37434.31
662.708	37432.73
663.059	37578.49
663.409	37239.52
663.76	37727.64
664.11	37553.41
664.461	37408.55
664.811	37525.61
665.161	37571.26
665.511	37344.15
665.862	37418.95
666.212	37413.75
666.562	37585.72
666.912	37425.27
667.262	37470.7
667.612	37337.82
667.962	37419.4
668.312	37282.9
668.662	37457.59
669.011	37250.81
669.361	37318.16
669.711	37282.9
670.06	37273.19
670.41	37218.27
670.76	37231.15
671.109	37270.47
671.459	37220.53
671.808	37268.89
672.157	37274.09
672.507	37081.1
672.856	37102.12
673.205	37138.27
673.554	37304.82
673.904	37167.65
674.253	37167.65
674.602	37118.16
674.951	36536.03
675.3	36440.89
675.649	37188.67
675.998	37024.38
676.346	37100.08
676.695	37150.25
677.044	36921.11
677.393	37065.51
677.741	36957.94
678.09	36925.17
678.438	36793.43
678.787	36996.13
679.135	36860.54
679.484	36753.2
679.832	36849.24
680.181	36683.15
680.529	36664.84
680.877	36586.88
681.225	36516.6
681.573	36725.4
681.922	36553.66
682.27	36487.22
682.618	36433.66
682.966	36346.66
683.314	36351.18
683.661	36280.9
684.009	36106.44
684.357	36065.08
684.705	36075.7
685.053	36058.08
685.4	36003.84
685.748	35950.28
686.095	35718.43
686.443	35664.87
686.79	35713.45
687.138	35763.62
687.485	35651.53
687.832	35554.59
688.18	35679.78
688.527	35494.48
688.874	35483.63
689.221	35327.02
689.568	35334.48
689.915	35355.5
690.262	35229.17
690.609	34972.68
690.956	34965
691.303	34977.65
691.65	34875.28
691.997	34832.57
692.344	34692.46
692.69	34671.22
693.037	34741.95
693.383	34301.74
693.73	34466.25
694.077	34266.71
694.423	34270.78
694.769	34268.07
695.116	34056.32
695.462	34076.21
695.808	33905.82
696.155	33891.81
696.501	33642.55
696.847	33750.79
697.193	33478.94
697.539	33701.98
697.885	33356.23
698.231	33297.02
698.577	33252.05
698.923	33297.47
699.269	33090.02
699.614	32925.28
699.96	32846.64
700.306	32900.19
700.651	32678.28
700.997	32618.62
701.342	32651.16
701.688	32603.25
702.033	32478.96
702.379	32456.36
702.724	32323.94
703.069	32429.7
703.415	32116.94
703.76	32082.81
704.105	32171.17
704.45	32027.67
704.795	31875.14
705.14	31813.22
705.485	31822.93
705.83	31639.66
706.175	31631.98
706.52	31498.42
706.865	31582.04
707.209	31322.61
707.554	31214.81
707.899	31438.76
708.243	31233.8
708.588	31167.36
708.932	30954.71
709.277	30998.1
709.621	30980.02
709.966	30719.69
710.31	30816.41
710.654	30542.52
710.998	30577.77
711.342	30529.18
711.687	30544.32
712.031	30443.31
712.375	30285.12
712.719	30353.59
713.063	30271.34
713.407	30355.4
713.75	30157.44
714.094	30162.87
714.438	30087.16
714.782	30126.03
715.125	29958.8
715.469	29883.55
715.812	29774.85
716.156	29652.14
716.499	29687.85
716.843	29648.75
717.186	29602.65
717.53	29620.05
717.873	29517.46
718.216	29616.44
718.559	29413.51
718.902	29198.6
719.246	29402.21
719.589	29133.97
719.932	29146.39
720.275	29093.51
720.617	29112.72
720.96	28905.72
721.303	29044.7
721.646	28974.2
721.989	28858.27
722.331	28952.28
722.674	28731.72
723.016	28627.76
723.359	28829.57
723.701	28738.5
724.044	28575.11
724.386	28487.43
724.729	28470.93
725.071	28550.7
725.413	28453.76
725.755	28316.36
726.097	28336.47
726.439	28147.32
726.782	28254.21
727.124	28344.38
727.465	28175.35
727.807	28110.94
728.149	27945.52
728.491	27993.66
728.833	28076.59
729.175	27890.16
729.516	27880.89
729.858	27800.22
730.199	27971.96
730.541	27844.73
730.882	27682.7
731.224	27825.3
731.565	27681.8
731.906	27632.76
732.248	27570.39
732.589	27465.53
732.93	27392.09
733.271	27414.91
733.612	27444.29
733.953	27404.97
734.294	27278.65
734.635	27331.98
734.976	27339.44
735.317	27185.32
735.658	27163.85
735.999	27271.19
736.339	27148.26
736.68	27106.9
737.021	26969.95
737.361	26925.21
737.702	27135.15
738.042	26949.39
738.383	26950.75
738.723	26933.35
739.063	26767.93
739.404	26816.29
739.744	26695.39
740.084	26689.74
740.424	26747.59
740.764	26567.48
741.104	26529.06
741.444	26390.99
741.784	26362.97
742.124	26466.47
742.464	26252.46
742.804	26347.6
743.143	26352.8
743.483	26361.38
743.823	26204.1
744.162	26166.59
744.502	26277.54
744.841	26058.79
745.181	26075.51
745.52	26012.24
745.86	26070.09
746.199	26009.53
746.538	26029.87
746.877	26102.18
747.216	25951.68
747.556	25800.49
747.895	25847.05
748.234	25628.3
748.573	25728.86
748.911	25680.72
749.25	25576.55
749.589	25473.95
749.928	25573.83
750.267	25541.52
750.605	25397.11
750.944	25369.32
751.283	25270.56
751.621	25342.2
751.96	25261.07
752.298	25180.17
752.636	25140.4
752.975	25145.6
753.313	25035.77
753.651	25205.26
753.989	24966.17
754.327	24908.77
754.666	24762.33
755.004	24839.39
755.342	24797.36
755.679	24753.97
756.017	24546.52
756.355	24683.24
756.693	24608.89
757.031	24599.17
757.368	24438.95
757.706	24405.05
758.044	24274.66
758.381	24350.36
758.719	24196.24
759.056	24322.79
759.394	24226.98
759.731	23950.6
760.068	23993.76
760.405	23825.63
760.743	23762.81
761.08	23849.58
761.417	23703.83
761.754	23639.19
762.091	23499.99
762.428	23492.53
762.765	23384.51
763.102	23461.35
763.438	23255.02
763.775	23193.33
764.112	23194.01
764.449	23134.58
764.785	23102.03
765.122	22857.29
765.458	22811.65
765.795	22847.8
766.131	22785.43
766.467	22624.31
766.804	22568.49
767.14	22513.12
767.476	22504.76
767.812	22253.02
768.148	22350.87
768.485	22203.75
768.821	22169.63
769.157	22117.65
769.492	22117.2
769.828	22001.5
770.164	21802.18
770.5	21838.79
770.836	21768.74
771.171	21627.95
771.507	21497.1
771.842	21475.86
772.178	21381.63
772.513	21357.22
772.849	21351.57
773.184	21230.44
773.519	21197.23
773.855	21082.2
774.19	20997.91
774.525	20895.99
774.86	20930.79
775.195	20926.5
775.53	20739.84
775.865	20698.26
776.2	20488.77
776.535	20341.65
776.87	20427.3
777.205	20293.75
777.539	20221.43
777.874	20305.95
778.209	20079.06
778.543	19991.16
778.878	19980.08
779.212	19899.18
779.547	19764.04
779.881	19864.15
780.215	19665.51
780.55	19773.76
780.884	19592.3
781.218	19495.12
781.552	19537.38
781.886	19376.48
782.22	19312.98
782.554	19279.08
782.888	19092.2
783.222	19024.4
783.556	19046.55
783.889	18855.59
784.223	18698.53
784.557	18769.49
784.89	18710.51
785.224	18563.85
785.557	18496.73
785.891	18476.17
786.224	18428.48
786.558	18500.35
786.891	18280.47
787.224	18143.97
787.557	18107.59
787.891	18195.04
788.224	18009.29
788.557	18149.62
788.89	17992.79
789.223	18000.7
789.556	17781.72
789.888	17821.27
790.221	17739.24
790.554	17590.77
790.887	17617.88
791.219	17512.12
791.552	17515.51
791.884	17447.27
792.217	17395.29
792.549	17330.21
792.882	17249.53
793.214	17117.11
793.546	17218.35
793.879	16916.66
794.211	16885.47
794.543	17005.02
794.875	16775.65
795.207	16912.14
795.539	16866.94
795.871	16813.16
796.203	16552.15
796.535	16567.29
796.867	16526.16
797.198	16537.23
797.53	16494.75
797.862	16294.08
798.193	16426.28
798.525	16320.29
798.856	16284.59
799.188	16120.07
799.519	16058.6
799.85	16019.51
800.182	16028.32
800.513	15949.23
800.844	15827.2
801.175	15919.4
801.506	15921.66
801.837	15769.12
802.168	15706.75
802.499	15773.64
802.83	15699.29
803.161	15563.02
803.491	15614.77
803.822	15615
804.153	15505.62
804.483	15346.98
804.814	15257.72
805.145	15222.02
805.475	15220.21
805.805	15167.1
806.136	15228.57
806.466	15151.96
806.796	15130.94
807.126	15019.99
807.457	14986.31
807.787	14983.15
808.117	14777.28
808.447	14823.16
808.777	14897.73
809.107	14896.15
809.436	14771.86
809.766	14683.72
810.096	14707.68
810.426	14686.66
810.755	14606.89
811.085	14651.63
811.414	14492.77
811.744	14417.97
812.073	14440.11
812.403	14386.33
812.732	14331.19
813.061	14344.3
813.39	14334.81
813.719	14191.76
814.049	14278.54
814.378	14305.43
814.707	14113.8
815.036	14120.35
815.365	14042.61
815.693	13974.36
816.022	13951.31
816.351	13944.08
816.68	13880.58
817.008	13880.13
817.337	13785.44
817.665	13754.93
817.994	13787.25
818.322	13777.76
818.651	13707.7
818.979	13710.87
819.307	13626.8
819.636	13613.47
819.964	13521.95
820.292	13648.5
820.62	13501.16
820.948	13561.49
821.276	13495.05
821.604	13473.59
821.932	13521.72
822.259	13544.54
822.587	13501.38
822.915	13469.29
823.243	13393.14
823.57	13444.21
823.898	13404.21
824.225	13321.95
824.553	13389.07
824.88	13436.07
825.207	13457.54
825.535	13353.36
825.862	13404.21
826.189	13293.7
826.516	13491.21
826.843	13427.71
827.17	13477.2
827.497	13535.96
827.824	13490.99
828.151	13453.02
828.478	13444.89
828.805	13437.88
829.131	13310.43
829.458	13424.55
829.785	13327.38
830.111	13381.39
830.438	13398.11
830.764	13364.89
831.09	13342.97
831.417	13284.89
831.743	13356.98
832.069	13353.14
832.395	13285.57
832.722	13412.57
833.048	13255.97
833.374	13302.97
833.7	13182.52
834.026	13312.23
834.351	13292.35
834.677	13262.97
835.003	13254.84
835.329	13275.4
835.654	13142.52
835.98	13117.66
836.306	13121.28
836.631	13081.28
836.956	13125.8
837.282	13161.73
837.607	13083.31
837.932	12961.96
838.258	13083.09
838.583	12998.8
838.908	12944.56
839.233	12966.26
839.558	12949.53
839.883	12844.45
840.208	12897.78
840.533	12851.91
840.858	12832.7
841.182	12852.36
841.507	12871.79
841.832	12763.55
842.156	12798.8
842.481	12747.05
842.805	12712.7
843.13	12646.72
843.454	12688.52
843.778	12646.72
844.103	12603.55
844.427	12587.06
844.751	12567.17
845.075	12535.98
845.399	12438.13
845.723	12374.41
846.047	12371.02
846.371	12332.15
846.695	12373.95
847.019	12219.61
847.343	12126.05
847.666	12114.53
847.99	12056.22
848.313	12087.18
848.637	11976.68
848.96	11898.03
849.284	11878.83
849.607	11859.17
849.931	11814.2
850.254	11687.19
850.577	11604.93
850.9	11622.34
851.223	11547.54
851.546	11488.78
851.869	11366.98
852.192	11500.98
852.515	11431.38
852.838	11331.5
853.161	11268.9
853.483	11284.94
853.806	11202.46
854.129	11197.04
854.451	11192.52
854.774	11097.15
855.096	11135.79
855.419	10983.71
855.741	10963.82
856.063	11001.34
856.385	10955.69
856.708	10861.68
857.03	10894.45
857.352	10935.35
857.674	10947.78
857.996	10752.53
858.318	10756.82
858.64	10737.84
858.961	10705.75
859.283	10644.28
859.605	10637.95
859.926	10630.95
860.248	10591.18
860.57	10552.08
860.891	10522.03
861.212	10396.15
861.534	10473.21
861.855	10365.42
862.176	10465.53
862.498	10405.64
862.819	10388.92
863.14	10382.37
863.461	10286.33
863.782	10297.17
864.103	10308.25
864.424	10269.15
864.745	10238.64
865.065	10218.53
865.386	10232.09
865.707	10133.79
866.027	10220.11
866.348	10224.86
866.668	10140.34
866.989	10122.04
867.309	10116.61
867.63	10058.08
867.95	10104.64
868.27	10004.53
868.59	10030.29
868.91	10030.74
869.23	9939.44
869.55	10034.81
869.87	10037.74
870.19	9988.48
870.51	9889.05
870.83	9973.57
871.15	9889.95
871.469	9879.1
871.789	9934.47
872.109	9885.21
872.428	9830.74
872.748	9874.58
873.067	9891.08
873.386	9846.56
873.706	9781.25
874.025	9761.14
874.344	9782.61
874.663	9729.5
874.982	9681.37
875.301	9680.24
875.62	9699.9
875.939	9668.26
876.258	9673.01
876.577	9601.6
876.896	9640.69
877.214	9604.08
877.533	9646.57
877.852	9568.6
878.17	9608.38
878.489	9631.88
878.807	9546.23
879.125	9525.44
879.444	9455.61
879.762	9431.88
880.08	9486.8
880.398	9418.55
880.716	9489.28
881.034	9373.58
881.352	9416.52
881.67	9288.16
881.988	9356.86
882.306	9286.35
882.624	9235.28
882.941	9254.49
883.259	9188.05
883.577	9225.79
883.894	9201.61
884.212	9184.66
884.529	9211.33
884.846	9131.33
885.164	9160.25
885.481	9128.62
885.798	9113.25
886.115	8962.74
886.432	9053.36
886.75	9008.62
887.067	9026.47
887.383	8956.19
887.7	8954.84
888.017	8903.09
888.334	8870.54
888.651	8912.35
888.967	8788.96
889.284	8811.56
889.6	8802.97
889.917	8770.66
890.233	8757.1
890.55	8683.2
890.866	8704.9
891.182	8732.24
891.498	8661.96
891.815	8628.29
892.131	8587.84
892.447	8558.01
892.763	8524.56
893.079	8609.99
893.395	8475.07
893.71	8485.02
894.026	8554.85
894.342	8445.47
894.657	8404.34
894.973	8407.05
895.289	8362.99
895.604	8343.78
895.92	8342.2
896.235	8305.13
896.55	8308.07
896.865	8267.62
897.181	8277.56
897.496	8200.05
897.811	8102.2
898.126	8150.79
898.441	8058.59
898.756	8043.45
899.071	7974.75
899.386	8104.24
899.7	7985.14
900.015	7893.17
900.33	7873.51
900.644	7875.32
900.959	7902.66
901.273	7897.91
901.588	7791.25
901.902	7771.59
902.216	7741.99
902.531	7727.75
902.845	7682.33
903.159	7669.9
903.473	7607.98
903.787	7582.22
904.101	7501.31
904.415	7521.2
904.729	7553.74
905.042	7497.92
905.356	7453.41
905.67	7364.82
905.984	7457.7
906.297	7412.73
906.611	7319.62
906.924	7382.22
907.237	7352.39
907.551	7277.14
907.864	7256.35
908.177	7279.85
908.491	7236.91
908.804	7116.24
909.117	7175.45
909.43	7039.18
909.743	7073.98
910.056	7073.53
910.368	7049.35
910.681	7004.38
910.994	6930.03
911.307	6892.97
911.619	6859.07
911.932	6889.13
912.244	6822.01
912.557	6818.39
912.869	6828.34
913.181	6711.73
913.494	6785.4
913.806	6685.52
914.118	6667.21
914.43	6673.31
914.742	6641.45
915.054	6623.37
915.366	6605.97
915.678	6578.85
915.99	6517.39
916.302	6466.54
916.613	6457.5
916.925	6473.77
917.236	6410.5
917.548	6406.65
917.859	6393.77
918.171	6282.82
918.482	6305.19
918.794	6297.5
919.105	6272.42
919.416	6252.53
919.727	6233.32
920.038	6211.86
920.349	6196.94
920.66	6101.58
920.971	6054.8
921.282	6083.05
921.593	6105.87
921.903	6031.52
922.214	6024.74
922.525	5992.88
922.835	5976.61
923.146	5933.67
923.456	5900.68
923.767	5888.93
924.077	5922.15
924.387	5819.78
924.697	5782.94
925.008	5812.54
925.318	5703.17
925.628	5726.9
925.938	5790.17
926.248	5645.77
926.558	5689.84
926.867	5644.19
927.177	5581.36
927.487	5570.29
927.796	5539.56
928.106	5580.01
928.416	5512.44
928.725	5497.07
929.034	5469.73
929.344	5453.91
929.653	5450.97
929.962	5421.59
930.271	5375.27
930.581	5302.5
930.89	5359.68
931.199	5372.1
931.508	5281.03
931.817	5314.93
932.125	5253.24
932.434	5295.72
932.743	5194.71
933.051	5212.56
933.36	5113.13
933.669	5121.26
933.977	5115.16
934.286	5060.93
934.594	5018.89
934.902	5049.85
935.21	4991.1
935.519	5012.34
935.827	5001.49
936.135	4981.83
936.443	4931.89
936.751	4898.22
937.059	4893.92
937.367	4893.25
937.674	4856.86
937.982	4881.27
938.29	4807.37
938.597	4836.53
938.905	4782.74
939.213	4740.48
939.52	4768.28
939.827	4760.6
940.135	4671.56
940.442	4655.06
940.749	4651.45
941.056	4645.57
941.363	4549.3
941.67	4584.1
941.977	4539.36
942.284	4535.29
942.591	4525.12
942.898	4529.87
943.205	4550.88
943.511	4494.16
943.818	4416.88
944.125	4435.86
944.431	4419.14
944.738	4430.66
945.044	4421.17
945.35	4369.19
945.657	4346.14
945.963	4316.77
946.269	4299.14
946.575	4288.29
946.881	4262.3
947.187	4292.13
947.493	4224.79
947.799	4226.6
948.105	4218.24
948.41	4214.62
948.716	4168.07
949.022	4167.62
949.327	4165.13
949.633	4045.59
949.938	4058.47
950.244	4123.1
950.549	4025.7
950.854	4017.79
951.16	4025.25
951.465	4012.37
951.77	3983.44
952.075	3956.32
952.38	3983.21
952.685	3950.67
952.99	3926.72
953.294	3915.42
953.599	3866.38
953.904	3845.59
954.209	3834.29
954.513	3857.12
954.818	3801.3
955.122	3756.1
955.426	3777.8
955.731	3766.27
956.035	3731.7
956.339	3687.18
956.643	3752.94
956.948	3713.84
957.252	3678.59
957.556	3665.48
957.86	3672.94
958.163	3668.87
958.467	3625.26
958.771	3638.14
959.075	3635.43
959.378	3598.37
959.682	3579.84
959.985	3557.46
960.289	3532.83
960.592	3497.58
960.896	3497.58
961.199	3496.22
961.502	3479.72
961.805	3457.13
962.108	3433.4
962.411	3454.64
962.714	3442.66
963.017	3415.77
963.32	3425.26
963.623	3338.49
963.926	3344.14
964.228	3329.45
964.531	3346.17
964.833	3328.99
965.136	3301.2
965.438	3257.81
965.741	3244.7
966.043	3283.35
966.345	3259.62
966.648	3173.52
966.95	3223.91
967.252	3233.86
967.554	3196.57
967.856	3183.69
968.158	3156.34
968.46	3117.47
968.761	3116.34
969.063	3112.05
969.365	3071.6
969.666	3108.66
969.968	3077.02
970.269	3067.76
970.571	3042
970.872	3040.41
971.174	3005.61
971.475	3026.18
971.776	2997.7
972.077	2991.83
972.378	3002.68
972.679	2963.81
972.98	2975.33
973.281	2941.66
973.582	2931.26
973.883	2902.56
974.183	2898.05
974.484	2888.1
974.785	2842.23
975.085	2864.15
975.386	2859.18
975.686	2850.14
975.986	2764.04
976.287	2838.39
976.587	2808.33
976.887	2785.73
977.187	2768.56
977.487	2791.38
977.787	2727.88
978.087	2726.3
978.387	2733.76
978.687	2695.34
978.987	2692.85
979.286	2671.16
979.586	2668.22
979.885	2711.38
980.185	2629.58
980.484	2672.97
980.784	2633.87
981.083	2602.69
981.382	2595
981.682	2599.75
981.981	2558.17
982.28	2586.87
982.579	2546.19
982.878	2536.02
983.177	2537.15
983.475	2556.36
983.774	2527.66
984.073	2508.23
984.372	2540.99
984.67	2479.75
984.969	2495.12
985.267	2489.92
985.566	2435.23
985.864	2452.63
986.162	2446.08
986.461	2408.57
986.759	2407.66
987.057	2410.15
987.355	2369.47
987.653	2393.43
987.951	2366.31
988.249	2355.46
988.547	2347.78
988.844	2361.11
989.142	2330.6
989.44	2293.32
989.737	2308.23
990.035	2284.95
990.332	2287.67
990.63	2287.89
990.927	2257.61
991.224	2266.65
991.521	2247.67
991.819	2251.73
992.116	2231.17
992.413	2215.58
992.71	2235.92
993.006	2211.06
993.303	2171.96
993.6	2175.58
993.897	2171.51
994.193	2150.72
994.49	2142.81
994.787	2145.97
995.083	2146.88
995.379	2091.51
995.676	2099.42
995.972	2119.08
996.268	2077.73
996.565	2060.1
996.861	2058.07
997.157	2072.76
997.453	2038.18
997.749	2021.91
998.044	2003.61
998.34	2016.71
998.636	2009.26
998.932	1974.68
999.227	1986.43
999.523	1972.19
999.818	1984.85
1000.114	1962.25
1000.409	1942.82
1000.704	1961.12
1001	1921.12
1001.295	1913.89
1001.59	1906.66
1001.885	1920.67
1002.18	1877.06
1002.475	1879.09
1002.77	1867.34
1003.065	1812.42
1003.359	1816.04
1003.654	1843.16
1003.949	1828.47
1004.243	1811.07
1004.538	1807.45
1004.832	1800
1005.127	1793.89
1005.421	1780.79
1005.715	1771.75
1006.009	1769.94
1006.304	1748.02
1006.598	1748.02
1006.892	1731.52
1007.186	1696.49
1007.48	1702.6
1007.773	1729.26
1008.067	1701.92
1008.361	1690.39
1008.655	1692.88
1008.948	1689.49
1009.242	1643.84
1009.535	1647.91
1009.829	1652.65
1010.122	1642.26
1010.415	1626.44
1010.708	1617.63
1011.001	1579.66
1011.295	1602.26
1011.588	1569.27
1011.881	1590.51
1012.173	1569.04
1012.466	1553.9
1012.759	1526.1
1013.052	1515.71
1013.344	1521.81
1013.637	1517.74
1013.93	1494.01
1014.222	1517.29
1014.514	1512.32
1014.807	1484.75
1015.099	1494.47
1015.391	1491.3
1015.683	1478.87
1015.976	1466.9
1016.268	1451.53
1016.56	1437.52
1016.851	1414.92
1017.143	1426.67
1017.435	1424.41
1017.727	1409.04
1018.018	1382.6
1018.31	1376.73
1018.602	1378.31
1018.893	1360.01
1019.185	1359.78
1019.476	1378.54
1019.767	1336.05
1020.058	1343.51
1020.35	1319.78
1020.641	1308.03
1020.932	1323.85
1021.223	1296.05
1021.514	1296.51
1021.804	1262.16
1022.095	1282.27
1022.386	1242.5
1022.677	1256.51
1022.967	1261.7
1023.258	1264.64
1023.548	1244.76
1023.839	1224.42
1024.129	1225.77
1024.419	1216.96
1024.709	1221.48
1025	1212.67
1025.29	1191.88
1025.58	1202.04
1025.87	1139.22
1026.16	1161.14
1026.449	1161.14
1026.739	1148.03
1027.029	1146.23
1027.319	1152.78
1027.608	1146.45
1027.898	1129.28
1028.187	1118.43
1028.477	1103.52
1028.766	1107.58
1029.055	1081.82
1029.344	1076.85
1029.634	1087.92
1029.923	1061.26
1030.212	1076.85
1030.501	1069.84
1030.79	1058.77
1031.078	1065.55
1031.367	1030.52
1031.656	1049.28
1031.945	1035.5
1032.233	1005.89
1032.522	1018.32
1032.81	1017.64
1033.099	1005.44
1033.387	996.17
1033.675	991.88
1033.963	966.12
1034.251	995.95
1034.54	973.58
1034.828	951.88
1035.116	967.7
1035.403	968.6
1035.691	965.44
1035.979	951.66
1036.267	934.48
1036.554	911.2
1036.842	916.18
1037.129	931.77
1037.417	929.28
1037.704	913.92
1037.992	899.91
1038.279	904.65
1038.566	898.32
1038.853	898.32
1039.14	898.32
