Data from hue_10_FLMS001491_31.txt Node
Date: Mon Feb 06 15:31:48 GMT 2017
User: dcchb
Spectrometer: FLMS00149
Trigger mode: 0
Integration Time (sec): 2.000000E-2
Scans to average: 10
Electric dark correction enabled: true
Nonlinearity correction enabled: false
Boxcar width: 0
XAxis mode: Wavelengths
Number of Pixels in Spectrum: 2048
>>>>>Begin Spectral Data<<<<<
341.393	-26.64
341.776	-26.64
342.16	-26.64
342.543	-62.34
342.927	-52.63
343.31	-72.74
343.693	-64.38
344.077	-58.28
344.46	-75
344.843	-46.98
345.226	-58.28
345.61	-30.48
345.993	-3.81
346.376	-2.01
346.759	-4.49
347.142	30.31
347.525	77.99
347.908	40.03
348.291	62.4
348.674	94.26
349.057	111.44
349.44	117.09
349.823	138.78
350.206	153.24
350.588	187.82
350.971	208.84
351.354	224.88
351.737	235.95
352.119	242.06
352.502	266.91
352.884	277.54
353.267	276.86
353.65	291.55
354.032	296.74
354.414	313.47
354.797	305.33
355.179	323.41
355.562	319.34
355.944	321.83
356.326	322.05
356.709	317.76
357.091	338.55
357.473	334.03
357.855	328.16
358.238	350.53
358.62	337.42
359.002	317.08
359.384	344.43
359.766	327.93
360.148	347.36
360.53	350.53
360.912	346.69
361.294	337.65
361.676	326.8
362.057	332.45
362.439	311.21
362.821	305.1
363.203	306.23
363.584	317.31
363.966	329.96
364.348	313.92
364.729	307.36
365.111	291.77
365.493	306.46
365.874	313.47
366.256	315.5
366.637	307.59
367.019	323.86
367.4	314.37
367.781	311.21
368.163	323.18
368.544	294.26
368.925	319.34
369.306	336.06
369.688	313.92
370.069	303.52
370.45	320.25
370.831	317.99
371.212	306.91
371.593	310.53
371.974	299
372.355	297.42
372.736	312.34
373.117	312.79
373.498	306.69
373.879	327.03
374.26	321.6
374.641	322.96
375.021	304.43
375.402	304.2
375.783	302.62
376.163	315.05
376.544	313.92
376.925	310.3
377.305	333.58
377.686	322.51
378.066	313.47
378.447	308.72
378.827	314.14
379.208	299.23
379.588	305.33
379.968	320.25
380.349	316.4
380.729	326.35
381.109	313.69
381.489	301.72
381.87	332.45
382.25	346.01
382.63	330.19
383.01	341.26
383.39	339.45
383.77	336.52
384.15	337.65
384.53	322.51
384.91	341.94
385.29	350.75
385.67	352.11
386.049	364.31
386.429	330.42
386.809	324.54
387.189	346.01
387.568	340.58
387.948	328.83
388.328	325.22
388.707	324.99
389.087	346.01
389.466	360.47
389.846	346.91
390.225	360.02
390.605	347.36
390.984	367.02
391.363	349.62
391.743	333.8
392.122	363.41
392.501	367.02
392.881	383.07
393.26	345.33
393.639	384.65
394.018	356.86
394.397	363.63
394.776	344.43
395.155	349.85
395.534	360.47
395.913	356.4
396.292	370.41
396.671	370.64
397.05	382.62
397.429	366.57
397.808	364.31
398.186	348.72
398.565	376.06
398.944	376.06
399.323	376.74
399.701	372.45
400.08	371.09
400.458	371.54
400.837	361.37
401.215	378.32
401.594	394.14
401.972	383.75
402.351	380.13
402.729	374.03
403.107	364.76
403.486	391.2
403.864	392.33
404.242	396.18
404.62	382.17
404.999	405.67
405.377	393.69
405.755	412.45
406.133	396.4
406.511	400.47
406.889	390.53
407.267	388.27
407.645	397.31
408.023	388.72
408.401	421.71
408.779	406.57
409.156	410.64
409.534	407.7
409.912	423.07
410.29	431.88
410.667	425.33
411.045	416.97
411.422	435.27
411.8	438.66
412.178	437.76
412.555	435.5
412.933	434.37
413.31	443.18
413.687	447.25
414.065	435.72
414.442	416.51
414.819	434.82
415.197	461.71
415.574	462.39
415.951	466
416.328	452.9
416.705	435.72
417.082	487.93
417.46	455.84
417.837	470.07
418.214	454.03
418.591	456.97
418.967	473.69
419.344	467.59
419.721	491.54
420.098	474.82
420.475	502.61
420.852	486.57
421.228	489.73
421.605	489.96
421.982	489.51
422.358	484.08
422.735	489.51
423.111	503.29
423.488	494.7
423.864	541.26
424.241	536.96
424.617	528.15
424.994	548.26
425.37	509.17
425.746	510.07
426.123	521.6
426.499	514.82
426.875	537.19
427.251	538.32
427.627	518.43
428.003	520.47
428.379	524.53
428.756	530.86
429.132	546.45
429.507	564.53
429.883	554.59
430.259	565.66
430.635	561.14
431.011	559.11
431.387	556.17
431.763	576.06
432.138	606.34
432.514	571.99
432.89	589.39
433.265	599.11
433.641	602.27
434.016	594.36
434.392	605.21
434.767	607.7
435.143	611.99
435.518	630.07
435.894	635.04
436.269	620.12
436.644	635.72
437.02	629.39
437.395	651.99
437.77	633.46
438.145	646.56
438.52	654.7
438.895	656.51
439.271	652.21
439.646	669.39
440.021	696.96
440.395	669.16
440.77	690.18
441.145	678.2
441.52	680.69
441.895	675.72
442.27	687.47
442.645	697.64
443.019	721.37
443.394	701.93
443.769	694.25
444.143	693.12
444.518	706.9
444.892	709.39
445.267	722.04
445.641	743.29
446.016	715.94
446.39	706.9
446.764	732.66
447.139	710.07
447.513	721.14
447.887	731.08
448.262	725.66
448.636	741.03
449.01	745.32
449.384	734.7
449.758	745.55
450.132	772.44
450.506	782.61
450.88	760.46
451.254	766.11
451.628	787.8
452.002	773.12
452.376	787.13
452.75	804.53
453.123	805.2
453.497	800.46
453.871	821.48
454.244	823.28
454.618	813.79
454.992	835.49
455.365	833.45
455.739	843.17
456.112	844.98
456.486	884.3
456.859	871.87
457.232	884.75
457.606	852.44
457.979	898.54
458.352	891.76
458.725	905.32
459.099	899.44
459.472	906.67
459.845	950.74
460.218	902.15
460.591	938.99
460.964	919.33
461.337	953.68
461.71	975.14
462.083	976.05
462.456	977.63
462.829	1015.82
463.201	998.42
463.574	980.12
463.947	1027.8
464.32	1024.18
464.692	1042.49
465.065	1045.2
465.438	1053.11
465.81	1055.14
466.183	1072.99
466.555	1108.93
466.928	1103.73
467.3	1122.71
467.672	1104.18
468.045	1148.7
468.417	1123.61
468.789	1170.39
469.161	1154.57
469.534	1181.47
469.906	1212.2
470.278	1241.35
470.65	1250.16
471.022	1234.8
471.394	1274.35
471.766	1276.15
472.138	1291.97
472.51	1276.83
472.882	1312.08
473.253	1334.91
473.625	1367.68
473.997	1401.12
474.369	1400.44
474.74	1426.21
475.112	1448.8
475.484	1488.8
475.855	1468.24
476.227	1515.24
476.598	1540.78
476.97	1555.02
477.341	1609.48
477.713	1605.86
478.084	1609.25
478.455	1680.89
478.827	1710.72
479.198	1705.29
479.569	1759.53
479.94	1776.93
480.311	1829.81
480.682	1851.96
481.053	1892.18
481.424	1911.39
481.795	1932.63
482.166	1963.37
482.537	2009.47
482.908	2053.53
483.279	2076.58
483.65	2123.14
484.021	2152.74
484.391	2196.13
484.762	2225.05
485.133	2225.05
485.503	2266.41
485.874	2319.06
486.244	2350.25
486.615	2399.06
486.985	2444.26
487.356	2441.77
487.726	2504.82
488.097	2556.12
488.467	2581.43
488.837	2649.68
489.207	2654.87
489.578	2710.69
489.948	2728.77
490.318	2768.54
490.688	2805.38
491.058	2843.57
491.428	2868.43
491.798	2933.96
492.168	2953.4
492.538	3035.65
492.908	2982.77
493.278	3069.78
493.648	3080.85
494.017	3123.11
494.387	3161.08
494.757	3159.49
495.126	3222.99
495.496	3216.89
495.866	3292.15
496.235	3295.99
496.605	3314.74
496.974	3337.57
497.344	3389.54
497.713	3433.16
498.082	3472.93
498.452	3496.66
498.821	3527.39
499.19	3513.61
499.559	3533.04
499.928	3585.7
500.298	3588.63
500.667	3652.36
501.036	3622.08
501.405	3632.25
501.774	3679.03
502.143	3749.31
502.512	3718.8
502.88	3742.3
503.249	3746.82
503.618	3781.85
503.987	3798.57
504.356	3838.35
504.724	3832.92
505.093	3896.65
505.462	3899.13
505.83	3894.62
506.199	3920.15
506.567	3974.16
506.936	3979.36
507.304	4017.1
507.672	4051.22
508.041	4054.16
508.409	4074.05
508.777	4127.83
509.145	4124.44
509.514	4141.61
509.882	4134.16
510.25	4168.28
510.618	4217.09
510.986	4192.46
511.354	4209.41
511.722	4279.01
512.09	4294.83
512.458	4303.42
512.826	4310.42
513.193	4308.16
513.561	4333.25
513.929	4363.53
514.297	4431.1
514.664	4427.03
515.032	4410.08
515.4	4423.64
515.767	4456.63
516.135	4453.92
516.502	4429.29
516.869	4533.47
517.237	4516.29
517.604	4500.47
517.972	4572.11
518.339	4548.61
518.706	4574.82
519.073	4559.91
519.44	4612.34
519.808	4637.19
520.175	4633.8
520.542	4667.93
520.909	4701.6
521.276	4711.54
521.643	4715.38
522.009	4781.15
522.376	4808.04
522.743	4791.54
523.11	4854.59
523.477	4855.27
523.843	4856.17
524.21	4928.71
524.577	4905.44
524.943	5019.56
525.31	4973.91
525.676	4994.02
526.043	5078.54
526.409	5087.58
526.776	5116.05
527.142	5105.43
527.508	5131.19
527.874	5176.84
528.241	5198.31
528.607	5302.94
528.973	5251.64
529.339	5271.75
529.705	5295.26
530.071	5344.52
530.437	5349.27
530.803	5410.28
531.169	5404.86
531.535	5408.02
531.901	5495.93
532.267	5511.75
532.632	5511.3
532.998	5533.67
533.364	5547
533.73	5537.51
534.095	5636.72
534.461	5592.88
534.826	5637.39
535.192	5681.91
535.557	5732.08
535.923	5741.12
536.288	5692.76
536.653	5754.45
537.019	5753.78
537.384	5770.05
537.749	5845.3
538.114	5838.74
538.479	5856.82
538.845	5878.52
539.21	5851.85
539.575	5904.05
539.94	5911.51
540.305	5917.84
540.67	5969.36
541.034	6010.04
541.399	6019.76
541.764	6030.6
542.129	6061.34
542.494	6085.07
542.858	6120.55
543.223	6138.17
543.587	6170.71
543.952	6224.27
544.316	6170.71
544.681	6271.28
545.045	6263.37
545.41	6305.85
545.774	6320.31
546.138	6306.3
546.503	6358.73
546.867	6330.48
547.231	6359.64
547.595	6386.98
547.959	6435.11
548.324	6482.12
548.688	6486.41
549.052	6503.36
549.416	6575.45
549.779	6512.17
550.143	6592.17
550.507	6642.34
550.871	6601.44
551.235	6632.17
551.599	6700.19
551.962	6668.55
552.326	6751.94
552.689	6758.04
553.053	6758.95
553.417	6797.14
553.78	6817.7
554.143	6835.1
554.507	6843.69
554.87	6878.72
555.234	6878.94
555.597	6887.76
555.96	6906.74
556.323	6908.32
556.686	6938.6
557.05	7001.43
557.413	7031.48
557.776	7057.92
558.139	7068.54
558.502	7027.19
558.865	7118.71
559.228	7149.44
559.59	7157.81
559.953	7194.19
560.316	7258.59
560.679	7239.61
561.041	7284.81
561.404	7297.46
561.767	7291.59
562.129	7310.8
562.492	7349.89
562.854	7392.38
563.217	7343.56
563.579	7428.76
563.941	7421.3
564.304	7436.67
564.666	7541.3
565.028	7585.59
565.39	7604.12
565.753	7622.88
566.115	7591.02
566.477	7668.75
566.839	7649.77
567.201	7735.42
567.563	7792.37
567.925	7793.27
568.287	7823.33
568.648	7830.33
569.01	7920.05
569.372	7848.41
569.734	7880.05
570.095	7944.9
570.457	7979.93
570.819	8070.78
571.18	8065.13
571.542	8147.38
571.903	8158.91
572.265	8182.41
572.626	8211.34
572.987	8282.97
573.349	8320.94
573.71	8342.63
574.071	8410.2
574.432	8430.99
574.794	8531.56
575.155	8562.29
575.516	8578.56
575.877	8610.2
576.238	8683.42
576.599	8709.86
576.96	8826.24
577.32	8867.37
577.681	8951.66
578.042	9032.11
578.403	9072.78
578.763	9220.12
579.124	9226.45
579.485	9299.44
579.845	9426.67
580.206	9513.68
580.566	9598.65
580.927	9662.37
581.287	9877.06
581.648	9896.04
582.008	10065.07
582.368	10136.94
582.728	10279.98
583.089	10463.71
583.449	10549.58
583.809	10687.2
584.169	10832.74
584.529	10950.02
584.889	11181.66
585.249	11301.43
585.609	11410.35
585.969	11718.36
586.329	11906.38
586.688	12002.42
587.048	12186.37
587.408	12356.99
587.768	12633.82
588.127	12847.83
588.487	12969.63
588.846	13326.91
589.206	13468.6
589.565	13672.44
589.925	13989.26
590.284	14230.61
590.643	14439.2
591.003	14726.87
591.362	14978.62
591.721	15220.42
592.08	15487.76
592.44	15733.4
592.799	16139.26
593.158	16241.86
593.517	16552.59
593.876	16827.83
594.235	16993.25
594.593	17341.04
594.952	17685.66
595.311	17807.92
595.67	18247.23
596.029	18508.69
596.387	18874.79
596.746	19035.23
597.104	19306.41
597.463	19533.98
597.822	19917.02
598.18	20123.79
598.538	20486.04
598.897	20854.62
599.255	20981.62
599.613	21447.83
599.972	21624.54
600.33	22028.38
600.688	22219.56
601.046	22556.05
601.404	22909.48
601.762	23097.05
602.12	23451.39
602.478	23624.94
602.836	24005.72
603.194	24156.91
603.552	24443.23
603.91	24722.99
604.268	25028.75
604.625	25148.97
604.983	25447.04
605.341	25662.4
605.698	26062.62
606.056	26321.82
606.413	26476.85
606.771	26842.94
607.128	27119.32
607.485	27251.74
607.843	27489.7
608.2	27691.05
608.557	27962
608.914	28220.3
609.272	28437.92
609.629	28701.87
609.986	28981.41
610.343	29145.02
610.7	29397.9
611.057	29708.63
611.414	29793.82
611.771	29940.48
612.127	30443.97
612.484	30458.66
612.841	30791.54
613.198	30801.03
613.554	30886.22
613.911	31322.82
614.267	31412.08
614.624	31509.03
614.98	31631.06
615.337	32047.77
615.693	32172.74
616.05	32172.74
616.406	32613.63
616.762	32566.63
617.118	32757.36
617.475	32920.29
617.831	33050.46
618.187	33184.01
618.543	33337.91
618.899	33624
619.255	33720.95
619.611	33844.79
619.967	33976.54
620.323	34329.97
620.678	34123.42
621.034	34257.66
621.39	34378.33
621.746	34317.09
622.101	34719.12
622.457	34668.04
622.812	34880.92
623.168	35065.55
623.523	35047.02
623.879	35239.55
624.234	35049.95
624.589	35413.56
624.945	35412.2
625.3	35470.06
625.655	35596.15
626.01	35710.73
626.365	35869.37
626.72	35802.93
627.075	35737.39
627.43	35933.32
627.785	36046.54
628.14	36134.45
628.495	36260.54
628.85	36098.06
629.205	36211.96
629.559	36256.93
629.914	36179.42
630.269	36299.19
630.623	36250.15
630.978	36287.21
631.332	36361.33
631.687	36620.31
632.041	36522.23
632.396	36587.09
632.75	36377.83
633.104	36613.53
633.459	36509.35
633.813	36590.93
634.167	36526.75
634.521	36606.3
634.875	36594.32
635.229	36612.62
635.583	36321.79
635.937	36533.98
636.291	36506.64
636.645	36621.44
636.999	36566.07
637.352	36657.6
637.706	36542.8
638.06	36653.08
638.413	36507.09
638.767	36514.55
639.121	36607.2
639.474	36455.11
639.828	36487.2
640.181	36672.28
640.534	36587.31
640.888	36426.64
641.241	36381.9
641.594	36531.72
641.947	36550.93
642.301	36402.01
642.654	36546.64
643.007	36557.26
643.36	36543.02
643.713	36362.69
644.066	36580.99
644.419	36324.95
644.771	36200.21
645.124	35754.12
645.477	35718.41
645.83	35587.12
646.182	35460.79
646.535	35481.81
646.888	35498.98
647.24	35330.17
647.593	35518.42
647.945	35366.78
648.298	35240.91
648.65	35192.78
649.002	35133.34
649.355	35297.18
649.707	35211.31
650.059	35408.59
650.411	35802.93
650.763	35828.24
651.115	36172.64
651.467	36037.95
651.819	36164.28
652.171	35995.69
652.523	35935.13
652.875	36030.49
653.227	35817.84
653.578	36052.64
653.93	35946.65
654.282	35708.24
654.633	35857.16
654.985	35942.59
655.337	35780.33
655.688	35956.82
656.039	36113.65
656.391	35801.8
656.742	35681.58
657.094	35890.38
657.445	35900.1
657.796	35783.95
658.147	35805.64
658.498	35731.52
658.849	35793.66
659.2	35696.26
659.551	35811.74
659.902	35817.17
660.253	35819.88
660.604	35862.14
660.955	35574.46
661.306	35871.63
661.656	35711.86
662.007	35746.66
662.358	35654.91
662.708	35684.97
663.059	35705.98
663.409	35514.35
663.76	35712.31
664.11	35715.02
664.461	35676.38
664.811	35667.79
665.161	35640.45
665.511	35433.9
665.862	35570.84
666.212	35604.52
666.562	35745.76
666.912	35591.41
667.262	35477.74
667.612	35603.16
667.962	35534.69
668.312	35549.6
668.662	35722.03
669.011	35651.75
669.361	35578.53
669.711	35576.04
670.06	35482.71
670.41	35458.76
670.76	35381.24
671.109	35466.67
671.459	35489.94
671.808	35383.05
672.157	35536.95
672.507	35227.35
672.856	35308.48
673.205	35257.18
673.554	35444.75
673.904	35241.36
674.253	35510.06
674.602	35415.82
674.951	34816.06
675.3	34785.33
675.649	35276.16
675.998	35086.56
676.346	35182.83
676.695	35235.71
677.044	35023.74
677.393	35081.59
677.741	35198.65
678.09	35065.32
678.438	35088.82
678.787	35004.53
679.135	35032.33
679.484	34832.11
679.832	35108.48
680.181	34921.6
680.529	34957.3
680.877	34803.63
681.225	34672.56
681.573	34904.2
681.922	34657.42
682.27	34560.02
682.618	34593.92
682.966	34510.08
683.314	34617.42
683.661	34437.77
684.009	34313.48
684.357	34156.64
684.705	34326.36
685.053	34240.03
685.4	34166.36
685.748	34145.12
686.095	34078.23
686.443	33938.34
686.79	33856.77
687.138	33993.71
687.485	33909.19
687.832	33814.73
688.18	33898.8
688.527	33688.86
688.874	33685.02
689.221	33483.67
689.568	33515.76
689.915	33349.21
690.262	33347.17
690.609	33347.85
690.956	33221.75
691.303	33043
691.65	33051.81
691.997	32981.08
692.344	32805.27
692.69	32826.51
693.037	32801.2
693.383	32529.34
693.73	32645.05
694.077	32488.44
694.423	32443.02
694.769	32338.61
695.116	32279.18
695.462	32184.04
695.808	32181.78
696.155	32294.09
696.501	31962.58
696.847	32011.62
697.193	31803.49
697.539	31789.93
697.885	31604.62
698.231	31509.93
698.577	31505.19
698.923	31537.73
699.269	31243.05
699.614	31186.33
699.96	31169.38
700.306	31193.56
700.651	31110.17
700.997	31001.02
701.342	30859.56
701.688	30909.05
702.033	30718.77
702.379	30751.31
702.724	30571.43
703.069	30686.68
703.415	30355.39
703.76	30417.76
704.105	30330.53
704.45	30285.11
704.795	30206.47
705.14	30067.49
705.485	30021.61
705.83	29810.54
706.175	30010.09
706.52	29831.56
706.865	29762.18
707.209	29634.28
707.554	29660.72
707.899	29723.31
708.243	29501.4
708.588	29457.11
708.932	29278.35
709.277	29337.11
709.621	29294.4
709.966	29042.65
710.31	29167.62
710.654	28965.59
710.998	29014.86
711.342	28935.31
711.687	28851.7
712.031	28776.45
712.375	28705.94
712.719	28675.43
713.063	28479.28
713.407	28614.87
713.75	28519.96
714.094	28578.03
714.438	28467.08
714.782	28360.64
715.125	28243.81
715.469	28237.03
715.812	28203.13
716.156	28055.56
716.499	27927.2
716.843	28163.58
717.186	27863.7
717.53	27994.55
717.873	28033.19
718.216	27916.81
718.559	27708
718.902	27643.6
719.246	27606.99
719.589	27622.58
719.932	27454
720.275	27530.6
720.617	27538.51
720.96	27388.01
721.303	27307.33
721.646	27380.78
721.989	27164.96
722.331	27281.8
722.674	27162.03
723.016	27254.45
723.359	27168.81
723.701	27117.73
724.044	27020.56
724.386	26837.06
724.729	26947.79
725.071	26833.22
725.413	26869.15
725.755	26808.59
726.097	26767.69
726.439	26623.06
726.782	26666.22
727.124	26680.91
727.465	26629.61
727.807	26677.29
728.149	26431.42
728.491	26465.77
728.833	26354.14
729.175	26375.38
729.516	26356.17
729.858	26319.56
730.199	26270.98
730.541	26155.27
730.882	26220.81
731.224	26283.18
731.565	26080.92
731.906	26008.38
732.248	26056.74
732.589	25883.42
732.93	25840.7
733.271	25895.84
733.612	25932
733.953	25877.99
734.294	25782.85
734.635	25781.05
734.976	25766.36
735.317	25591.9
735.658	25633.7
735.999	25695.4
736.339	25673.48
736.68	25624.21
737.021	25478
737.361	25512.35
737.702	25541.96
738.042	25475.29
738.383	25444.56
738.723	25470.54
739.063	25354.16
739.404	25423.54
739.744	25283.43
740.084	25180.84
740.424	25239.59
740.764	25121.18
741.104	25194.62
741.444	24971.35
741.784	25033.95
742.124	25099.48
742.464	24955.3
742.804	24922.54
743.143	24940.84
743.483	25018.58
743.823	24740.39
744.162	24755.54
744.502	24921.86
744.841	24758.93
745.181	24746.04
745.52	24606.84
745.86	24715.76
746.199	24704.92
746.538	24622.21
746.877	24613.39
747.216	24551.25
747.556	24515.32
747.895	24483
748.234	24476.67
748.573	24365.72
748.911	24302.44
749.25	24334.76
749.589	24235.1
749.928	24228.32
750.267	24182.22
750.605	24258.37
750.944	24129.56
751.283	24102.45
751.621	24160.75
751.96	23985.84
752.298	24047.76
752.636	24045.05
752.975	23871.49
753.313	23862.68
753.651	23972.73
753.989	23856.12
754.327	23775.45
754.666	23590.37
755.004	23742.45
755.342	23676.47
755.679	23650.48
756.017	23509.92
756.355	23529.13
756.693	23436.7
757.031	23514.89
757.368	23338.17
757.706	23332.52
758.044	23253.88
758.381	23321.22
758.719	23107.44
759.056	23012.76
759.394	23079.65
759.731	22959.42
760.068	22869.03
760.405	22812.54
760.743	22740
761.08	22861.35
761.417	22689.6
761.754	22749.26
762.091	22630.85
762.428	22537.97
762.765	22395.82
763.102	22469.95
763.438	22355.37
763.775	22310.4
764.112	22269.73
764.449	22282.38
764.785	22115.38
765.122	21943.63
765.458	21893.46
765.795	21896.63
766.131	21857.53
766.467	21784.54
766.804	21597.88
767.14	21602.4
767.476	21586.35
767.812	21453.93
768.148	21508.84
768.485	21518.56
768.821	21229.3
769.157	21210.09
769.492	21094.16
769.828	21107.95
770.164	20899.82
770.5	20932.36
770.836	20859.59
771.171	20785.02
771.507	20777.79
771.842	20624.34
772.178	20632.48
772.513	20535.31
772.849	20508.19
773.184	20445.59
773.519	20426.84
773.855	20335.76
774.19	20177.12
774.525	20091.93
774.86	20100.52
775.195	20100.06
775.53	19979.62
775.865	19938.04
776.2	19745.5
776.535	19555.22
776.87	19638.83
777.205	19564.03
777.539	19488.1
777.874	19401.1
778.209	19226.42
778.543	19317.94
778.878	19077.49
779.212	19280.65
779.547	19071.84
779.881	19081.33
780.215	19003.82
780.55	18948
780.884	18857.84
781.218	18737.84
781.552	18804.96
781.886	18616.49
782.22	18628.46
782.554	18523.16
782.888	18319.77
783.222	18240.23
783.556	18245.2
783.889	18257.63
784.223	18113
784.557	18066.22
784.89	18101.47
785.224	17883.4
785.557	17833.23
785.891	17755.72
786.224	17675.5
786.558	17683.63
786.891	17532
787.224	17512.11
787.557	17447.93
787.891	17446.8
788.224	17377.42
788.557	17421.27
788.89	17348.5
789.223	17299.01
789.556	17146.7
789.888	17157.77
790.221	16993.71
790.554	16908.06
790.887	16872.8
791.219	16896.53
791.552	16845.91
791.884	16844.78
792.217	16747.38
792.549	16612.92
792.882	16500.61
793.214	16446.6
793.546	16456.54
793.879	16346.72
794.211	16206.16
794.543	16295.87
794.875	16243.89
795.207	16248.41
795.539	16220.17
795.871	16184.46
796.203	16087.51
796.535	15908.54
796.867	15904.02
797.198	15850.91
797.53	15895.88
797.862	15706.73
798.193	15809.1
798.525	15682.78
798.856	15621.99
799.188	15561.65
799.519	15553.97
799.85	15422.22
800.182	15334.09
800.513	15385.61
800.844	15374.54
801.175	15273.07
801.506	15241.66
801.837	15168.22
802.168	15086.86
802.499	15104.94
802.83	14940.88
803.161	14927.32
803.491	14953.76
803.822	14916.02
804.153	14851.84
804.483	14779.53
804.814	14739.08
805.145	14709.92
805.475	14662.92
805.805	14548.12
806.136	14652.52
806.466	14665.63
806.796	14467.44
807.126	14435.35
807.457	14404.85
807.787	14367.79
808.117	14362.81
808.447	14288.92
808.777	14298.64
809.107	14205.08
809.436	14203.04
809.766	14213.67
810.096	14150.62
810.426	14131.18
810.755	14102.93
811.085	14083.73
811.414	13982.03
811.744	13867.91
812.073	13932.09
812.403	13811.64
812.732	13794.92
813.061	13814.13
813.39	13700.46
813.719	13708.59
814.049	13758.54
814.378	13594.93
814.707	13658.43
815.036	13617.98
815.365	13514.93
815.693	13373.46
816.022	13478.54
816.351	13454.59
816.68	13320.81
817.008	13392.67
817.337	13248.27
817.665	13195.61
817.994	13236.74
818.322	13181.15
818.651	13239.91
818.979	13149.06
819.307	13167.82
819.636	13016.64
819.964	13086.01
820.292	13110.19
820.62	13088.5
820.948	12978.22
821.276	13088.05
821.604	12937.77
821.932	13010.31
822.259	12935.28
822.587	13030.19
822.915	12915.17
823.243	13002.4
823.57	12923.76
823.898	12919.69
824.225	12830.88
824.553	12901.16
824.88	12850.31
825.207	12890.99
825.535	12911.55
825.862	12908.62
826.189	12900.03
826.516	12945.9
826.843	12958.33
827.17	12979.8
827.497	12902.97
827.824	12913.59
828.151	13002.85
828.478	12920.82
828.805	13010.53
829.131	12918.11
829.458	12905.45
829.785	12759.69
830.111	12879.01
830.438	12894.38
830.764	12896.19
831.09	12907.26
831.417	12767.38
831.743	12921.72
832.069	12911.1
832.395	12700.71
832.722	12811.89
833.048	12780.71
833.374	12791.1
833.7	12780.71
834.026	12669.07
834.351	12817.54
834.677	12662.29
835.003	12762.18
835.329	12656.42
835.654	12648.06
835.98	12667.94
836.306	12671.56
836.631	12567.83
836.956	12583.2
837.282	12643.99
837.607	12560.83
837.932	12568.74
838.258	12526.93
838.583	12533.94
838.908	12465.46
839.233	12523.31
839.558	12451.45
839.883	12419.59
840.208	12429.31
840.533	12462.98
840.858	12326.94
841.182	12396.99
841.507	12347.95
841.832	12334.62
842.156	12187.28
842.481	12291
842.805	12253.94
843.13	12212.36
843.454	12063.67
843.778	12129.65
844.103	12096.21
844.427	12116.77
844.751	12104.34
845.075	11950.45
845.399	11948.19
845.723	11966.95
846.047	11881.98
846.371	11829.77
846.695	11824.58
847.019	11787.06
847.343	11790.45
847.666	11567.86
847.99	11590.68
848.313	11604.92
848.637	11449.9
848.96	11516.11
849.284	11442.44
849.607	11329
849.931	11379.84
850.254	11333.74
850.577	11168.55
850.9	11154.54
851.223	11201.09
851.546	11080.19
851.869	10939.4
852.192	11072.05
852.515	10948.44
852.838	11010.36
853.161	10999.29
853.483	10841.33
853.806	10834.09
854.129	10856.24
854.451	10679.52
854.774	10757.71
855.096	10710.48
855.419	10701.44
855.741	10641.56
856.063	10541.22
856.385	10480.88
856.708	10512.52
857.03	10441.11
857.352	10524.27
857.674	10406.99
857.996	10466.87
858.318	10387.33
858.64	10316.37
858.961	10294.9
859.283	10281.11
859.605	10247.22
859.926	10210.38
860.248	10171.51
860.57	10179.2
860.891	10193.21
861.212	10098.52
861.534	10083.83
861.855	10087.9
862.176	10075.02
862.498	10094.9
862.819	10098.75
863.14	10001.8
863.461	9958.64
863.782	9960.22
864.103	9902.82
864.424	9927.9
864.745	9930.84
865.065	9798.19
865.386	9822.14
865.707	9819.66
866.027	9789.38
866.348	9815.36
866.668	9788.25
866.989	9748.47
867.309	9680
867.63	9718.42
867.95	9720.45
868.27	9671.41
868.59	9733.11
868.91	9619.66
869.23	9688.36
869.55	9601.36
869.87	9672.54
870.19	9612.43
870.51	9556.61
870.83	9567.01
871.15	9539.66
871.469	9502.6
871.789	9532.43
872.109	9513.68
872.428	9486.78
872.748	9480.91
873.067	9485.2
873.386	9459.67
873.706	9471.64
874.025	9368.14
874.344	9423.74
874.663	9420.57
874.982	9337.18
875.301	9295.15
875.62	9369.95
875.939	9356.17
876.258	9264.64
876.577	9259.67
876.896	9222.38
877.214	9221.93
877.533	9238.2
877.852	9266.9
878.17	9179
878.489	9203.18
878.807	9227.13
879.125	9139.9
879.444	9162.27
879.762	9069.17
880.08	9120.69
880.398	9121.14
880.716	9103.29
881.034	9028.94
881.352	9068.94
881.67	9010.86
881.988	8994.37
882.306	8995.27
882.624	8952.11
882.941	8916.4
883.259	8872.79
883.577	8896.97
883.894	8850.42
884.212	8837.08
884.529	8821.72
884.846	8824.88
885.164	8821.49
885.481	8735.39
885.798	8752.34
886.115	8701.95
886.432	8671.21
886.75	8687.48
887.067	8703.3
887.383	8698.1
887.7	8650.87
888.017	8561.16
888.334	8635.51
888.651	8531.1
888.967	8567.71
889.284	8483.87
889.6	8509.18
889.917	8415.85
890.233	8506.47
890.55	8423.31
890.866	8440.94
891.182	8390.32
891.498	8354.38
891.815	8342.18
892.131	8280.71
892.447	8250.66
892.763	8265.8
893.079	8245.91
893.395	8263.31
893.71	8170.89
894.026	8207.27
894.342	8145.12
894.657	8088.86
894.973	8071.91
895.289	8089.08
895.604	8075.3
895.92	7977.9
896.235	7981.97
896.55	7976.54
896.865	7916.2
897.181	7896.32
897.496	7897.22
897.811	7879.82
898.126	7845.25
898.441	7760.95
898.756	7772.25
899.071	7687.28
899.386	7711.24
899.7	7686.15
900.015	7668.53
900.33	7575.42
900.644	7592.6
900.959	7590.56
901.273	7525.93
901.588	7530
901.902	7480.28
902.216	7486.84
902.531	7423.11
902.845	7418.14
903.159	7372.94
903.473	7370.46
903.787	7340.17
904.101	7294.98
904.415	7283.68
904.729	7261.08
905.042	7247.75
905.356	7238.93
905.67	7188.99
905.984	7165.26
906.297	7131.59
906.611	7111.03
906.924	7047.3
907.237	7024.25
907.551	7038.49
907.864	6980.41
908.177	6951.48
908.491	6917.59
908.804	6907.42
909.117	6883.24
909.43	6820.87
909.743	6814.54
910.056	6797.59
910.368	6794.2
910.681	6771.6
910.994	6713.3
911.307	6691.38
911.619	6570.7
911.932	6664.03
912.244	6624.49
912.557	6631.49
912.869	6589.91
913.181	6491.38
913.494	6489.58
913.806	6506.98
914.118	6404.15
914.43	6408.67
914.742	6396.24
915.054	6368.67
915.366	6344.95
915.678	6258.17
915.99	6315.79
916.302	6299.98
916.613	6227.44
916.925	6176.36
917.236	6219.98
917.548	6182.46
917.859	6181.33
918.171	6131.17
918.482	6116.25
918.794	6108.34
919.105	6053.65
919.416	6013.2
919.727	5966.43
920.038	6003.26
920.349	5930.27
920.66	5876.26
920.971	5901.34
921.282	5820.89
921.593	5858.41
921.903	5853.66
922.214	5781.12
922.525	5797.16
922.835	5690.27
923.146	5689.6
923.456	5688.92
923.767	5735.7
924.077	5682.59
924.387	5673.78
924.697	5594.01
925.008	5580.67
925.318	5598.75
925.628	5575.25
925.938	5502.48
926.248	5405.08
926.558	5422.26
926.867	5436.04
927.177	5432.88
927.487	5398.08
927.796	5359.21
928.106	5319.21
928.416	5333
928.725	5323.5
929.034	5284.86
929.344	5294.13
929.653	5243.96
929.962	5220.91
930.271	5222.72
930.581	5170.29
930.89	5173.9
931.199	5116.05
931.508	5154.47
931.817	5136.84
932.125	5100.01
932.434	5058.2
932.743	5042.61
933.051	5002.61
933.36	4966
933.669	4931.88
933.977	4966.45
934.286	4924.87
934.594	4897.07
934.902	4882.84
935.21	4818.88
935.519	4832.44
935.827	4807.59
936.135	4784.08
936.443	4769.62
936.751	4764.87
937.059	4710.86
937.367	4692.33
937.674	4697.31
937.982	4746.12
938.29	4666.57
938.597	4677.42
938.905	4628.38
939.213	4576.18
939.52	4570.98
939.827	4561.94
940.135	4543.64
940.442	4534.6
940.749	4497.99
941.056	4427.93
941.363	4431.1
941.67	4447.37
941.977	4463.41
942.284	4385.9
942.591	4389.74
942.898	4388.16
943.205	4371.44
943.511	4307.49
943.818	4311.33
944.125	4310.42
944.431	4257.77
944.738	4245.79
945.044	4243.53
945.35	4183.87
945.657	4191.78
945.963	4160.82
946.269	4134.83
946.575	4169.41
946.881	4154.5
947.187	4133.48
947.493	4035.85
947.799	4079.92
948.105	4062.29
948.41	4035.63
948.716	4016.87
949.022	4017.55
949.327	4002.41
949.633	3984.78
949.938	3927.16
950.244	3925.35
950.549	3926.25
950.854	3895.07
951.16	3904.11
951.465	3928.06
951.77	3847.61
952.075	3863.2
952.38	3812.13
952.685	3838.57
952.99	3781.4
953.294	3813.04
953.599	3765.8
953.904	3717.9
954.209	3736.2
954.513	3722.42
954.818	3703.66
955.122	3714.05
955.426	3676.09
955.731	3667.28
956.035	3639.03
956.339	3681.74
956.643	3632.93
956.948	3535.53
957.252	3547.73
957.556	3533.95
957.86	3546.6
958.163	3518.13
958.467	3525.36
958.771	3516.09
959.075	3455.53
959.378	3468.41
959.682	3464.34
959.985	3436.77
960.289	3458.47
960.592	3393.61
960.896	3366.27
961.199	3386.61
961.502	3340.28
961.805	3345.48
962.108	3336.66
962.411	3314.52
962.714	3275.42
963.017	3322.2
963.32	3315.2
963.623	3235.65
963.926	3204.24
964.228	3244.69
964.531	3202.43
964.833	3193.39
965.136	3175.54
965.438	3190.23
965.741	3149.55
966.043	3199.04
966.345	3126.95
966.648	3133.28
966.95	3112.71
967.252	3082.66
967.554	3047.63
967.856	3058.48
968.158	3072.49
968.46	3004.7
968.761	3049.67
969.063	3017.8
969.365	3007.86
969.666	3014.19
969.968	2982.77
970.269	2977.13
970.571	2934.64
970.872	2924.25
971.174	2914.98
971.475	2936
971.776	2899.84
972.077	2874.98
972.378	2878.14
972.679	2863.23
972.98	2860.52
973.281	2798.15
973.582	2835.66
973.883	2799.05
974.183	2831.37
974.484	2799.5
974.785	2766.74
975.085	2782.78
975.386	2773.06
975.686	2743.46
975.986	2736.68
976.287	2736
976.587	2714.76
976.887	2703.69
977.187	2689.68
977.487	2658.72
977.787	2636.12
978.087	2647.64
978.387	2635.89
978.687	2636.12
978.987	2634.08
979.286	2590.24
979.586	2589.34
979.885	2602.45
980.185	2586.63
980.484	2557.25
980.784	2559.28
981.083	2500.3
981.382	2542.11
981.682	2529.45
981.981	2491.49
982.28	2494.65
982.579	2462.34
982.878	2474.54
983.177	2456.69
983.475	2498.49
983.774	2447.2
984.073	2418.04
984.372	2416.46
984.67	2394.99
984.969	2424.15
985.267	2413.98
985.566	2373.75
985.864	2385.05
986.162	2341.44
986.461	2361.55
986.759	2354.77
987.057	2347.99
987.355	2331.94
987.653	2347.99
987.951	2324.26
988.249	2310.48
988.547	2285.39
988.844	2249.01
989.142	2254.21
989.44	2237.48
989.737	2236.81
990.035	2210.59
990.332	2213.53
990.63	2194.55
990.927	2212.63
991.224	2184.15
991.521	2171.5
991.819	2173.3
992.116	2195.22
992.413	2149.35
992.71	2122.23
993.006	2143.25
993.303	2102.12
993.6	2110.48
993.897	2098.28
994.193	2072.29
994.49	2072.97
994.787	2078.39
995.083	2059.86
995.379	2050.37
995.676	2038.17
995.972	2045.17
996.268	2005.4
996.565	1992.52
996.861	2018.96
997.157	2001.56
997.453	1984.38
997.749	1968.79
998.044	1958.85
998.34	1954.33
998.636	1994.33
998.932	1928.11
999.227	1933.54
999.523	1925.85
999.818	1904.38
1000.114	1906.42
1000.409	1862.8
1000.704	1889.7
1001	1865.74
1001.295	1857.61
1001.59	1873.65
1001.885	1836.36
1002.18	1844.95
1002.475	1817.16
1002.77	1779.64
1003.065	1779.87
1003.359	1805.18
1003.654	1793.2
1003.949	1767.67
1004.243	1794.78
1004.538	1770.15
1004.832	1755.24
1005.127	1719.98
1005.421	1737.38
1005.715	1712.98
1006.009	1720.43
1006.304	1709.14
1006.598	1693.54
1006.892	1698.74
1007.186	1661.23
1007.48	1656.93
1007.773	1668.91
1008.067	1650.38
1008.361	1625.3
1008.655	1639.31
1008.948	1638.4
1009.242	1605.64
1009.535	1613.09
1009.829	1574
1010.122	1536.26
1010.415	1571.96
1010.708	1582.81
1011.001	1539.87
1011.295	1557.73
1011.588	1519.76
1011.881	1508.01
1012.173	1532.87
1012.466	1532.19
1012.759	1502.59
1013.052	1495.58
1013.344	1475.7
1013.637	1499.65
1013.93	1484.28
1014.222	1464.4
1014.514	1481.12
1014.807	1444.06
1015.099	1434.79
1015.391	1443.83
1015.683	1431.63
1015.976	1402.03
1016.268	1395.92
1016.56	1409.93
1016.851	1386.66
1017.143	1381.91
1017.435	1401.12
1017.727	1362.48
1018.018	1371.97
1018.31	1367.9
1018.602	1351.41
1018.893	1334
1019.185	1312.54
1019.476	1314.12
1019.767	1322.03
1020.058	1301.01
1020.35	1270.5
1020.641	1294.01
1020.932	1313.44
1021.223	1293.1
1021.514	1266.21
1021.804	1221.01
1022.095	1250.39
1022.386	1244.52
1022.677	1246.55
1022.967	1197.28
1023.258	1204.06
1023.548	1210.84
1023.839	1192.09
1024.129	1196.61
1024.419	1187.34
1024.709	1166.78
1025	1170.84
1025.29	1149.38
1025.58	1147.34
1025.87	1132.43
1026.16	1166.33
1026.449	1159.09
1026.739	1124.74
1027.029	1129.04
1027.319	1131.07
1027.608	1120.45
1027.898	1105.31
1028.187	1079.1
1028.477	1085.88
1028.766	1076.61
1029.055	1087.68
1029.344	1068.25
1029.634	1067.34
1029.923	1052.66
1030.212	1037.06
1030.501	1028.93
1030.79	1039.55
1031.078	1004.75
1031.367	1036.84
1031.656	1014.69
1031.945	1003.39
1032.233	1006.1
1032.522	1011.3
1032.81	997.06
1033.099	971.75
1033.387	975.6
1033.675	1007.01
1033.963	980.12
1034.251	968.82
1034.54	934.69
1034.828	958.87
1035.116	947.57
1035.403	927.91
1035.691	924.3
1035.979	914.58
1036.267	934.01
1036.554	928.82
1036.842	908.48
1037.129	906.22
1037.417	863.06
1037.704	903.28
1037.992	891.3
1038.279	900.8
1038.566	852.89
1038.853	852.89
1039.14	852.89
