Data from hue_30_FLMS001491_58.txt Node
Date: Mon Feb 06 15:05:36 GMT 2017
User: dcchb
Spectrometer: FLMS00149
Trigger mode: 0
Integration Time (sec): 2.000000E-2
Scans to average: 10
Electric dark correction enabled: true
Nonlinearity correction enabled: false
Boxcar width: 0
XAxis mode: Wavelengths
Number of Pixels in Spectrum: 2048
>>>>>Begin Spectral Data<<<<<
341.393	-7.99
341.776	-7.99
342.16	-7.99
342.543	-58.16
342.927	-71.27
343.31	-45.06
343.693	-63.81
344.077	-89.35
344.46	-62.23
344.843	-42.8
345.226	-37.37
345.61	-42.34
345.993	-3.7
346.376	-8.9
346.759	22.97
347.142	25.68
347.525	41.04
347.908	43.08
348.291	71.1
348.674	84.21
349.057	107.48
349.44	125.11
349.823	162.4
350.206	159.23
350.588	203.75
350.971	217.31
351.354	232.9
351.737	234.94
352.119	247.37
352.502	262.06
352.884	286.46
353.267	245.11
353.65	290.53
354.032	288.72
354.414	309.74
354.797	319.45
355.179	314.71
355.562	323.07
355.944	333.69
356.326	323.75
356.709	311.09
357.091	340.92
357.473	330.08
357.855	330.53
358.238	340.7
358.62	313.35
359.002	339.79
359.384	335.05
359.766	344.31
360.148	340.7
360.53	346.8
360.912	340.92
361.294	323.97
361.676	344.76
362.057	323.07
362.439	329.85
362.821	335.73
363.203	316.74
363.584	317.42
363.966	331.43
364.348	314.71
364.729	321.26
365.111	310.64
365.493	306.8
365.874	308.16
366.256	317.2
366.637	313.81
367.019	304.99
367.4	317.87
367.781	308.38
368.163	323.75
368.544	309.06
368.925	314.94
369.306	321.94
369.688	306.8
370.069	320.13
370.45	314.71
370.831	339.79
371.212	293.24
371.593	323.07
371.974	317.87
372.355	326.01
372.736	325.56
373.117	313.81
373.498	319
373.879	298.89
374.26	303.64
374.641	323.3
375.021	321.49
375.402	319.91
375.783	303.86
376.163	313.58
376.544	322.84
376.925	324.2
377.305	323.75
377.686	329.85
378.066	320.81
378.447	336.4
378.827	321.26
379.208	333.92
379.588	320.58
379.968	335.95
380.349	324.65
380.729	323.3
381.109	320.58
381.489	347.02
381.87	323.3
382.25	323.52
382.63	334.6
383.01	348.15
383.39	328.49
383.77	330.3
384.15	359.68
384.53	328.72
384.91	349.96
385.29	347.02
385.67	351.77
386.049	359.45
386.429	350.87
386.809	339.34
387.189	347.48
387.568	329.4
387.948	344.76
388.328	349.96
388.707	353.13
389.087	351.09
389.466	343.41
389.846	372.11
390.225	357.87
390.605	360.81
390.984	362.17
391.363	370.53
391.743	372.33
392.122	349.96
392.501	366.23
392.881	357.65
393.26	378.89
393.639	367.36
394.018	372.33
394.397	389.06
394.776	364.43
395.155	374.37
395.534	382.05
395.913	372.56
396.292	377.31
396.671	373.01
397.05	392.9
397.429	393.13
397.808	382.96
398.186	381.83
398.565	379.57
398.944	393.8
399.323	392.22
399.701	393.58
400.08	374.82
400.458	398.1
400.837	390.19
401.215	385.67
401.594	409.85
401.972	391.09
402.351	396.97
402.729	401.03
403.107	388.83
403.486	426.34
403.864	412.79
404.242	399
404.62	412.79
404.999	402.16
405.377	419.79
405.755	413.46
406.133	421.15
406.511	408.72
406.889	415.72
407.267	420.24
407.645	435.16
408.023	419.34
408.401	427.47
408.779	428.38
409.156	443.97
409.534	433.8
409.912	424.76
410.29	456.4
410.667	442.39
411.045	448.49
411.422	449.62
411.8	451.88
412.178	437.87
412.555	465.67
412.933	460.92
413.31	489.62
413.687	452.78
414.065	476.06
414.442	454.59
414.819	464.76
415.197	470.41
415.574	471.77
415.951	481.94
416.328	464.99
416.705	483.97
417.082	479.45
417.46	511.31
417.837	516.06
418.214	505.21
418.591	494.14
418.967	487.59
419.344	509.51
419.721	506.12
420.098	514.7
420.475	514.48
420.852	528.49
421.228	519.22
421.605	520.35
421.982	533.46
422.358	513.57
422.735	537.98
423.111	546.12
423.488	537.53
423.864	526.91
424.241	558.09
424.617	537.75
424.994	530.07
425.37	542.05
425.746	525.33
426.123	548.6
426.499	557.19
426.875	563.06
427.251	562.61
427.627	575.49
428.003	568.71
428.379	572.1
428.756	573.46
429.132	603.97
429.507	615.94
429.883	594.25
430.259	596.06
430.635	588.6
431.011	593.8
431.387	603.74
431.763	612.33
432.138	615.72
432.514	616.62
432.89	630.18
433.265	648.94
433.641	665.89
434.016	636.96
434.392	663.85
434.767	675.38
435.143	660.46
435.518	655.27
435.894	650.97
436.269	668.6
436.644	695.94
437.02	684.87
437.395	674.25
437.77	703.17
438.145	682.38
438.52	705.66
438.895	701.14
439.271	720.8
439.646	711.31
440.021	736.85
440.395	737.75
440.77	710.63
441.145	721.03
441.52	749.95
441.895	710.86
442.27	744.3
442.645	761.93
443.019	761.03
443.394	728.03
443.769	745.21
444.143	765.09
444.518	746.11
444.892	770.97
445.267	779.1
445.641	780.69
446.016	799.44
446.39	795.6
446.764	794.24
447.139	763.51
447.513	803.96
447.887	812.32
448.262	799.89
448.636	814.58
449.01	826.79
449.384	817.07
449.758	846.45
450.132	788.37
450.506	833.11
450.88	852.1
451.254	842.38
451.628	853.23
452.002	850.97
452.376	871.3
452.75	862.72
453.123	853.23
453.497	874.47
453.871	871.08
454.244	882.15
454.618	905.43
454.992	916.05
455.365	904.07
455.739	911.3
456.112	925.09
456.486	948.82
456.859	980.91
457.232	960.79
457.606	963.05
457.979	988.14
458.352	976.61
458.725	1008.93
459.099	1010.74
459.472	1049.15
459.845	1017.06
460.218	1047.35
460.591	1018.19
460.964	1047.57
461.337	1071.07
461.71	1076.95
462.083	1098.42
462.456	1105.87
462.829	1113.33
463.201	1121.47
463.574	1121.47
463.947	1123.05
464.32	1148.36
464.692	1176.38
465.065	1166.44
465.438	1203.5
465.81	1182.03
466.183	1258.19
466.555	1225.19
466.928	1252.99
467.3	1270.39
467.672	1250.73
468.045	1311.07
468.417	1299.77
468.789	1299.99
469.161	1327.11
469.534	1376.83
469.906	1399.65
470.278	1394.45
470.65	1400.1
471.022	1458.18
471.394	1471.06
471.766	1466.77
472.138	1478.97
472.51	1511.06
472.882	1563.94
473.253	1575.02
473.625	1578.63
473.997	1607.78
474.369	1624.73
474.74	1674.45
475.112	1706.09
475.484	1694.79
475.855	1750.15
476.227	1784.5
476.598	1820.88
476.97	1851.17
477.341	1879.87
477.713	1902.92
478.084	1962.12
478.455	1998.96
478.827	2009.58
479.198	2076.92
479.569	2113.98
479.94	2185.85
480.311	2162.57
480.682	2242.34
481.053	2284.6
481.424	2349.46
481.795	2362.11
482.166	2399.85
482.537	2467.2
482.908	2544.93
483.279	2560.53
483.65	2605.04
484.021	2700.18
484.391	2745.83
484.762	2827.86
485.133	2823.57
485.503	2899.73
485.874	2941.98
486.244	2987.18
486.615	3050.91
486.985	3104.01
487.356	3170.91
487.726	3264.24
488.097	3301.07
488.467	3367.74
488.837	3438.47
489.207	3449.99
489.578	3528.18
489.948	3592.14
490.318	3606.15
490.688	3671.91
491.058	3793.94
491.428	3840.94
491.798	3890.89
492.168	3975.63
492.538	4054.95
492.908	4046.81
493.278	4129.98
493.648	4160.48
494.017	4195.74
494.387	4296.75
494.757	4313.7
495.126	4369.74
495.496	4422.17
495.866	4467.14
496.235	4550.76
496.605	4591.21
496.974	4627.36
497.344	4637.76
497.713	4721.15
498.082	4762.28
498.452	4848.83
498.821	4864.42
499.19	4891.76
499.559	4989.84
499.928	4997.52
500.298	5055.15
500.667	5138.09
501.036	5119.78
501.405	5170.17
501.774	5185.09
502.143	5240.68
502.512	5301.02
502.88	5331.3
503.249	5393.22
503.618	5432.31
503.987	5460.34
504.356	5458.98
504.724	5534.68
505.093	5560.22
505.462	5574.68
505.83	5571.97
506.199	5666.88
506.567	5770.16
506.936	5703.27
507.304	5794.79
507.672	5804.96
508.041	5890.61
508.409	5875.69
508.777	5961.34
509.145	5994.56
509.514	6015.35
509.882	6086.08
510.25	6064.16
510.618	6068.68
510.986	6075.91
511.354	6210.6
511.722	6168.57
512.09	6246.3
512.458	6243.59
512.826	6309.58
513.193	6339.18
513.561	6370.82
513.929	6410.82
514.297	6516.35
514.664	6454.66
515.032	6527.88
515.4	6554.32
515.767	6561.1
516.135	6622.79
516.502	6519.52
516.869	6686.75
517.237	6712.96
517.604	6741.88
517.972	6782.11
518.339	6793.86
518.706	6793.86
519.073	6796.8
519.44	6858.04
519.808	6887.87
520.175	6895.1
520.542	6937.59
520.909	7043.8
521.276	7023.69
521.643	7058.49
522.009	7139.16
522.376	7137.81
522.743	7161.99
523.11	7203.79
523.477	7290.57
523.843	7355.43
524.21	7409.89
524.577	7442.88
524.943	7445.14
525.31	7523.11
525.676	7568.98
526.043	7575.76
526.409	7604.24
526.776	7692.82
527.142	7747.73
527.508	7755.19
527.874	7795.87
528.241	7812.82
528.607	7882.65
528.973	7981.17
529.339	7948.41
529.705	8004.45
530.071	8052.58
530.437	8051.91
530.803	8136.2
531.169	8219.81
531.535	8224.78
531.901	8203.99
532.267	8262.75
532.632	8348.17
532.998	8392.24
533.364	8437.89
533.73	8387.49
534.095	8396.08
534.461	8523.31
534.826	8581.38
535.192	8609.18
535.557	8632.46
535.923	8627.94
536.288	8681.72
536.653	8772.11
537.019	8709.74
537.384	8695.73
537.749	8836.07
538.114	8814.15
538.479	8800.14
538.845	8915.16
539.21	8947.02
539.575	8966.23
539.94	8984.99
540.305	8993.58
540.67	8995.84
541.034	9033.58
541.399	9196.74
541.764	9165.78
542.129	9218.43
542.494	9235.38
542.858	9299.11
543.223	9304.76
543.587	9365.77
543.952	9361.93
544.316	9459.33
544.681	9426.56
545.045	9453.68
545.41	9555.37
545.774	9583.62
546.138	9603.73
546.503	9693.67
546.867	9588.82
547.231	9742.94
547.595	9761.69
547.959	9866.1
548.324	9851.86
548.688	9849.83
549.052	9840.33
549.416	9909.03
549.779	9888.47
550.143	9980.67
550.507	10053.21
550.871	10048.01
551.235	10022.7
551.599	10159.42
551.962	10168.24
552.326	10254.56
552.689	10228.57
553.053	10189.48
553.417	10214.11
553.78	10373.2
554.143	10284.39
554.507	10401
554.87	10511.05
555.234	10483.71
555.597	10495.68
555.96	10531.39
556.323	10588.11
556.686	10562.35
557.05	10598.96
557.413	10655.68
557.776	10648.9
558.139	10776.81
558.502	10756.69
558.865	10772.97
559.228	10822.68
559.59	10847.09
559.953	10878.73
560.316	11036.91
560.679	10943.81
561.041	11080.75
561.404	11125.72
561.767	11174.76
562.129	11094.76
562.492	11278.04
562.854	11276.91
563.217	11159.85
563.579	11252.27
563.941	11323.46
564.304	11403.91
564.666	11472.83
565.028	11420.41
565.39	11482.78
565.753	11524.36
566.115	11560.06
566.477	11607.97
566.839	11666.73
567.201	11711.47
567.563	11736.1
567.925	11825.59
568.287	11776.78
568.648	11890.68
569.01	11934.97
569.372	11919.83
569.734	11928.64
570.095	12043.89
570.457	12112.59
570.819	12176.32
571.18	12179.03
571.542	12292.02
571.903	12285.69
572.265	12364.34
572.626	12395.52
572.987	12425.13
573.349	12483.43
573.71	12560.04
574.071	12714.16
574.432	12653.59
574.794	12895.4
575.155	12846.13
575.516	12856.3
575.877	13028.95
576.238	13069.63
576.599	13154.82
576.96	13252.9
577.32	13309.62
577.681	13460.8
578.042	13543.51
578.403	13598.88
578.763	13637.97
579.124	13781.25
579.485	13887.91
579.845	14122.93
580.206	14182.59
580.566	14251.74
580.927	14334.68
581.287	14619.42
581.648	14711.39
582.008	14919.97
582.368	14994.55
582.728	15149.35
583.089	15335.56
583.449	15475.89
583.809	15637.7
584.169	15794.98
584.529	15946.84
584.889	16278.13
585.249	16327.17
585.609	16535.98
585.969	16861.84
586.329	17069.75
586.688	17209.41
587.048	17462.51
587.408	17534.6
587.768	17818.2
588.127	17927.13
588.487	18268.81
588.846	18610.73
589.206	18720.55
589.565	18982.47
589.925	19189.92
590.284	19378.39
590.643	19703.8
591.003	20051.14
591.362	20222.66
591.721	20341.75
592.08	20728.18
592.44	21021.74
592.799	21154.16
593.158	21441.84
593.517	21722.06
593.876	22036.62
594.235	22139.45
594.593	22443.62
594.952	22766.32
595.311	22889.03
595.67	23322.69
596.029	23525.62
596.387	23945.27
596.746	24308.65
597.104	24252.16
597.463	24547.97
597.822	25035.42
598.18	24995.64
598.538	25241.29
598.897	25629.75
599.255	25704.1
599.613	26329.84
599.972	26329.17
600.33	26610.29
600.688	26739.78
601.046	27031.07
601.404	27374.79
601.762	27504.05
602.12	27971.38
602.478	28106.07
602.836	28272.39
603.194	28337.02
603.552	28728.2
603.91	28829.89
604.268	29176.1
604.625	29307.39
604.983	29743.54
605.341	29685.24
605.698	29986.02
606.056	30407.7
606.413	30384.2
606.771	30618.32
607.128	30856.28
607.485	30904.19
607.843	30943.96
608.2	31372.2
608.557	31595.47
608.914	31675.47
609.272	31936.02
609.629	32084.5
609.986	32562.45
610.343	32442.45
610.7	32822.1
611.057	32870.01
611.414	33021.65
611.771	33152.72
612.127	33357.46
612.484	33472.71
612.841	33853.71
613.198	33726.71
613.554	33923.77
613.911	34248.28
614.267	34321.5
614.624	34436.52
614.98	34441.27
615.337	34884.2
615.693	34900.92
616.05	34884.65
616.406	35063.17
616.762	35251.19
617.118	35378.19
617.475	35341.36
617.831	35559.88
618.187	35747
618.543	35811.85
618.899	36158.74
619.255	36155.57
619.611	36228.79
619.967	36268.11
620.323	36550.37
620.678	36586.07
621.034	36514.66
621.39	36565.28
621.746	36694.09
622.101	37081.88
622.457	36854.77
622.812	36910.58
623.168	37019.51
623.523	37082.56
623.879	37282.1
624.234	37192.16
624.589	37268.99
624.945	37251.37
625.3	37441.87
625.655	37502.66
626.01	37588.53
626.365	37723.22
626.72	37722.31
627.075	37595.76
627.43	37708.53
627.785	37842.08
628.14	37831.91
628.495	37935.87
628.85	37965.24
629.205	37858.35
629.559	38118.24
629.914	37910.33
630.269	38089.54
630.623	38016.99
630.978	37974.96
631.332	38157.1
631.687	38045.92
632.041	38216.76
632.396	38206.14
632.75	38120.04
633.104	38160.95
633.459	38106.03
633.813	38021.51
634.167	38183.54
634.521	38106.94
634.875	38152.58
635.229	38203.88
635.583	38102.42
635.937	38066.48
636.291	38119.59
636.645	38165.47
636.999	38021.29
637.352	38084.56
637.706	37940.84
638.06	38118.91
638.413	37955.08
638.767	38080.72
639.121	38066.03
639.474	37711.92
639.828	37860.16
640.181	38019.48
640.534	37942.42
640.888	37838.69
641.241	37735.65
641.594	37811.8
641.947	37903.1
642.301	37956.88
642.654	37896.32
643.007	37840.28
643.36	37808.64
643.713	37893.83
644.066	37877.56
644.419	37758.7
644.771	37505.82
645.124	37124.14
645.477	37010.02
645.83	36830.13
646.182	36697.48
646.535	36761.21
646.888	36707.2
647.24	36616.35
647.593	36737.48
647.945	36650.25
648.298	36422.91
648.65	36457.94
649.002	36457.71
649.355	36522.34
649.707	36457.49
650.059	36574.55
650.411	37010.02
650.763	37113.97
651.115	37454.75
651.467	37487.07
651.819	37371.36
652.171	37238.48
652.523	37183.34
652.875	37194.87
653.227	37071.71
653.578	37334.53
653.93	37351.25
654.282	37131.37
654.633	36891.6
654.985	37204.59
655.337	37122.33
655.688	37134.76
656.039	37100.86
656.391	36856.12
656.742	36994.2
657.094	37028.09
657.445	37094.99
657.796	37049.11
658.147	36982.9
658.498	36943.35
658.849	37054.53
659.2	37001.2
659.551	36920.75
659.902	37043.24
660.253	36980.64
660.604	36980.41
660.955	36761.89
661.306	36862.9
661.656	36955.78
662.007	36833.75
662.358	36991.03
662.708	36899.51
663.059	36796.24
663.409	36500.2
663.76	36824.94
664.11	36963.46
664.461	36865.39
664.811	36905.61
665.161	36897.7
665.511	36722.79
665.862	36841.88
666.212	37010.24
666.562	36950.81
666.912	36772.06
667.262	36877.59
667.612	36812.96
667.962	36910.81
668.312	36769.12
668.662	36978.15
669.011	36714.66
669.361	36661.32
669.711	36689.12
670.06	36635.56
670.41	36573.19
670.76	36727.54
671.109	36803.47
671.459	36595.11
671.808	36565.73
672.157	36705.39
672.507	36409.13
672.856	36481.44
673.205	36513.53
673.554	36723.92
673.904	36498.39
674.253	36654.54
674.602	36435.34
674.951	36057.95
675.3	35839.88
675.649	36355.57
675.998	36386.3
676.346	36463.82
676.695	36644.83
677.044	36287.55
677.393	36332.29
677.741	36378.17
678.09	36308.11
678.438	36192.86
678.787	36217.95
679.135	36250.49
679.484	36013.88
679.832	36189.25
680.181	35926.88
680.529	36015.92
680.877	35880.33
681.225	35979.76
681.573	36259.07
681.922	35865.19
682.27	35726.66
682.618	35926.88
682.966	35689.15
683.314	35946.31
683.661	35718.07
684.009	35611.41
684.357	35634.23
684.705	35649.37
685.053	35504.97
685.4	35561.92
685.748	35369.15
686.095	35340.23
686.443	35289.61
686.79	35074.93
687.138	35117.64
687.485	35142.72
687.832	34919.68
688.18	35042.38
688.527	34751.77
688.874	34775.05
689.221	34808.49
689.568	34513.58
689.915	34527.82
690.262	34526.92
690.609	34557.88
690.956	34278.34
691.303	34407.15
691.65	34206.93
691.997	34115.85
692.344	33885.13
692.69	34006.48
693.037	33943.88
693.383	33842.19
693.73	33860.04
694.077	33594.29
694.423	33667.28
694.769	33526.94
695.116	33386.16
695.462	33352.03
695.808	33256.22
696.155	33404.23
696.501	33166.95
696.847	32975.09
697.193	32813.97
697.539	33038.59
697.885	32804.02
698.231	32601.54
698.577	32684.25
698.923	32566.29
699.269	32326.07
699.614	32312.96
699.96	32136.47
700.306	32251.5
700.651	32023.71
700.997	32001.79
701.342	31951.62
701.688	31869.59
702.033	31847.67
702.379	31784.39
702.724	31765.18
703.069	31862.81
703.415	31247.46
703.76	31564.74
704.105	31457.39
704.45	31308.47
704.795	31214.01
705.14	31078.87
705.485	31125.2
705.83	30965.43
706.175	31000.23
706.52	30859.22
706.865	30703.97
707.209	30771.76
707.554	30555.5
707.899	30695.15
708.243	30536.06
708.588	30461.49
708.932	30261.49
709.277	30148.73
709.621	30215.17
709.966	30000.93
710.31	30167.26
710.654	29871.9
710.998	29982.4
711.342	29950.54
711.687	29901.95
712.031	29677.33
712.375	29578.35
712.719	29652.24
713.063	29620.15
713.407	29616.31
713.75	29349.65
714.094	29523.43
714.438	29423.1
714.782	29332.25
715.125	29262.87
715.469	29280.28
715.812	29089.55
716.156	28961.87
716.499	28892.94
716.843	29020.17
717.186	28780.18
717.53	28990.11
717.873	28987.18
718.216	28854.07
718.559	28659.05
718.902	28611.82
719.246	28558.94
719.589	28452.95
719.932	28501.54
720.275	28447.3
720.617	28326.18
720.96	28292.5
721.303	28432.39
721.646	28217.03
721.989	28150.81
722.331	28236.69
722.674	28108.33
723.016	28151.04
723.359	28026.3
723.701	28067.43
724.044	27942.68
724.386	27832.18
724.729	27969.35
725.071	27839.64
725.413	27822.01
725.755	27780.2
726.097	27716.47
726.439	27556.03
726.782	27616.36
727.124	27676.02
727.465	27543.6
727.807	27529.59
728.149	27398.29
728.491	27408.69
728.833	27535.91
729.175	27376.14
729.516	27263.61
729.858	27155.36
730.199	27242.36
730.541	27225.64
730.882	27156.94
731.224	27172.31
731.565	26999.43
731.906	27146.55
732.248	27074.46
732.589	26817.29
732.93	26758.31
733.271	26719.89
733.612	26810.28
733.953	26780.91
734.294	26761.47
734.635	26531.42
734.976	26723.51
735.317	26642.83
735.658	26563.06
735.999	26585.2
736.339	26542.49
736.68	26489.61
737.021	26463.4
737.361	26266.34
737.702	26439.45
738.042	26277.19
738.383	26234.03
738.723	26290.3
739.063	26148.15
739.404	26260.47
739.744	26056.41
740.084	26055.73
740.424	26071.55
740.764	26054.15
741.104	26097.53
741.444	25911.55
741.784	25918.33
742.124	25988.84
742.464	25795.85
742.804	25912.23
743.143	25690.99
743.483	25709.97
743.823	25653.03
744.162	25597.21
744.502	25680.82
744.841	25537.77
745.181	25686.92
745.52	25500.71
745.86	25590.43
746.199	25457.32
746.538	25362.19
746.877	25360.38
747.216	25426.82
747.556	25357.67
747.895	25370.55
748.234	25241.74
748.573	25073.38
748.911	25183.89
749.25	25168.29
749.589	25095.53
749.928	25089.43
750.267	25141.18
750.605	25028.86
750.944	25075.87
751.283	24875.42
751.621	25048.07
751.96	24813.05
752.298	24780.73
752.636	24796.78
752.975	24635.43
753.313	24630
753.651	24755.42
753.989	24625.48
754.327	24471.14
754.666	24404.02
755.004	24516.33
755.342	24479.05
755.679	24423.45
756.017	24267.75
756.355	24329.22
756.693	24229.11
757.031	24290.8
757.368	24091.94
757.706	24036.8
758.044	24025.27
758.381	24057.59
758.719	23944.6
759.056	23923.58
759.394	23951.15
759.731	23687.2
760.068	23614.66
760.405	23611.05
760.743	23468.45
761.08	23466.64
761.417	23362.46
761.754	23269.59
762.091	23316.14
762.428	23243.82
762.765	23103.26
763.102	23075.92
763.438	22932.65
763.775	22988.92
764.112	22903.72
764.449	22901.91
764.785	22788.47
765.122	22633.67
765.458	22561.81
765.795	22584.18
766.131	22610.39
766.467	22505.09
766.804	22341.25
767.14	22146
767.476	22208.37
767.812	22220.57
768.148	22144.42
768.485	22065.55
768.821	21856.52
769.157	21906.68
769.492	21825.78
769.828	21731.55
770.164	21611.1
770.5	21610.42
770.836	21493.81
771.171	21482.29
771.507	21421.72
771.842	21213.37
772.178	21211.33
772.513	21155.74
772.849	21090.21
773.184	20911.91
773.519	20943.77
773.855	20904.9
774.19	20776.09
774.525	20745.81
774.86	20734.51
775.195	20656.1
775.53	20549.66
775.865	20464.91
776.2	20289.33
776.535	20153.96
776.87	20215.2
777.205	20079.61
777.539	20085.71
777.874	20075.55
778.209	19817.7
778.543	19850.69
778.878	19779.96
779.212	19693.63
779.547	19544.94
779.881	19657.93
780.215	19548.55
780.55	19532.28
780.884	19354.43
781.218	19284.38
781.552	19246.64
781.886	19172.74
782.22	19092.29
782.554	19064.95
782.888	18869.02
783.222	18831.28
783.556	18675.36
783.889	18770.27
784.223	18673.55
784.557	18596.04
784.89	18536.83
785.224	18457.28
785.557	18312.88
785.891	18286.44
786.224	18205.99
786.558	18289.83
786.891	18113.56
787.224	18036.96
787.557	17902.27
787.891	18022.49
788.224	17979.78
788.557	17865.89
788.89	17665.44
789.223	17801.03
789.556	17552.45
789.888	17619.34
790.221	17643.29
790.554	17348.84
790.887	17314.71
791.219	17318.1
791.552	17302.06
791.884	17220.03
792.217	17154.49
792.549	17147.71
792.882	16907.72
793.214	16853.26
793.546	16923.31
793.879	16812.13
794.211	16770.77
794.543	16771.9
794.875	16706.14
795.207	16755.41
795.539	16605.35
795.871	16596.32
796.203	16446.49
796.535	16345.02
796.867	16382.99
797.198	16294.63
797.53	16345.25
797.862	16152.03
798.193	16206.95
798.525	16007.86
798.856	16133.05
799.188	15909.33
799.519	15949.33
799.85	15836.11
800.182	15842.21
800.513	15783.23
800.844	15786.39
801.175	15746.17
801.506	15692.38
801.837	15623.01
802.168	15606.51
802.499	15509.56
802.83	15411.71
803.161	15365.39
803.491	15322.68
803.822	15388.44
804.153	15319.74
804.483	15173.75
804.814	15230.93
805.145	15077.48
805.475	15156.13
805.805	15057.82
806.136	15016.47
806.466	14982.35
806.796	15006.3
807.126	14830.26
807.457	14773.09
807.787	14769.47
808.117	14701
808.447	14698.96
808.777	14730.83
809.107	14561.57
809.436	14599.76
809.766	14525.86
810.096	14501.91
810.426	14444.51
810.755	14511.85
811.085	14402.47
811.414	14308.24
811.744	14262.82
812.073	14225.3
812.403	14259.43
812.732	14136.49
813.061	14141.01
813.39	14078.64
813.719	14065.31
814.049	14080.45
814.378	14021.24
814.707	13924.97
815.036	13950.28
815.365	13887.46
815.693	13801.59
816.022	13786.45
816.351	13819.89
816.68	13688.37
817.008	13712.32
817.337	13647.47
817.665	13663.06
817.994	13635.71
818.322	13600.01
818.651	13533.34
818.979	13473.46
819.307	13482.95
819.636	13488.83
819.964	13459.67
820.292	13442.05
820.62	13376.29
820.948	13303.29
821.276	13390.3
821.604	13261.94
821.932	13380.58
822.259	13372.22
822.587	13311.66
822.915	13352.78
823.243	13309.17
823.57	13281.15
823.898	13361.6
824.225	13244.76
824.553	13283.41
824.88	13333.35
825.207	13330.86
825.535	13211.77
825.862	13247.48
826.189	13242.96
826.516	13220.36
826.843	13284.76
827.17	13320.02
827.497	13302.39
827.824	13339.23
828.151	13280.47
828.478	13236.86
828.805	13349.17
829.131	13248.38
829.458	13285.44
829.785	13250.64
830.111	13217.42
830.438	13353.91
830.764	13268.04
831.09	13229.17
831.417	13114.82
831.743	13254.71
832.069	13177.65
832.395	13146.91
832.722	13168.61
833.048	13126.35
833.374	13197.08
833.7	13108.27
834.026	13151.43
834.351	13140.59
834.677	13089.06
835.003	13051.55
835.329	13118.89
835.654	13082.96
835.98	13055.39
836.306	12950.54
836.631	12978.78
836.956	13035.96
837.282	12962.06
837.607	12923.19
837.932	12956.18
838.258	12957.31
838.583	12912.57
838.908	12818.34
839.233	12842.97
839.558	12804.1
839.883	12754.61
840.208	12751.44
840.533	12765.68
840.858	12766.36
841.182	12706.25
841.507	12752.57
841.832	12635.74
842.156	12630.54
842.481	12560.04
842.805	12680.49
843.13	12611.34
843.454	12506.03
843.778	12454.95
844.103	12448.85
844.427	12442.75
844.751	12516.2
845.075	12374.96
845.399	12343.32
845.723	12225.81
846.047	12246.82
846.371	12220.61
846.695	12139.26
847.019	12060.62
847.343	12086.15
847.666	11948.53
847.99	11852.26
848.313	11868.53
848.637	11833.73
848.96	11874.86
849.284	11757.57
849.607	11673.28
849.931	11623.56
850.254	11550.57
850.577	11613.85
850.9	11405.72
851.223	11444.36
851.546	11340.18
851.869	11371.14
852.192	11367.07
852.515	11269.68
852.838	11230.58
853.161	11161.43
853.483	11142
853.806	11036.24
854.129	11141.32
854.451	11013.64
854.774	10965.5
855.096	10939.29
855.419	10890.25
855.741	10920.31
856.063	10877.37
856.385	10845.51
856.708	10827.2
857.03	10716.92
857.352	10760.76
857.674	10693.65
857.996	10688.9
858.318	10557.83
858.64	10633.53
858.961	10530.03
859.283	10567.77
859.605	10487.78
859.926	10465.18
860.248	10479.64
860.57	10431.51
860.891	10468.34
861.212	10392.18
861.534	10368.91
861.855	10357.38
862.176	10327.33
862.498	10276.71
862.819	10332.3
863.14	10295.24
863.461	10231.06
863.782	10243.26
864.103	10152.87
864.424	10121.91
864.745	10161.23
865.065	10055.24
865.386	10078.75
865.707	10079.65
866.027	10116.49
866.348	10057.5
866.668	10045.53
866.989	10033.78
867.309	9926.43
867.63	10029.71
867.95	9927.79
868.27	9973.21
868.59	9906.32
868.91	9896.38
869.23	9967.34
869.55	9889.37
869.87	9884.63
870.19	9845.98
870.51	9870.84
870.83	9864.97
871.15	9811.18
871.469	9763.05
871.789	9833.1
872.109	9792.2
872.428	9680.34
872.748	9788.36
873.067	9755.36
873.386	9740.22
873.706	9667.68
874.025	9608.25
874.344	9613.22
874.663	9695.48
874.982	9598.53
875.301	9610.74
875.62	9599.21
875.939	9546.1
876.258	9535.48
876.577	9497.29
876.896	9518.31
877.214	9470.63
877.533	9560.34
877.852	9443.06
878.17	9450.97
878.489	9395.6
878.807	9470.63
879.125	9380.01
879.444	9388.59
879.762	9342.49
880.08	9364.87
880.398	9273.12
880.716	9275.6
881.034	9266.34
881.352	9282.38
881.67	9222.5
881.988	9257.3
882.306	9181.82
882.624	9208.26
882.941	9134.14
883.259	9167.81
883.577	9109.51
883.894	9107.7
884.212	9097.76
884.529	9078.32
884.846	8992.45
885.164	9021.37
885.481	8971.66
885.798	9062.28
886.115	8982.73
886.432	8881.72
886.75	8934.14
887.067	8930.53
887.383	8928.72
887.7	8877.87
888.017	8821.83
888.334	8872.22
888.651	8810.31
888.967	8821.83
889.284	8742.51
889.6	8749.29
889.917	8691.44
890.233	8700.25
890.55	8682.4
890.866	8635.39
891.182	8702.96
891.498	8623.42
891.815	8584.1
892.131	8530.31
892.447	8516.75
892.763	8459.13
893.079	8453.7
893.395	8426.36
893.71	8401.28
894.026	8397.66
894.342	8372.58
894.657	8353.82
894.973	8367.38
895.289	8278.57
895.604	8262.97
895.92	8220.26
896.235	8187.72
896.55	8170.1
896.865	8179.81
897.181	8109.31
897.496	8069.31
897.811	8048.07
898.126	8048.97
898.441	7990.89
898.756	8017.56
899.071	7944.57
899.386	7953.15
899.7	7846.26
900.015	7914.06
900.33	7790.44
900.644	7845.58
900.959	7782.76
901.273	7778.69
901.588	7718.58
901.902	7722.2
902.216	7649.43
902.531	7621.86
902.845	7694.4
903.159	7576.21
903.473	7552.03
903.787	7516.33
904.101	7505.48
904.415	7492.15
904.729	7406.5
905.042	7453.96
905.356	7396.56
905.67	7364.02
905.984	7343.9
906.297	7353.62
906.611	7316.79
906.924	7278.14
907.237	7197.47
907.551	7265.94
907.864	7171.48
908.177	7217.35
908.491	7142.33
908.804	7167.64
909.117	7043.8
909.43	6994.99
909.743	6997.92
910.056	7008.54
910.368	6943.69
910.681	6888.32
910.994	6898.04
911.307	6898.49
911.619	6811.04
911.932	6835.89
912.244	6776.46
912.557	6799.28
912.869	6727.65
913.181	6725.61
913.494	6703.24
913.806	6609.23
914.118	6619.18
914.43	6587.99
914.742	6585.05
915.054	6571.04
915.366	6541.89
915.678	6487.2
915.99	6471.16
916.302	6425.51
916.613	6380.09
916.925	6373.98
917.236	6331.27
917.548	6324.49
917.859	6347.54
918.171	6265.06
918.482	6256.93
918.794	6171.73
919.105	6248.79
919.416	6209.92
919.727	6178.06
920.038	6170.83
920.349	6058.29
920.66	6143.93
920.971	6025.29
921.282	6016.03
921.593	5994.11
921.903	5977.39
922.214	5975.8
922.525	5912.75
922.835	5870.5
923.146	5843.6
923.456	5859.2
923.767	5803.15
924.077	5810.61
924.387	5790.05
924.697	5727.9
925.008	5743.72
925.318	5733.32
925.628	5691.97
925.938	5679.77
926.248	5612.42
926.558	5613.33
926.867	5586.89
927.177	5595.47
927.487	5529.49
927.796	5468.7
928.106	5487
928.416	5479.77
928.725	5467.34
929.034	5386.89
929.344	5439.77
929.653	5398.42
929.962	5371.75
930.271	5304.86
930.581	5306.44
930.89	5278.87
931.199	5273.45
931.508	5266.9
931.817	5208.82
932.125	5247.01
932.434	5230.74
932.743	5145.32
933.051	5150.74
933.36	5057.41
933.669	5054.92
933.977	5025.55
934.286	5027.81
934.594	5015.6
934.902	5007.24
935.21	4995.49
935.519	4957.98
935.827	4971.31
936.135	4900.35
936.443	4883.63
936.751	4865.1
937.059	4861.93
937.367	4814.48
937.674	4872.33
937.982	4775.61
938.29	4769.28
938.597	4782.61
938.905	4743.07
939.213	4719.34
939.52	4647.25
939.827	4665.1
940.135	4668.04
940.442	4666.91
940.749	4631.21
941.056	4661.26
941.363	4540.36
941.67	4581.26
941.977	4529.29
942.284	4518.44
942.591	4496.75
942.898	4475.05
943.205	4434.37
943.511	4449.52
943.818	4442.74
944.125	4367.71
944.431	4325.23
944.738	4407.03
945.044	4284.55
945.35	4292.91
945.657	4281.38
945.963	4279.8
946.269	4241.39
946.575	4251.33
946.881	4236.41
947.187	4194.38
947.493	4171.56
947.799	4200.93
948.105	4167.94
948.41	4103.08
948.716	4146.7
949.022	4109.86
949.327	4087.49
949.633	4031.45
949.938	4098.79
950.244	4074.61
950.549	4000.49
950.854	4007.27
951.16	3993.48
951.465	3950.09
951.77	3933.82
952.075	3929.53
952.38	3916.2
952.685	3871.68
952.99	3852.47
953.294	3859.93
953.599	3857.44
953.904	3817.22
954.209	3794.84
954.513	3820.61
954.818	3766.82
955.122	3760.95
955.426	3745.81
955.731	3714.85
956.035	3697.67
956.339	3664
956.643	3674.62
956.948	3706.26
957.252	3621.29
957.556	3648.41
957.86	3578.8
958.163	3637.11
958.467	3561.63
958.771	3636.2
959.075	3582.65
959.378	3561.18
959.682	3535.42
959.985	3499.71
960.289	3490.67
960.592	3494.96
960.896	3456.55
961.199	3445.47
961.502	3454.51
961.805	3427.62
962.108	3431.01
962.411	3424.01
962.714	3348.98
963.017	3351.24
963.32	3356.21
963.623	3333.61
963.926	3346.49
964.228	3313.73
964.531	3325.93
964.833	3308.75
965.136	3252.71
965.438	3234.18
965.741	3238.02
966.043	3222.43
966.345	3233.73
966.648	3200.06
966.95	3207.97
967.252	3148.08
967.554	3222.2
967.856	3127.06
968.158	3108.31
968.46	3105.82
968.761	3080.51
969.063	3101.98
969.365	3081.42
969.666	3062.66
969.968	3057.46
970.269	3045.71
970.571	3033.73
970.872	3025.82
971.174	3000.97
971.475	3016.11
971.776	3017.24
972.077	2983.34
972.378	2948.76
972.679	2937.24
972.98	2924.13
973.281	2921.87
973.582	2892.49
973.883	2887.3
974.183	2875.77
974.484	2836.9
974.785	2845.94
975.085	2848.43
975.386	2836.9
975.686	2819.73
975.986	2808.43
976.287	2801.42
976.587	2743.57
976.887	2756.45
977.187	2744.7
977.487	2729.79
977.787	2704.93
978.087	2662.9
978.387	2688.66
978.687	2704.02
978.987	2674.65
979.286	2668.32
979.586	2665.16
979.885	2636.91
980.185	2625.38
980.484	2593.52
980.784	2604.14
981.083	2594.65
981.382	2606.63
981.682	2552.39
981.981	2515.56
982.28	2577.93
982.579	2548.32
982.878	2516.23
983.177	2526.18
983.475	2507.42
983.774	2513.07
984.073	2472.39
984.372	2478.04
984.67	2456.8
984.969	2493.41
985.267	2440.08
985.566	2416.57
985.864	2410.7
986.162	2409.34
986.461	2368.44
986.759	2389.46
987.057	2381.55
987.355	2360.31
987.653	2378.61
987.951	2313.07
988.249	2344.03
988.547	2337.03
988.844	2304.71
989.142	2310.81
989.44	2285.73
989.737	2289.35
990.035	2291.15
990.332	2279.63
990.63	2275.56
990.927	2236.24
991.224	2240.53
991.521	2242.34
991.819	2218.16
992.116	2200.99
992.413	2211.38
992.71	2196.92
993.006	2171.84
993.303	2168.45
993.6	2192.17
993.897	2138.62
994.193	2142.68
994.49	2110.37
994.787	2110.14
995.083	2109.24
995.379	2081.89
995.676	2093.65
995.972	2084.61
996.268	2021.11
996.565	2046.64
996.861	2036.25
997.157	2055.68
997.453	2010.94
997.749	2004.16
998.044	2008.22
998.34	2000.31
998.636	1972.97
998.932	1970.26
999.227	1965.97
999.523	1951.28
999.818	1946.53
1000.114	1958.51
1000.409	1930.94
1000.704	1930.71
1001	1924.38
1001.295	1893.65
1001.59	1914.89
1001.885	1897.27
1002.18	1873.09
1002.475	1845.97
1002.77	1858.17
1003.065	1821.34
1003.359	1837.16
1003.654	1802.58
1003.949	1797.38
1004.243	1800.09
1004.538	1811.39
1004.832	1783.6
1005.127	1793.77
1005.421	1756.71
1005.715	1741.79
1006.009	1761.68
1006.304	1732.07
1006.598	1713.99
1006.892	1721.45
1007.186	1698.4
1007.48	1718.51
1007.773	1683.71
1008.067	1682.58
1008.361	1663.15
1008.655	1671.06
1008.948	1660.21
1009.242	1650.72
1009.535	1617.73
1009.829	1618.63
1010.122	1595.81
1010.415	1584.05
1010.708	1588.57
1011.001	1580.21
1011.295	1573.43
1011.588	1552.87
1011.881	1573.21
1012.173	1563.49
1012.466	1579.53
1012.759	1524.62
1013.052	1529.59
1013.344	1541.57
1013.637	1523.27
1013.93	1497.73
1014.222	1486.66
1014.514	1475.13
1014.807	1521.91
1015.099	1448.01
1015.391	1465.41
1015.683	1447.79
1015.976	1435.36
1016.268	1434.45
1016.56	1425.19
1016.851	1427.9
1017.143	1418.41
1017.435	1444.17
1017.727	1381.35
1018.018	1398.3
1018.31	1392.65
1018.602	1361.24
1018.893	1326.43
1019.185	1328.02
1019.476	1337.73
1019.767	1327.79
1020.058	1319.65
1020.35	1340.22
1020.641	1322.14
1020.932	1293.67
1021.223	1290.95
1021.514	1290.05
1021.804	1264.29
1022.095	1269.94
1022.386	1287.57
1022.677	1249.83
1022.967	1241.46
1023.258	1239.43
1023.548	1239.88
1023.839	1217.96
1024.129	1215.25
1024.419	1206.44
1024.709	1200.79
1025	1205.99
1025.29	1191.3
1025.58	1170.51
1025.87	1170.51
1026.16	1160.56
1026.449	1166.21
1026.739	1157.17
1027.029	1122.37
1027.319	1100.68
1027.608	1121.69
1027.898	1110.85
1028.187	1135.25
1028.477	1097.51
1028.766	1106.1
1029.055	1076.95
1029.344	1087.34
1029.634	1079.43
1029.923	1083.73
1030.212	1060.23
1030.501	1059.1
1030.79	1064.75
1031.078	1052.54
1031.367	1043.28
1031.656	1038.31
1031.945	1031.3
1032.233	1017.97
1032.522	1029.49
1032.81	991.75
1033.099	978.19
1033.387	999.44
1033.675	1000.57
1033.963	980.91
1034.251	979.55
1034.54	967.35
1034.828	964.64
1035.116	969.61
1035.403	949.49
1035.691	956.05
1035.979	956.27
1036.267	941.36
1036.554	925.54
1036.842	928.7
1037.129	907.91
1037.417	915.6
1037.704	920.57
1037.992	896.84
1038.279	911.98
1038.566	918.31
1038.853	918.31
1039.14	918.31
