Data from hue_150_FLMS001491_00014.txt Node
Date: Tue Feb 07 16:53:41 GMT 2017
User: dcchb
Spectrometer: FLMS00149
Trigger mode: 0
Integration Time (sec): 2.000000E-2
Scans to average: 10
Electric dark correction enabled: true
Nonlinearity correction enabled: false
Boxcar width: 0
XAxis mode: Wavelengths
Number of Pixels in Spectrum: 2048
>>>>>Begin Spectral Data<<<<<
341.393	7.97
341.776	7.97
342.16	7.97
342.543	-71.35
342.927	-63.9
343.31	-63.9
343.693	-63.44
344.077	-52.82
344.46	-88.53
344.843	-37.46
345.226	-37.68
345.61	-36.1
345.993	-26.61
346.376	3.67
346.759	-8.53
347.142	24.46
347.525	45.03
347.908	46.61
348.291	77.57
348.674	102.65
349.057	115.08
349.44	101.07
349.823	145.59
350.206	158.92
350.588	181.97
350.971	196.89
351.354	241.63
351.737	231.01
352.119	250.67
352.502	270.11
352.884	288.64
353.267	289.09
353.65	286.83
354.032	295.64
354.414	293.38
354.797	311.23
355.179	323.66
355.562	311.91
355.944	317.56
356.326	326.83
356.709	347.39
357.091	332.03
357.473	327.05
357.855	321.4
358.238	337.22
358.62	342.65
359.002	335.87
359.384	332.48
359.766	338.58
360.148	356.88
360.53	342.65
360.912	320.95
361.294	344.23
361.676	334.96
362.057	350.33
362.439	323.89
362.821	329.31
363.203	313.27
363.584	321.4
363.966	339.93
364.348	319.14
364.729	310.56
365.111	340.61
365.493	318.69
365.874	337
366.256	345.58
366.637	307.62
367.019	320.27
367.4	301.52
367.781	304
368.163	305.59
368.544	316.66
368.925	312.59
369.306	328.18
369.688	295.64
370.069	323.66
370.45	325.02
370.831	323.66
371.212	325.25
371.593	301.97
371.974	329.31
372.355	305.81
372.736	315.98
373.117	304.68
373.498	349.2
373.879	320.5
374.26	308.07
374.641	318.24
375.021	333.83
375.402	305.59
375.783	332.93
376.163	343.1
376.544	334.74
376.925	320.27
377.305	346.71
377.686	332.7
378.066	351.01
378.447	307.17
378.827	323.21
379.208	339.03
379.588	325.7
379.968	329.99
380.349	330.67
380.729	352.59
381.109	329.09
381.489	342.87
381.87	350.78
382.25	351.23
382.63	343.78
383.01	353.72
383.39	338.35
383.77	362.31
384.15	345.13
384.53	353.72
384.91	350.1
385.29	361.63
385.67	372.48
386.049	346.94
386.429	369.31
386.809	369.99
387.189	353.95
387.568	363.66
387.948	367.96
388.328	357.11
388.707	365.02
389.087	357.34
389.466	381.06
389.846	377.45
390.225	377.9
390.605	360.72
390.984	363.44
391.363	371.8
391.743	362.31
392.122	369.76
392.501	378.35
392.881	363.89
393.26	400.5
393.639	397.11
394.018	387.62
394.397	398.24
394.776	381.52
395.155	390.33
395.534	389.42
395.913	402.98
396.292	402.08
396.671	393.72
397.05	395.07
397.429	386.26
397.808	410.89
398.186	402.53
398.565	419.25
398.944	411.35
399.323	401.85
399.701	389.42
400.08	423.77
400.458	411.35
400.837	426.03
401.215	413.83
401.594	424
401.972	432.36
402.351	423.77
402.729	442.98
403.107	462.19
403.486	432.14
403.864	455.41
404.242	428.75
404.62	444.79
404.999	438.24
405.377	454.51
405.755	454.28
406.133	437.11
406.511	453.6
406.889	491.34
407.267	484.56
407.645	467.16
408.023	455.64
408.401	471.23
408.779	459.71
409.156	466.48
409.534	469.65
409.912	483.21
410.29	497.22
410.667	487.28
411.045	506.26
411.422	490.44
411.8	504.68
412.178	496.99
412.555	502.19
412.933	506.26
413.31	504
413.687	511.68
414.065	527.5
414.442	530.89
414.819	520.27
415.197	546.03
415.574	511.68
415.951	541.96
416.328	535.64
416.705	521.85
417.082	559.82
417.46	535.64
417.837	539.93
418.214	563.21
418.591	564.56
418.967	560.95
419.344	563.21
419.721	601.62
420.098	582.87
420.475	582.41
420.852	587.16
421.228	600.49
421.605	586.48
421.982	617.89
422.358	606.14
422.735	609.98
423.111	619.7
423.488	604.79
423.864	614.5
424.241	632.36
424.617	627.38
424.994	628.51
425.37	625.8
425.746	640.94
426.123	628.74
426.499	645.69
426.875	661.73
427.251	664.22
427.627	652.24
428.003	664.9
428.379	674.62
428.756	689.53
429.132	692.92
429.507	669.42
429.883	713.71
430.259	701.51
430.635	721.62
431.011	706.03
431.387	731.34
431.763	742.18
432.138	751.22
432.514	754.39
432.89	768.4
433.265	769.3
433.641	759.13
434.016	779.25
434.392	785.8
434.767	811.33
435.143	806.81
435.518	799.81
435.894	813.82
436.269	810.43
436.644	828.51
437.02	849.07
437.395	829.87
437.77	855.85
438.145	851.33
438.52	867.83
438.895	862.63
439.271	894.95
439.646	891.78
440.021	890.65
440.395	884.1
440.77	907.15
441.145	931.56
441.52	941.05
441.895	909.19
442.27	941.95
442.645	939.92
443.019	950.31
443.394	946.92
443.769	977.66
444.143	955.74
444.518	969.97
444.892	977.88
445.267	988.51
445.641	1008.39
446.016	994.61
446.39	987.6
446.764	1001.16
447.139	1015.62
447.513	1017.2
447.887	1018.79
448.262	1017.88
448.636	1047.71
449.01	1056.75
449.384	1057.88
449.758	1069.41
450.132	1063.76
450.506	1073.47
450.88	1087.26
451.254	1091.55
451.628	1106.47
452.002	1117.54
452.376	1103.3
452.75	1142.17
453.123	1111.21
453.497	1159.12
453.871	1193.7
454.244	1167.03
454.618	1198.22
454.992	1215.39
455.365	1227.82
455.739	1245.45
456.112	1243.87
456.486	1258.78
456.859	1281.15
457.232	1289.06
457.606	1315.95
457.979	1312.56
458.352	1325.45
458.725	1359.79
459.099	1338.55
459.472	1400.47
459.845	1410.19
460.218	1422.39
460.591	1432.34
460.964	1454.48
461.337	1460.36
461.71	1505.33
462.083	1505.1
462.456	1546.91
462.829	1536.06
463.201	1562.95
463.574	1579.45
463.947	1582.16
464.32	1667.81
464.692	1665.32
465.065	1668.71
465.438	1676.85
465.81	1717.3
466.183	1757.52
466.555	1760.69
466.928	1799.78
467.3	1796.39
467.672	1837.75
468.045	1869.16
468.417	1885.88
468.789	1909.38
469.161	1911.87
469.534	2001.36
469.906	2048.59
470.278	2051.98
470.65	2080.23
471.022	2159.55
471.394	2184.41
471.766	2198.87
472.138	2236.38
472.51	2293.78
472.882	2329.49
473.253	2390.73
473.625	2385.53
473.997	2476.38
474.369	2542.14
474.74	2571.97
475.112	2630.27
475.484	2673.43
475.855	2774.45
476.227	2842.24
476.598	2886.31
476.97	2972.41
477.341	3021.22
477.713	3076.36
478.084	3149.35
478.455	3229.8
478.827	3278.39
479.198	3451.94
479.569	3481.09
479.94	3559.96
480.311	3665.5
480.682	3747.75
481.053	3892.84
481.424	3976.22
481.795	4061.42
482.166	4203.79
482.537	4252.15
482.908	4412.82
483.279	4440.39
483.65	4626.15
484.021	4702.31
484.391	4836.54
484.762	4901.62
485.133	5020.49
485.503	5150.2
485.874	5337.09
486.244	5429.29
486.615	5583.41
486.985	5728.27
487.356	5847.36
487.726	5956.51
488.097	6127.35
488.467	6185.88
488.837	6341.58
489.207	6544.29
489.578	6664.06
489.948	6783.61
490.318	6947.22
490.688	7001.68
491.058	7229.02
491.428	7422.46
491.798	7510.14
492.168	7664.26
492.538	7840.08
492.908	8003.69
493.278	8170.69
493.648	8205.49
494.017	8311.93
494.387	8577.68
494.757	8651.81
495.126	8776.1
495.496	8856.32
495.866	8937.9
496.235	9160.49
496.605	9323.65
496.974	9391.45
497.344	9447.27
497.713	9612.91
498.082	9702.85
498.452	9923.19
498.821	10059
499.19	10061.94
499.559	10252.22
499.928	10259.22
500.298	10491.08
500.667	10500.57
501.036	10627.57
501.405	10828.47
501.774	10816.72
502.143	10968.81
502.512	11014.68
502.88	11109.59
503.249	11261.23
503.618	11267.78
503.987	11310.04
504.356	11430.49
504.724	11489.92
505.093	11646.08
505.462	11692.18
505.83	11776.47
506.199	11898.05
506.567	11998.84
506.936	11971.27
507.304	12278.83
507.672	12241.99
508.041	12287.19
508.409	12409.45
508.777	12512.95
509.145	12479.73
509.514	12536
509.882	12593.85
510.25	12716.56
510.618	12702.55
510.986	12791.13
511.354	12820.96
511.722	12957
512.09	13037.23
512.458	13100.5
512.826	13122.2
513.193	13253.72
513.561	13252.14
513.929	13267.96
514.297	13401.06
514.664	13450.78
515.032	13525.58
515.4	13619.36
515.767	13596.54
516.135	13558.57
516.502	13477.22
516.869	13786.13
517.237	13795.4
517.604	13650.32
517.972	13869.52
518.339	13857.77
518.706	13917.66
519.073	13948.39
519.44	13933.25
519.808	14084.21
520.175	14047.37
520.542	14163.53
520.909	14236.29
521.276	14232.9
521.643	14281.04
522.009	14314.93
522.376	14404.65
522.743	14399.45
523.11	14487.81
523.477	14538.88
523.843	14484.87
524.21	14666.34
524.577	14625.89
524.943	14775.49
525.31	14751.31
525.676	14745.43
526.043	14848.25
526.409	14820.91
526.776	14925.09
527.142	14897.07
527.508	15033.33
527.874	15091.86
528.241	15012.54
528.607	14966.22
528.973	15079.66
529.339	15020
529.705	15144.97
530.071	15152.2
530.437	15172.54
530.803	15206.89
531.169	15269.94
531.535	15210.5
531.901	15149.49
532.267	15250.28
532.632	15238.3
532.998	15144.07
533.364	15257.06
533.73	15176.38
534.095	15122.37
534.461	15220.9
534.826	15213.44
535.192	15220.45
535.557	15272.88
535.923	15206.44
536.288	15096.38
536.653	15127.12
537.019	15106.1
537.384	15039.44
537.749	15068.81
538.114	15041.24
538.479	14972.09
538.845	15016.61
539.21	14928.25
539.575	15002.15
539.94	14985.88
540.305	15162.37
540.67	14877.63
541.034	14900.46
541.399	14846.67
541.764	14882.38
542.129	14804.19
542.494	14772.55
542.858	14801.93
543.223	14711.53
543.587	14790.18
543.952	14770.52
544.316	14581.14
544.681	14582.95
545.045	14725.09
545.41	14601.71
545.774	14624.3
546.138	14530.97
546.503	14537.08
546.867	14511.09
547.231	14510.41
547.595	14427.47
547.959	14458.43
548.324	14356.29
548.688	14259.34
549.052	14403.29
549.416	14337.53
549.779	14368.72
550.143	14221.6
550.507	14346.35
550.871	14246.01
551.235	14238.78
551.599	14262.28
551.962	14163.53
552.326	14233.13
552.689	14244.88
553.053	14052.34
553.417	14098.89
553.78	14280.58
554.143	14145.45
554.507	14185.9
554.87	14126.92
555.234	14192.9
555.597	14091.21
555.96	14038.78
556.323	14023.64
556.686	13955.85
557.05	14028.61
557.413	14028.84
557.776	14015.06
558.139	14002.4
558.502	14099.35
558.865	14008.05
559.228	14065.68
559.59	14076.97
559.953	14046.01
560.316	14061.83
560.679	14088.5
561.041	14134.83
561.404	14161.49
561.767	14175.05
562.129	14159.68
562.492	14168.95
562.854	14144.77
563.217	14142.06
563.579	14137.76
563.941	14177.31
564.304	14282.39
564.666	14237.65
565.028	14190.64
565.39	14342.96
565.753	14288.04
566.115	14355.84
566.477	14394.25
566.839	14367.81
567.201	14451.65
567.563	14306.8
567.925	14406.91
568.287	14474.48
568.648	14436.06
569.01	14529.62
569.372	14616.4
569.734	14419.79
570.095	14517.64
570.457	14559.9
570.819	14578.2
571.18	14538.88
571.542	14554.7
571.903	14630.63
572.265	14662.04
572.626	14597.19
572.987	14686.45
573.349	14688.03
573.71	14629.5
574.071	14719.9
574.432	14704.08
574.794	14863.62
575.155	14698.88
575.516	14664.76
575.877	14745.66
576.238	14690.97
576.599	14685.77
576.96	14757.41
577.32	14763.96
577.681	14828.59
578.042	14874.47
578.403	14805.09
578.763	14845.54
579.124	14789.27
579.485	14845.54
579.845	14891.87
580.206	14801.25
580.566	14820.91
580.927	14830.18
581.287	14907.01
581.648	14776.39
582.008	14826.33
582.368	14820.23
582.728	14908.59
583.089	14709.95
583.449	14792.44
583.809	14771.65
584.169	14865.88
584.529	14738.88
584.889	14878.76
585.249	14829.72
585.609	14752.66
585.969	14722.83
586.329	14732.78
586.688	14814.36
587.048	14808.03
587.408	14629.95
587.768	14840.57
588.127	14670.63
588.487	14701.36
588.846	14789.05
589.206	14655.49
589.565	14603.74
589.925	14714.02
590.284	14744.08
590.643	14752.89
591.003	14720.8
591.362	14732.55
591.721	14616.62
592.08	14654.13
592.44	14676.05
592.799	14580.46
593.158	14690.29
593.517	14620.01
593.876	14689.39
594.235	14647.58
594.593	14648.48
594.952	14636.28
595.311	14573.01
595.67	14702.49
596.029	14607.58
596.387	14660.46
596.746	14650.97
597.104	14579.79
597.463	14523.52
597.822	14600.8
598.18	14547.47
598.538	14494.14
598.897	14604.42
599.255	14489.84
599.613	14734.81
599.972	14611.42
600.33	14733.68
600.688	14504.99
601.046	14615.72
601.404	14641.48
601.762	14695.26
602.12	14644.42
602.478	14678.54
602.836	14646.68
603.194	14570.07
603.552	14657.07
603.91	14573.46
604.268	14628.15
604.625	14511.31
604.983	14660.69
605.341	14504.99
605.698	14629.28
606.056	14669.28
606.413	14537.53
606.771	14704.3
607.128	14634.93
607.485	14552.67
607.843	14598.32
608.2	14619.11
608.557	14636.73
608.914	14639.45
609.272	14702.49
609.629	14764.87
609.986	14791.31
610.343	14710.63
610.7	14845.54
611.057	14709.95
611.414	14772.32
611.771	14768.93
612.127	14909.27
612.484	14815.71
612.841	14807.35
613.198	14751.98
613.554	14807.8
613.911	14938.42
614.267	14778.88
614.624	14836.73
614.98	14903.62
615.337	14899.78
615.693	14805.77
616.05	14957.4
616.406	14975.93
616.762	14848.03
617.118	14917.86
617.475	14961.7
617.831	15012.09
618.187	14998.98
618.543	14994.24
618.899	15102.48
619.255	15028.14
619.611	15076.95
619.967	15126.44
620.323	15133.22
620.678	15080.79
621.034	15084.86
621.39	15058.42
621.746	14988.59
622.101	15214.35
622.457	15060
622.812	14999.89
623.168	15040.34
623.523	15086.89
623.879	15148.58
624.234	15022.71
624.589	15110.39
624.945	15020
625.3	15113.11
625.655	15182.48
626.01	15105.42
626.365	15161.24
626.72	15152.2
627.075	14940
627.43	15051.86
627.785	15054.12
628.14	15076.04
628.495	15015.93
628.85	15065.42
629.205	14981.13
629.559	15045.08
629.914	14981.13
630.269	14974.8
630.623	14896.84
630.978	14957.86
631.332	15021.81
631.687	14960.12
632.041	14867.46
632.396	14898.65
632.75	14824.75
633.104	14851.64
633.459	14832.89
633.813	14844.41
634.167	14780.91
634.521	14729.16
634.875	14753.11
635.229	14795.6
635.583	14708.37
635.937	14647.81
636.291	14681.03
636.645	14614.81
636.999	14624.76
637.352	14685.09
637.706	14582.05
638.06	14682.61
638.413	14530.3
638.767	14565.32
639.121	14559.67
639.474	14514.93
639.828	14571.88
640.181	14549.5
640.534	14608.71
640.888	14559.67
641.241	14508.38
641.594	14390.86
641.947	14601.48
642.301	14431.99
642.654	14444.87
643.007	14488.94
643.36	14403.75
643.713	14345.44
644.066	14401.71
644.419	14361.26
644.771	14293.47
645.124	14183.64
645.477	14180.25
645.83	14049.4
646.182	14010.76
646.535	13871.78
646.888	13996.98
647.24	13814.83
647.593	13934.38
647.945	13999.46
648.298	13888.73
648.65	13906.13
649.002	13796.76
649.355	13863.65
649.707	13874.72
650.059	14011.44
650.411	14132.79
650.763	14137.09
651.115	14283.3
651.467	14271.77
651.819	14165.11
652.171	14205.33
652.523	14155.16
652.875	14154.03
653.227	14085.34
653.578	14215.73
653.93	14223.64
654.282	14152.68
654.633	14128.05
654.985	14043.76
655.337	14134.6
655.688	14118.33
656.039	14130.98
656.391	13998.11
656.742	14091.21
657.094	14065
657.445	14215.05
657.796	14109.06
658.147	14089.4
658.498	14095.28
658.849	14162.62
659.2	14127.37
659.551	14093.25
659.902	14124.2
660.253	14180.47
660.604	14143.64
660.955	14104.32
661.306	14236.07
661.656	14147.48
662.007	14149.74
662.358	14108.16
662.708	14149.29
663.059	14213.47
663.409	14052.79
663.76	14117.65
664.11	14188.16
664.461	14259.57
664.811	14157.88
665.161	14162.4
665.511	14148.61
665.862	14125.33
666.212	14220.7
666.562	14185.22
666.912	14142.51
667.262	14100.25
667.612	14137.09
667.962	14152.23
668.312	14163.53
668.662	14123.53
669.011	14203.07
669.361	14239.91
669.711	14116.07
670.06	14143.41
670.41	14108.16
670.76	14175.05
671.109	14111.55
671.459	14112.23
671.808	14065.22
672.157	14174.37
672.507	14039.91
672.856	14043.98
673.205	14029.74
673.554	14069.29
673.904	13973.93
674.253	14057.54
674.602	13996.07
674.951	13831.78
675.3	13749.07
675.649	13938.9
675.998	14029.52
676.346	13968.95
676.695	13957.43
677.044	13810.77
677.393	13878.79
677.741	13883.99
678.09	13910.88
678.438	13892.8
678.787	13901.84
679.135	13902.52
679.484	13732.58
679.832	13756.98
680.181	13725.35
680.529	13793.14
680.877	13676.08
681.225	13743.88
681.573	13744.78
681.922	13599.92
682.27	13582.07
682.618	13637.89
682.966	13603.99
683.314	13583.2
683.661	13577.33
684.009	13452.13
684.357	13457.78
684.705	13480.38
685.053	13453.04
685.4	13355.86
685.748	13322.87
686.095	13313.15
686.443	13325.58
686.79	13294.4
687.138	13304.34
687.485	13327.84
687.832	13197.9
688.18	13287.84
688.527	13166.26
688.874	13204.23
689.221	13141.86
689.568	13036.32
689.915	13023.89
690.262	13063.44
690.609	13047.4
690.956	12884.01
691.303	12877.01
691.65	12787.97
691.997	12805.37
692.344	12746.61
692.69	12677.69
693.037	12616
693.383	12572.16
693.73	12560.4
694.077	12598.6
694.423	12475.66
694.769	12455.1
695.116	12434.53
695.462	12394.53
695.808	12370.58
696.155	12380.97
696.501	12224.82
696.847	12202.67
697.193	12159.96
697.539	12170.13
697.885	12017.59
698.231	12092.62
698.577	12143.24
698.923	12021.66
699.269	12015.56
699.614	11956.35
699.96	11807.43
700.306	11942.34
700.651	11793.19
700.997	11804.04
701.342	11717.49
701.688	11698.05
702.033	11687.66
702.379	11635.91
702.724	11584.84
703.069	11689.47
703.415	11482.24
703.76	11469.81
704.105	11462.13
704.45	11395.69
704.795	11354.33
705.14	11341.23
705.485	11289.03
705.83	11194.34
706.175	11234.34
706.52	11171.29
706.865	11106.43
707.209	11096.49
707.554	11096.71
707.899	11043.38
708.243	10995.02
708.588	11016.94
708.932	10833.9
709.277	10855.59
709.621	10864.63
709.966	10751.19
710.31	10877.74
710.654	10800.68
710.998	10735.14
711.342	10779.66
711.687	10671.41
712.031	10670.74
712.375	10687.01
712.719	10657.63
713.063	10608.59
713.407	10652.88
713.75	10548.25
714.094	10558.65
714.438	10585.31
714.782	10524.07
715.125	10547.58
715.469	10520.23
715.812	10491.76
716.156	10434.36
716.499	10390.52
716.843	10405.43
717.186	10339.67
717.53	10358.65
717.873	10376.73
718.216	10317.3
718.559	10286.57
718.902	10315.72
719.246	10317.53
719.589	10238.21
719.932	10226.68
720.275	10201.6
720.617	10162.73
720.96	10130.19
721.303	10171.54
721.646	10176.74
721.989	10014.48
722.331	10094.93
722.674	10121.6
723.016	10101.49
723.359	10045.67
723.701	10079.11
724.044	10115.04
724.386	10014.71
724.729	10035.72
725.071	10050.64
725.413	10015.84
725.755	10019.91
726.097	9977.87
726.439	9899.46
726.782	9905.56
727.124	10021.94
727.465	9953.24
727.807	9916.41
728.149	9904.88
728.491	9839.57
728.833	9951.66
729.175	9908.5
729.516	9955.95
729.858	9877.99
730.199	9891.32
730.541	9906.46
730.882	9791.44
731.224	9903.98
731.565	9775.62
731.906	9865.79
732.248	9831.21
732.589	9768.61
732.93	9767.26
733.271	9861.49
733.612	9842.06
733.953	9892.9
734.294	9820.82
734.635	9742.4
734.976	9776.52
735.317	9733.59
735.658	9843.87
735.999	9796.18
736.339	9845.67
736.68	9854.26
737.021	9771.32
737.361	9747.14
737.702	9786.92
738.042	9816.07
738.383	9857.2
738.723	9848.39
739.063	9821.95
739.404	9793.47
739.744	9845.67
740.084	9799.35
740.424	9892.68
740.764	9880.47
741.104	9854.03
741.444	9861.94
741.784	9821.27
742.124	9870.76
742.464	9988.27
742.804	9898.55
743.143	9964.31
743.483	9977.87
743.823	10000.7
744.162	9977.65
744.502	10057.19
744.841	10000.25
745.181	10081.6
745.52	10104.65
745.86	10104.42
746.199	10106.46
746.538	10196.85
746.877	10213.12
747.216	10233.01
747.556	10285.89
747.895	10362.95
748.234	10336.96
748.573	10476.62
748.911	10500.57
749.25	10636.16
749.589	10515.03
749.928	10744.41
750.267	10737.4
750.605	10798.42
750.944	10859.88
751.283	10869.38
751.621	11009.71
751.96	11046.32
752.298	11112.53
752.636	11249.93
752.975	11342.58
753.313	11332.41
753.651	11483.14
753.989	11570.83
754.327	11677.26
754.666	11730.82
755.004	11890.82
755.342	12036.58
755.679	12162.9
756.017	12251.49
756.355	12427.53
756.693	12532.61
757.031	12602.66
757.368	12782.77
757.706	12985.48
758.044	13071.35
758.381	13281.74
758.719	13499.81
759.056	13519.02
759.394	13721.05
759.731	13799.92
760.068	13987.26
760.405	14135.05
760.743	14196.52
761.08	14387.93
761.417	14458.89
761.754	14686.22
762.091	14876.95
762.428	15021.58
762.765	15131.41
763.102	15334.34
763.438	15412.53
763.775	15568.46
764.112	15725.29
764.449	15918.28
764.785	16086.41
765.122	16101.78
765.458	16323.24
765.795	16490.02
766.131	16593.52
766.467	16747.41
766.804	16812.72
767.14	17000.29
767.476	17176.55
767.812	17314.4
768.148	17479.14
768.485	17516.66
768.821	17697.44
769.157	17809.98
769.492	17918.23
769.828	18073.71
770.164	18064.67
770.5	18137.88
770.836	18334.49
771.171	18380.59
771.507	18438.44
771.842	18475.05
772.178	18682.05
772.513	18707.81
772.849	18734.93
773.184	18865.55
773.519	18960.91
773.855	19099.44
774.19	18985.32
774.525	19168.82
774.86	19244.52
775.195	19223.96
775.53	19340.79
775.865	19332.2
776.2	19272.54
776.535	19300.79
776.87	19297.4
777.205	19332.2
777.539	19454.69
777.874	19503.72
778.209	19392.99
778.543	19521.35
778.878	19468.02
779.212	19580.11
779.547	19478.41
779.881	19626.66
780.215	19496.04
780.55	19770.84
780.884	19575.14
781.218	19653.55
781.552	19713.44
781.886	19562.03
782.22	19618.07
782.554	19530.39
782.888	19456.49
783.222	19488.36
783.556	19536.94
783.889	19569.03
784.223	19379.43
784.557	19418.3
784.89	19561.8
785.224	19366.1
785.557	19385.08
785.891	19403.61
786.224	19434.12
786.558	19335.59
786.891	19297.63
787.224	19233.9
787.557	19294.92
787.891	19300.79
788.224	19283.17
788.557	19290.62
788.89	19195.03
789.223	19191.42
789.556	19100.35
789.888	19088.37
790.221	18959.78
790.554	18960.01
790.887	19047.92
791.219	18898.09
791.552	18891.76
791.884	18813.35
792.217	18781.03
792.549	18849.05
792.882	18768.15
793.214	18582.17
793.546	18656.06
793.879	18564.77
794.211	18463.53
794.543	18649.51
794.875	18573.13
795.207	18616.06
795.539	18555.95
795.871	18505.56
796.203	18345.79
796.535	18269.41
796.867	18181.27
797.198	18279.35
797.53	18248.39
797.862	18197.77
798.193	18253.81
798.525	18139.47
798.856	18185.34
799.188	17996.87
799.519	17799.81
799.85	17769.76
800.182	17877.1
800.513	17893.82
800.844	17780.38
801.175	17798.01
801.506	17830.77
801.837	17720.04
802.168	17776.09
802.499	17654.51
802.83	17511.91
803.161	17559.14
803.491	17467.62
803.822	17521.4
804.153	17324.57
804.483	17333.39
804.814	17283.44
805.145	17269.88
805.475	17270.79
805.805	17172.49
806.136	17124.35
806.466	17218.81
806.796	17130.68
807.126	16918.71
807.457	16922.55
807.787	16992.15
808.117	16846.85
808.447	16880.06
808.777	16929.1
809.107	16778.6
809.436	16751.93
809.766	16824.92
810.096	16739.28
810.426	16625.16
810.755	16656.57
811.085	16659.96
811.414	16551.49
811.744	16520.3
812.073	16579.28
812.403	16422.22
812.732	16378.61
813.061	16386.29
813.39	16233.3
813.719	16209.8
814.049	16271.49
814.378	16216.58
814.707	16138.16
815.036	16172.51
815.365	16118.05
815.693	16009.58
816.022	16079.86
816.351	15926.87
816.68	15940.2
817.008	15989.01
817.337	15810.71
817.665	15827.66
817.994	15780.21
818.322	15734.56
818.651	15704.05
818.979	15659.98
819.307	15818.62
819.636	15692.75
819.964	15636.48
820.292	15618.18
820.62	15657.05
820.948	15608.46
821.276	15700.43
821.604	15575.24
821.932	15682.13
822.259	15711.28
822.587	15659.76
822.915	15559.65
823.243	15711.28
823.57	15527.78
823.898	15610.72
824.225	15504.28
824.553	15614.56
824.88	15564.39
825.207	15626.76
825.535	15591.28
825.862	15631.96
826.189	15608.23
826.516	15671.06
826.843	15637.16
827.17	15664.73
827.497	15737.27
827.824	15610.04
828.151	15700.89
828.478	15671.06
828.805	15711.28
829.131	15556.71
829.458	15578.4
829.785	15465.41
830.111	15567.56
830.438	15721.68
830.764	15670.15
831.09	15652.07
831.417	15539.53
831.743	15625.41
832.069	15596.71
832.395	15427
832.722	15654.56
833.048	15536.6
833.374	15643.94
833.7	15438.07
834.026	15573.21
834.351	15478.97
834.677	15498.18
835.003	15554.45
835.329	15571.17
835.654	15364.4
835.98	15399.88
836.306	15445.98
836.631	15323.5
836.956	15362.82
837.282	15363.72
837.607	15351.97
837.932	15321.24
838.258	15354.23
838.583	15306.32
838.908	15206.89
839.233	15231.07
839.558	15170.73
839.883	15097.29
840.208	15068.13
840.533	15055.03
840.858	15036.5
841.182	15080.34
841.507	15028.81
841.832	14932.55
842.156	14916.95
842.481	14945.65
842.805	14877.86
843.13	14846.22
843.454	14825.43
843.778	14799.44
844.103	14836.28
844.427	14776.17
844.751	14806.45
845.075	14703.4
845.399	14637.86
845.723	14595.83
846.047	14577.75
846.371	14399.9
846.695	14437.64
847.019	14395.84
847.343	14261.15
847.666	14171.44
847.99	14207.37
848.313	14198.55
848.637	14010.99
848.96	14068.39
849.284	13978.67
849.607	13871.78
849.931	13809.41
850.254	13764.89
850.577	13748.85
850.9	13701.17
851.223	13630.88
851.546	13544.11
851.869	13477.89
852.192	13528.29
852.515	13384.11
852.838	13303.66
853.161	13331.23
853.483	13260.95
853.806	13264.79
854.129	13212.59
854.451	13198.35
854.774	13106.15
855.096	13073.16
855.419	12996.1
855.741	12908.19
856.063	12942.77
856.385	12867.29
856.708	12830
857.03	12820.51
857.352	12866.61
857.674	12756.78
857.996	12735.31
858.318	12739.83
858.64	12642.44
858.961	12594.08
859.283	12572.83
859.605	12463.46
859.926	12545.49
860.248	12462.55
860.57	12451.03
860.891	12405.15
861.212	12343.91
861.534	12385.04
861.855	12357.7
862.176	12292.84
862.498	12242.67
862.819	12277.7
863.14	12208.32
863.461	12156.12
863.782	12158.83
864.103	12126.07
864.424	12046.97
864.745	12164.71
865.065	12020.76
865.386	12050.59
865.707	11984.37
866.027	12009.46
866.348	11974.2
866.668	11983.92
866.989	11872.51
867.309	11950.02
867.63	11965.62
867.95	11944.38
868.27	11792.97
868.59	11873.19
868.91	11797.71
869.23	11784.15
869.55	11735.79
869.87	11777.37
870.19	11696.92
870.51	11744.61
870.83	11758.84
871.15	11686.08
871.469	11660.54
871.789	11685.62
872.109	11639.52
872.428	11567.21
872.748	11601.56
873.067	11553.65
873.386	11553.2
873.706	11526.99
874.025	11502.58
874.344	11474.33
874.663	11508.68
874.982	11398.63
875.301	11442.24
875.62	11408.8
875.939	11369.48
876.258	11342.81
876.577	11399.98
876.896	11396.37
877.214	11362.47
877.533	11313.88
877.852	11264.39
878.17	11220.1
878.489	11302.36
878.807	11269.36
879.125	11221.91
879.444	11157.05
879.762	11206.54
880.08	11241.34
880.398	11099.43
880.716	11104.85
881.034	11142.36
881.352	11068.01
881.67	11154.79
881.988	10996.38
882.306	11013.55
882.624	11009.48
882.941	10941.46
883.259	10883.84
883.577	10906.21
883.894	10867.79
884.212	10815.37
884.529	10845.65
884.846	10843.16
885.164	10787.57
885.481	10799.55
885.798	10768.59
886.115	10729.72
886.432	10710.96
886.75	10677.74
887.067	10652.88
887.383	10642.71
887.7	10600.91
888.017	10634.81
888.334	10569.04
888.651	10512.55
888.967	10482.04
889.284	10422.16
889.6	10440.69
889.917	10332.21
890.233	10356.39
890.55	10259
890.866	10293.12
891.182	10281.59
891.498	10243.85
891.815	10205.21
892.131	10158.21
892.447	10216.74
892.763	10096.06
893.079	10094.25
893.395	10031.43
893.71	9997.53
894.026	9992.56
894.342	9945.11
894.657	9894.49
894.973	9876.86
895.289	9791.44
895.604	9858.1
895.92	9807.71
896.235	9697.88
896.55	9707.82
896.865	9657.88
897.181	9717.99
897.496	9718.22
897.811	9653.81
898.126	9569.75
898.441	9555.29
898.756	9503.31
899.071	9468.28
899.386	9473.25
899.7	9418.79
900.015	9332.92
900.33	9275.74
900.644	9212.92
900.959	9268.06
901.273	9167.27
901.588	9201.62
901.902	9174.05
902.216	9128.4
902.531	9134.96
902.845	9128.86
903.159	8938.58
903.473	8927.96
903.787	8937.45
904.101	8916.21
904.415	8944.91
904.729	8794.4
905.042	8763.22
905.356	8767.96
905.67	8751.92
905.984	8731.8
906.297	8608.42
906.611	8688.64
906.924	8635.54
907.237	8610.45
907.551	8564.58
907.864	8496.33
908.177	8507.86
908.491	8487.52
908.804	8401.19
909.117	8328.88
909.43	8278.48
909.743	8285.04
910.056	8273.74
910.368	8261.08
910.681	8231.93
910.994	8181.76
911.307	8116.23
911.619	8080.07
911.932	8094.08
912.244	8031.71
912.557	8033.29
912.869	7952.62
913.181	7939.28
913.494	7897.25
913.806	7850.7
914.118	7844.14
914.43	7782.68
914.742	7785.16
915.054	7712.4
915.366	7776.35
915.678	7671.49
915.99	7608.9
916.302	7631.72
916.613	7513.53
916.925	7555.56
917.236	7507.88
917.548	7487.09
917.859	7472.18
918.171	7447.77
918.482	7331.39
918.794	7425.4
919.105	7359.86
919.416	7298.62
919.727	7255.01
920.038	7276.48
920.349	7205.74
920.66	7197.38
920.971	7180.66
921.282	7161.22
921.593	7123.94
921.903	7068.12
922.214	7040.78
922.525	7102.92
922.835	7044.39
923.146	6935.92
923.456	6942.92
923.767	6892.08
924.077	6862.25
924.387	6852.98
924.697	6799.65
925.008	6803.49
925.318	6732.76
925.628	6701.58
925.938	6696.15
926.248	6695.7
926.558	6692.76
926.867	6608.47
927.177	6551.52
927.487	6562.37
927.796	6567.12
928.106	6476.04
928.416	6439.89
928.725	6442.82
929.034	6406.44
929.344	6411.87
929.653	6329.61
929.962	6294.58
930.271	6264.75
930.581	6268.82
930.89	6253
931.199	6176.17
931.508	6180.46
931.817	6152.21
932.125	6163.96
932.434	6201.02
932.743	6060.24
933.051	6049.61
933.36	6086
933.669	6019.33
933.977	6008.03
934.286	6014.14
934.594	5974.36
934.902	5898.21
935.21	5929.84
935.519	5871.09
935.827	5848.49
936.135	5850.3
936.443	5788.6
936.751	5775.05
937.059	5757.42
937.367	5721.71
937.674	5726.91
937.982	5706.12
938.29	5673.35
938.597	5679.46
938.905	5619.8
939.213	5602.85
939.52	5544.54
939.827	5594.94
940.135	5556.75
940.442	5485.34
940.749	5501.83
941.056	5481.49
941.363	5422.51
941.67	5328.73
941.977	5391.78
942.284	5352.01
942.591	5330.99
942.898	5340.93
943.205	5304.55
943.511	5281.05
943.818	5300.93
944.125	5223.87
944.431	5257.09
944.738	5147.27
945.044	5121.28
945.35	5119.47
945.657	5070.66
945.963	5083.31
946.269	5068.17
946.575	5046.7
946.881	5060.71
947.187	5057.55
947.493	4935.52
947.799	4932.13
948.105	4936.42
948.41	4887.16
948.716	4899.14
949.022	4883.09
949.327	4898.01
949.633	4834.51
949.938	4831.57
950.244	4790.21
950.549	4763.1
950.854	4752.7
951.16	4697.33
951.465	4688.29
951.77	4686.49
952.075	4685.36
952.38	4677.67
952.685	4647.17
952.99	4586.83
953.294	4590.22
953.599	4575.76
953.904	4528.98
954.209	4563.55
954.513	4492.37
954.818	4505.25
955.122	4504.34
955.426	4426.61
955.731	4448.3
956.035	4416.21
956.339	4443.33
956.643	4374.63
956.948	4347.74
957.252	4361.07
957.556	4346.38
957.86	4309.77
958.163	4309.77
958.467	4253.73
958.771	4266.38
959.075	4235.2
959.378	4155.43
959.682	4212.38
959.985	4204.01
960.289	4156.33
960.592	4164.01
960.896	4112.94
961.199	4094.19
961.502	4070.68
961.805	4058.25
962.108	4046.73
962.411	4030.23
962.714	4031.14
963.017	4031.14
963.32	4018.48
963.623	3963.57
963.926	3984.13
964.228	3946.39
964.531	3921.31
964.833	3926.51
965.136	3871.14
965.438	3867.53
965.741	3840.86
966.043	3826.62
966.345	3839.28
966.648	3784.82
966.95	3746.4
967.252	3775.32
967.554	3764.25
967.856	3684.71
968.158	3638.6
968.46	3705.72
968.761	3681.77
969.063	3681.09
969.365	3689
969.666	3633.63
969.968	3597.7
970.269	3588.44
970.571	3622.11
970.872	3536.46
971.174	3508.44
971.475	3519.29
971.776	3538.27
972.077	3439.97
972.378	3503.02
972.679	3529.68
972.98	3454.65
973.281	3447.2
973.582	3421.66
973.883	3383.7
974.183	3415.79
974.484	3400.42
974.785	3346.18
975.085	3412.17
975.386	3384.6
975.686	3343.7
975.986	3333.3
976.287	3300.99
976.587	3285.62
976.887	3258.95
977.187	3278.39
977.487	3226.86
977.787	3187.77
978.087	3223.7
978.387	3199.52
978.687	3208.79
978.987	3143.93
979.286	3151.61
979.586	3167.2
979.885	3125.17
980.185	3093.31
980.484	3069.81
980.784	3071.39
981.083	3072.07
981.382	3078.39
981.682	3025.06
981.981	3042.24
982.28	3004.05
982.579	3007.66
982.878	3027.32
983.177	2970.15
983.475	2963.82
983.774	2912.07
984.073	2932.86
984.372	2895.12
984.67	2903.93
984.969	2885.18
985.267	2889.7
985.566	2875.69
985.864	2853.31
986.162	2866.42
986.461	2836.82
986.759	2820.77
987.057	2817.84
987.355	2799.98
987.653	2756.14
987.951	2769.25
988.249	2769.48
988.547	2780.55
988.844	2715.69
989.142	2731.51
989.44	2715.47
989.737	2698.29
990.035	2649.93
990.332	2661.23
990.63	2629.37
990.927	2627.78
991.224	2609.25
991.521	2602.7
991.819	2611.51
992.116	2617.16
992.413	2596.82
992.71	2572.87
993.006	2583.94
993.303	2574.9
993.6	2543.94
993.897	2478.41
994.193	2511.63
994.49	2486.54
994.787	2496.49
995.083	2473.66
995.379	2460.33
995.676	2468.24
995.972	2441.57
996.268	2423.27
996.565	2411.97
996.861	2390.05
997.157	2370.84
997.453	2424.4
997.749	2369.71
998.044	2360.67
998.34	2309.6
998.636	2365.87
998.932	2303.72
999.227	2278.19
999.523	2301.24
999.818	2279.09
1000.114	2260.79
1000.409	2261.47
1000.704	2236.83
1001	2243.16
1001.295	2216.04
1001.59	2202.94
1001.885	2209.26
1002.18	2185.54
1002.475	2170.85
1002.77	2174.91
1003.065	2153.45
1003.359	2105.31
1003.654	2147.34
1003.949	2130.85
1004.243	2114.35
1004.538	2088.82
1004.832	2103.05
1005.127	2049.49
1005.421	2081.81
1005.715	2073.45
1006.009	2049.72
1006.304	2031.42
1006.598	2005.65
1006.892	2017.18
1007.186	1983.51
1007.48	1987.35
1007.773	1984.86
1008.067	1948.93
1008.361	1932.66
1008.655	1916.16
1008.948	1910.06
1009.242	1907.35
1009.535	1873.91
1009.829	1893.34
1010.122	1909.16
1010.415	1887.01
1010.708	1860.35
1011.001	1833
1011.295	1827.13
1011.588	1802.72
1011.881	1802.27
1012.173	1778.31
1012.466	1789.61
1012.759	1797.3
1013.052	1787.13
1013.344	1765.43
1013.637	1743.74
1013.93	1733.12
1014.222	1734.02
1014.514	1714.59
1014.807	1722.5
1015.099	1684.08
1015.391	1673.68
1015.683	1694.02
1015.976	1664.87
1016.268	1655.15
1016.56	1622.61
1016.851	1644.76
1017.143	1661.03
1017.435	1612.9
1017.727	1576.74
1018.018	1597.53
1018.31	1594.14
1018.602	1567.02
1018.893	1560.24
1019.185	1557.98
1019.476	1547.81
1019.767	1538.32
1020.058	1531.09
1020.35	1515.72
1020.641	1501.71
1020.932	1506.23
1021.223	1485.89
1021.514	1470.53
1021.804	1454.26
1022.095	1440.02
1022.386	1448.83
1022.677	1430.53
1022.967	1448.61
1023.258	1415.39
1023.548	1384.43
1023.839	1391.43
1024.129	1397.76
1024.419	1394.14
1024.709	1362.05
1025	1341.72
1025.29	1373.81
1025.58	1352.79
1025.87	1350.3
1026.16	1325.45
1026.449	1325.45
1026.739	1333.81
1027.029	1302.17
1027.319	1321.15
1027.608	1273.7
1027.898	1289.97
1028.187	1274.15
1028.477	1269.4
1028.766	1246.58
1029.055	1265.79
1029.344	1235.28
1029.634	1219.46
1029.923	1243.87
1030.212	1254.49
1030.501	1204.09
1030.79	1204.32
1031.078	1181.04
1031.367	1137.2
1031.656	1194.6
1031.945	1160.48
1032.233	1147.6
1032.522	1137.65
1032.81	1121.61
1033.099	1118.45
1033.387	1138.78
1033.675	1129.74
1033.963	1094.72
1034.251	1120.03
1034.54	1107.82
1034.828	1090.88
1035.116	1079.8
1035.403	1095.85
1035.691	1081.84
1035.979	1066.24
1036.267	1064.66
1036.554	1033.48
1036.842	1036.41
1037.129	1020.82
1037.417	1028.5
1037.704	1038.67
1037.992	1018.56
1038.279	999.58
1038.566	1015.17
1038.853	1015.17
1039.14	1015.17
