Data from hue_290_FLMS001491_00039.txt Node
Date: Tue Feb 07 15:52:40 GMT 2017
User: dcchb
Spectrometer: FLMS00149
Trigger mode: 0
Integration Time (sec): 2.000000E-2
Scans to average: 10
Electric dark correction enabled: true
Nonlinearity correction enabled: false
Boxcar width: 0
XAxis mode: Wavelengths
Number of Pixels in Spectrum: 2048
>>>>>Begin Spectral Data<<<<<
341.393	5.3
341.776	5.3
342.16	5.3
342.543	-56.85
342.927	-86.9
343.31	-53.91
343.693	-62.27
344.077	-53.01
344.46	-53.46
344.843	-53.01
345.226	-51.2
345.61	-44.87
345.993	-22.95
346.376	-4.87
346.759	7.78
347.142	30.83
347.525	42.13
347.908	58.85
348.291	67.44
348.674	96.37
349.057	96.14
349.44	123.49
349.823	119.42
350.206	153.32
350.588	189.02
350.971	211.39
351.354	226.08
351.737	239.87
352.119	242.35
352.502	257.72
352.884	275.8
353.267	245.74
353.65	287.55
354.032	300.2
354.414	311.73
354.797	301.79
355.179	300.88
355.562	299.75
355.944	313.76
356.326	316.02
356.709	332.29
357.091	331.39
357.473	344.72
357.855	311.05
358.238	322.8
358.62	324.84
359.002	295.23
359.384	325.29
359.766	333.65
360.148	337.04
360.53	305.85
360.912	311.96
361.294	321.22
361.676	306.76
362.057	323.25
362.439	320.09
362.821	318.73
363.203	309.92
363.584	316.25
363.966	328.45
364.348	314.89
364.729	301.33
365.111	302.46
365.493	311.05
365.874	302.69
366.256	317.83
366.637	303.37
367.019	295.68
367.4	318.73
367.781	318.96
368.163	295.91
368.544	292.29
368.925	317.83
369.306	293.42
369.688	304.27
370.069	311.05
370.45	313.31
370.831	304.05
371.212	293.65
371.593	308.11
371.974	303.59
372.355	295.01
372.736	320.99
373.117	292.97
373.498	298.62
373.879	294.55
374.26	287.1
374.641	296.59
375.021	335.91
375.402	281.9
375.783	288.45
376.163	300.88
376.544	323.48
376.925	310.83
377.305	325.74
377.686	325.29
378.066	328.45
378.447	296.59
378.827	313.76
379.208	316.7
379.588	315.34
379.968	323.93
380.349	322.35
380.729	332.29
381.109	318.06
381.489	324.38
381.87	314.67
382.25	336.59
382.63	338.62
383.01	315.8
383.39	314.44
383.77	351.5
384.15	340.88
384.53	336.59
384.91	351.28
385.29	346.53
385.67	343.59
386.049	366.64
386.429	362.12
386.809	342.91
387.189	355.57
387.568	377.94
387.948	343.37
388.328	346.08
388.707	361.45
389.087	350.6
389.466	344.5
389.846	355.12
390.225	364.38
390.605	365.74
390.984	374.1
391.363	367.77
391.743	341.33
392.122	348.79
392.501	358.28
392.881	386.08
393.26	379.07
393.639	373.65
394.018	382.24
394.397	388.79
394.776	385.4
395.155	381.33
395.534	376.81
395.913	384.27
396.292	375.68
396.671	368.9
397.05	396.25
397.429	388.79
397.808	396.7
398.186	382.01
398.565	389.02
398.944	379.3
399.323	359.41
399.701	400.77
400.08	428.11
400.458	392.4
400.837	414.1
401.215	432.63
401.594	435.79
401.972	422.23
402.351	415.23
402.729	408
403.107	443.93
403.486	411.39
403.864	423.82
404.242	419.75
404.62	445.06
404.999	435.12
405.377	482.12
405.755	456.13
406.133	461.78
406.511	449.58
406.889	460.88
407.267	436.92
407.645	478.73
408.023	474.21
408.401	471.5
408.779	480.54
409.156	476.24
409.534	486.87
409.912	470.14
410.29	496.36
410.667	493.87
411.045	511.05
411.422	516.24
411.8	516.47
412.178	551.04
412.555	547.66
412.933	550.82
413.31	537.94
413.687	563.7
414.065	564.38
414.442	560.08
414.819	571.38
415.197	582
415.574	579.52
415.951	589.69
416.328	584.72
416.705	596.92
417.082	614.32
417.46	606.41
417.837	627.43
418.214	648.67
418.591	654.32
418.967	665.17
419.344	683.24
419.721	681.66
420.098	667.65
420.475	680.08
420.852	683.7
421.228	735.45
421.605	705.17
421.982	727.99
422.358	739.51
422.735	749.46
423.111	760.3
423.488	774.77
423.864	778.38
424.241	793.52
424.617	771.15
424.994	803.92
425.37	811.6
425.746	803.24
426.123	813.41
426.499	790.59
426.875	827.65
427.251	867.19
427.627	858.16
428.003	849.12
428.379	883.92
428.756	883.24
429.132	856.8
429.507	931.6
429.883	916.01
430.259	930.7
430.635	939.28
431.011	965.05
431.387	979.73
431.763	962.33
432.138	985.84
432.514	1021.31
432.89	1002.11
433.265	1031.71
433.641	1062.22
434.016	1060.86
434.392	1069.9
434.767	1076
435.143	1084.82
435.518	1096.57
435.894	1081.43
436.269	1144.7
436.644	1132.72
437.02	1160.52
437.395	1176.57
437.77	1160.97
438.145	1185.38
438.52	1212.5
438.895	1208.2
439.271	1221.54
439.646	1243.23
440.021	1249.78
440.395	1254.76
440.77	1252.04
441.145	1257.47
441.52	1287.07
441.895	1287.97
442.27	1290.46
442.645	1302.44
443.019	1307.41
443.394	1329.78
443.769	1334.3
444.143	1334.75
444.518	1345.37
444.892	1327.07
445.267	1334.75
445.641	1366.62
446.016	1372.94
446.39	1392.6
446.764	1360.74
447.139	1384.24
447.513	1400.29
447.887	1365.94
448.262	1433.73
448.636	1408.65
449.01	1417.69
449.384	1433.73
449.758	1427.63
450.132	1449.78
450.506	1450.46
450.88	1452.26
451.254	1438.71
451.628	1474.41
452.002	1476.44
452.376	1495.88
452.75	1498.59
453.123	1507.4
453.497	1503.34
453.871	1501.53
454.244	1521.64
454.618	1533.17
454.992	1554.86
455.365	1548.53
455.739	1617.23
456.112	1600.73
456.486	1605.25
456.859	1647.29
457.232	1656.78
457.606	1645.25
457.979	1631.69
458.352	1699.94
458.725	1687.29
459.099	1701.98
459.472	1729.54
459.845	1736.55
460.218	1758.47
460.591	1753.5
460.964	1754.85
461.337	1759.83
461.71	1838.92
462.083	1827.17
462.456	1847.51
462.829	1840.05
463.201	1830.56
463.574	1847.96
463.947	1868.52
464.32	1906.72
464.692	1911.69
465.065	1952.82
465.438	1949.88
465.81	1974.96
466.183	2002.08
466.555	2014.28
466.928	2030.78
467.3	2012.93
467.672	2056.32
468.045	2083.66
468.417	2080.95
468.789	2096.77
469.161	2128.18
469.534	2139.7
469.906	2201.62
470.278	2199.36
470.65	2226.93
471.022	2203.66
471.394	2233.49
471.766	2244.11
472.138	2302.86
472.51	2322.98
472.882	2347.61
473.253	2373.6
473.625	2383.54
473.997	2436.19
474.369	2474.16
474.74	2426.48
475.112	2519.58
475.484	2499.47
475.855	2536.08
476.227	2530.65
476.598	2595.06
476.97	2640.71
477.341	2686.81
477.713	2695.17
478.084	2703.3
478.455	2759.12
478.827	2765.68
479.198	2821.95
479.569	2823.75
479.94	2888.61
480.311	2915.05
480.682	2960.47
481.053	2983.98
481.424	3036.63
481.795	3054.03
482.166	3091.54
482.537	3101.71
482.908	3155.72
483.279	3193.46
483.65	3237.08
484.021	3254.48
484.391	3338.99
484.762	3332.21
485.133	3306
485.503	3336.73
485.874	3412.21
486.244	3457.41
486.615	3463.06
486.985	3494.24
487.356	3545.09
487.726	3580.57
488.097	3627.57
488.467	3615.37
488.837	3672.54
489.207	3729.72
489.578	3765.42
489.948	3819.21
490.318	3856.72
490.688	3846.78
491.058	3885.65
491.428	3918.87
491.798	3969.49
492.168	3987.56
492.538	4048.35
492.908	4080.67
493.278	4094
493.648	4120.67
494.017	4105.75
494.387	4163.61
494.757	4144.85
495.126	4230.27
495.496	4191.63
495.866	4238.63
496.235	4289.7
496.605	4282.25
496.974	4318.4
497.344	4324.5
497.713	4348.91
498.082	4339.65
498.452	4390.94
498.821	4452.41
499.19	4442.92
499.559	4453.09
499.928	4516.36
500.298	4506.87
500.667	4578.74
501.036	4555.46
501.405	4548.91
501.774	4544.16
502.143	4592.29
502.512	4585.29
502.88	4617.15
503.249	4641.56
503.618	4678.85
503.987	4676.36
504.356	4682.69
504.724	4698.51
505.093	4742.35
505.462	4712.74
505.83	4775.34
506.199	4769.69
506.567	4842.91
506.936	4795.45
507.304	4841.78
507.672	4840.88
508.041	4884.72
508.409	4917.71
508.777	4936.01
509.145	4920.87
509.514	4981.21
509.882	4927.65
510.25	4952.06
510.618	4987.76
510.986	4920.87
511.354	5052.62
511.722	5044.49
512.09	5090.13
512.458	5057.59
512.826	5102.11
513.193	5108.21
513.561	5105.73
513.929	5119.06
514.297	5168.55
514.664	5148.89
515.032	5136.01
515.4	5176.23
515.767	5218.72
516.135	5220.53
516.502	5200.87
516.869	5242.22
517.237	5244.71
517.604	5229.57
517.972	5288.32
518.339	5305.27
518.706	5322.22
519.073	5406.51
519.44	5331.71
519.808	5351.14
520.175	5350.69
520.542	5410.13
520.909	5399.05
521.276	5417.36
521.643	5458.71
522.009	5499.39
522.376	5461.88
522.743	5507.52
523.11	5537.35
523.477	5613.06
523.843	5587.07
524.21	5652.38
524.577	5628.65
524.943	5635.2
525.31	5672.04
525.676	5696.45
526.043	5771.7
526.409	5723.34
526.776	5791.13
527.142	5802.66
527.508	5789.55
527.874	5847.63
528.241	5890.34
528.607	5867.29
528.973	5929.89
529.339	5925.59
529.705	5940.51
530.071	5992.71
530.437	5998.36
530.803	6041.97
531.169	6094.4
531.535	6098.7
531.901	6121.97
532.267	6107.28
532.632	6157
532.998	6122.65
533.364	6209.88
533.73	6162.65
534.095	6204.23
534.461	6308.86
534.826	6292.59
535.192	6255.98
535.557	6342.76
535.923	6304.11
536.288	6352.93
536.653	6367.39
537.019	6297.79
537.384	6396.77
537.749	6404
538.114	6458.69
538.479	6443.32
538.845	6473.37
539.21	6462.75
539.575	6469.08
539.94	6463.66
540.305	6510.44
540.67	6520.61
541.034	6571
541.399	6578.46
541.764	6614.39
542.129	6623.43
542.494	6580.72
542.858	6622.98
543.223	6624.78
543.587	6643.99
543.952	6689.87
544.316	6686.7
544.681	6682.18
545.045	6756.98
545.41	6754.27
545.774	6777.32
546.138	6729.87
546.503	6783.2
546.867	6806.02
547.231	6874.49
547.595	6852.35
547.959	6878.34
548.324	6928.96
548.688	6864.55
549.052	6877.88
549.416	6918.11
549.779	6904.55
550.143	6890.77
550.507	7001.5
550.871	7001.95
551.235	6974.83
551.599	7050.31
551.962	7020.48
552.326	7032.68
552.689	7100.7
553.053	7040.14
553.417	7008.05
553.78	7158.1
554.143	7128.5
554.507	7164.66
554.87	7119.69
555.234	7196.29
555.597	7128.95
555.96	7236.07
556.323	7174.37
556.686	7231.55
557.05	7285.33
557.413	7293.92
557.776	7238.55
558.139	7317.19
558.502	7336.63
558.865	7300.47
559.228	7428.15
559.59	7381.15
559.953	7358.1
560.316	7408.72
560.679	7463.63
561.041	7535.95
561.404	7493.91
561.767	7495.5
562.129	7535.49
562.492	7610.97
562.854	7611.65
563.217	7607.13
563.579	7618.88
563.941	7682.83
564.304	7665.21
564.666	7730.52
565.028	7709.73
565.39	7757.41
565.753	7774.58
566.115	7784.07
566.477	7802.61
566.839	7842.6
567.201	7860.01
567.563	7849.61
567.925	7977.52
568.287	7984.97
568.648	7961.25
569.01	7967.57
569.372	8038.98
569.734	8002.37
570.095	8021.58
570.457	8113.78
570.819	8131.86
571.18	8081.47
571.542	8194.91
571.903	8208.92
572.265	8270.84
572.626	8324.85
572.987	8292.08
573.349	8335.7
573.71	8354
574.071	8432.19
574.432	8443.27
574.794	8481.91
575.155	8474
575.516	8548.12
575.877	8565.98
576.238	8619.31
576.599	8722.58
576.96	8708.12
577.32	8781.56
577.681	8852.3
578.042	8833.99
578.403	8909.47
578.763	9026.53
579.124	9036.47
579.485	9104.27
579.845	9263.36
580.206	9231.04
580.566	9284.15
580.927	9297.03
581.287	9456.8
581.648	9483.92
582.008	9565.05
582.368	9678.04
582.728	9716
583.089	9842.33
583.449	9894.98
583.809	10009.33
584.169	10147.85
584.529	10209.55
584.889	10429.43
585.249	10412.93
585.609	10479.37
585.969	10647.28
586.329	10753.71
586.688	10852.47
587.048	11008.17
587.408	11075.51
587.768	11215.62
588.127	11281.38
588.487	11356.18
588.846	11604.99
589.206	11603.64
589.565	11805.44
589.925	11917.53
590.284	12091.76
590.643	12223.73
591.003	12287.91
591.362	12509.15
591.721	12572.42
592.08	12745.98
592.44	12934.9
592.799	13039.53
593.158	13171.5
593.517	13265.74
593.876	13429.35
594.235	13540.08
594.593	13736.01
594.952	13895.55
595.311	13907.98
595.67	14073.18
596.029	14234.07
596.387	14448.98
596.746	14564.91
597.104	14706.6
597.463	14753.16
597.822	15017.33
598.18	14999.93
598.538	15126.25
598.897	15291.67
599.255	15368.51
599.613	15707.93
599.972	15643.76
600.33	15810.76
600.688	15864.31
601.046	16008.49
601.404	16146.57
601.762	16215.94
602.12	16464.07
602.478	16489.38
602.836	16618.64
603.194	16601.7
603.552	16777.06
603.91	16795.59
604.268	16977.28
604.625	16943.38
604.983	17150.16
605.341	17219.53
605.698	17365.52
606.056	17468.11
606.413	17484.61
606.771	17684.61
607.128	17809.12
607.485	17770.03
607.843	17804.38
608.2	17961.89
608.557	17976.58
608.914	18136.12
609.272	18341.76
609.629	18362.55
609.986	18494.53
610.343	18449.11
610.7	18702.43
611.057	18623.11
611.414	18726.16
611.771	18842.77
612.127	18939.26
612.484	18946.04
612.841	18972.03
613.198	19035.98
613.554	19035.08
613.911	19247.28
614.267	19245.92
614.624	19235.3
614.98	19344
615.337	19494.95
615.693	19575.18
616.05	19548.51
616.406	19675.97
616.762	19680.03
617.118	19678.9
617.475	19814.27
617.831	19865.34
618.187	19950.08
618.543	19939.46
618.899	20125.9
619.255	20133.81
619.611	20147.59
619.967	20309.85
620.323	20311.66
620.678	20234.14
621.034	20158.66
621.39	20275.27
621.746	20224.2
622.101	20532.21
622.457	20284.31
622.812	20422.61
623.168	20502.61
623.523	20569.5
623.879	20647.47
624.234	20417.87
624.589	20590.74
624.945	20586.9
625.3	20693.34
625.655	20697.41
626.01	20675.26
626.365	20705.54
626.72	20688.14
627.075	20698.09
627.43	20655.15
627.785	20682.04
628.14	20870.28
628.495	20814.24
628.85	20835.03
629.205	20743.28
629.559	20820.34
629.914	20826.9
630.269	20731.76
630.623	20632.32
630.978	20626.22
631.332	20844.3
631.687	20937.63
632.041	20789.83
632.396	20941.92
632.75	20741.25
633.104	20681.36
633.459	20710.06
633.813	20690.85
634.167	20742.15
634.521	20769.04
634.875	20765.43
635.229	20804.75
635.583	20670.52
635.937	20591.2
636.291	20677.07
636.645	20651.99
636.999	20609.73
637.352	20631.65
637.706	20571.76
638.06	20591.42
638.413	20595.26
638.767	20625.09
639.121	20576.28
639.474	20490.63
639.828	20543.74
640.181	20605.66
640.534	20618.09
640.888	20460.13
641.241	20483.18
641.594	20440.92
641.947	20638.88
642.301	20609.05
642.654	20498.99
643.007	20502.38
643.36	20520.69
643.713	20471.65
644.066	20488.83
644.419	20392.78
644.771	20239.57
645.124	20100.14
645.477	20106.01
645.83	20017.88
646.182	19949.18
646.535	19884.77
646.888	19978.56
647.24	19762.97
647.593	19913.25
647.945	19744.66
648.298	19792.57
648.65	19706.25
649.002	19720.26
649.355	19835.96
649.707	19824.44
650.059	19928.39
650.411	20094.71
650.763	20128.38
651.115	20330.19
651.467	20252.45
651.819	20264.42
652.171	20304.2
652.523	20255.61
652.875	20282.05
653.227	20198.66
653.578	20294.03
653.93	20265.33
654.282	20216.29
654.633	20185.33
654.985	20342.16
655.337	20321.82
655.688	20357.76
656.039	20325.67
656.391	20154.6
656.742	20310.53
657.094	20324.54
657.445	20376.29
657.796	20256.97
658.147	20374.93
658.498	20256.97
658.849	20332.67
659.2	20183.07
659.551	20234.14
659.902	20339.68
660.253	20375.16
660.604	20303.29
660.955	20236.18
661.306	20416.74
661.656	20348.04
662.007	20330.41
662.358	20275.5
662.708	20342.16
663.059	20362.28
663.409	20250.19
663.76	20522.72
664.11	20353.91
664.461	20418.77
664.811	20377.64
665.161	20480.69
665.511	20285.44
665.862	20411.99
666.212	20413.12
666.562	20484.76
666.912	20430.52
667.262	20462.16
667.612	20373.12
667.962	20405.89
668.312	20398.66
668.662	20560.46
669.011	20347.59
669.361	20267.59
669.711	20355.5
670.06	20251.09
670.41	20393.23
670.76	20314.82
671.109	20295.16
671.459	20326.12
671.808	20313.01
672.157	20368.38
672.507	20224.2
672.856	20195.95
673.205	20216.06
673.554	20245.89
673.904	20184.65
674.253	20356.63
674.602	20230.08
674.951	19950.53
675.3	19892.46
675.649	20180.13
675.998	20162.05
676.346	20167.48
676.695	20169.51
677.044	20102.62
677.393	20167.03
677.741	20067.14
678.09	20029.4
678.438	20025.79
678.787	20089.74
679.135	20116.86
679.484	19944.43
679.832	20037.99
680.181	19838
680.529	19976.52
680.877	19779.01
681.225	19969.74
681.573	19959.8
681.922	19767.71
682.27	19681.39
682.618	19770.43
682.966	19709.41
683.314	19718.22
683.661	19585.57
684.009	19541.96
684.357	19533.82
684.705	19500.38
685.053	19490.21
685.4	19438.01
685.748	19388.52
686.095	19337.67
686.443	19280.5
686.79	19254.06
687.138	19313.94
687.485	19225.13
687.832	19175.19
688.18	19221.29
688.527	19066.72
688.874	19018.58
689.221	19020.62
689.568	18930.67
689.915	18958.24
690.262	18886.83
690.609	18776.55
690.956	18752.37
691.303	18698.36
691.65	18624.47
691.997	18609.78
692.344	18540.85
692.69	18400.74
693.037	18507.63
693.383	18282.33
693.73	18365.04
694.077	18243.91
694.423	18254.31
694.769	18212.28
695.116	18060.41
695.462	18198.26
695.808	18034.88
696.155	18018.38
696.501	17886.41
696.847	17861.78
697.193	17732.51
697.539	17847.99
697.885	17591.05
698.231	17640.31
698.577	17527.1
698.923	17574.33
699.269	17457.04
699.614	17426.76
699.96	17260.89
700.306	17414.78
700.651	17273.77
700.997	17069.03
701.342	17148.12
701.688	17096.37
702.033	17083.49
702.379	17043.72
702.724	16998.52
703.069	16993.55
703.415	16735.25
703.76	16716.5
704.105	16721.92
704.45	16708.36
704.795	16567.12
705.14	16505.88
705.485	16522.6
705.83	16432.21
706.175	16386.11
706.52	16357.18
706.865	16339.33
707.209	16312.44
707.554	16213.23
707.899	16271.99
708.243	16186.11
708.588	16119.22
708.932	16060.69
709.277	16022.5
709.621	15917.87
709.966	15889.4
710.31	15943.41
710.654	15721.72
710.998	15834.48
711.342	15833.81
711.687	15757.88
712.031	15706.13
712.375	15542.06
712.719	15624.09
713.063	15607.37
713.407	15639.24
713.75	15483.53
714.094	15452.8
714.438	15387.04
714.782	15404.89
715.125	15387.94
715.469	15371.45
715.812	15351.33
716.156	15257.55
716.499	15190.43
716.843	15159.93
717.186	15171.9
717.53	15263.88
717.873	15234.05
718.216	15163.99
718.559	15105.01
718.902	15069.31
719.246	15125.58
719.589	15018.46
719.932	14977.56
720.275	15019.36
720.617	14930.55
720.96	14938.46
721.303	14953.83
721.646	14937.56
721.989	14834.96
722.331	14864.79
722.674	14934.17
723.016	14865.47
723.359	14920.61
723.701	14928.29
724.044	14748.41
724.386	14722.2
724.729	14800.84
725.071	14738.47
725.413	14719.71
725.755	14700.96
726.097	14730.78
726.439	14594.29
726.782	14623.9
727.124	14649.88
727.465	14565.14
727.807	14659.15
728.149	14626.83
728.491	14581.18
728.833	14553.84
729.175	14606.04
729.516	14516.33
729.858	14509.1
730.199	14503.45
730.541	14573.95
730.882	14493.96
731.224	14483.33
731.565	14398.36
731.906	14480.62
732.248	14457.57
732.589	14375.31
732.93	14414.41
733.271	14423.22
733.612	14486.5
733.953	14408.53
734.294	14331.25
734.635	14390.23
734.976	14509.77
735.317	14370.34
735.658	14376.67
735.999	14373.73
736.339	14265.94
736.68	14401.98
737.021	14415.31
737.361	14328.31
737.702	14411.92
738.042	14421.64
738.383	14326.28
738.723	14284.7
739.063	14409.44
739.404	14387.29
739.744	14468.42
740.084	14392.94
740.424	14390
740.764	14422.77
741.104	14412.38
741.444	14438.59
741.784	14440.17
742.124	14476.1
742.464	14552.94
742.804	14553.61
743.143	14466.16
743.483	14529.43
743.823	14550.68
744.162	14532.15
744.502	14527.17
744.841	14565.14
745.181	14694.4
745.52	14613.95
745.86	14669.32
746.199	14708.64
746.538	14761.74
746.877	14816.43
747.216	14888.97
747.556	14811.23
747.895	14934.85
748.234	14951.12
748.573	15000.83
748.911	15042.64
749.25	15067.05
749.589	15124.22
749.928	15252.13
750.267	15242.18
750.605	15331.22
750.944	15261.17
751.283	15354.95
751.621	15388.17
751.96	15643.53
752.298	15609.18
752.636	15755.62
752.975	15742.51
753.313	15857.54
753.651	16036.97
753.989	15956.74
754.327	16136.4
754.666	16204.42
755.004	16272.89
755.342	16462.94
755.679	16501.13
756.017	16483.51
756.355	16790.39
756.693	16780.9
757.031	16892.76
757.368	16936.38
757.706	17121.23
758.044	17160.78
758.381	17236.71
758.719	17264.96
759.056	17492.97
759.394	17569.81
759.731	17574.55
760.068	17699.52
760.405	17816.13
760.743	17941.1
761.08	18093.86
761.417	18143.35
761.754	18278.49
762.091	18318.04
762.428	18341.09
762.765	18462.66
763.102	18599.61
763.438	18637.35
763.775	18621.3
764.112	18801.41
764.449	18834.63
764.785	18793.73
765.122	18936.1
765.458	19035.53
765.795	19056.55
766.131	19096.09
766.467	19167.05
766.804	19194.62
767.14	19211.8
767.476	19267.84
767.812	19280.5
768.148	19350.1
768.485	19389.19
768.821	19415.18
769.157	19496.31
769.492	19481.17
769.828	19435.75
770.164	19362.98
770.5	19440.94
770.836	19569.98
771.171	19558.45
771.507	19544.67
771.842	19417.22
772.178	19494.95
772.513	19562.07
772.849	19600.71
773.184	19610.2
773.519	19595.06
773.855	19485.24
774.19	19483.2
774.525	19396.65
774.86	19621.28
775.195	19564.33
775.53	19507.38
775.865	19494.95
776.2	19353.71
776.535	19231.91
776.87	19309.2
777.205	19286.6
777.539	19228.07
777.874	19353.71
778.209	19215.86
778.543	19193.49
778.878	19085.47
779.212	19159.37
779.547	19037.11
779.881	19186.26
780.215	19052.71
780.55	19107.39
780.884	18925.25
781.218	19033.5
781.552	18955.53
781.886	18887.29
782.22	18812.26
782.554	18756.44
782.888	18601.19
783.222	18596.9
783.556	18584.02
783.889	18514.19
784.223	18433.51
784.557	18429.22
784.89	18466.28
785.224	18286.85
785.557	18300.86
785.891	18245.27
786.224	18247.98
786.558	18200.3
786.891	18069.68
787.224	17949.91
787.557	18029
787.891	18045.05
788.224	17906.75
788.557	17996.24
788.89	17929.12
789.223	17845.96
789.556	17773.42
789.888	17710.59
790.221	17604.61
790.554	17556.02
790.887	17588.11
791.219	17512.63
791.552	17452.97
791.884	17397.38
792.217	17318.06
792.549	17270.83
792.882	17179.76
793.214	17087.56
793.546	17146.77
793.879	17035.81
794.211	16942.25
794.543	17076.49
794.875	16936.6
795.207	17010.5
795.539	16783.61
795.871	16816.61
796.203	16700.45
796.535	16642.15
796.867	16512.21
797.198	16624.97
797.53	16595.37
797.862	16435.82
798.193	16554.69
798.525	16417.97
798.856	16358.99
799.188	16236.51
799.519	16265.66
799.85	16111.31
800.182	16133.23
800.513	16197.19
800.844	15955.61
801.175	16052.33
801.506	16073.57
801.837	15898.21
802.168	15947.02
802.499	15945.89
802.83	15784.54
803.161	15744.09
803.491	15698.67
803.822	15732.11
804.153	15675.39
804.483	15464.55
804.814	15505.91
805.145	15612.8
805.475	15527.15
805.805	15406.93
806.136	15508.39
806.466	15393.14
806.796	15299.13
807.126	15266.59
807.457	15159.7
807.787	15188.17
808.117	15254.16
808.447	15144.11
808.777	15114.96
809.107	15062.3
809.436	14966.94
809.766	14985.69
810.096	14955.86
810.426	14938.92
810.755	14909.09
811.085	14874.28
811.414	14836.32
811.744	14693.95
812.073	14670.22
812.403	14679.26
812.732	14633.61
813.061	14628.87
813.39	14547.51
813.719	14535.99
814.049	14565.82
814.378	14464.35
814.707	14414.41
815.036	14295.54
815.365	14317.69
815.693	14232.72
816.022	14273.62
816.351	14223.68
816.68	14148.43
817.008	14164.25
817.337	14077.24
817.665	14049.45
817.994	14117.92
818.322	14091.25
818.651	14004.25
818.979	13917.93
819.307	13961.09
819.636	13954.31
819.964	13839.96
820.292	13911.82
820.62	13885.16
820.948	13831.15
821.276	13896.91
821.604	13825.27
821.932	13875.44
822.259	13821.66
822.587	13873.86
822.915	13751.15
823.243	13782.11
823.57	13827.08
823.898	13883.8
824.225	13827.98
824.553	13743.92
824.88	13775.56
825.207	13815.1
825.535	13797.7
825.862	13843.35
826.189	13704.82
826.516	13861.88
826.843	13900.98
827.17	13781.21
827.497	13824.82
827.824	13861.43
828.151	13752.73
828.478	13817.59
828.805	13879.28
829.131	13750.7
829.458	13758.16
829.785	13671.38
830.111	13664.82
830.438	13747.76
830.764	13754.99
831.09	13787.53
831.417	13562.45
831.743	13751.15
832.069	13671.38
832.395	13637.48
832.722	13730.36
833.048	13551.38
833.374	13691.94
833.7	13553.19
834.026	13590.02
834.351	13633.64
834.677	13635.45
835.003	13701.21
835.329	13571.72
835.654	13633.19
835.98	13538.05
836.306	13538.05
836.631	13534.43
836.956	13558.16
837.282	13517.03
837.607	13481.33
837.932	13430.71
838.258	13426.41
838.583	13347.09
838.908	13301.22
839.233	13360.65
839.558	13242.69
839.883	13258.51
840.208	13158.4
840.533	13204.95
840.858	13213.76
841.182	13265.06
841.507	13150.49
841.832	13184.38
842.156	13121.56
842.481	13148.68
842.805	13125.18
843.13	13037.95
843.454	12980.32
843.778	12979.42
844.103	12944.62
844.427	12917.05
844.751	12904.39
845.075	12818.74
845.399	12790.5
845.723	12787.56
846.047	12726.77
846.371	12621.01
846.695	12698.52
847.019	12554.57
847.343	12559.99
847.666	12496.72
847.99	12368.59
848.313	12444.97
848.637	12272.09
848.96	12294.01
849.284	12209.72
849.607	12135.37
849.931	12119.1
850.254	12028.71
850.577	12032.1
850.9	11953.91
851.223	11896.96
851.546	11834.36
851.869	11705.55
852.192	11886.57
852.515	11734.03
852.838	11666.46
853.161	11693.12
853.483	11646.35
853.806	11594.37
854.129	11585.78
854.451	11493.58
854.774	11477.54
855.096	11437.31
855.419	11440.93
855.741	11406.8
856.063	11323.64
856.385	11294.04
856.708	11212.23
857.03	11234.15
857.352	11237.54
857.674	11211.33
857.996	11157.55
858.318	11120.94
858.64	11088.39
858.961	11054.5
859.283	10950.77
859.605	10899.7
859.926	11001.62
860.248	10941.73
860.57	10866.25
860.891	10920.26
861.212	10805.92
861.534	10810.21
861.855	10781.06
862.176	10794.17
862.498	10746.26
862.819	10722.75
863.14	10630.55
863.461	10711.68
863.782	10663.1
864.103	10676.88
864.424	10650.67
864.745	10593.27
865.065	10588.52
865.386	10603.66
865.707	10546.71
866.027	10549.43
866.348	10501.29
866.668	10524.79
866.989	10502.42
867.309	10375.42
867.63	10434.17
867.95	10385.36
868.27	10349.88
868.59	10408.86
868.91	10355.08
869.23	10365.93
869.55	10348.53
869.87	10382.2
870.19	10275.08
870.51	10284.35
870.83	10326.16
871.15	10212.49
871.469	10212.26
871.789	10255.87
872.109	10185.82
872.428	10144.01
872.748	10189.21
873.067	10123.45
873.386	10242.32
873.706	10118.48
874.025	10117.35
874.344	10057.01
874.663	10044.35
874.982	10025.15
875.301	9981.08
875.62	10007.52
875.939	9997.12
876.258	9951.25
876.577	9898.82
876.896	9943.34
877.214	9836.68
877.533	9967.29
877.852	9991.25
878.17	9888.43
878.489	9869.44
878.807	9847.3
879.125	9843
879.444	9754.87
879.762	9737.92
880.08	9732.72
880.398	9724.36
880.716	9773.18
881.034	9779.95
881.352	9711.48
881.67	9697.47
881.988	9669.45
882.306	9695.21
882.624	9593.29
882.941	9539.28
883.259	9514.42
883.577	9562.56
883.894	9477.36
884.212	9522.79
884.529	9488.89
884.846	9421.77
885.164	9395.33
885.481	9351.94
885.798	9411.6
886.115	9349.23
886.432	9331.6
886.75	9305.16
887.067	9319.63
887.383	9233.53
887.7	9258.16
888.017	9188.33
888.334	9189.24
888.651	9233.98
888.967	9172.06
889.284	9124.83
889.6	9066.75
889.917	9065.62
890.233	9050.71
890.55	9059.3
890.866	9046.64
891.182	8949.24
891.498	9052.52
891.815	8865.85
892.131	8878.06
892.447	8872.18
892.763	8811.84
893.079	8798.51
893.395	8832.86
893.71	8713.32
894.026	8692.07
894.342	8714.45
894.657	8681
894.973	8585.86
895.289	8649.81
895.604	8622.92
895.92	8514.23
896.235	8553.77
896.55	8540.89
896.865	8500.44
897.181	8403.04
897.496	8482.81
897.811	8420.22
898.126	8363.95
898.441	8388.13
898.756	8367.34
899.071	8226.55
899.386	8292.76
899.7	8209.37
900.015	8206.89
900.33	8161.24
900.644	8126.89
900.959	8146.55
901.273	8023.39
901.588	8051.19
901.902	7977.29
902.216	7973.67
902.531	7932.77
902.845	7920.57
903.159	7875.37
903.473	7880.8
903.787	7823.4
904.101	7795.83
904.415	7766
904.729	7724.87
905.042	7681.93
905.356	7659.78
905.67	7652.33
905.984	7664.98
906.297	7559.67
906.611	7635.83
906.924	7571.2
907.237	7490.98
907.551	7507.92
907.864	7440.58
908.177	7400.58
908.491	7479
908.804	7392.67
909.117	7275.84
909.43	7315.16
909.743	7248.04
910.056	7298.66
910.368	7217.99
910.681	7160.14
910.994	7154.71
911.307	7126.24
911.619	7070.65
911.932	7122.62
912.244	7017.32
912.557	7005.79
912.869	6924.44
913.181	6926.7
913.494	7005.79
913.806	6880.14
914.118	6876.75
914.43	6832.46
914.742	6865.91
915.054	6778.68
915.366	6790.88
915.678	6749.3
915.99	6680.15
916.302	6631.56
916.613	6627.27
916.925	6618
917.236	6653.94
917.548	6573.26
917.859	6565.58
918.171	6512.02
918.482	6518.8
918.794	6449.65
919.105	6480.38
919.416	6353.15
919.727	6372.59
920.038	6372.13
920.349	6315.87
920.66	6239.93
920.971	6298.01
921.282	6316.54
921.593	6250.1
921.903	6130.11
922.214	6145.47
922.525	6188.86
922.835	6112.93
923.146	6057.11
923.456	6098.47
923.767	6052.6
924.077	6021.86
924.387	6010.11
924.697	5988.64
925.008	5967.4
925.318	5881.3
925.628	5879.04
925.938	5882.43
926.248	5860.06
926.558	5834.3
926.867	5797.23
927.177	5744.81
927.487	5689.67
927.796	5669.1
928.106	5696.9
928.416	5686.95
928.725	5627.3
929.034	5621.42
929.344	5601.53
929.653	5595.88
929.962	5488.54
930.271	5519.05
930.581	5500.75
930.89	5495.1
931.199	5469.11
931.508	5426.62
931.817	5447.41
932.125	5451.25
932.434	5397.25
932.743	5353.18
933.051	5344.14
933.36	5311.6
933.669	5284.25
933.977	5256.46
934.286	5234.31
934.594	5216.91
934.902	5178.27
935.21	5167.42
935.519	5173.07
935.827	5125.39
936.135	5102.34
936.443	5053.3
936.751	5020.98
937.059	5052.4
937.367	5058.72
937.674	5012.17
937.982	5061.43
938.29	4929.23
938.597	4996.8
938.905	4882.91
939.213	4892.17
939.52	4849.01
939.827	4879.97
940.135	4882
940.442	4828.67
940.749	4815.79
941.056	4799.07
941.363	4755.23
941.67	4776.92
941.977	4674.78
942.284	4685.63
942.591	4694.21
942.898	4613.76
943.205	4668
943.511	4627.32
943.818	4618.06
944.125	4588.45
944.431	4554.33
944.738	4526.99
945.044	4517.27
945.35	4474.11
945.657	4505.29
945.963	4448.34
946.269	4372.87
946.575	4425.07
946.881	4364.05
947.187	4380.55
947.493	4374.22
947.799	4282.7
948.105	4348.69
948.41	4296.48
948.716	4298.29
949.022	4272.53
949.327	4258.97
949.633	4189.82
949.938	4216.03
950.244	4215.13
950.549	4149.37
950.854	4174
951.16	4142.59
951.465	4143.49
951.77	4084.29
952.075	4088.8
952.38	4051.07
952.685	4030.05
952.99	4058.3
953.294	3985.76
953.599	4031.41
953.904	3990.05
954.209	3940.11
954.513	3995.93
954.818	3927.91
955.122	3925.87
955.426	3912.99
955.731	3860.11
956.035	3803.39
956.339	3867.12
956.643	3820.56
956.948	3809.72
957.252	3802.26
957.556	3816.04
957.86	3747.57
958.163	3756.38
958.467	3758.87
958.771	3674.58
959.075	3739.44
959.378	3701.24
959.682	3694.69
959.985	3640.46
960.289	3609.95
960.592	3655.14
960.896	3607.24
961.199	3586.67
961.502	3578.54
961.805	3568.59
962.108	3544.64
962.411	3581.93
962.714	3566.11
963.017	3492.21
963.32	3498.54
963.623	3471.19
963.926	3458.31
964.228	3437.3
964.531	3431.65
964.833	3428.48
965.136	3343.06
965.438	3395.04
965.741	3381.03
966.043	3360.24
966.345	3314.59
966.648	3317.53
966.95	3328.82
967.252	3307.81
967.554	3274.36
967.856	3266.23
968.158	3261.26
968.46	3246.34
968.761	3236.17
969.063	3232.33
969.365	3186.68
969.666	3169.28
969.968	3174.93
970.269	3160.69
970.571	3142.62
970.872	3139.68
971.174	3124.31
971.475	3084.31
971.776	3068.27
972.077	3054.93
972.378	3038.21
972.679	3016.52
972.98	3058.1
973.281	3002.28
973.582	3004.54
973.883	2981.26
974.183	2982.85
974.484	2978.33
974.785	2926.58
975.085	2937.87
975.386	2951.66
975.686	2889.97
975.986	2885.9
976.287	2901.72
976.587	2871.44
976.887	2873.02
977.187	2892.68
977.487	2838.44
977.787	2807.03
978.087	2816.3
978.387	2819.01
978.687	2811.1
978.987	2741.27
979.286	2743.76
979.586	2762.96
979.885	2738.33
980.185	2718.45
980.484	2692.46
980.784	2681.16
981.083	2677.99
981.382	2701.95
981.682	2647.49
981.981	2649.07
982.28	2657.2
982.579	2611.1
982.878	2614.04
983.177	2605.23
983.475	2597.77
983.774	2592.12
984.073	2574.49
984.372	2569.52
984.67	2531.56
984.969	2562.29
985.267	2561.39
985.566	2531.56
985.864	2520.48
986.162	2482.97
986.461	2456.31
986.759	2466.93
987.057	2453.37
987.355	2461.73
987.653	2463.08
987.951	2408.17
988.249	2410.2
988.547	2415.85
988.844	2393.71
989.142	2402.52
989.44	2377.21
989.737	2356.2
990.035	2351
990.332	2328.85
990.63	2319.13
990.927	2319.81
991.224	2273.03
991.521	2261.73
991.819	2268.97
992.116	2245.46
992.413	2249.31
992.71	2238.01
993.006	2260.15
993.303	2232.13
993.6	2218.12
993.897	2224.22
994.193	2184.67
994.49	2172.7
994.787	2154.62
995.083	2169.31
995.379	2130.66
995.676	2130.66
995.972	2149.42
996.268	2146.03
996.565	2108.07
996.861	2096.31
997.157	2078.24
997.453	2043.89
997.749	2076.2
998.044	2071.91
998.34	2046.37
998.636	2042.53
998.932	2016.54
999.227	2002.98
999.523	2011.57
999.818	1990.1
1000.114	2002.76
1000.409	1974.06
1000.704	1959.82
1001	1962.31
1001.295	1964.79
1001.59	1943.1
1001.885	1933.61
1002.18	1906.04
1002.475	1922.76
1002.77	1888.41
1003.065	1902.42
1003.359	1882.76
1003.654	1871.69
1003.949	1854.97
1004.243	1861.07
1004.538	1876.66
1004.832	1833.95
1005.127	1831.69
1005.421	1767.96
1005.715	1785.36
1006.009	1791.01
1006.304	1784.23
1006.598	1770.67
1006.892	1769.54
1007.186	1769.09
1007.48	1767.51
1007.773	1737.68
1008.067	1731.58
1008.361	1707.4
1008.655	1707.17
1008.948	1688.64
1009.242	1684.12
1009.535	1661.52
1009.829	1637.34
1010.122	1654.74
1010.415	1656.1
1010.708	1611.81
1011.001	1612.71
1011.295	1624.24
1011.588	1643.9
1011.881	1605.71
1012.173	1582.2
1012.466	1563
1012.759	1597.35
1013.052	1575.42
1013.344	1560.06
1013.637	1518.93
1013.93	1520.06
1014.222	1551.47
1014.514	1513.73
1014.807	1515.54
1015.099	1524.8
1015.391	1476.22
1015.683	1480.96
1015.976	1479.83
1016.268	1481.42
1016.56	1457.69
1016.851	1467.63
1017.143	1443.9
1017.435	1444.13
1017.727	1412.72
1018.018	1438.71
1018.31	1387.41
1018.602	1390.8
1018.893	1372.27
1019.185	1375.66
1019.476	1359.16
1019.767	1376.11
1020.058	1358.48
1020.35	1331.36
1020.641	1318.03
1020.932	1334.08
1021.223	1308.09
1021.514	1341.08
1021.804	1274.19
1022.095	1300.63
1022.386	1294.3
1022.677	1272.61
1022.967	1287.07
1023.258	1274.19
1023.548	1258.82
1023.839	1206.39
1024.129	1256.79
1024.419	1225.6
1024.709	1227.86
1025	1214.3
1025.29	1208.2
1025.58	1196.9
1025.87	1186.51
1026.16	1165.04
1026.449	1171.59
1026.739	1170.92
1027.029	1162.78
1027.319	1182.44
1027.608	1160.97
1027.898	1150.8
1028.187	1130.24
1028.477	1123.01
1028.766	1106.74
1029.055	1105.83
1029.344	1117.36
1029.634	1089.11
1029.923	1066.96
1030.212	1088.66
1030.501	1089.56
1030.79	1070.13
1031.078	1068.77
1031.367	1050.92
1031.656	1045.72
1031.945	1019.51
1032.233	1026.29
1032.522	1027.19
1032.81	1036.91
1033.099	1002.33
1033.387	1018.38
1033.675	1006.63
1033.963	993.52
1034.251	995.55
1034.54	988.77
1034.828	962.33
1035.116	988.32
1035.403	971.82
1035.691	947.19
1035.979	942
1036.267	955.55
1036.554	953.97
1036.842	916.23
1037.129	920.3
1037.417	921.2
1037.704	915.1
1037.992	906.29
1038.279	907.65
1038.566	877.14
1038.853	877.14
1039.14	877.14
