Data from hue_120_FLMS001491_00062.txt Node
Date: Tue Feb 07 16:59:48 GMT 2017
User: dcchb
Spectrometer: FLMS00149
Trigger mode: 0
Integration Time (sec): 2.000000E-2
Scans to average: 10
Electric dark correction enabled: true
Nonlinearity correction enabled: false
Boxcar width: 0
XAxis mode: Wavelengths
Number of Pixels in Spectrum: 2048
>>>>>Begin Spectral Data<<<<<
341.393	0.45
341.776	0.45
342.16	0.45
342.543	-48.59
342.927	-62.15
343.31	-69.38
343.693	-77.96
344.077	-74.12
344.46	-61.69
344.843	-45.87
345.226	-48.59
345.61	-19.89
345.993	-16.04
346.376	-1.58
346.759	-0.9
347.142	18.3
347.525	43.61
347.908	73.44
348.291	85.2
348.674	93.1
349.057	102.37
349.44	148.02
349.823	151.86
350.206	169.26
350.588	188.24
350.971	227.79
351.354	219.43
351.737	248.58
352.119	256.94
352.502	271.18
352.884	268.24
353.267	282.25
353.65	294.23
354.032	315.02
354.414	341.91
354.797	318.41
355.179	327.9
355.562	326.55
355.944	333.78
356.326	346.66
356.709	359.99
357.091	355.7
357.473	333.78
357.855	327.9
358.238	333.78
358.62	356.37
359.002	353.21
359.384	370.39
359.766	369.48
360.148	353.89
360.53	346.66
360.912	358.41
361.294	351.18
361.676	348.24
362.057	346.43
362.439	336.26
362.821	346.88
363.203	329.03
363.584	321.35
363.966	348.69
364.348	343.27
364.729	310.5
365.111	315.7
365.493	331.29
365.874	337.62
366.256	331.97
366.637	326.32
367.019	328.35
367.4	324.29
367.781	332.87
368.163	331.52
368.544	334
368.925	323.16
369.306	320.9
369.688	345.98
370.069	320.44
370.45	311.4
370.831	336.04
371.212	341.01
371.593	329.03
371.974	327.45
372.355	303.49
372.736	328.58
373.117	335.13
373.498	332.42
373.879	325.87
374.26	330.61
374.641	327
375.021	338.75
375.402	348.92
375.783	333.78
376.163	333.55
376.544	327
376.925	348.47
377.305	330.39
377.686	343.49
378.066	346.66
378.447	326.09
378.827	315.25
379.208	331.52
379.588	351.63
379.968	355.92
380.349	357.73
380.729	331.97
381.109	355.47
381.489	369.03
381.87	354.57
382.25	368.13
382.63	350.5
383.01	379.43
383.39	370.61
383.77	351.63
384.15	369.03
384.53	377.84
384.91	354.34
385.29	390.5
385.67	358.63
386.049	367.45
386.429	350.95
386.809	375.13
387.189	380.55
387.568	368.8
387.948	375.13
388.328	387.11
388.707	396.6
389.087	362.48
389.466	363.15
389.846	378.97
390.225	369.93
390.605	370.84
390.984	368.13
391.363	367.22
391.743	381.46
392.122	402.7
392.501	376.71
392.881	399.76
393.26	390.27
393.639	395.02
394.018	414
394.397	389.82
394.776	411.29
395.155	388.24
395.534	411.06
395.913	414.45
396.292	410.16
396.671	418.52
397.05	400.44
397.429	407.9
397.808	421.91
398.186	411.06
398.565	426.66
398.944	424.62
399.323	416.49
399.701	414.68
400.08	412.64
400.458	425.3
400.837	426.43
401.215	412.19
401.594	405.41
401.972	437.5
402.351	413.1
402.729	452.64
403.107	454.9
403.486	469.37
403.864	454.45
404.242	425.53
404.62	448.8
404.999	451.97
405.377	448.58
405.755	445.86
406.133	447.45
406.511	454.23
406.889	483.6
407.267	476.15
407.645	472.53
408.023	503.04
408.401	472.76
408.779	449.71
409.156	497.84
409.534	500.1
409.912	498.29
410.29	484.51
410.667	492.87
411.045	498.07
411.422	499.87
411.8	516.6
412.178	514.11
412.555	508.69
412.933	489.93
413.31	532.42
413.687	540.32
414.065	530.61
414.442	547.56
414.819	512.08
415.197	545.97
415.574	564.05
415.951	567.67
416.328	546.65
416.705	564.05
417.082	571.28
417.46	566.76
417.837	576.26
418.214	562.25
418.591	564.5
418.967	566.99
419.344	581.68
419.721	565.18
420.098	573.09
420.475	587.56
420.852	591.17
421.228	604.5
421.605	582.13
421.982	610.38
422.358	623.94
422.735	607.89
423.111	609.7
423.488	633.88
423.864	602.02
424.241	642.92
424.617	641.34
424.994	641.57
425.37	647.44
425.746	649.47
426.123	657.38
426.499	654.22
426.875	661
427.251	664.84
427.627	676.37
428.003	692.41
428.379	682.47
428.756	688.57
429.132	711.85
429.507	705.52
429.883	705.74
430.259	702.81
430.635	731.96
431.011	712.52
431.387	737.16
431.763	754.1
432.138	752.75
432.514	758.4
432.89	756.59
433.265	775.12
433.641	792.52
434.016	792.07
434.392	812.41
434.767	802.46
435.143	808.11
435.518	809.92
435.894	825.06
436.269	818.06
436.644	834.55
437.02	822.8
437.395	853.99
437.77	848.57
438.145	861.67
438.52	891.05
438.895	852.86
439.271	876.14
439.646	911.84
440.021	909.13
440.395	882.91
440.77	891.05
441.145	929.69
441.52	931.5
441.895	915.68
442.27	918.85
442.645	942.8
443.019	921.78
443.394	940.99
443.769	969.92
444.143	979.18
444.518	979.64
444.892	944.61
445.267	965.17
445.641	986.64
446.016	981.9
446.39	980.99
446.764	990.03
447.139	988
447.513	1016.24
447.887	1020.31
448.262	1002.46
448.636	1037.49
449.01	1042.46
449.384	1051.72
449.758	1051.27
450.132	1064.83
450.506	1074.1
450.88	1070.03
451.254	1074.77
451.628	1100.31
452.002	1118.39
452.376	1126.07
452.75	1126.3
453.123	1136.92
453.497	1127.88
453.871	1149.35
454.244	1171.49
454.618	1198.39
454.992	1200.87
455.365	1194.54
455.739	1226.86
456.112	1239.97
456.486	1236.35
456.859	1255.33
457.232	1277.93
457.606	1271.6
457.979	1314.32
458.352	1325.61
458.725	1331.04
459.099	1373.52
459.472	1389.12
459.845	1380.53
460.218	1411.26
460.591	1418.72
460.964	1463.01
461.337	1457.36
461.71	1464.14
462.083	1498.04
462.456	1506.4
462.829	1526.06
463.201	1543.69
463.574	1550.02
463.947	1597.02
464.32	1610.35
464.692	1632.95
465.065	1635.44
465.438	1698.71
465.81	1714.98
466.183	1698.03
466.555	1759.5
466.928	1788.88
467.3	1755.66
467.672	1807.41
468.045	1865.26
468.417	1859.39
468.789	1906.39
469.161	1909.1
469.534	1962.66
469.906	2025.71
470.278	2019.83
470.65	2058.7
471.022	2129.89
471.394	2162.43
471.766	2158.59
472.138	2208.53
472.51	2236.78
472.882	2320.84
473.253	2373.95
473.625	2418.02
473.997	2432.93
474.369	2515.64
474.74	2530.1
475.112	2646.71
475.484	2674.73
475.855	2729.65
476.227	2758.57
476.598	2851.45
476.97	2917.21
477.341	2961.05
477.713	3051.22
478.084	3125.12
478.455	3237.65
478.827	3298.44
479.198	3426.8
479.569	3452.11
479.94	3555.84
480.311	3624.54
480.682	3760.35
481.053	3899.33
481.424	3950.86
481.795	4043.96
482.166	4151.53
482.537	4247.12
482.908	4418.19
483.279	4493.22
483.65	4613.44
484.021	4745.19
484.391	4865.41
484.762	4969.59
485.133	5074.89
485.503	5158.51
485.874	5341.55
486.244	5478.05
486.615	5590.14
486.985	5733.86
487.356	5879.62
487.726	6039.16
488.097	6181.08
488.467	6345.6
488.837	6490.45
489.207	6696.55
489.578	6810.89
489.948	6972.92
490.318	7140.83
490.688	7235.52
491.058	7411.1
491.428	7508.73
491.798	7698.78
492.168	7937.42
492.538	8006.12
492.908	8166.34
493.278	8364.53
493.648	8429.16
494.017	8654.91
494.387	8767.45
494.757	8911.63
495.126	9091.51
495.496	9184.84
495.866	9339.87
496.235	9460.99
496.605	9639.29
496.974	9753.42
497.344	9909.8
497.713	10034.99
498.082	10143.01
498.452	10244.93
498.821	10420.52
499.19	10473.4
499.559	10686.5
499.928	10789.55
500.298	10910.9
500.667	11082.65
501.036	11108.41
501.405	11184.56
501.774	11390.21
502.143	11381.17
502.512	11508.85
502.88	11685.12
503.249	11672.24
503.618	11900.7
503.987	11923.3
504.356	12042.17
504.724	12086.01
505.093	12220.47
505.462	12291.43
505.83	12414.14
506.199	12524.64
506.567	12738.2
506.936	12745.2
507.304	12899.77
507.672	12918.3
508.041	12932.99
508.409	13164.17
508.777	13189.71
509.145	13252.53
509.514	13248.92
509.882	13398.97
510.25	13400.78
510.618	13510.61
510.986	13441.45
511.354	13683.48
511.722	13781.56
512.09	13830.82
512.458	13798.51
512.826	13993.98
513.193	14046.64
513.561	14107.2
513.929	14139.52
514.297	14285.95
514.664	14325.05
515.032	14388.77
515.4	14477.59
515.767	14467.42
516.135	14607.07
516.502	14461.77
516.869	14713.29
517.237	14703.57
517.604	14643.68
517.972	14810.68
518.339	14868.54
518.706	14840.51
519.073	14813.85
519.44	14883.68
519.808	14994.86
520.175	15050.9
520.542	15157.12
520.909	15163.22
521.276	15135.42
521.643	15351.69
522.009	15300.16
522.376	15325.7
522.743	15467.84
523.11	15529.99
523.477	15689.76
523.843	15592.13
524.21	15764.78
524.577	15798.23
524.943	15863.31
525.31	15881.16
525.676	16039.35
526.043	15914.16
526.409	15979.47
526.776	16092.68
527.142	16038.22
527.508	16082.29
527.874	16163.64
528.241	16180.82
528.607	16159.35
528.973	16282.96
529.339	16233.47
529.705	16360.7
530.071	16432.79
530.437	16473.47
530.803	16396.63
531.169	16372.9
531.535	16300.59
531.901	16299.01
532.267	16358.89
532.632	16331.55
532.998	16381.26
533.364	16367.93
533.73	16387.37
534.095	16441.6
534.461	16414.48
534.826	16381.26
535.192	16416.29
535.557	16480.92
535.923	16298.1
536.288	16423.52
536.653	16370.64
537.019	16321.6
537.384	16381.94
537.749	16328.61
538.114	16348.04
538.479	16259.69
538.845	16274.83
539.21	16195.73
539.575	16221.49
539.94	16233.92
540.305	16305.33
540.67	16195.28
541.034	16212.68
541.399	16189.18
541.764	16101.27
542.129	16080.93
542.494	16128.62
542.858	15981.05
543.223	16082.51
543.587	16051.33
543.952	15904.44
544.316	15986.7
544.681	15863.31
545.045	15913.48
545.41	15862.86
545.774	15739.93
546.138	15761.39
546.503	15764.56
546.867	15736.76
547.231	15803.2
547.595	15694.95
547.959	15792.13
548.324	15688.18
548.688	15671.23
549.052	15613.37
549.416	15592.13
549.779	15504
550.143	15523.21
550.507	15486.37
550.871	15466.03
551.235	15400.27
551.599	15483.21
551.962	15435.07
552.326	15493.15
552.689	15501.29
553.053	15296.55
553.417	15411.35
553.78	15460.61
554.143	15347.85
554.507	15321.63
554.87	15430.33
555.234	15490.21
555.597	15337.68
555.96	15365.47
556.323	15302.65
556.686	15160.73
557.05	15363.21
557.413	15164.8
557.776	15294.29
558.139	15337
558.502	15275.3
558.865	15249.54
559.228	15326.83
559.59	15288.41
559.953	15311.24
560.316	15405.24
560.679	15291.12
561.041	15298.13
561.404	15322.31
561.767	15373.38
562.129	15257
562.492	15443.21
562.854	15323.21
563.217	15287.96
563.579	15363.21
563.941	15377.67
564.304	15452.02
564.666	15444.11
565.028	15476.88
565.39	15485.47
565.753	15639.36
566.115	15548.74
566.477	15630.32
566.839	15563.66
567.201	15576.99
567.563	15632.36
567.925	15678.23
568.287	15678.68
568.648	15692.47
569.01	15698.8
569.372	15750.55
569.734	15726.37
570.095	15725.01
570.457	15785.35
570.819	15787.83
571.18	15764.11
571.542	15823.54
571.903	15735.63
572.265	15782.86
572.626	15848.85
572.987	15843.65
573.349	15913.48
573.71	15908.51
574.071	15938.79
574.432	15923.65
574.794	16001.39
575.155	15870.77
575.516	15908.73
575.877	16020.37
576.238	15983.08
576.599	16098.79
576.96	15992.8
577.32	16007.94
577.681	16031.89
578.042	16099.24
578.403	16000.26
578.763	16082.97
579.124	16038
579.485	16053.82
579.845	16163.64
580.206	16091.78
580.566	16128.16
580.927	16040.03
581.287	16209.07
581.648	16026.92
582.008	16122.06
582.368	16008.62
582.728	16113.02
583.089	15987.83
583.449	16042.29
583.809	16037.32
584.169	16051.1
584.529	16038.9
584.889	16118.22
585.249	15929.3
585.609	15951.44
585.969	16003.2
586.329	15966.36
586.688	15964.1
587.048	15932.69
587.408	15881.16
587.768	15932.69
588.127	15975.4
588.487	15918.68
588.846	15970.65
589.206	15880.71
589.565	15919.36
589.925	15972.01
590.284	15917.77
590.643	15920.94
591.003	15962.74
591.362	15976.08
591.721	15858.57
592.08	15845.23
592.44	15933.14
592.799	15888.62
593.158	15834.61
593.517	15819.25
593.876	15807.49
594.235	15826.7
594.593	15729.53
594.952	15795.97
595.311	15831.9
595.67	15691.79
596.029	15868.51
596.387	15895.85
596.746	15827.15
597.104	15835.52
597.463	15731.56
597.822	15813.6
598.18	15747.16
598.538	15736.99
598.897	15829.64
599.255	15639.14
599.613	15901.73
599.972	15829.41
600.33	15827.61
600.688	15835.52
601.046	15806.14
601.404	15866.93
601.762	15872.58
602.12	15938.56
602.478	15925
602.836	15925.91
603.194	15790.32
603.552	15797.1
603.91	15791.22
604.268	15830.09
604.625	15768.17
604.983	15854.27
605.341	15723.43
605.698	15839.81
606.056	15848.17
606.413	15795.52
606.771	15905.57
607.128	16002.52
607.485	15803.43
607.843	15715.74
608.2	15930.65
608.557	15927.26
608.914	15912.35
609.272	15914.38
609.629	15981.73
609.986	16033.25
610.343	15994.16
610.7	16030.99
611.057	16108.73
611.414	16048.62
611.771	16034.15
612.127	16037.77
612.484	16060.37
612.841	16011.78
613.198	15982.63
613.554	16090.88
613.911	16105.79
614.267	16067.37
614.624	16084.55
614.98	16106.24
615.337	16162.74
615.693	16119.58
616.05	16117.32
616.406	16218.1
616.762	16129.97
617.118	16208.61
617.475	16171.33
617.831	16247.71
618.187	16282.96
618.543	16265.11
618.899	16390.3
619.255	16287.48
619.611	16317.54
619.967	16299.46
620.323	16388.95
620.678	16405.44
621.034	16286.35
621.39	16279.35
621.746	16328.84
622.101	16496.29
622.457	16320.7
622.812	16296.29
623.168	16359.12
623.523	16415.84
623.879	16353.92
624.234	16299.68
624.589	16449.96
624.945	16348.27
625.3	16384.65
625.655	16292
626.01	16422.17
626.365	16382.39
626.72	16373.81
627.075	16364.09
627.43	16308.5
627.785	16295.39
628.14	16346.69
628.495	16297.42
628.85	16340.14
629.205	16262.62
629.559	16363.86
629.914	16208.84
630.269	16263.98
630.623	16179.24
630.978	16212.91
631.332	16288.39
631.687	16330.87
632.041	16152.8
632.396	16160.48
632.75	16112.12
633.104	16088.39
633.459	16081.84
633.813	16031.22
634.167	16078.9
634.521	16007.04
634.875	16054.27
635.229	16016.75
635.583	15903.31
635.937	15964.78
636.291	15936.76
636.645	15871.45
636.999	15875.06
637.352	15940.6
637.706	15839.58
638.06	15893.59
638.413	15880.26
638.767	15791
639.121	15820.83
639.474	15791.68
639.828	15749.42
640.181	15729.08
640.534	15765.69
640.888	15760.49
641.241	15710.1
641.594	15666.25
641.947	15727.72
642.301	15688.63
642.654	15658.57
643.007	15730.66
643.36	15755.52
643.713	15652.24
644.066	15728.17
644.419	15661.06
644.771	15473.04
645.124	15423.32
645.477	15350.1
645.83	15251.8
646.182	15125.93
646.535	15184.23
646.888	15173.61
647.24	15043.9
647.593	15050.68
647.945	15121.64
648.298	15018.81
648.65	15097.46
649.002	15010.9
649.355	15066.04
649.707	15116.44
650.059	15097.46
650.411	15346.72
650.763	15322.99
651.115	15558.23
651.467	15431.68
651.819	15500.61
652.171	15433.04
652.523	15421.97
652.875	15361.4
653.227	15346.26
653.578	15476.2
653.93	15430.78
654.282	15335.87
654.633	15377
654.985	15388.97
655.337	15368.18
655.688	15325.02
656.039	15500.16
656.391	15360.5
656.742	15430.33
657.094	15426.49
657.445	15481.85
657.796	15358.24
658.147	15487.28
658.498	15434.85
658.849	15420.61
659.2	15387.39
659.551	15365.25
659.902	15429.42
660.253	15280.05
660.604	15470.1
660.955	15378.35
661.306	15414.51
661.656	15429.2
662.007	15441.18
662.358	15438.69
662.708	15553.94
663.059	15391.69
663.409	15371.57
663.76	15501.74
664.11	15445.7
664.461	15437.56
664.811	15507.16
665.161	15414.74
665.511	15451.8
665.862	15431.91
666.212	15392.36
666.562	15540.61
666.912	15455.19
667.262	15471.91
667.612	15457.22
667.962	15473.49
668.312	15366.6
668.662	15452.02
669.011	15380.84
669.361	15374.06
669.711	15440.72
670.06	15358.69
670.41	15374.74
670.76	15364.12
671.109	15408.41
671.459	15371.35
671.808	15294.97
672.157	15403.21
672.507	15336.32
672.856	15383.1
673.205	15303.1
673.554	15323.44
673.904	15236.21
674.253	15370.44
674.602	15254.29
674.951	15109.89
675.3	14979.49
675.649	15221.75
675.998	15262.65
676.346	15113.27
676.695	15240.96
677.044	15104.24
677.393	15139.71
677.741	15252.71
678.09	15192.82
678.438	15075.31
678.787	15070.56
679.135	15098.81
679.484	14986.5
679.832	15041.86
680.181	14832.6
680.529	14976.56
680.877	15017.01
681.225	14909.89
681.573	14990.57
681.922	14869.44
682.27	14838.25
682.618	14859.72
682.966	14738.82
683.314	14734.75
683.661	14686.85
684.009	14717.58
684.357	14681.65
684.705	14659.05
685.053	14702.44
685.4	14615.89
685.748	14524.14
686.095	14547.87
686.443	14479.39
686.79	14467.64
687.138	14481.43
687.485	14416.34
687.832	14479.85
688.18	14446.85
688.527	14219.97
688.874	14221.32
689.221	14180.64
689.568	14179.06
689.915	14205.28
690.262	14127.99
690.609	14074.88
690.956	14047.77
691.303	13968.45
691.65	13876.02
691.997	13983.81
692.344	13862.69
692.69	13836.02
693.037	13832.86
693.383	13715.8
693.73	13802.8
694.077	13628.79
694.423	13702.92
694.769	13610.72
695.116	13599.19
695.462	13568.23
695.808	13460.44
696.155	13484.39
696.501	13366.65
696.847	13426.77
697.193	13351.51
697.539	13395.35
697.885	13252.08
698.231	13177.05
698.577	13115.14
698.923	13122.14
699.269	13072.42
699.614	12997.17
699.96	13053.89
700.306	12953.33
700.651	12825.2
700.997	12788.59
701.342	12774.81
701.688	12748.14
702.033	12703.85
702.379	12623.62
702.724	12673.57
703.069	12669.27
703.415	12492.33
703.76	12469.5
704.105	12458.66
704.45	12442.16
704.795	12365.1
705.14	12241.03
705.485	12248.72
705.83	12211.88
706.175	12216.4
706.52	12135.27
706.865	12139.34
707.209	12100.25
707.554	12030.19
707.899	12058.44
708.243	12025.9
708.588	12012.57
708.932	11854.83
709.277	11811.21
709.621	11870.87
709.966	11853.25
710.31	11819.58
710.654	11716.3
710.998	11734.83
711.342	11751.1
711.687	11692.57
712.031	11594.5
712.375	11587.27
712.719	11650.77
713.063	11614.38
713.407	11564.67
713.75	11534.16
714.094	11496.42
714.438	11489.87
714.782	11435.41
715.125	11394.5
715.469	11413.26
715.812	11372.36
716.156	11284.9
716.499	11350.66
716.843	11346.82
717.186	11281.96
717.53	11294.62
717.873	11276.54
718.216	11317.89
718.559	11185.02
718.902	11121.97
719.246	11156.77
719.589	11137.79
719.932	11064.57
720.275	11134.62
720.617	11091.01
720.96	11058.47
721.303	11095.08
721.646	11087.84
721.989	10945.7
722.331	11109.76
722.674	11082.65
723.016	11080.84
723.359	11041.97
723.701	11020.73
724.044	11031.57
724.386	10905.02
724.729	10949.77
725.071	10978.02
725.413	10933.5
725.755	10938.02
726.097	10868.41
726.439	10837
726.782	10885.14
727.124	10902.31
727.465	10873.16
727.807	10869.54
728.149	10842.65
728.491	10849.43
728.833	10786.16
729.175	10805.82
729.516	10834.52
729.858	10804.69
730.199	10803.33
730.541	10771.47
730.882	10818.02
731.224	10787.74
731.565	10725.82
731.906	10788.64
732.248	10764.24
732.589	10708.42
732.93	10693.28
733.271	10651.25
733.612	10734.18
733.953	10722.88
734.294	10641.3
734.635	10625.03
734.976	10710
735.317	10575.99
735.658	10662.54
735.999	10685.37
736.339	10656.44
736.68	10750
737.021	10709.55
737.361	10690.11
737.702	10709.77
738.042	10696.22
738.383	10675.43
738.723	10743.67
739.063	10737.12
739.404	10739.83
739.744	10769.66
740.084	10716.55
740.424	10704.13
740.764	10767.85
741.104	10804.01
741.444	10812.37
741.784	10782.77
742.124	10794.74
742.464	10761.3
742.804	10868.41
743.143	10890.79
743.483	10901.86
743.823	10887.62
744.162	10917.68
744.502	10972.37
744.841	10923.1
745.181	11029.54
745.52	10992.71
745.86	11093.04
746.199	11107.28
746.538	11168.52
746.877	11213.72
747.216	11273.83
747.556	11245.35
747.895	11318.35
748.234	11330.1
748.573	11417.55
748.911	11525.12
749.25	11582.75
749.589	11672.01
749.928	11702.07
750.267	11819.35
750.605	11783.64
750.944	11871.55
751.283	11951.78
751.621	12122.62
751.96	12170.75
752.298	12308.38
752.636	12321.48
752.975	12465.43
753.313	12471.76
753.651	12669.72
753.989	12725.32
754.327	12839.66
754.666	12909.94
755.004	13089.15
755.342	13245.3
755.679	13365.07
756.017	13490.94
756.355	13655.23
756.693	13757.15
757.031	13998.05
757.368	13963.47
757.706	14212.51
758.044	14294.09
758.381	14456.34
758.719	14652.5
759.056	14870.34
759.394	14977.91
759.731	15009.1
760.068	15294.74
760.405	15328.64
760.743	15535.41
761.08	15750.55
761.417	15817.66
761.754	16052.69
762.091	16222.85
762.428	16342.4
762.765	16489.96
763.102	16660.13
763.438	16874.81
763.775	16936.28
764.112	17180.57
764.449	17392.76
764.785	17473.66
765.122	17562.48
765.458	17743.94
765.795	17991.39
766.131	18068.68
766.467	18138.51
766.804	18289.01
767.14	18352.29
767.476	18622.56
767.812	18647.87
768.148	18893.06
768.485	18881.31
768.821	18935.77
769.157	19164.69
769.492	19296.44
769.828	19410.79
770.164	19358.59
770.5	19505.02
770.836	19597.45
771.171	19707.05
771.507	19749.99
771.842	19815.3
772.178	19868.18
772.513	20010.1
772.849	20102.3
773.184	20112.47
773.519	20232.46
773.855	20300.71
774.19	20257.55
774.525	20359.24
774.86	20406.47
775.195	20543.87
775.53	20527.82
775.865	20567.59
776.2	20480.59
776.535	20466.13
776.87	20602.85
777.205	20586.35
777.539	20460.7
777.874	20662.51
778.209	20654.6
778.543	20621.6
778.878	20614.37
779.212	20688.5
779.547	20601.94
779.881	20733.92
780.215	20711.55
780.55	20816.18
780.884	20624.32
781.218	20620.7
781.552	20696.63
781.886	20690.08
782.22	20678.1
782.554	20598.78
782.888	20594.94
783.222	20583.41
783.556	20477.43
783.889	20536.86
784.223	20338.22
784.557	20359.92
784.89	20573.24
785.224	20393.81
785.557	20352.69
785.891	20337.32
786.224	20254.83
786.558	20378.9
786.891	20198.34
787.224	20238.11
787.557	20193.14
787.891	20242.86
788.224	20223.65
788.557	20262.29
788.89	20142.3
789.223	20169.87
789.556	20147.49
789.888	19949.31
790.221	19993.15
790.554	19829.54
790.887	19871.57
791.219	19850.33
791.552	19877.44
791.884	19757.45
792.217	19659.6
792.549	19742.98
792.882	19549.99
793.214	19536.89
793.546	19614.85
793.879	19441.07
794.211	19349.1
794.543	19531.92
794.875	19460.51
795.207	19538.02
795.539	19369.66
795.871	19308.19
796.203	19143.9
796.535	19191.59
796.867	19102.55
797.198	19185.71
797.53	19046.5
797.862	19041.76
798.193	19081.31
798.525	18930.35
798.856	18970.57
799.188	18766.06
799.519	18725.16
799.85	18690.58
800.182	18740.52
800.513	18607.42
800.844	18634.99
801.175	18629.34
801.506	18614.2
801.837	18524.71
802.168	18344.6
802.499	18421.89
802.83	18295.79
803.161	18250.14
803.491	18307.54
803.822	18413.3
804.153	18174.66
804.483	18108.45
804.814	18088.34
805.145	17945.74
805.475	17999.75
805.805	17969.47
806.136	17803.83
806.466	17938.96
806.796	17804.5
807.126	17762.24
807.457	17724.28
807.787	17754.11
808.117	17649.93
808.447	17661.23
808.777	17654
809.107	17530.61
809.436	17473.66
809.766	17407.45
810.096	17470.28
810.426	17334.01
810.755	17266.66
811.085	17171.75
811.414	17257.63
811.744	17240.22
812.073	17093.11
812.403	17129.49
812.732	17066.67
813.061	17124.3
813.39	16984.19
813.719	16965.43
814.049	16972.44
814.378	16938.09
814.707	16934.47
815.036	16880.91
815.365	16824.42
815.693	16715.49
816.022	16711.43
816.351	16610.41
816.68	16591.43
817.008	16637.3
817.337	16517.53
817.665	16492
817.994	16504.42
818.322	16482.28
818.651	16388.04
818.979	16364.77
819.307	16381.26
819.636	16366.58
819.964	16286.35
820.292	16357.76
820.62	16368.84
820.948	16276.86
821.276	16219.46
821.604	16231.66
821.932	16287.48
822.259	16380.59
822.587	16275.73
822.915	16209.29
823.243	16304.88
823.57	16262.62
823.898	16245.9
824.225	16180.14
824.553	16163.64
824.88	16107.37
825.207	16219.46
825.535	16233.47
825.862	16234.38
826.189	16264.66
826.516	16223.3
826.843	16305.11
827.17	16234.15
827.497	16282.74
827.824	16317.54
828.151	16321.15
828.478	16212.23
828.805	16345.78
829.131	16305.11
829.458	16183.98
829.785	16155.96
830.111	16232.12
830.438	16333.13
830.764	16271.89
831.09	16242.96
831.417	16156.64
831.743	16163.87
832.069	16263.08
832.395	16126.36
832.722	16207.48
833.048	16192.34
833.374	16138.56
833.7	16099.92
834.026	16138.78
834.351	16106.24
834.677	16109.86
835.003	16146.92
835.329	16029.41
835.654	16038.22
835.98	15943.54
836.306	16087.26
836.631	16020.37
836.956	16073.93
837.282	16029.41
837.607	15912.58
837.932	15866.7
838.258	15823.54
838.583	15830.54
838.908	15793.71
839.233	15790.32
839.558	15777.89
839.883	15749.19
840.208	15727.04
840.533	15755.29
840.858	15623.77
841.182	15647.5
841.507	15645.69
841.832	15586.71
842.156	15494.96
842.481	15541.06
842.805	15573.38
843.13	15426.71
843.454	15450.67
843.778	15355.08
844.103	15402.98
844.427	15358.92
844.751	15312.14
845.075	15233.05
845.399	15254.29
845.723	15154.86
846.047	15149.43
846.371	15049.55
846.695	15006.16
847.019	14838.48
847.343	14819.27
847.666	14711.25
847.99	14695.66
848.313	14698.14
848.637	14598.03
848.96	14654.3
849.284	14603.91
849.607	14450.69
849.931	14381.09
850.254	14371.37
850.577	14255.67
850.9	14217.71
851.223	14264.48
851.546	14107.88
851.869	13980.88
852.192	14007.99
852.515	13978.84
852.838	13932.52
853.161	13908.56
853.483	13783.82
853.806	13795.57
854.129	13721.45
854.451	13720.32
854.774	13567.1
855.096	13578.63
855.419	13568.68
855.741	13553.09
856.063	13438.29
856.385	13390.83
856.708	13372.98
857.03	13335.24
857.352	13324.85
857.674	13244.85
857.996	13179.77
858.318	13149.03
858.64	13132.54
858.961	13054.8
859.283	13045.08
859.605	13016.15
859.926	13060.22
860.248	12936.83
860.57	12971.41
860.891	12870.4
861.212	12835.14
861.534	12820
861.855	12732.77
862.176	12779.1
862.498	12783.39
862.819	12731.19
863.14	12697.52
863.461	12681.25
863.782	12615.71
864.103	12573.45
864.424	12542.72
864.745	12587.69
865.065	12516.51
865.386	12491.65
865.707	12503.63
866.027	12516.73
866.348	12509.28
866.668	12392.44
866.989	12409.39
867.309	12348.15
867.63	12361.03
867.95	12332.11
868.27	12245.33
868.59	12236.74
868.91	12294.82
869.23	12277.42
869.55	12215.95
869.87	12297.08
870.19	12225.67
870.51	12192
870.83	12204.88
871.15	12200.81
871.469	12106.8
871.789	12154.48
872.109	12159.91
872.428	12066.8
872.748	12098.89
873.067	12053.92
873.386	12064.99
873.706	12001.72
874.025	11969.4
874.344	11906.13
874.663	11975.73
874.982	11937.09
875.301	11919.23
875.62	11815.51
875.939	11790.88
876.258	11860.71
876.577	11783.42
876.896	11821.84
877.214	11720.37
877.533	11768.5
877.852	11702.07
878.17	11703.87
878.489	11719.92
878.807	11704.1
879.125	11680.14
879.444	11593.82
879.762	11599.02
880.08	11587.04
880.398	11561.5
880.716	11568.74
881.034	11476.99
881.352	11556.31
881.67	11554.95
881.988	11429.76
882.306	11429.08
882.624	11349.31
882.941	11389.53
883.259	11309.99
883.577	11251.91
883.894	11279.7
884.212	11259.82
884.529	11277.22
884.846	11182.76
885.164	11170.78
885.481	11142.76
885.798	11128.29
886.115	11111.57
886.432	11115.87
886.75	10995.42
887.067	11070.67
887.383	10987.28
887.7	11006.49
888.017	11010.33
888.334	10937.11
888.651	10897.34
888.967	10916.78
889.284	10869.32
889.6	10851.92
889.917	10767.4
890.233	10730.57
890.55	10679.04
890.866	10649.89
891.182	10663
891.498	10661.64
891.815	10585.03
892.131	10550.91
892.447	10525.37
892.763	10492.38
893.079	10453.28
893.395	10440.86
893.71	10423.91
894.026	10373.96
894.342	10390.69
894.657	10274.53
894.973	10283.57
895.289	10213.74
895.604	10190.47
895.92	10180.75
896.235	10145.5
896.55	10109.11
896.865	10140.75
897.181	10049.23
897.496	10059.4
897.811	9969.68
898.126	9931.04
898.441	9866.86
898.756	9887.65
899.071	9802.45
899.386	9765.17
899.7	9739.63
900.015	9654.66
900.33	9632.06
900.644	9608.33
900.959	9649.46
901.273	9539.86
901.588	9595.23
901.902	9515
902.216	9430.26
902.531	9446.76
902.845	9379.64
903.159	9333.77
903.473	9326.53
903.787	9349.36
904.101	9198.63
904.415	9285.86
904.729	9132.87
905.042	9192.98
905.356	9086.99
905.67	9067.33
905.984	9031.63
906.297	8957.28
906.611	8961.12
906.924	9036.82
907.237	8928.58
907.551	8899.2
907.864	8870.28
908.177	8801.8
908.491	8807.68
908.804	8739.66
909.117	8733.33
909.43	8642.48
909.743	8556.16
910.056	8540.79
910.368	8495.82
910.681	8559.55
910.994	8466.9
911.307	8534.69
911.619	8387.35
911.932	8398.88
912.244	8356.16
912.557	8348.93
912.869	8282.04
913.181	8245.88
913.494	8267.58
913.806	8112.33
914.118	8110.52
914.43	8142.84
914.742	8099.67
915.054	7994.82
915.366	8040.01
915.678	7990.07
915.99	7936.06
916.302	7916.63
916.613	7835.95
916.925	7843.64
917.236	7836.63
917.548	7741.27
917.859	7757.08
918.171	7752.34
918.482	7694.49
918.794	7656.75
919.105	7634.83
919.416	7599.57
919.727	7569.97
920.038	7563.42
920.349	7492.91
920.66	7445.23
920.971	7452.91
921.282	7403.42
921.593	7360.48
921.903	7312.58
922.214	7273.03
922.525	7294.27
922.835	7281.39
923.146	7226.25
923.456	7204.56
923.767	7128.85
924.077	7138.57
924.387	7097.21
924.697	7019.02
925.008	7028.06
925.318	6954.39
925.628	7031.45
925.938	6976.31
926.248	6902.64
926.558	6907.61
926.867	6855.19
927.177	6816.32
927.487	6823.1
927.796	6749.65
928.106	6747.62
928.416	6735.19
928.725	6722.08
929.034	6655.19
929.344	6721.63
929.653	6628.75
929.962	6504.69
930.271	6547.17
930.581	6527.29
930.89	6479.15
931.199	6464.01
931.508	6478.7
931.817	6435.09
932.125	6487.29
932.434	6387.18
932.743	6342.88
933.051	6323
933.36	6235.99
933.669	6252.26
933.977	6232.38
934.286	6273.96
934.594	6213.62
934.902	6143.34
935.21	6146.28
935.519	6122.1
935.827	6085.72
936.135	6024.47
936.443	6007.98
936.751	5931.82
937.059	5934.53
937.367	5952.39
937.674	5956.45
937.982	5910.13
938.29	5870.58
938.597	5860.18
938.905	5799.17
939.213	5819.06
939.52	5777.7
939.827	5778.38
940.135	5738.61
940.442	5727.76
940.749	5694.77
941.056	5700.42
941.363	5624.26
941.67	5628.1
941.977	5547.88
942.284	5541.1
942.591	5524.83
942.898	5523.47
943.205	5540.65
943.511	5453.87
943.818	5487.09
944.125	5389.01
944.431	5397.82
944.738	5366.86
945.044	5382.23
945.35	5342.91
945.657	5305.62
945.963	5332.52
946.269	5271.73
946.575	5225.85
946.881	5191.95
947.187	5185.4
947.493	5121.9
947.799	5126.19
948.105	5149.02
948.41	5065.18
948.716	5092.3
949.022	5070.38
949.327	5038.51
949.633	4961
949.938	5025.18
950.244	4931.17
950.549	4948.12
950.854	4911.06
951.16	4906.76
951.465	4902.7
951.77	4850.27
952.075	4904.28
952.38	4812.98
952.685	4868.35
952.99	4788.12
953.294	4803.04
953.599	4734.11
953.904	4715.58
954.209	4701.12
954.513	4732.53
954.818	4672.87
955.122	4646.66
955.426	4654.11
955.731	4605.3
956.035	4574.12
956.339	4554.91
956.643	4550.61
956.948	4483.5
957.252	4486.66
957.556	4467.68
957.86	4472.42
958.163	4453.22
958.467	4435.14
958.771	4435.59
959.075	4394.01
959.378	4387
959.682	4333.22
959.985	4363.5
960.289	4270.85
960.592	4267.91
960.896	4327.12
961.199	4255.71
961.502	4243.05
961.805	4238.53
962.108	4204.64
962.411	4173.45
962.714	4179.78
963.017	4155.37
963.32	4157.4
963.623	4071.31
963.926	4080.57
964.228	4065.43
964.531	4067.24
964.833	4088.25
965.136	4020.01
965.438	4036.96
965.741	3980.23
966.043	4006.22
966.345	3993.12
966.648	3914.93
966.95	3953.12
967.252	3856.62
967.554	3873.8
967.856	3886
968.158	3805.32
968.46	3823.4
968.761	3795.83
969.063	3756.06
969.365	3775.95
969.666	3780.92
969.968	3728.26
970.269	3751.54
970.571	3737.3
970.872	3714.7
971.174	3695.95
971.475	3658.89
971.776	3674.03
972.077	3660.69
972.378	3607.36
972.679	3582.28
972.98	3583.86
973.281	3547.93
973.582	3544.77
973.883	3543.18
974.183	3522.85
974.484	3520.36
974.785	3509.96
975.085	3530.3
975.386	3518.1
975.686	3461.83
975.986	3417.09
976.287	3438.78
976.587	3381.15
976.887	3403.07
977.187	3366.69
977.487	3383.19
977.787	3315.85
978.087	3304.77
978.387	3343.41
978.687	3329.4
978.987	3272.46
979.286	3258.45
979.586	3267.48
979.885	3208.5
980.185	3230.42
980.484	3231.78
980.784	3209.41
981.083	3164.89
981.382	3164.21
981.682	3158.34
981.981	3152.23
982.28	3114.49
982.579	3061.16
982.878	3125.34
983.177	3029.98
983.475	3115.62
983.774	3098.68
984.073	3073.82
984.372	3014.84
984.67	3018.45
984.969	3006.7
985.267	3005.8
985.566	2978.45
985.864	2985.46
986.162	2960.15
986.461	2937.78
986.759	2951.56
987.057	2892.81
987.355	2921.28
987.653	2886.03
987.951	2859.59
988.249	2866.59
988.547	2845.8
988.844	2836.76
989.142	2830.89
989.44	2770.1
989.737	2775.29
990.035	2756.09
990.332	2764.9
990.63	2749.98
990.927	2764.9
991.224	2717.67
991.521	2683.77
991.819	2691.23
992.116	2672.92
992.413	2656.88
992.71	2665.01
993.006	2639.7
993.303	2641.51
993.6	2613.49
993.897	2625.92
994.193	2594.06
994.49	2623.66
994.787	2576.43
995.083	2542.53
995.379	2539.59
995.676	2547.5
995.972	2513.83
996.268	2498.24
996.565	2489.43
996.861	2499.82
997.157	2462.53
997.453	2453.27
997.749	2465.47
998.044	2452.36
998.34	2405.59
998.636	2420.5
998.932	2400.39
999.227	2398.36
999.523	2371.01
999.818	2373.95
1000.114	2333.72
1000.409	2324.91
1000.704	2299.83
1001	2285.14
1001.295	2301.41
1001.59	2279.04
1001.885	2257.34
1002.18	2236.55
1002.475	2265.25
1002.77	2234.07
1003.065	2262.09
1003.359	2172.82
1003.654	2227.96
1003.949	2160.17
1004.243	2165.14
1004.538	2136.44
1004.832	2163.56
1005.127	2146.38
1005.421	2099.15
1005.715	2104.58
1006.009	2118.81
1006.304	2088.08
1006.598	2074.3
1006.892	2078.36
1007.186	2055.31
1007.48	2043.34
1007.773	2019.16
1008.067	2018.25
1008.361	2005.82
1008.655	1962.43
1008.948	1969.67
1009.242	1977.8
1009.535	1964.24
1009.829	1941.19
1010.122	1943.45
1010.415	1941.64
1010.708	1912.04
1011.001	1893.28
1011.295	1876.11
1011.588	1862.1
1011.881	1869.78
1012.173	1848.54
1012.466	1860.52
1012.759	1835.88
1013.052	1860.06
1013.344	1812.38
1013.637	1811.93
1013.93	1802.89
1014.222	1779.16
1014.514	1788.2
1014.807	1793.17
1015.099	1754.98
1015.391	1737.36
1015.683	1714.08
1015.976	1716.34
1016.268	1713.63
1016.56	1692.38
1016.851	1689.67
1017.143	1712.95
1017.435	1671.14
1017.727	1682.89
1018.018	1640.63
1018.31	1662.1
1018.602	1646.28
1018.893	1633.86
1019.185	1623.69
1019.476	1595.44
1019.767	1599.05
1020.058	1564.03
1020.35	1565.16
1020.641	1543.91
1020.932	1554.31
1021.223	1563.35
1021.514	1541.65
1021.804	1492.39
1022.095	1492.62
1022.386	1492.39
1022.677	1490.58
1022.967	1470.02
1023.258	1466.4
1023.548	1447.65
1023.839	1474.09
1024.129	1428.89
1024.419	1417.59
1024.709	1419.4
1025	1423.01
1025.29	1390.92
1025.58	1394.99
1025.87	1393.41
1026.16	1377.36
1026.449	1343.92
1026.739	1358.83
1027.029	1343.47
1027.319	1353.18
1027.608	1343.02
1027.898	1346.18
1028.187	1338.95
1028.477	1287.2
1028.766	1290.59
1029.055	1291.04
1029.344	1275.22
1029.634	1264.15
1029.923	1236.35
1030.212	1263.47
1030.501	1244.04
1030.79	1216.24
1031.078	1235.45
1031.367	1262.11
1031.656	1219.63
1031.945	1176.24
1032.233	1202.68
1032.522	1197.93
1032.81	1175.34
1033.099	1171.49
1033.387	1165.85
1033.675	1166.97
1033.963	1137.82
1034.251	1145.96
1034.54	1146.18
1034.828	1142.12
1035.116	1113.87
1035.403	1111.61
1035.691	1105.06
1035.979	1088.78
1036.267	1074.1
1036.554	1080.42
1036.842	1088.78
1037.129	1073.42
1037.417	1067.32
1037.704	1047.88
1037.992	1033.19
1038.279	1042.91
1038.566	1039.07
1038.853	1039.07
1039.14	1039.07
