Data from hue_170_FLMS001491_00025.txt Node
Date: Tue Feb 07 16:48:28 GMT 2017
User: dcchb
Spectrometer: FLMS00149
Trigger mode: 0
Integration Time (sec): 2.000000E-2
Scans to average: 10
Electric dark correction enabled: true
Nonlinearity correction enabled: false
Boxcar width: 0
XAxis mode: Wavelengths
Number of Pixels in Spectrum: 2048
>>>>>Begin Spectral Data<<<<<
341.393	1.4
341.776	1.4
342.16	1.4
342.543	-49
342.927	-57.81
343.31	-62.78
343.693	-72.05
344.077	-47.64
344.46	-63.91
344.843	-68.43
345.226	-49.67
345.61	-32.05
345.993	-4.93
346.376	-16.91
346.759	-0.64
347.142	38.23
347.525	43.43
347.908	52.92
348.291	94.28
348.674	91.57
349.057	98.57
349.44	121.85
349.823	145.58
350.206	160.72
350.588	188.96
350.971	208.4
351.354	211.34
351.737	236.42
352.119	253.82
352.502	275.29
352.884	254.5
353.267	294.95
353.65	285.23
354.032	305.57
354.414	322.75
354.797	331.79
355.179	311.45
355.562	330.88
355.944	339.02
356.326	331.33
356.709	322.97
357.091	367.04
357.473	357.32
357.855	356.87
358.238	334.95
358.62	327.27
359.002	344.89
359.384	326.14
359.766	350.99
360.148	356.42
360.53	345.34
360.912	346.7
361.294	322.97
361.676	319.81
362.057	324.33
362.439	340.15
362.821	326.81
363.203	346.47
363.584	341.5
363.966	319.81
364.348	332.46
364.729	317.55
365.111	315.06
365.493	295.85
365.874	325.91
366.256	338.34
366.637	313.03
367.019	324.1
367.4	316.87
367.781	328.17
368.163	296.98
368.544	331.79
368.925	318.68
369.306	337.66
369.688	334.27
370.069	337.21
370.45	320.94
370.831	315.29
371.212	315.06
371.593	299.92
371.974	309.86
372.355	321.84
372.736	322.52
373.117	329.3
373.498	325.91
373.879	332.46
374.26	310.99
374.641	331.33
375.021	323.42
375.402	321.62
375.783	310.09
376.163	332.24
376.544	332.01
376.925	346.02
377.305	308.96
377.686	323.88
378.066	326.81
378.447	341.05
378.827	330.2
379.208	333.82
379.588	317.1
379.968	331.33
380.349	336.53
380.729	336.98
381.109	349.19
381.489	331.11
381.87	326.59
382.25	339.69
382.63	349.86
383.01	318.9
383.39	365
383.77	348.06
384.15	343.76
384.53	341.28
384.91	344.21
385.29	360.71
385.67	353.03
386.049	359.13
386.429	360.26
386.809	359.13
387.189	350.54
387.568	371.11
387.948	342.41
388.328	362.97
388.707	366.81
389.087	387.6
389.466	343.99
389.846	324.78
390.225	376.3
390.605	356.87
390.984	409.98
391.363	350.99
391.743	359.13
392.122	385.79
392.501	373.14
392.881	376.08
393.26	376.53
393.639	391.9
394.018	376.3
394.397	386.25
394.776	381.28
395.155	376.08
395.534	399.81
395.913	382.18
396.292	395.29
396.671	390.54
397.05	372.01
397.429	378.11
397.808	407.94
398.186	409.75
398.565	403.87
398.944	387.83
399.323	383.31
399.701	411.56
400.08	417.88
400.458	391.44
400.837	405.68
401.215	423.99
401.594	408.62
401.972	406.36
402.351	422.63
402.729	391.44
403.107	415.85
403.486	416.3
403.864	416.53
404.242	432.35
404.62	447.94
404.999	421.73
405.377	416.75
405.755	437.32
406.133	456.98
406.511	442.97
406.889	440.48
407.267	450.2
407.645	461.05
408.023	442.29
408.401	449.3
408.779	465.34
409.156	479.8
409.534	444.32
409.912	473.02
410.29	508.96
410.667	496.07
411.045	496.07
411.422	501.95
411.8	519.12
412.178	510.31
412.555	487.71
412.933	498.79
413.31	523.42
413.687	519.35
414.065	524.32
414.442	538.11
414.819	535.4
415.197	552.12
415.574	542.18
415.951	541.72
416.328	558.45
416.705	553.02
417.082	560.48
417.46	569.29
417.837	586.92
418.214	572.46
418.591	582.63
418.967	590.76
419.344	567.49
419.721	586.69
420.098	618.56
420.475	585.79
420.852	609.29
421.228	607.71
421.605	634.38
421.982	624.43
422.358	649.97
422.735	636.41
423.111	661.72
423.488	660.82
423.864	657.88
424.241	676.41
424.617	691.78
424.994	679.57
425.37	705.11
425.746	717.99
426.123	712.57
426.499	704.2
426.875	720.02
427.251	718.22
427.627	745.11
428.003	734.26
428.379	757.99
428.756	752.56
429.132	767.71
429.507	775.39
429.883	777.88
430.259	776.52
430.635	792.79
431.011	782.39
431.387	806.35
431.763	807.48
432.138	814.03
432.514	853.35
432.89	866.01
433.265	865.78
433.641	870.98
434.016	860.81
434.392	902.84
434.767	912.79
435.143	911.66
435.518	909.85
435.894	943.29
436.269	939.68
436.644	937.64
437.02	960.02
437.395	962.95
437.77	956.4
438.145	974.71
438.52	998.43
438.895	1040.02
439.271	1023.52
439.646	1040.69
440.021	1054.93
440.395	1066
440.77	1068.71
441.145	1069.84
441.52	1069.84
441.895	1085.89
442.27	1100.13
442.645	1113.01
443.019	1124.98
443.394	1110.97
443.769	1116.85
444.143	1110.97
444.518	1176.73
444.892	1146.23
445.267	1143.74
445.641	1187.81
446.016	1191.88
446.39	1198.2
446.764	1204.53
447.139	1203.4
447.513	1233.23
447.887	1241.14
448.262	1236.39
448.636	1258.54
449.01	1273.46
449.384	1290.18
449.758	1287.69
450.132	1289.27
450.506	1291.08
450.88	1300.35
451.254	1308.03
451.628	1303.28
452.002	1346.45
452.376	1351.65
452.75	1369.05
453.123	1408.14
453.497	1402.04
453.871	1376.73
454.244	1424.86
454.618	1444.52
454.992	1454.69
455.365	1466.67
455.739	1506.9
456.112	1513.45
456.486	1505.77
456.859	1554.58
457.232	1589.15
457.606	1594.8
457.979	1580.57
458.352	1630.06
458.725	1643.16
459.099	1677.51
459.472	1710.73
459.845	1720
460.218	1722.71
460.591	1726.55
460.964	1732.88
461.337	1782.14
461.71	1850.39
462.083	1844.29
462.456	1857.85
462.829	1863.27
463.201	1897.85
463.574	1913.21
463.947	1966.32
464.32	1978.97
464.692	2015.36
465.065	2010.38
465.438	2051.97
465.81	2086.09
466.183	2126.99
466.555	2175.35
466.928	2175.58
467.3	2225.97
467.672	2258.51
468.045	2294.9
468.417	2297.16
468.789	2337.83
469.161	2406.31
469.534	2424.39
469.906	2441.33
470.278	2567.66
470.65	2541.44
471.022	2600.65
471.394	2667.54
471.766	2679.75
472.138	2729.69
472.51	2839.29
472.882	2872.06
473.253	2906.63
473.625	2929.68
473.997	3031.38
474.369	3029.34
474.74	3093.52
475.112	3188.89
475.484	3227.75
475.855	3316.79
476.227	3371.03
476.598	3467.52
476.97	3521.76
477.341	3610.79
477.713	3725.14
478.084	3727.18
478.455	3879.49
478.827	3939.6
479.198	4074.06
479.569	4067.05
479.94	4194.51
480.311	4209.65
480.682	4420.49
481.053	4511.56
481.424	4620.94
481.795	4692.57
482.166	4756.98
482.537	4878.56
482.908	4999.68
483.279	5062.51
483.65	5211.88
484.021	5400.8
484.391	5479.9
484.762	5518.54
485.133	5669.5
485.503	5739.1
485.874	5916.5
486.244	6037.4
486.615	6157.17
486.985	6213.66
487.356	6399.42
487.726	6442.58
488.097	6619.3
488.467	6714.67
488.837	6912.63
489.207	6944.04
489.578	7149.91
489.948	7243.92
490.318	7344.71
490.688	7396.68
491.058	7642.33
491.428	7755.09
491.798	7867.86
492.168	8027.85
492.538	8127.29
492.908	8231.24
493.278	8410.67
493.648	8454.51
494.017	8542.19
494.387	8707.84
494.757	8748.06
495.126	8933.59
495.496	8974.95
495.866	9027.6
496.235	9176.75
496.605	9249.06
496.974	9323.41
497.344	9451.09
497.713	9514.14
498.082	9638.43
498.452	9721.37
498.821	9782.61
499.19	9780.12
499.559	10019.89
499.928	10005.2
500.298	10130.62
500.667	10214.46
501.036	10207.91
501.405	10355.25
501.774	10429.37
502.143	10483.16
502.512	10528.58
502.88	10605.41
503.249	10652.64
503.618	10700.55
503.987	10722.47
504.356	10826.2
504.724	10979.19
505.093	10891.51
505.462	11049.47
505.83	11140.99
506.199	11158.85
506.567	11274.55
506.936	11248.79
507.304	11429.35
507.672	11329.46
508.041	11468.67
508.409	11501.66
508.777	11617.82
509.145	11579.4
509.514	11629.34
509.882	11707.31
510.25	11655.56
510.618	11720.86
510.986	11774.2
511.354	11884.7
511.722	11938.71
512.09	11993.17
512.458	11994.98
512.826	12048.99
513.193	12087.63
513.561	12125.6
513.929	12232.72
514.297	12251.02
514.664	12332.6
515.032	12239.27
515.4	12405.59
515.767	12373.95
516.135	12373.95
516.502	12371.92
516.869	12553.16
517.237	12488.53
517.604	12496.89
517.972	12569.88
518.339	12641.52
518.706	12560.62
519.073	12538.7
519.44	12651.24
519.808	12725.36
520.175	12708.86
520.542	12819.37
520.909	12823.89
521.276	12757.9
521.643	12878.12
522.009	12905.01
522.376	12929.87
522.743	12945.46
523.11	12974.62
523.477	13066.59
523.843	13054.16
524.21	13111.34
524.577	13253.48
524.943	13249.41
525.31	13180.71
525.676	13326.25
526.043	13169.64
526.409	13324.89
526.776	13356.75
527.142	13366.24
527.508	13348.39
527.874	13425.23
528.241	13369.18
528.607	13362.18
528.973	13505.45
529.339	13400.82
529.705	13522.62
530.071	13497.54
530.437	13438.79
530.803	13403.76
531.169	13443.53
531.535	13444.21
531.901	13383.65
532.267	13449.18
532.632	13440.14
532.998	13394.27
533.364	13384.1
533.73	13333.25
534.095	13475.39
534.461	13368.5
534.826	13451.44
535.192	13439.46
535.557	13492.79
535.923	13407.15
536.288	13309.97
536.653	13440.14
537.019	13191.11
537.384	13226.59
537.749	13271.33
538.114	13142.75
538.479	13105.91
538.845	13135.74
539.21	13144.56
539.575	13128.51
539.94	13097.1
540.305	13115.63
540.67	13009.19
541.034	12941.17
541.399	12988.4
541.764	12886.94
542.129	12922.64
542.494	12871.57
542.858	12829.54
543.223	12800.16
543.587	12838.35
543.952	12655.75
544.316	12666.83
544.681	12639.71
545.045	12667.05
545.41	12759.03
545.774	12690.78
546.138	12575.3
546.503	12517.45
546.867	12472.71
547.231	12593.38
547.595	12505.25
547.959	12444.01
548.324	12373.28
548.688	12245.37
549.052	12347.51
549.416	12298.93
549.779	12248.31
550.143	12210.12
550.507	12224.81
550.871	12156.78
551.235	12088.09
551.599	12189.55
551.962	12094.19
552.326	12193.85
552.689	12078.37
553.053	12092.61
553.417	12045.15
553.78	12104.81
554.143	11937.13
554.507	11917.02
554.87	11954.98
555.234	12029.78
555.597	11923.57
555.96	11848.32
556.323	11862.56
556.686	11837.7
557.05	11913.4
557.413	11896.68
557.776	11749.34
558.139	11926.28
558.502	11721.54
558.865	11680.19
559.228	11832.73
559.59	11772.61
559.953	11737.59
560.316	11891.48
560.679	11754.54
561.041	11864.59
561.404	11783.01
561.767	11837.02
562.129	11786.63
562.492	11915.66
562.854	11755.67
563.217	11784.82
563.579	11812.61
563.941	11813.74
564.304	11843.57
564.666	11860.3
565.028	11779.85
565.39	11808.55
565.753	11827.98
566.115	11850.13
566.477	11916.57
566.839	11867.53
567.201	11903.23
567.563	11867.53
567.925	11886.51
568.287	11941.65
568.648	11942.1
569.01	11945.27
569.372	12051.93
569.734	11946.85
570.095	11986.62
570.457	11972.16
570.819	12015.32
571.18	11940.75
571.542	12052.38
571.903	11979.39
572.265	12079.5
572.626	12085.15
572.987	12032.04
573.349	12111.81
573.71	12089.22
574.071	12053.06
574.432	12108.88
574.794	12184.13
575.155	12116.79
575.516	12048.09
575.877	12192.49
576.238	12126.05
576.599	12124.7
576.96	12196.11
577.32	12164.02
577.681	12142.55
578.042	12186.39
578.403	12154.75
578.763	12109.55
579.124	12155.2
579.485	12173.28
579.845	12075.66
580.206	12088.99
580.566	12126.73
580.927	12142.55
581.287	12133.51
581.648	12121.53
582.008	12173.28
582.368	12108.65
582.728	12129.67
583.089	12182.55
583.449	12189.1
583.809	12051.25
584.169	12167.41
584.529	12077.01
584.889	12203.79
585.249	12030.23
585.609	12017.81
585.969	12085.15
586.329	12044.02
586.688	12003.12
587.048	12163.56
587.408	11978.26
587.768	12050.57
588.127	11982.1
588.487	11918.15
588.846	12033.85
589.206	11964.93
589.565	11962.67
589.925	11977.81
590.284	11908.66
590.643	11899.62
591.003	11925.15
591.362	11970.58
591.721	11933.29
592.08	11942.33
592.44	11974.64
592.799	11864.14
593.158	11871.82
593.517	11882.44
593.876	11916.11
594.235	11940.07
594.593	11867.3
594.952	11865.49
595.311	11858.71
595.67	11889.67
596.029	11907.07
596.387	11846.74
596.746	11909.11
597.104	11835.44
597.463	11885.83
597.822	11901.88
598.18	11827.53
598.538	11799.51
598.897	11837.92
599.255	11834.99
599.613	11892.61
599.972	11844.02
600.33	11763.57
600.688	11798.38
601.046	11797.47
601.404	11900.52
601.762	11915.89
602.12	11893.29
602.478	11940.52
602.836	11894.64
603.194	11831.37
603.552	11814.87
603.91	11774.42
604.268	11803.57
604.625	11792.5
604.983	11808.55
605.341	11689.68
605.698	11855.78
606.056	11858.26
606.413	11741.43
606.771	11820.3
607.128	11849.67
607.485	11749.56
607.843	11847.41
608.2	11824.59
608.557	11873.18
608.914	11844.48
609.272	11925.38
609.629	11844.48
609.986	11953.4
610.343	11890.35
610.7	11976.45
611.057	11950.24
611.414	11892.39
611.771	11973.29
612.127	12012.83
612.484	11914.76
612.841	11953.17
613.198	11952.04
613.554	12015.77
613.911	12048.31
614.267	12104.58
614.624	12009.67
614.98	12021.2
615.337	12122.44
615.693	12077.69
616.05	12042.66
616.406	12114.53
616.762	12093.74
617.118	12080.4
617.475	12039.95
617.831	12061.87
618.187	12057.13
618.543	12143.23
618.899	12178.48
619.255	12077.46
619.611	12180.29
619.967	12154.3
620.323	12193.17
620.678	12098.71
621.034	12148.42
621.39	12105.94
621.746	12090.57
622.101	12212.6
622.457	12168.76
622.812	12125.15
623.168	12168.31
623.523	12183.68
623.879	12179.61
624.234	12080.18
624.589	12103.23
624.945	12173.73
625.3	12167.18
625.655	12114.53
626.01	12219.83
626.365	12155.2
626.72	12198.82
627.075	12078.59
627.43	12149.55
627.785	12034.98
628.14	12145.49
628.495	12093.28
628.85	12111.59
629.205	12037.92
629.559	12162.66
629.914	12124.7
630.269	12110.23
630.623	12048.09
630.978	11990.91
631.332	12088.99
631.687	11981.65
632.041	12025.26
632.396	12031.14
632.75	11953.85
633.104	11962.67
633.459	11943.46
633.813	11947.07
634.167	11883.57
634.521	11909.33
634.875	11910.69
635.229	11912.95
635.583	11809.45
635.937	11786.63
636.291	11880.41
636.645	11800.41
636.999	11824.59
637.352	11866.4
637.706	11730.58
638.06	11834.08
638.413	11727.19
638.767	11750.02
639.121	11736
639.474	11660.07
639.828	11730.58
640.181	11658.27
640.534	11700.98
640.888	11614.65
641.241	11596.8
641.594	11546.63
641.947	11646.52
642.301	11640.87
642.654	11625.5
643.007	11652.84
643.36	11546.18
643.713	11542.34
644.066	11637.93
644.419	11556.12
644.771	11521.32
645.124	11384.83
645.477	11352.96
645.83	11302.12
646.182	11254.21
646.535	11239.29
646.888	11227.09
647.24	11177.6
647.593	11265.51
647.945	11246.53
648.298	11198.84
648.65	11146.42
649.002	11158.39
649.355	11220.99
649.707	11203.36
650.059	11272.06
650.411	11308.22
650.763	11421.89
651.115	11455.56
651.467	11402
651.819	11439.06
652.171	11443.58
652.523	11377.37
652.875	11356.81
653.227	11395
653.578	11410.14
653.93	11399.74
654.282	11395
654.633	11478.38
654.985	11409.91
655.337	11481.1
655.688	11408.33
656.039	11477.48
656.391	11376.92
656.742	11347.77
657.094	11407.88
657.445	11446.3
657.796	11386.41
658.147	11471.15
658.498	11389.57
658.849	11496.01
659.2	11472.74
659.551	11453.98
659.902	11516.58
660.253	11452.85
660.604	11480.64
660.955	11453.75
661.306	11531.94
661.656	11514.99
662.007	11423.7
662.358	11467.99
662.708	11476.35
663.059	11445.62
663.409	11439.06
663.76	11515.22
664.11	11448.33
664.461	11432.28
664.811	11467.54
665.161	11526.07
665.511	11475.9
665.862	11442.68
666.212	11502.56
666.562	11471.38
666.912	11443.81
667.262	11519.29
667.612	11530.59
667.962	11578.27
668.312	11441.32
668.662	11565.61
669.011	11435.9
669.361	11433.64
669.711	11453.75
670.06	11433.87
670.41	11476.35
670.76	11434.32
671.109	11439.52
671.459	11430.48
671.808	11483.36
672.157	11456.24
672.507	11399.52
672.856	11356.81
673.205	11435.67
673.554	11456.24
673.904	11337.82
674.253	11443.13
674.602	11345.28
674.951	11230.71
675.3	11208.11
675.649	11363.81
675.998	11375.56
676.346	11282.01
676.695	11340.54
677.044	11229.8
677.393	11309.58
677.741	11296.02
678.09	11251.72
678.438	11167.43
678.787	11247.66
679.135	11235.91
679.484	11144.16
679.832	11256.47
680.181	11174.89
680.529	11167.88
680.877	11111.16
681.225	11150.94
681.573	11152.52
681.922	11073.2
682.27	11066.87
682.618	11128.11
682.966	11047.66
683.314	11048.57
683.661	11009.47
684.009	10941.68
684.357	10945.29
684.705	10920.89
685.053	10953.65
685.4	10858.06
685.748	10834.11
686.095	10811.96
686.443	10852.86
686.79	10780.55
687.138	10785.75
687.485	10770.83
687.832	10719.99
688.18	10695.81
688.527	10639.76
688.874	10586.66
689.221	10631.4
689.568	10516.15
689.915	10534.23
690.262	10539.2
690.609	10532.19
690.956	10431.86
691.303	10406.55
691.65	10369.49
691.997	10350.96
692.344	10288.36
692.69	10247.46
693.037	10256.72
693.383	10226.89
693.73	10195.93
694.077	10168.36
694.423	10131.3
694.769	10076.84
695.116	10146.22
695.462	10003.62
695.808	10027.12
696.155	9960.68
696.501	9969.27
696.847	9891.76
697.193	9851.53
697.539	9898.77
697.885	9821.03
698.231	9700.58
698.577	9723.63
698.923	9704.65
699.269	9703.97
699.614	9593.69
699.96	9587.59
700.306	9624.42
700.651	9505.33
700.997	9460.81
701.342	9449.06
701.688	9415.39
702.033	9360.25
702.379	9383.3
702.724	9380.36
703.069	9363.41
703.415	9220.82
703.76	9267.14
704.105	9284.54
704.45	9188.05
704.795	9117.54
705.14	9135.85
705.485	9069.18
705.83	9029.18
706.175	9089.52
706.52	9023.53
706.865	8989.64
707.209	9001.84
707.554	8953.25
707.899	8938.34
708.243	8860.83
708.588	8856.76
708.932	8794.61
709.277	8845.69
709.621	8819.25
709.966	8711.68
710.31	8714.84
710.654	8661.74
710.998	8703.09
711.342	8657.89
711.687	8641.62
712.031	8638.91
712.375	8578.12
712.719	8562.3
713.063	8573.6
713.407	8506.94
713.75	8564.34
714.094	8532.93
714.438	8475.75
714.782	8555.07
715.125	8404.79
715.469	8485.24
715.812	8430.33
716.156	8407.5
716.499	8370.67
716.843	8392.14
717.186	8315.08
717.53	8388.07
717.873	8423.78
718.216	8323.89
718.559	8339.94
718.902	8302.42
719.246	8303.1
719.589	8277.56
719.932	8220.84
720.275	8169.77
720.617	8177.91
720.96	8191.01
721.303	8238.47
721.646	8321.86
721.989	8159.6
722.331	8217.23
722.674	8173.39
723.016	8190.79
723.359	8173.16
723.701	8146.49
724.044	8125.93
724.386	8074.41
724.729	8167.96
725.071	8159.38
725.413	8135.2
725.755	8026.5
726.097	8141.3
726.439	8064.46
726.782	8081.41
727.124	8065.14
727.465	8128.19
727.807	8055.65
728.149	8030.57
728.491	7999.15
728.833	8112.6
729.175	8083.45
729.516	8005.71
729.858	8011.36
730.199	8003.9
730.541	7951.25
730.882	8010.68
731.224	8035.54
731.565	7961.87
731.906	7999.83
732.248	7963.67
732.589	7998.25
732.93	7974.97
733.271	7913.73
733.612	7959.83
733.953	7974.52
734.294	7886.84
734.635	7927.97
734.976	8000.51
735.317	7952.15
735.658	7953.28
735.999	8009.32
736.339	7944.01
736.68	7973.84
737.021	8009.32
737.361	7989.21
737.702	8017.23
738.042	8002.54
738.383	8027.85
738.723	8051.58
739.063	8021.98
739.404	8125.25
739.744	8084.12
740.084	8094.74
740.424	8070.11
740.764	8099.72
741.104	8108.53
741.444	8062.88
741.784	8053.62
742.124	8171.13
742.464	8130.45
742.804	8164.35
743.143	8092.26
743.483	8247.51
743.823	8199.83
744.162	8265.59
744.502	8266.27
744.841	8286.15
745.181	8348.07
745.52	8360.27
745.86	8364.57
746.199	8348.07
746.538	8537.9
746.877	8562.98
747.216	8613.38
747.556	8551.91
747.895	8611.12
748.234	8659.7
748.573	8690.89
748.911	8792.81
749.25	8882.29
749.589	8852.24
749.928	8970.65
750.267	9087.49
750.605	9131.55
750.944	9111.44
751.283	9184.89
751.621	9315.05
751.96	9343.53
752.298	9487.48
752.636	9550.07
752.975	9625.78
753.313	9691.54
753.651	9792.55
753.989	9868.94
754.327	9990.51
754.666	10109.38
755.004	10222.37
755.342	10300.79
755.679	10443.16
756.017	10519.54
756.355	10729.93
756.693	10859.42
757.031	10929.7
757.368	11098.96
757.706	11285.85
758.044	11325.62
758.381	11512.51
758.719	11653.52
759.056	11827.75
759.394	11988.43
759.731	12030.01
760.068	12197.01
760.405	12238.82
760.743	12487.85
761.08	12682.19
761.417	12810.33
761.754	13053.71
762.091	13199.47
762.428	13313.36
762.765	13414.38
763.102	13674.26
763.438	13750.64
763.775	13902.95
764.112	14115.6
764.449	14264.07
764.785	14451.64
765.122	14568.7
765.458	14620.45
765.795	14745.64
766.131	14942.47
766.467	15075.58
766.804	15214.33
767.14	15372.52
767.476	15458.84
767.812	15594.43
768.148	15754.43
768.485	15809.8
768.821	15876.24
769.157	15993.52
769.492	16009.56
769.828	16235.32
770.164	16276.45
770.5	16444.81
770.836	16545.6
771.171	16625.37
771.507	16595.31
771.842	16773.16
772.178	16795.31
772.513	17001.63
772.849	16969.99
773.184	16982.65
773.519	17245.01
773.855	17252.24
774.19	17293.37
774.525	17353.26
774.86	17401.39
775.195	17440.71
775.53	17467.83
775.865	17589.64
776.2	17446.36
776.535	17497.66
776.87	17626.02
777.205	17626.7
777.539	17705.57
777.874	17841.16
778.209	17696.75
778.543	17729.52
778.878	17748.5
779.212	17802.96
779.547	17786.47
779.881	17956.41
780.215	17815.62
780.55	17907.82
780.884	17868.5
781.218	17937.65
781.552	17939.01
781.886	17920.93
782.22	17901.72
782.554	17971.32
782.888	17859.01
783.222	17791.21
783.556	17820.14
783.889	17745.34
784.223	17757.32
784.557	17794.15
784.89	17803.19
785.224	17766.13
785.557	17696.98
785.891	17711.44
786.224	17747.6
786.558	17711.44
786.891	17664.44
787.224	17564.55
787.557	17566.81
787.891	17534.04
788.224	17586.92
788.557	17619.24
788.89	17580.37
789.223	17634.15
789.556	17523.2
789.888	17446.82
790.221	17395.52
790.554	17322.52
790.887	17416.08
791.219	17296.76
791.552	17292.92
791.884	17235.3
792.217	17342.19
792.549	17273.26
792.882	17102.64
793.214	17064.68
793.546	17127.5
793.879	17089.99
794.211	16999.6
794.543	17118.01
794.875	16974.74
795.207	16966.83
795.539	16969.09
795.871	17003.66
796.203	16813.16
796.535	16776.1
796.867	16775.19
797.198	16692.48
797.53	16715.76
797.862	16562.54
798.193	16674.63
798.525	16513.51
798.856	16535.2
799.188	16382.21
799.519	16356.22
799.85	16313.29
800.182	16358.03
800.513	16393.96
800.844	16301.08
801.175	16314.87
801.506	16310.8
801.837	16231.25
802.168	16236.23
802.499	16077.36
802.83	16072.84
803.161	16053.18
803.491	16047.76
803.822	16014.31
804.153	15864.94
804.483	15775.67
804.814	15860.87
805.145	15793.53
805.475	15777.71
805.805	15713.98
806.136	15761.44
806.466	15688.9
806.796	15800.98
807.126	15523.48
807.457	15530.03
807.787	15543.14
808.117	15466.98
808.447	15354.67
808.777	15444.38
809.107	15370.03
809.436	15380.2
809.766	15371.39
810.096	15350.6
810.426	15198.96
810.755	15323.48
811.085	15230.38
811.414	15171.62
811.744	15046.2
812.073	15081.68
812.403	15069.25
812.732	15024.28
813.061	15004.62
813.39	14884.85
813.719	14891.4
814.049	15007.11
814.378	14947.45
814.707	14918.07
815.036	14857.05
815.365	14797.17
815.693	14736.15
816.022	14702.48
816.351	14653.22
816.68	14624.29
817.008	14650.96
817.337	14503.39
817.665	14492.99
817.994	14491.19
818.322	14466.78
818.651	14447.12
818.979	14431.3
819.307	14484.41
819.636	14428.59
819.964	14306.11
820.292	14380.23
820.62	14416.16
820.948	14310.4
821.276	14452.54
821.604	14315.15
821.932	14379.55
822.259	14345.2
822.587	14255.49
822.915	14288.93
823.243	14377.74
823.57	14278.09
823.898	14300.23
824.225	14294.13
824.553	14300.68
824.88	14275.37
825.207	14332.32
825.535	14318.08
825.862	14349.5
826.189	14271.31
826.516	14410.28
826.843	14389.49
827.17	14351.08
827.497	14357.63
827.824	14366.67
828.151	14446.67
828.478	14309.5
828.805	14465.2
829.131	14425.65
829.458	14427.69
829.785	14285.99
830.111	14379.78
830.438	14418.42
830.764	14321.25
831.09	14407.12
831.417	14279.21
831.743	14357.86
832.069	14376.39
832.395	14239.67
832.722	14251.87
833.048	14347.46
833.374	14334.35
833.7	14210.97
834.026	14260.91
834.351	14274.47
834.677	14213
835.003	14227.01
835.329	14222.04
835.654	14201.7
835.98	14034.25
836.306	14212.1
836.631	14040.35
836.956	14170.97
837.282	14100.01
837.607	14092.33
837.932	13999.9
838.258	14039.9
838.583	14057.3
838.908	13996.74
839.233	13984.53
839.558	13936.4
839.883	13827.48
840.208	13892.33
840.533	13833.8
840.858	13855.05
841.182	13814.82
841.507	13886.23
841.832	13730.3
842.156	13749.96
842.481	13773.92
842.805	13704.31
843.13	13686.01
843.454	13631.55
843.778	13582.28
844.103	13479.91
844.427	13500.03
844.751	13579.57
845.075	13490.76
845.399	13521.27
845.723	13276.53
846.047	13332.35
846.371	13258.9
846.695	13234.95
847.019	13193.37
847.343	13133.48
847.666	13034.5
847.99	13015.07
848.313	13036.99
848.637	12910.21
848.96	12827.95
849.284	12915.86
849.607	12812.36
849.931	12746.83
850.254	12607.17
850.577	12595.19
850.9	12548.19
851.223	12552.71
851.546	12515.19
851.869	12395.87
852.192	12458.7
852.515	12273.84
852.838	12284.01
853.161	12284.47
853.483	12198.14
853.806	12174.41
854.129	12125.37
854.451	12114.53
854.774	12005.15
855.096	11941.42
855.419	11956.79
855.741	11931.71
856.063	11790.24
856.385	11858.49
856.708	11809.45
857.03	11718.15
857.352	11769
857.674	11645.84
857.996	11749.34
858.318	11597.48
858.64	11634.76
858.961	11570.13
859.283	11502.34
859.605	11449.01
859.926	11498.05
860.248	11437.93
860.57	11446.97
860.891	11437.48
861.212	11382.57
861.534	11297.6
861.855	11312.29
862.176	11274.55
862.498	11256.02
862.819	11275.23
863.14	11193.87
863.461	11178.05
863.782	11187.09
864.103	11134.21
864.424	11124.95
864.745	11092.86
865.065	11044.95
865.386	11060.99
865.707	11075.91
866.027	11102.58
866.348	11014.44
866.668	11076.14
866.989	11009.47
867.309	10876.14
867.63	10909.59
867.95	10897.16
868.27	10943.03
868.59	10854.9
868.91	10829.36
869.23	10840.21
869.55	10724.96
869.87	10859.19
870.19	10800.66
870.51	10790.27
870.83	10814.9
871.15	10709.14
871.469	10705.75
871.789	10774.45
872.109	10764.51
872.428	10647.9
872.748	10710.72
873.067	10623.49
873.386	10658.07
873.706	10602.25
874.025	10567.67
874.344	10564.06
874.663	10576.49
874.982	10547.56
875.301	10532.42
875.62	10486.77
875.939	10495.81
876.258	10519.09
876.577	10487.45
876.896	10403.61
877.214	10369.04
877.533	10421.46
877.852	10399.99
878.17	10433.21
878.489	10431.18
878.807	10396.15
879.125	10360
879.444	10265.76
879.762	10246.78
880.08	10269.38
880.398	10198.19
880.716	10294.23
881.034	10201.81
881.352	10239.1
881.67	10164.97
881.988	10190.96
882.306	10162.26
882.624	10068.48
882.941	10045.43
883.259	9983.96
883.577	10046.33
883.894	10028.48
884.212	9990.06
884.529	10000.91
884.846	9990.06
885.164	9920.91
885.481	9900.35
885.798	9914.36
886.115	9807.02
886.432	9809.28
886.75	9837.98
887.067	9837.98
887.383	9741.26
887.7	9803.4
888.017	9720.92
888.334	9689.73
888.651	9724.31
888.967	9620.81
889.284	9652.44
889.6	9599.79
889.917	9486.57
890.233	9515.72
890.55	9527.7
890.866	9478.21
891.182	9466.46
891.498	9414.48
891.815	9393.47
892.131	9391.21
892.447	9319.12
892.763	9328.61
893.079	9338.33
893.395	9304.66
893.71	9197.77
894.026	9230.99
894.342	9226.92
894.657	9132.01
894.973	9110.09
895.289	9059.01
895.604	9098.79
895.92	8994.61
896.235	8915.06
896.55	8959.81
896.865	8970.43
897.181	8933.14
897.496	8915.97
897.811	8870.77
898.126	8804.1
898.441	8813.37
898.756	8711.68
899.071	8736.99
899.386	8764.33
899.7	8560.72
900.015	8566.82
900.33	8587.16
900.644	8575.64
900.959	8511.91
901.273	8461.97
901.588	8493.38
901.902	8392.59
902.216	8413.83
902.531	8334.29
902.845	8354.17
903.159	8301.74
903.473	8275.53
903.787	8177.45
904.101	8179.94
904.415	8155.53
904.729	8106.95
905.042	8052.26
905.356	8089.55
905.67	8043.9
905.984	7980.4
906.297	8042.32
906.611	7936.78
906.924	7949.21
907.237	7910.12
907.551	7857.24
907.864	7899.95
908.177	7795.77
908.491	7802.55
908.804	7759.61
909.117	7690.69
909.43	7628.54
909.743	7612.72
910.056	7597.36
910.368	7557.58
910.681	7548.09
910.994	7523.46
911.307	7451.15
911.619	7424.25
911.932	7436.23
912.244	7415.21
912.557	7389.68
912.869	7294.09
913.181	7325.05
913.494	7288.66
913.806	7170.25
914.118	7262.22
914.43	7177.48
914.742	7215.45
915.054	7075.79
915.366	7079.86
915.678	7045.28
915.99	7033.08
916.302	6990.37
916.613	6979.07
916.925	6999.18
917.236	6896.81
917.548	6889.13
917.859	6897.04
918.171	6817.94
918.482	6778.85
918.794	6774.78
919.105	6746.08
919.416	6690.04
919.727	6723.93
920.038	6733.42
920.349	6652.97
920.66	6610.26
920.971	6645.52
921.282	6620.21
921.593	6569.59
921.903	6476.71
922.214	6524.84
922.525	6507.89
922.835	6444.62
923.146	6383.83
923.456	6394.45
923.767	6325.53
924.077	6298.41
924.387	6316.03
924.697	6260.44
925.008	6232.19
925.318	6250.05
925.628	6177.06
925.938	6180.9
926.248	6150.39
926.558	6093.44
926.867	6121.69
927.177	6058.41
927.487	6083.5
927.796	6017.96
928.106	6014.35
928.416	5972.54
928.725	5969.15
929.034	5905.2
929.344	5925.76
929.653	5864.52
929.962	5858.65
930.271	5860
930.581	5821.81
930.89	5789.04
931.199	5714.24
931.508	5764.64
931.817	5741.36
932.125	5711.3
932.434	5640.57
932.743	5692.1
933.051	5650.06
933.36	5603.28
933.669	5587.01
933.977	5568.26
934.286	5553.57
934.594	5537.98
934.902	5480.12
935.21	5446.23
935.519	5399.45
935.827	5410.97
936.135	5384.76
936.443	5358.09
936.751	5333.01
937.059	5260.02
937.367	5334.59
937.674	5291.43
937.982	5302.5
938.29	5193.13
938.597	5228.83
938.905	5184.09
939.213	5162.84
939.52	5125.11
939.827	5121.72
940.135	5129.85
940.442	5085.56
940.749	5046.01
941.056	5031.1
941.363	5021.38
941.67	4989.06
941.977	4987.48
942.284	4938.22
942.591	4934.83
942.898	4860.71
943.205	4878.11
943.511	4845.56
943.818	4847.6
944.125	4804.66
944.431	4814.15
944.738	4845.79
945.044	4742.29
945.35	4763.76
945.657	4744.55
945.963	4720.14
946.269	4648.06
946.575	4671.78
946.881	4681.28
947.187	4658.9
947.493	4672.46
947.799	4558.11
948.105	4586.81
948.41	4531.22
948.716	4537.32
949.022	4539.81
949.327	4482.86
949.633	4459.59
949.938	4476.99
950.244	4441.51
950.549	4392.47
950.854	4415.29
951.16	4405.35
951.465	4332.36
951.77	4348.63
952.075	4323.54
952.38	4294.84
952.685	4289.42
952.99	4273.15
953.294	4247.39
953.599	4219.82
953.904	4218.01
954.209	4204.68
954.513	4234.06
954.818	4201.51
955.122	4154.06
955.426	4120.39
955.731	4104.57
956.035	4105.02
956.339	4053.95
956.643	4065.25
956.948	4049.65
957.252	4036.55
957.556	4031.12
957.86	4007.39
958.163	3988.41
958.467	3932.14
958.771	3918.36
959.075	3935.98
959.378	3839.72
959.682	3898.7
959.985	3880.39
960.289	3841.52
960.592	3837.91
960.896	3809.66
961.199	3792.03
961.502	3818.25
961.805	3822.99
962.108	3745.03
962.411	3789.77
962.714	3712.04
963.017	3676.1
963.32	3738.02
963.623	3678.14
963.926	3667.29
964.228	3639.72
964.531	3612.15
964.833	3653.73
965.136	3563.56
965.438	3586.61
965.741	3578.03
966.043	3538.48
966.345	3541.64
966.648	3480.4
966.95	3515.66
967.252	3478.37
967.554	3448.09
967.856	3417.81
968.158	3428.65
968.46	3407.86
968.761	3406.28
969.063	3411.7
969.365	3374.87
969.666	3353.17
969.968	3344.59
970.269	3353.4
970.571	3340.52
970.872	3318.83
971.174	3282.44
971.475	3312.72
971.776	3260.52
972.077	3223.01
972.378	3255.55
972.679	3226.17
972.98	3260.52
973.281	3221.43
973.582	3162.45
973.883	3155.89
974.183	3161.09
974.484	3187.76
974.785	3121.54
975.085	3124.71
975.386	3127.64
975.686	3096.46
975.986	3072.73
976.287	3076.12
976.587	3017.82
976.887	3073.86
977.187	3054.2
977.487	2994.54
977.787	3022.11
978.087	2997.93
978.387	2989.12
978.687	2948.67
978.987	2962.22
979.286	2941.21
979.586	2951.15
979.885	2912.51
980.185	2889.23
980.484	2857.82
980.784	2870.48
981.083	2851.27
981.382	2814.66
981.682	2882.68
981.981	2818.73
982.28	2787.77
982.579	2780.76
982.878	2813.3
983.177	2756.35
983.475	2774.21
983.774	2703.7
984.073	2710.93
984.372	2720.87
984.67	2691.05
984.969	2721.1
985.267	2691.05
985.566	2703.02
985.864	2660.09
986.162	2662.57
986.461	2655.57
986.759	2637.49
987.057	2612.4
987.355	2560.65
987.653	2590.93
987.951	2564.95
988.249	2572.86
988.547	2518.62
988.844	2556.81
989.142	2534.21
989.44	2509.58
989.737	2521.56
990.035	2482.24
990.332	2472.29
990.63	2506.64
990.927	2473.42
991.224	2467.1
991.521	2468.23
991.819	2434.55
992.116	2407.66
992.413	2405.18
992.71	2399.75
993.006	2388
993.303	2372.18
993.6	2403.82
993.897	2344.16
994.193	2352.75
994.49	2336.93
994.787	2311.62
995.083	2313.43
995.379	2301.22
995.676	2301.9
995.972	2279.08
996.268	2264.62
996.565	2201.79
996.861	2253.09
997.157	2218.06
997.453	2242.24
997.749	2221.9
998.044	2234.33
998.34	2179.65
998.636	2166.31
998.932	2115.69
999.227	2175.13
999.523	2129.25
999.818	2131.29
1000.114	2085.19
1000.409	2133.55
1000.704	2098.74
1001	2092.87
1001.295	2083.83
1001.59	2081.57
1001.885	2067.56
1002.18	2052.42
1002.475	2044.06
1002.77	2044.06
1003.065	2005.87
1003.359	2027.11
1003.654	1969.48
1003.949	1983.72
1004.243	1968.13
1004.538	1952.76
1004.832	1946.21
1005.127	1914.34
1005.421	1920.9
1005.715	1932.87
1006.009	1901.69
1006.304	1904.63
1006.598	1907.11
1006.892	1876.6
1007.186	1831.63
1007.48	1858.75
1007.773	1823.5
1008.067	1841.58
1008.361	1823.05
1008.655	1793.44
1008.948	1785.53
1009.242	1808.58
1009.535	1763.39
1009.829	1752.31
1010.122	1730.39
1010.415	1706.89
1010.708	1713.9
1011.001	1729.04
1011.295	1692.43
1011.588	1705.99
1011.881	1707.57
1012.173	1670.51
1012.466	1680.22
1012.759	1661.69
1013.052	1646.78
1013.344	1642.49
1013.637	1652.43
1013.93	1629.15
1014.222	1634.8
1014.514	1603.84
1014.807	1621.47
1015.099	1579.21
1015.391	1572.66
1015.683	1561.81
1015.976	1528.59
1016.268	1534.92
1016.56	1538.76
1016.851	1515.26
1017.143	1510.74
1017.435	1524.75
1017.727	1526.1
1018.018	1493.79
1018.31	1501.92
1018.602	1466.22
1018.893	1464.18
1019.185	1463.05
1019.476	1439.1
1019.767	1447.69
1020.058	1423.73
1020.35	1403.17
1020.641	1402.72
1020.932	1398.88
1021.223	1387.8
1021.514	1377.41
1021.804	1357.52
1022.095	1353.91
1022.386	1356.62
1022.677	1357.75
1022.967	1371.08
1023.258	1337.41
1023.548	1306.67
1023.839	1348.03
1024.129	1313.68
1024.419	1292.21
1024.709	1296.73
1025	1271.42
1025.29	1241.59
1025.58	1248.15
1025.87	1251.76
1026.16	1227.13
1026.449	1248.15
1026.739	1200.91
1027.029	1198.65
1027.319	1212.44
1027.608	1204.76
1027.898	1203.85
1028.187	1212.67
1028.477	1181.25
1028.766	1175.83
1029.055	1174.7
1029.344	1147.36
1029.634	1160.69
1029.923	1155.94
1030.212	1143.29
1030.501	1129.96
1030.79	1117.53
1031.078	1111.43
1031.367	1094.7
1031.656	1120.69
1031.945	1089.28
1032.233	1107.81
1032.522	1104.42
1032.81	1093.57
1033.099	1060.35
1033.387	1062.84
1033.675	1061.03
1033.963	1071.2
1034.251	1052.67
1034.54	1049.96
1034.828	1037.98
1035.116	1031.65
1035.403	995.95
1035.691	1008.15
1035.979	1015.16
1036.267	1022.84
1036.554	977.87
1036.842	997.76
1037.129	982.84
1037.417	987.59
1037.704	971.99
1037.992	963.41
1038.279	957.08
1038.566	952.11
1038.853	952.11
1039.14	952.11
