Data from hue_340_FLMS001491_5.txt Node
Date: Mon Feb 06 15:42:12 GMT 2017
User: dcchb
Spectrometer: FLMS00149
Trigger mode: 0
Integration Time (sec): 2.000000E-2
Scans to average: 10
Electric dark correction enabled: true
Nonlinearity correction enabled: false
Boxcar width: 0
XAxis mode: Wavelengths
Number of Pixels in Spectrum: 2048
>>>>>Begin Spectral Data<<<<<
341.393	-30.73
341.776	-30.73
342.16	-30.73
342.543	-54.91
342.927	-57.17
343.31	-63.5
343.693	-61.47
344.077	-60.11
344.46	-71.64
344.843	-55.14
345.226	-47.91
345.61	-19.43
345.993	-21.47
346.376	5.42
346.759	2.71
347.142	27.57
347.525	47.46
347.908	56.27
348.291	75.03
348.674	76.83
349.057	109.38
349.44	148.7
349.823	142.6
350.206	160.45
350.588	195.48
350.971	209.94
351.354	231.63
351.737	228.24
352.119	266.43
352.502	283.16
352.884	270.28
353.267	298.3
353.65	287
354.032	285.87
354.414	270.5
354.797	305.08
355.179	316.38
355.562	315.25
355.944	312.76
356.326	308.92
356.709	352.99
357.091	334.45
357.473	312.99
357.855	340.33
358.238	345.53
358.62	351.18
359.002	345.08
359.384	330.39
359.766	324.29
360.148	346.43
360.53	329.03
360.912	342.14
361.294	329.93
361.676	351.86
362.057	329.71
362.439	316.15
362.821	317.05
363.203	315.92
363.584	301.69
363.966	314.12
364.348	312.76
364.729	325.64
365.111	294.46
365.493	320.44
365.874	298.75
366.256	316.38
366.637	315.25
367.019	310.27
367.4	312.08
367.781	318.41
368.163	324.29
368.544	310.5
368.925	315.02
369.306	329.71
369.688	310.73
370.069	295.36
370.45	301.69
370.831	314.79
371.212	309.14
371.593	323.83
371.974	328.58
372.355	305.3
372.736	327.67
373.117	301.46
373.498	323.38
373.879	316.38
374.26	296.72
374.641	300.33
375.021	312.99
375.402	331.52
375.783	323.38
376.163	314.12
376.544	326.77
376.925	322.03
377.305	321.12
377.686	302.36
378.066	342.82
378.447	338.75
378.827	321.35
379.208	316.83
379.588	315.7
379.968	343.95
380.349	312.99
380.729	341.01
381.109	314.34
381.489	343.95
381.87	326.32
382.25	347.11
382.63	344.17
383.01	315.02
383.39	338.3
383.77	322.7
384.15	329.93
384.53	336.94
384.91	335.13
385.29	329.93
385.67	328.35
386.049	348.47
386.429	354.34
386.809	337.62
387.189	338.97
387.568	342.36
387.948	330.39
388.328	338.07
388.707	346.88
389.087	353.44
389.466	364.06
389.846	358.18
390.225	354.57
390.605	363.15
390.984	345.08
391.363	359.76
391.743	358.18
392.122	369.48
392.501	386.88
392.881	376.04
393.26	383.04
393.639	372.87
394.018	368.35
394.397	355.47
394.776	361.12
395.155	380.33
395.534	371.06
395.913	374.91
396.292	398.18
396.671	382.81
397.05	363.83
397.429	379.2
397.808	386.2
398.186	377.84
398.565	358.18
398.944	401.35
399.323	395.92
399.701	402.93
400.08	386.88
400.458	376.49
400.837	404.51
401.215	391.18
401.594	405.87
401.972	391.85
402.351	398.18
402.729	414.45
403.107	409.93
403.486	402.48
403.864	401.12
404.242	419.65
404.62	432.31
404.999	413.55
405.377	423.72
405.755	426.2
406.133	434.11
406.511	423.04
406.889	435.92
407.267	408.8
407.645	433.43
408.023	453.77
408.401	423.04
408.779	421.68
409.156	445.41
409.534	473.43
409.912	462.36
410.29	477.28
410.667	438.63
411.045	455.13
411.422	468.69
411.8	478.86
412.178	468.01
412.555	488.8
412.933	487.22
413.31	474.79
413.687	489.48
414.065	509.59
414.442	478.86
414.819	506.43
415.197	493.77
415.574	517.95
415.951	528.8
416.328	509.14
416.705	525.86
417.082	537.39
417.46	540.78
417.837	533.09
418.214	534.68
418.591	558.86
418.967	542.81
419.344	541.91
419.721	571.74
420.098	570.83
420.475	552.98
420.852	578.29
421.228	563.38
421.605	599.31
421.982	587.33
422.358	594.56
422.735	618.74
423.111	582.36
423.488	608.8
423.864	605.86
424.241	615.8
424.617	646.31
424.994	615.8
425.37	613.77
425.746	605.18
426.123	639.53
426.499	658.51
426.875	653.54
427.251	662.36
427.627	657.61
428.003	676.37
428.379	685.63
428.756	652.86
429.132	682.69
429.507	665.52
429.883	683.15
430.259	692.86
430.635	700.55
431.011	712.75
431.387	717.72
431.763	733.31
432.138	736.03
432.514	737.61
432.89	729.02
433.265	752.52
433.641	755.91
434.016	762.01
434.392	776.7
434.767	784.61
435.143	789.58
435.518	776.7
435.894	804.95
436.269	816.93
436.644	815.12
437.02	833.65
437.395	835.23
437.77	845.85
438.145	836.14
438.52	853.08
438.895	863.93
439.271	861.67
439.646	854.67
440.021	891.5
440.395	883.82
440.77	879.98
441.145	893.31
441.52	906.42
441.895	896.93
442.27	916.13
442.645	887.89
443.019	920.88
443.394	908
443.769	922.01
444.143	923.82
444.518	944.38
444.892	931.05
445.267	951.16
445.641	934.89
446.016	943.7
446.39	959.3
446.764	938.05
447.139	971.27
447.513	962.46
447.887	954.33
448.262	973.53
448.636	992.52
449.01	1000.2
449.384	985.74
449.758	992.97
450.132	1007.21
450.506	1001.33
450.88	1018.73
451.254	1036.36
451.628	1022.35
452.002	1031.61
452.376	1046.98
452.75	1043.81
453.123	1053.08
453.497	1080.42
453.871	1078.39
454.244	1057.6
454.618	1098.73
454.992	1097.37
455.365	1099.18
455.739	1115
456.112	1102.8
456.486	1122.23
456.859	1129.24
457.232	1151.38
457.606	1140.31
457.979	1187.31
458.352	1185.28
458.725	1190.25
459.099	1206.75
459.472	1202.45
459.845	1214.66
460.218	1220.08
460.591	1229.57
460.964	1211.49
461.337	1273.86
461.71	1279.06
462.083	1305.05
462.456	1280.42
462.829	1288.33
463.201	1314.32
463.574	1314.77
463.947	1320.19
464.32	1354.99
464.692	1368.1
465.065	1353.41
465.438	1385.05
465.81	1385.27
466.183	1391.38
466.555	1451.71
466.928	1430.7
467.3	1436.8
467.672	1469.34
468.045	1489.68
468.417	1525.61
468.789	1488.77
469.161	1508.66
469.534	1536.68
469.906	1571.26
470.278	1555.21
470.65	1569.9
471.022	1617.36
471.394	1626.4
471.766	1649.22
472.138	1665.72
472.51	1698.03
472.882	1729.22
473.253	1741.2
473.625	1760.18
473.997	1768.09
474.369	1788.43
474.74	1823
475.112	1851.02
475.484	1863.23
475.855	1890.57
476.227	1898.93
476.598	1992.04
476.97	1982.77
477.341	2031.59
477.713	2047.18
478.084	2076.56
478.455	2127.4
478.827	2100.96
479.198	2139.15
479.569	2166.04
479.94	2213.05
480.311	2244.46
480.682	2276.32
481.053	2338.47
481.424	2356.1
481.795	2390.67
482.166	2387.73
482.537	2427.73
482.908	2488.52
483.279	2509.99
483.65	2529.43
484.021	2603.1
484.391	2639.48
484.762	2668.86
485.133	2688.29
485.503	2705.69
485.874	2771
486.244	2767.61
486.615	2857.78
486.985	2859.59
487.356	2923.99
487.726	2930.77
488.097	2968.06
488.467	2975.74
488.837	3063.87
489.207	3064.1
489.578	3135.28
489.948	3191.78
490.318	3211.67
490.688	3197.88
491.058	3234.94
491.428	3290.53
491.798	3300.25
492.168	3405.79
492.538	3408.5
492.908	3422.06
493.278	3486.24
493.648	3427.03
494.017	3500.02
494.387	3555.84
494.757	3564.43
495.126	3594.03
495.496	3614.82
495.866	3628.61
496.235	3679
496.605	3727.59
496.974	3759.68
497.344	3775.04
497.713	3834.02
498.082	3843.51
498.452	3831.99
498.821	3835.15
499.19	3850.07
499.559	3918.32
499.928	3933.68
500.298	3959.22
500.667	4001.25
501.036	3966.68
501.405	4032.89
501.774	4027.01
502.143	4022.27
502.512	4099.33
502.88	4131.87
503.249	4064.98
503.618	4144.75
503.987	4147.69
504.356	4150.4
504.724	4195.37
505.093	4196.5
505.462	4231.53
505.83	4235.59
506.199	4302.94
506.567	4290.06
506.936	4340
507.304	4351.75
507.672	4366.44
508.041	4402.6
508.409	4440.79
508.777	4405.08
509.145	4423.84
509.514	4497.96
509.882	4446.89
510.25	4424.74
510.618	4466.78
510.986	4504.74
511.354	4563.72
511.722	4559.65
512.09	4629.93
512.458	4599.2
512.826	4652.08
513.193	4629.48
513.561	4625.64
513.929	4648.01
514.297	4717.84
514.664	4717.84
515.032	4716.71
515.4	4709.03
515.767	4789.03
516.135	4784.28
516.502	4738.41
516.869	4812.75
517.237	4834.22
517.604	4823.6
517.972	4872.87
518.339	4830.61
518.706	4888.46
519.073	4891.62
519.44	4920.32
519.808	4961.9
520.175	4967.1
520.542	4973.65
520.909	5033.77
521.276	5015.01
521.643	5022.47
522.009	5041.22
522.376	5040.55
522.743	5073.31
523.11	5107.66
523.477	5151.73
523.843	5173.88
524.21	5208.68
524.577	5252.29
524.943	5282.35
525.31	5299.52
525.676	5335.68
526.043	5387.88
526.409	5327.77
526.776	5383.59
527.142	5413.42
527.508	5445.96
527.874	5498.39
528.241	5519.85
528.607	5506.3
528.973	5588.1
529.339	5576.8
529.705	5652.73
530.071	5660.64
530.437	5693.64
530.803	5680.53
531.169	5664.03
531.535	5736.8
531.901	5819.73
532.267	5809.79
532.632	5800.3
532.998	5863.35
533.364	5864.25
533.73	5880.75
534.095	5934.08
534.461	5953.97
534.826	5967.75
535.192	6008.66
535.557	5955.32
535.923	5998.94
536.288	6096.34
536.653	6143.34
537.019	6027.64
537.384	6059.95
537.749	6117.35
538.114	6171.82
538.479	6168.2
538.845	6190.8
539.21	6199.84
539.575	6248.2
539.94	6255.65
540.305	6330.46
540.67	6301.53
541.034	6353.96
541.399	6416.78
541.764	6450.45
542.129	6415.88
542.494	6414.52
542.858	6480.06
543.223	6496.55
543.587	6499.72
543.952	6553.05
544.316	6550.79
544.681	6543.1
545.045	6656.32
545.41	6681.18
545.774	6665.81
546.138	6702.2
546.503	6734.96
546.867	6788.3
547.231	6816.54
547.595	6826.49
547.959	6819.03
548.324	6891.57
548.688	6864.45
549.052	6882.3
549.416	6940.38
549.779	6942.87
550.143	6961.17
550.507	7009.08
550.871	7035.07
551.235	7033.71
551.599	7043.2
551.962	7048.63
552.326	7150.55
552.689	7170.43
553.053	7128.63
553.417	7143.54
553.78	7251.11
554.143	7237.55
554.507	7242.75
554.87	7261.73
555.234	7322.75
555.597	7329.3
555.96	7282.52
556.323	7343.08
556.686	7322.29
557.05	7396.42
557.413	7387.83
557.776	7430.54
558.139	7504.21
558.502	7489.52
558.865	7528.84
559.228	7517.32
559.59	7520.93
559.953	7579.91
560.316	7702.17
560.679	7632.57
561.041	7688.84
561.404	7703.53
561.767	7780.81
562.129	7715.96
562.492	7896.97
562.854	7814.26
563.217	7805.22
563.579	7788.5
563.941	7884.99
564.304	7939.68
564.666	7893.35
565.028	7984.87
565.39	7987.59
565.753	7972.45
566.115	8044.31
566.477	8114.59
566.839	8108.49
567.201	8186
567.563	8219.22
567.925	8149.84
568.287	8190.97
568.648	8259.67
569.01	8338.76
569.372	8302.61
569.734	8304.87
570.095	8424.64
570.457	8504.64
570.819	8472.55
571.18	8406.78
571.542	8526.78
571.903	8541.02
572.265	8615.59
572.626	8669.15
572.987	8705.76
573.349	8685.87
573.71	8804.74
574.071	8885.42
574.432	8829.15
574.794	8960.22
575.155	9020.1
575.516	9029.14
575.877	9127.22
576.238	9197.05
576.599	9231.62
576.96	9371.51
577.32	9446.08
577.681	9443.37
578.042	9531.05
578.403	9597.49
578.763	9645.85
579.124	9792.51
579.485	9850.14
579.845	10047.87
580.206	10126.29
580.566	10178.26
580.927	10292.84
581.287	10388.2
581.648	10565.15
582.008	10651.25
582.368	10859.83
582.728	10988.19
583.089	11082.19
583.449	11254.62
583.809	11444.44
584.169	11560.15
584.529	11795.85
584.889	11981.38
585.249	12112.68
585.609	12220.02
585.969	12537.07
586.329	12689.84
586.688	12844.86
587.048	13180.9
587.408	13281.46
587.768	13529.36
588.127	13803.7
588.487	13883.02
588.846	14283.47
589.206	14407.08
589.565	14729.1
589.925	15021.53
590.284	15225.59
590.643	15528.63
591.003	15803.2
591.362	16037.32
591.721	16312.11
592.08	16591.88
592.44	16853.57
592.799	17169.27
593.158	17401.35
593.517	17712.75
593.876	18021
594.235	18291.04
594.593	18483.81
594.952	18886.06
595.311	19076.11
595.67	19502.54
596.029	19903.21
596.387	20182.97
596.746	20484.21
597.104	20595.16
597.463	20922.84
597.822	21335.48
598.18	21461.58
598.538	21719.65
598.897	22170.94
599.255	22313.09
599.613	22970.47
599.972	23031.26
600.33	23309.67
600.688	23559.83
601.046	23956.43
601.404	24129.54
601.762	24457.44
602.12	24774.72
602.478	25080.92
602.836	25263.52
603.194	25432.1
603.552	25837.96
603.91	26007.68
604.268	26356.82
604.625	26611.28
604.983	26878.84
605.341	26934.88
605.698	27425.49
606.056	27588.88
606.413	27891.24
606.771	28106.15
607.128	28355.41
607.485	28465.01
607.843	28693.26
608.2	29215.95
608.557	29405.33
608.914	29455.5
609.272	29863.17
609.629	30010.06
609.986	30237.62
610.343	30374.34
610.7	30831.05
611.057	31030.37
611.414	31077.15
611.771	31355.33
612.127	31646.63
612.484	31677.36
612.841	31938.37
613.198	32098.59
613.554	32250.23
613.911	32546.94
614.267	32858.8
614.624	32815.41
614.98	33051.33
615.337	33324.55
615.693	33478.89
616.05	33477.09
616.406	33903.06
616.762	33827.13
617.118	34023.51
617.475	34000.01
617.831	34376.72
618.187	34373.33
618.543	34582.37
618.899	34876.82
619.255	34946.88
619.611	34949.59
619.967	35171.28
620.323	35560.65
620.678	35295.8
621.034	35320.65
621.39	35510.25
621.746	35686.97
622.101	36062.33
622.457	35923.35
622.812	36181.2
623.168	36305.71
623.523	36258.93
623.879	36360.63
624.234	36388.2
624.589	36626.16
624.945	36639.04
625.3	36794.29
625.655	36696.89
626.01	36910.67
626.365	36893.27
626.72	36928.07
627.075	37068.4
627.43	37109.76
627.785	37236.76
628.14	37304.78
628.495	37381.16
628.85	37344.78
629.205	37168.97
629.559	37549.07
629.914	37261.39
630.269	37440.37
630.623	37496.64
630.978	37481.73
631.332	37606.92
631.687	37630.2
632.041	37681.5
632.396	37733.02
632.75	37568.73
633.104	37667.94
633.459	37548.17
633.813	37748.61
634.167	37603.08
634.521	37649.86
634.875	37774.83
635.229	37732.79
635.583	37530.76
635.937	37679.46
636.291	37564.44
636.645	37642.85
636.999	37610.08
637.352	37785.45
637.706	37567.6
638.06	37818.89
638.413	37626.58
638.767	37590.65
639.121	37665.68
639.474	37394.95
639.828	37677.65
640.181	37701.16
640.534	37768.5
640.888	37460.71
641.241	37526.24
641.594	37528.96
641.947	37676.98
642.301	37613.93
642.654	37660.48
643.007	37566.02
643.36	37490.77
643.713	37580.03
644.066	37732.12
644.419	37512.69
644.771	37266.59
645.124	36970.78
645.477	36937.56
645.83	36656.21
646.182	36563.33
646.535	36424.8
646.888	36444.69
647.24	36334.19
647.593	36599.49
647.945	36488.31
648.298	36265.04
648.65	36237.69
649.002	36277.92
649.355	36310.91
649.707	36298.48
650.059	36594.74
650.411	36932.81
650.763	36965.58
651.115	37242.64
651.467	37204.45
651.819	37370.54
652.171	37149.08
652.523	37065.92
652.875	37202.86
653.227	37013.49
653.578	37289.19
653.93	37172.58
654.282	36962.87
654.633	36894.85
654.985	36996.54
655.337	36951.57
655.688	37132.36
656.039	37045.81
656.391	36836.32
656.742	36822.76
657.094	36849.88
657.445	37015.75
657.796	36821.18
658.147	36795.87
658.498	36775.53
658.849	36861.63
659.2	36765.59
659.551	36716.32
659.902	37020.5
660.253	36867.51
660.604	36944.11
660.955	36614.63
661.306	36871.35
661.656	36753.38
662.007	36675.65
662.358	36774.4
662.708	36703.44
663.059	36712.26
663.409	36595.42
663.76	36827.51
664.11	36775.08
664.461	36864.12
664.811	36731.92
665.161	36633.61
665.511	36739.6
665.862	36566.04
666.212	36811.01
666.562	36896.88
666.912	36665.25
667.262	36755.19
667.612	36566.5
667.962	36738.7
668.312	36640.84
668.662	36838.81
669.011	36677.23
669.361	36608.3
669.711	36461.87
670.06	36563.33
670.41	36370.8
670.76	36408.53
671.109	36712.26
671.459	36560.17
671.808	36465.93
672.157	36604.91
672.507	36399.72
672.856	36393.62
673.205	36357.24
673.554	36644.46
673.904	36383.9
674.253	36569.89
674.602	36440.85
674.951	36144.36
675.3	35903.69
675.649	36388.87
675.998	36370.57
676.346	36451.7
676.695	36545.48
677.044	36112.5
677.393	36347.07
677.741	36332.15
678.09	36219.39
678.438	36131.03
678.787	36143.46
679.135	36145.94
679.484	35968.32
679.832	35997.47
680.181	35857.59
680.529	36059.62
680.877	35907.76
681.225	36002.44
681.573	36071.14
681.922	35893.97
682.27	35731.72
682.618	35767.65
682.966	35586.86
683.314	35691.26
683.661	35648.55
684.009	35458.73
684.357	35475.45
684.705	35295.8
685.053	35412.63
685.4	35262.8
685.748	35102.13
686.095	35148.45
686.443	35012.19
686.79	35038.85
687.138	35001.57
687.485	35077.5
687.832	34872.3
688.18	35000.21
688.527	34675.47
688.874	34838.63
689.221	34679.99
689.568	34557.51
689.915	34497.17
690.262	34511.41
690.609	34400.23
690.956	34277.74
691.303	34187.8
691.65	34017.86
691.997	34158.42
692.344	33780.58
692.69	33839.11
693.037	33800.02
693.383	33733.58
693.73	33751.2
694.077	33696.52
694.423	33533.58
694.769	33391.21
695.116	33381.5
695.462	33339.91
695.808	33269.63
696.155	33248.17
696.501	32962.52
696.847	33051.11
697.193	32784.22
697.539	32854.5
697.885	32818.57
698.231	32613.83
698.577	32588.75
698.923	32569.09
699.269	32332.26
699.614	32293.84
699.96	32178.14
700.306	32158.48
700.651	32210.68
700.997	31958.03
701.342	31937.92
701.688	31853.63
702.033	31838.03
702.379	31727.75
702.724	31628.55
703.069	31530.7
703.415	31262.45
703.76	31369.12
704.105	31348.33
704.45	31259.07
704.795	31014.55
705.14	30866.53
705.485	31099.07
705.83	30900.88
706.175	30816.82
706.52	30824.95
706.865	30716.93
707.209	30689.14
707.554	30561
707.899	30530.95
708.243	30394.68
708.588	30388.81
708.932	30317.85
709.277	30245.98
709.621	30174.35
709.966	30074.24
710.31	30144.74
710.654	29885.77
710.998	29924.86
711.342	29857.29
711.687	29856.62
712.031	29688.48
712.375	29661.82
712.719	29571.2
713.063	29464.08
713.407	29718.31
713.75	29582.5
714.094	29516.29
714.438	29417.98
714.782	29378.89
715.125	29239.01
715.469	29352.67
715.812	29093.7
716.156	28971.44
716.499	29031.78
716.843	29041.5
717.186	28805.8
717.53	28976.87
717.873	28898.22
718.216	28789.53
718.559	28778.68
718.902	28625.24
719.246	28684.67
719.589	28723.31
719.932	28440.16
720.275	28484.9
720.617	28424.79
720.96	28225.25
721.303	28315.64
721.646	28315.87
721.989	28267.05
722.331	28272.93
722.674	28138.24
723.016	28085.82
723.359	28097.79
723.701	28072.93
724.044	27860.51
724.386	27726.05
724.729	27959.26
725.071	27811.02
725.413	27815.77
725.755	27770.57
726.097	27660.52
726.439	27515.21
726.782	27569.9
727.124	27678.59
727.465	27438.6
727.807	27559.5
728.149	27424.59
728.491	27308.43
728.833	27374.42
729.175	27278.83
729.516	27206.74
729.858	27274.09
730.199	27235.89
730.541	27164.48
730.882	27097.37
731.224	27287.64
731.565	27054.43
731.906	27121.77
732.248	27018.27
732.589	26910.7
732.93	26771.05
733.271	26852.85
733.612	26858.95
733.953	26850.37
734.294	26643.37
734.635	26652.41
734.976	26696.02
735.317	26541.22
735.658	26497.83
735.999	26545.74
736.339	26490.83
736.68	26563.6
737.021	26470.26
737.361	26329.25
737.702	26466.65
738.042	26406.31
738.383	26350.49
738.723	26361.11
739.063	26301
739.404	26275.47
739.744	26204.96
740.084	26065.3
740.424	26151.18
740.764	25966.32
741.104	26149.59
741.444	25869.38
741.784	25872.09
742.124	25950.5
742.464	25804.29
742.804	25782.82
743.143	25809.49
743.483	25836.83
743.823	25546.67
744.162	25562.04
744.502	25722.71
744.841	25592.32
745.181	25583.73
745.52	25478.43
745.86	25558.65
746.199	25446.34
746.538	25323.63
746.877	25493.57
747.216	25364.53
747.556	25264.65
747.895	25317.3
748.234	25280.24
748.573	25265.1
748.911	25131.77
749.25	25193.24
749.589	24993.92
749.928	25060.58
750.267	24986.24
750.605	25038.89
750.944	24901.49
751.283	24856.52
751.621	24836.18
751.96	24799.12
752.298	24685.45
752.636	24621.73
752.975	24610.2
753.313	24450.66
753.651	24606.81
753.989	24491.33
754.327	24470.32
754.666	24271.45
755.004	24273.03
755.342	24340.15
755.679	24289.76
756.017	24152.13
756.355	24239.59
756.693	24017.67
757.031	24126.37
757.368	24051.57
757.706	23833.05
758.044	23923.21
758.381	23919.82
758.719	23802.76
759.056	23803.44
759.394	23692.26
759.731	23632.6
760.068	23570.23
760.405	23525.71
760.743	23409.33
761.08	23503.56
761.417	23259.05
761.754	23281.42
762.091	23123.91
762.428	23116.68
762.765	22983.8
763.102	23095.66
763.438	22896.35
763.775	22746.29
764.112	22838.27
764.449	22685.96
764.785	22745.62
765.122	22454.32
765.458	22461.1
765.795	22403.7
766.131	22464.04
766.467	22372.29
766.804	22311.5
767.14	22064.73
767.476	22178.85
767.812	21991.96
768.148	22056.82
768.485	21877.16
768.821	21775.25
769.157	21733.67
769.492	21679.43
769.828	21617.96
770.164	21442.83
770.5	21394.92
770.836	21406.67
771.171	21356.95
771.507	21226.33
771.842	21036.06
772.178	21117.86
772.513	21064.98
772.849	20993.57
773.184	20822.28
773.519	20811.88
773.855	20773.92
774.19	20624.54
774.525	20594.94
774.86	20565.79
775.195	20563.08
775.53	20468.84
775.865	20267.26
776.2	20218.9
776.535	20069.08
776.87	20081.05
777.205	20017.55
777.539	19810.78
777.874	19961.74
778.209	19642.65
778.543	19741.85
778.878	19638.81
779.212	19627.05
779.547	19440.39
779.881	19502.31
780.215	19296.22
780.55	19411.47
780.884	19171.93
781.218	19254.63
781.552	19183.9
781.886	19058.48
782.22	18988.65
782.554	18912.05
782.888	18771.94
783.222	18648.78
783.556	18557.93
783.889	18575.56
784.223	18431.61
784.557	18414.66
784.89	18437.71
785.224	18326.3
785.557	18226.19
785.891	18241.1
786.224	18172.4
786.558	18095.12
786.891	17970.6
787.224	17898.74
787.557	17797.5
787.891	17896.03
788.224	17839.08
788.557	17832.3
788.89	17689.25
789.223	17694.45
789.556	17530.61
789.888	17484.96
790.221	17456.72
790.554	17243.84
790.887	17297.4
791.219	17181.24
791.552	17147.35
791.884	17049.04
792.217	17053.56
792.549	17024.19
792.882	16846.11
793.214	16809.5
793.546	16827.35
793.879	16749.39
794.211	16665.1
794.543	16670.07
794.875	16558.43
795.207	16679.79
795.539	16449.28
795.871	16495.84
796.203	16334.71
796.535	16340.81
796.867	16248.84
797.198	16237.31
797.53	16290.19
797.862	16178.33
798.193	16103.98
798.525	16021.5
798.856	16037.32
799.188	15838.45
799.519	15797.32
799.85	15791.45
800.182	15741.51
800.513	15756.87
800.844	15626.48
801.175	15575.18
801.506	15600.72
801.837	15506.03
802.168	15405.02
802.499	15417.67
802.83	15357.56
803.161	15240.5
803.491	15299.71
803.822	15344.23
804.153	15168.19
804.483	15118.92
804.814	15003.45
805.145	15062.2
805.475	15027.85
805.805	14925.48
806.136	14926.16
806.466	14934.97
806.796	14883.68
807.126	14791.02
807.457	14679.16
807.787	14719.39
808.117	14629.22
808.447	14583.12
808.777	14613.18
809.107	14566.62
809.436	14426.51
809.766	14525.72
810.096	14469
810.426	14361.2
810.755	14319.62
811.085	14310.81
811.414	14308.78
811.744	14231.49
812.073	14165.96
812.403	14160.31
812.732	14124.6
813.061	14128.22
813.39	13996.92
813.719	13982.23
814.049	14049.12
814.378	13876.7
814.707	13894.78
815.036	13925.74
815.365	13851.39
815.693	13725.97
816.022	13719.41
816.351	13668.12
816.68	13561
817.008	13602.58
817.337	13567.1
817.665	13486.88
817.994	13448.69
818.322	13506.99
818.651	13430.61
818.979	13368.69
819.307	13430.83
819.636	13349.03
819.964	13268.13
820.292	13289.82
820.62	13323.72
820.948	13267.9
821.276	13444.17
821.604	13197.39
821.932	13315.58
822.259	13250.27
822.587	13210.95
822.915	13191.29
823.243	13325.53
823.57	13192.2
823.898	13174.34
824.225	13238.3
824.553	13207.11
824.88	13216.38
825.207	13166.89
825.535	13211.86
825.862	13165.98
826.189	13172.08
826.516	13241.46
826.843	13203.04
827.17	13228.8
827.497	13277.39
827.824	13327.11
828.151	13241.91
828.478	13175.02
828.805	13223.38
829.131	13167.79
829.458	13142.71
829.785	13044.18
830.111	13127.34
830.438	13094.57
830.764	13209.37
831.09	13170.95
831.417	13084.4
831.743	13168.47
832.069	13120.11
832.395	13097.51
832.722	13110.84
833.048	13124.4
833.374	13049.37
833.7	13079.66
834.026	13013.44
834.351	13006.89
834.677	12977.96
835.003	13007.34
835.329	12980.45
835.654	12904.75
835.98	12938.19
836.306	12880.57
836.631	12840.11
836.956	12986.55
837.282	12914.69
837.607	12833.79
837.932	12839.66
838.258	12791.75
838.583	12789.95
838.908	12676.95
839.233	12758.31
839.558	12668.14
839.883	12657.52
840.208	12667.92
840.533	12673.34
840.858	12587.69
841.182	12623.17
841.507	12638.31
841.832	12534.36
842.156	12575.71
842.481	12523.29
842.805	12481.93
843.13	12422.27
843.454	12359
843.778	12307.02
844.103	12310.64
844.427	12355.16
844.751	12326
845.075	12293.91
845.399	12307.02
845.723	12195.84
846.047	12198.1
846.371	12179.11
846.695	12202.84
847.019	12001.94
847.343	11944.09
847.666	11921.72
847.99	11783.87
848.313	11807.6
848.637	11793.81
848.96	11678.34
849.284	11686.02
849.607	11585.46
849.931	11577.55
850.254	11557.89
850.577	11395.18
850.9	11376.42
851.223	11354.73
851.546	11310.66
851.869	11233.15
852.192	11234.51
852.515	11135.3
852.838	11117
853.161	11189.76
853.483	11122.87
853.806	11031.35
854.129	10992.25
854.451	10998.13
854.774	10963.33
855.096	10929.66
855.419	10844.46
855.741	10857.12
856.063	10775.08
856.385	10773.95
856.708	10726.05
857.03	10713.84
857.352	10676.1
857.674	10571.47
857.996	10624.35
858.318	10519.27
858.64	10576.45
858.961	10524.02
859.283	10559.27
859.605	10364.02
859.926	10514.98
860.248	10311.59
860.57	10387.75
860.891	10419.84
861.212	10356.34
861.534	10363.57
861.855	10223.23
862.176	10295.55
862.498	10292.61
862.819	10250.13
863.14	10190.92
863.461	10149.34
863.782	10154.76
864.103	10172.61
864.424	10100.75
864.745	10149.79
865.065	10080.64
865.386	9967.65
865.707	10016.01
866.027	10023.69
866.348	9965.16
866.668	10006.97
866.989	9924.71
867.309	9953.18
867.63	9929
867.95	9956.57
868.27	9838.84
868.59	9912.73
868.91	9828.89
869.23	9915.9
869.55	9803.13
869.87	9877.48
870.19	9834.09
870.51	9883.58
870.83	9776.47
871.15	9702.12
871.469	9725.62
871.789	9819.85
872.109	9738.28
872.428	9703.47
872.748	9710.93
873.067	9656.7
873.386	9742.34
873.706	9649.01
874.025	9612.4
874.344	9586.41
874.663	9571.5
874.982	9590.93
875.301	9585.74
875.62	9493.08
875.939	9542.12
876.258	9550.26
876.577	9457.15
876.896	9538.05
877.214	9443.37
877.533	9508.45
877.852	9436.81
878.17	9420.32
878.489	9455.8
878.807	9380.09
879.125	9388.68
879.444	9352.97
879.762	9393.2
880.08	9360.43
880.398	9292.86
880.716	9330.83
881.034	9268.91
881.352	9230.04
881.67	9244.28
881.988	9191.4
882.306	9220.77
882.624	9174.67
882.941	9079.99
883.259	9119.99
883.577	9162.92
883.894	9071.85
884.212	9012.87
884.529	9030.05
884.846	9034.79
885.164	8965.64
885.481	8944.62
885.798	8960.44
886.115	8919.09
886.432	8936.04
886.75	8905.98
887.067	8904.85
887.383	8790.28
887.7	8811.52
888.017	8832.54
888.334	8795.25
888.651	8801.35
888.967	8761.58
889.284	8724.06
889.6	8684.97
889.917	8575.37
890.233	8641.58
890.55	8612.65
890.866	8571.07
891.182	8536.27
891.498	8543.05
891.815	8482.94
892.131	8466.44
892.447	8436.39
892.763	8406.78
893.079	8416.05
893.395	8359.55
893.71	8369.72
894.026	8328.14
894.342	8325.43
894.657	8248.82
894.973	8325.66
895.289	8216.73
895.604	8235.04
895.92	8154.81
896.235	8112.1
896.55	8121.14
896.865	8119.56
897.181	8095.38
897.496	8068.49
897.811	8042.05
898.126	7946.91
898.441	7945.1
898.756	7951.88
899.071	7922.73
899.386	7898.1
899.7	7812
900.015	7840.92
900.33	7788.72
900.644	7786.01
900.959	7727.03
901.273	7727.48
901.588	7607.26
901.902	7600.48
902.216	7586.92
902.531	7575.17
902.845	7606.13
903.159	7527.71
903.473	7540.59
903.787	7484.55
904.101	7427.6
904.415	7418.34
904.729	7383.08
905.042	7320.71
905.356	7309.64
905.67	7261.05
905.984	7338.34
906.297	7259.47
906.611	7245.23
906.924	7254.95
907.237	7221.96
907.551	7196.87
907.864	7162.75
908.177	7081.62
908.491	7116.42
908.804	7030.78
909.117	7045.24
909.43	6988.74
909.743	6945.13
910.056	6936.31
910.368	6921.63
910.681	6887.5
910.994	6856.54
911.307	6809.54
911.619	6749.43
911.932	6756.66
912.244	6734.51
912.557	6784.45
912.869	6769.09
913.181	6705.36
913.494	6630.79
913.806	6612.03
914.118	6603.22
914.43	6544.01
914.742	6548.98
915.054	6466.04
915.366	6478.93
915.678	6426.95
915.99	6432.6
916.302	6354.86
916.613	6328.2
916.925	6349.21
917.236	6306.5
917.548	6274.86
917.859	6280.29
918.171	6183.79
918.482	6233.73
918.794	6194.64
919.105	6210.01
919.416	6099.5
919.727	6131.14
920.038	6082.33
920.349	6052.72
920.66	5988.77
920.971	6026.51
921.282	5988.54
921.593	5966.62
921.903	5925.04
922.214	5891.82
922.525	5899.51
922.835	5886.85
923.146	5822.9
923.456	5834.2
923.767	5779.96
924.077	5788.32
924.387	5807.3
924.697	5777.25
925.008	5689.57
925.318	5699.29
925.628	5726.63
925.938	5678.04
926.248	5558.27
926.558	5585.16
926.867	5572.51
927.177	5538.16
927.487	5518.95
927.796	5494.32
928.106	5477.82
928.416	5409.58
928.725	5470.36
929.034	5383.36
929.344	5431.95
929.653	5391.27
929.962	5375.9
930.271	5280.54
930.581	5306.75
930.89	5262.01
931.199	5199.64
931.508	5198.51
931.817	5205.51
932.125	5190.82
932.434	5156.93
932.743	5086.19
933.051	5095.46
933.36	5050.71
933.669	5033.77
933.977	5006.65
934.286	5012.98
934.594	4989.7
934.902	4941.11
935.21	4945.86
935.519	4940.89
935.827	4928.68
936.135	4911.74
936.443	4862.7
936.751	4811.4
937.059	4807.56
937.367	4771.4
937.674	4760.1
937.982	4778.18
938.29	4730.5
938.597	4705.41
938.905	4717.84
939.213	4661.57
939.52	4687.33
939.827	4705.41
940.135	4655.7
940.442	4615.92
940.749	4532.08
941.056	4620.67
941.363	4570.5
941.67	4539.09
941.977	4497.73
942.284	4519.2
942.591	4497.28
942.898	4448.92
943.205	4463.61
943.511	4388.36
943.818	4387
944.125	4367.34
944.431	4362.6
944.738	4317.63
945.044	4261.36
945.35	4304.07
945.657	4276.72
945.963	4256.84
946.269	4267.01
946.575	4238.31
946.881	4236.72
947.187	4236.72
947.493	4198.53
947.799	4180.46
948.105	4142.49
948.41	4086.45
948.716	4138.65
949.022	4121.7
949.327	4096.84
949.633	4024.75
949.938	4033.79
950.244	4059.55
950.549	4002.15
950.854	3965.09
951.16	3930.29
951.465	3976.17
951.77	3936.85
952.075	3918.32
952.38	3913.8
952.685	3872.89
952.99	3890.97
953.294	3895.04
953.599	3850.52
953.904	3816.4
954.209	3773.01
954.513	3761.93
954.818	3765.55
955.122	3740.01
955.426	3747.47
955.731	3738.21
956.035	3682.62
956.339	3716.51
956.643	3690.07
956.948	3638.55
957.252	3613.46
957.556	3601.71
957.86	3601.71
958.163	3601.04
958.467	3601.04
958.771	3577.53
959.075	3577.76
959.378	3551.32
959.682	3549.06
959.985	3516.07
960.289	3476.74
960.592	3456.18
960.896	3464.32
961.199	3447.59
961.502	3413.47
961.805	3424.99
962.108	3399.23
962.411	3399.01
962.714	3377.99
963.017	3333.92
963.32	3336.64
963.623	3316.3
963.926	3332.34
964.228	3275.62
964.531	3310.87
964.833	3275.17
965.136	3246.24
965.438	3219.58
965.741	3220.03
966.043	3199.92
966.345	3202.18
966.648	3233.14
966.95	3170.09
967.252	3171.67
967.554	3129.18
967.856	3125.12
968.158	3114.72
968.46	3095.06
968.761	3079.24
969.063	3063.87
969.365	3067.94
969.666	3021.62
969.968	3039.47
970.269	2991.79
970.571	2979.58
970.872	3004.21
971.174	2990.2
971.475	2985.01
971.776	2945.01
972.077	2940.94
972.378	2943.2
972.679	2943.43
972.98	2935.74
973.281	2902.07
973.582	2910.66
973.883	2855.74
974.183	2871.79
974.484	2852.58
974.785	2840.6
975.085	2838.12
975.386	2814.62
975.686	2802.86
975.986	2792.69
976.287	2766.25
976.587	2759.25
976.887	2777.1
977.187	2758.35
977.487	2704.11
977.787	2720.61
978.087	2669.31
978.387	2667.5
978.687	2711.79
978.987	2635.64
979.286	2674.96
979.586	2669.08
979.885	2636.31
980.185	2568.75
980.484	2617.78
980.784	2636.77
981.083	2582.76
981.382	2575.07
981.682	2558.8
981.981	2569.42
982.28	2569.2
982.579	2533.49
982.878	2529.2
983.177	2500.5
983.475	2499.14
983.774	2508.18
984.073	2498.47
984.372	2454.62
984.67	2449.2
984.969	2472.25
985.267	2448.98
985.566	2417.34
985.864	2408.3
986.162	2422.76
986.461	2393.84
986.759	2385.47
987.057	2382.08
987.355	2356.55
987.653	2369.66
987.951	2321.07
988.249	2334.18
988.547	2366.27
988.844	2291.92
989.142	2311.35
989.44	2284.23
989.737	2321.75
990.035	2252.6
990.332	2261.41
990.63	2248.3
990.927	2233.39
991.224	2234.74
991.521	2203.78
991.819	2211.24
992.116	2237
992.413	2194.07
992.71	2178.02
993.006	2168.08
993.303	2152.94
993.6	2180.73
993.897	2150.23
994.193	2134.63
994.49	2108.42
994.787	2134.41
995.083	2077.46
995.379	2090.57
995.676	2056.22
995.972	2061.19
996.268	2074.07
996.565	2028.42
996.861	2044.01
997.157	2025.94
997.453	2010.12
997.749	2011.25
998.044	2014.64
998.34	2019.83
998.636	1999.5
998.932	1973.51
999.227	1961.76
999.523	1909.33
999.818	1943
1000.114	1927.63
1000.409	1917.92
1000.704	1919.27
1001	1900.52
1001.295	1893.74
1001.59	1872.72
1001.885	1868.2
1002.18	1857.13
1002.475	1851.25
1002.77	1852.83
1003.065	1828.43
1003.359	1838.14
1003.654	1834.75
1003.949	1819.39
1004.243	1781.87
1004.538	1758.15
1004.832	1751.59
1005.127	1764.93
1005.421	1755.89
1005.715	1752.5
1006.009	1711.82
1006.304	1729.9
1006.598	1733.51
1006.892	1701.2
1007.186	1728.54
1007.48	1689.45
1007.773	1673.85
1008.067	1698.03
1008.361	1667.53
1008.655	1658.26
1008.948	1620.52
1009.242	1637.92
1009.535	1622.78
1009.829	1624.36
1010.122	1601.31
1010.415	1580.07
1010.708	1585.72
1011.001	1558.6
1011.295	1560.18
1011.588	1550.02
1011.881	1563.8
1012.173	1550.69
1012.466	1542.33
1012.759	1524.71
1013.052	1547.08
1013.344	1519.73
1013.637	1515.44
1013.93	1501.2
1014.222	1501.66
1014.514	1510.69
1014.807	1488.1
1015.099	1475.44
1015.391	1459.62
1015.683	1472.73
1015.976	1414.88
1016.268	1409.91
1016.56	1444.48
1016.851	1412.17
1017.143	1418.04
1017.435	1388.66
1017.727	1402.45
1018.018	1366.29
1018.31	1381.43
1018.602	1373.52
1018.893	1380.75
1019.185	1336.24
1019.476	1321.1
1019.767	1329.23
1020.058	1345.28
1020.35	1317.71
1020.641	1308.89
1020.932	1300.08
1021.223	1317.48
1021.514	1282.68
1021.804	1254.2
1022.095	1242
1022.386	1253.75
1022.677	1246.07
1022.967	1245.84
1023.258	1244.26
1023.548	1228.44
1023.839	1210.59
1024.129	1219.18
1024.419	1189.8
1024.709	1214.88
1025	1190.03
1025.29	1195.45
1025.58	1157.48
1025.87	1156.58
1026.16	1143.92
1026.449	1143.02
1026.739	1149.57
1027.029	1161.1
1027.319	1111.84
1027.608	1140.99
1027.898	1110.93
1028.187	1098.95
1028.477	1089.69
1028.766	1115
1029.055	1070.25
1029.344	1094.89
1029.634	1065.73
1029.923	1062.57
1030.212	1081.1
1030.501	1065.51
1030.79	1062.34
1031.078	1047.43
1031.367	1031.61
1031.656	1044.72
1031.945	1034.55
1032.233	1039.07
1032.522	992.52
1032.81	1030.93
1033.099	997.26
1033.387	992.52
1033.675	988
1033.963	986.64
1034.251	988.9
1034.54	969.69
1034.828	958.84
1035.116	945.51
1035.403	944.38
1035.691	967.43
1035.979	963.14
1036.267	962.69
1036.554	933.53
1036.842	896.02
1037.129	923.14
1037.417	896.93
1037.704	894.89
1037.992	876.36
1038.279	915.46
1038.566	880.2
1038.853	880.2
1039.14	880.2
