Data from hue_32_FLMS001491_00088.txt Node
Date: Tue Feb 07 17:24:02 GMT 2017
User: dcchb
Spectrometer: FLMS00149
Trigger mode: 0
Integration Time (sec): 2.000000E-2
Scans to average: 10
Electric dark correction enabled: true
Nonlinearity correction enabled: false
Boxcar width: 0
XAxis mode: Wavelengths
Number of Pixels in Spectrum: 2048
>>>>>Begin Spectral Data<<<<<
341.393	-10.71
341.776	-10.71
342.16	-10.71
342.543	-77.14
342.927	-94.32
343.31	-67.88
343.693	-70.37
344.077	-57.71
344.46	-60.87
344.843	-42.8
345.226	-28.56
345.61	-19.75
345.993	-22.68
346.376	-4.83
346.759	9.18
347.142	11.44
347.525	37.65
347.908	64.77
348.291	69.52
348.674	83.3
349.057	99.57
349.44	124.88
349.823	147.93
350.206	177.31
350.588	218.44
350.971	210.31
351.354	220.25
351.737	233.36
352.119	244.2
352.502	260.47
352.884	283.75
353.267	276.74
353.65	301.38
354.032	321.04
354.414	320.36
354.797	304.99
355.179	297.53
355.562	320.81
355.944	340.92
356.326	327.36
356.709	333.01
357.091	342.73
357.473	346.8
357.855	346.12
358.238	339.57
358.62	363.52
359.002	347.25
359.384	351.32
359.766	349.96
360.148	339.12
360.53	350.41
360.912	334.6
361.294	335.73
361.676	349.06
362.057	324.43
362.439	330.3
362.821	332.11
363.203	317.42
363.584	300.7
363.966	324.2
364.348	313.13
364.729	337.31
365.111	321.04
365.493	346.8
365.874	319.23
366.256	331.43
366.637	330.53
367.019	309.29
367.4	300.92
367.781	323.75
368.163	304.77
368.544	312
368.925	306.57
369.306	310.64
369.688	314.48
370.069	302.51
370.45	325.78
370.831	327.36
371.212	304.54
371.593	304.54
371.974	327.14
372.355	321.71
372.736	329.4
373.117	326.91
373.498	325.56
373.879	330.75
374.26	322.84
374.641	327.82
375.021	312.9
375.402	323.75
375.783	319
376.163	323.75
376.544	319.68
376.925	323.52
377.305	325.1
377.686	326.91
378.066	332.56
378.447	330.98
378.827	337.53
379.208	343.86
379.588	341.15
379.968	328.72
380.349	334.37
380.729	313.35
381.109	340.92
381.489	326.23
381.87	344.31
382.25	346.8
382.63	351.77
383.01	341.38
383.39	332.11
383.77	340.02
384.15	364.2
384.53	349.06
384.91	339.57
385.29	354.03
385.67	345.89
386.049	373.46
386.429	365.78
386.809	397.42
387.189	337.53
387.568	329.17
387.948	354.71
388.328	377.76
388.707	364.88
389.087	358.78
389.466	359.91
389.846	366.69
390.225	373.69
390.605	374.37
390.984	353.35
391.363	361.49
391.743	366.01
392.122	360.36
392.501	365.1
392.881	378.66
393.26	365.78
393.639	390.41
394.018	374.82
394.397	374.37
394.776	390.19
395.155	389.74
395.534	381.83
395.913	379.79
396.292	378.21
396.671	359.45
397.05	392.9
397.429	369.85
397.808	389.51
398.186	403.29
398.565	393.35
398.944	406.46
399.323	400.36
399.701	404.2
400.08	400.36
400.458	403.52
400.837	429.06
401.215	391.09
401.594	408.72
401.972	412.33
402.351	397.19
402.729	415.95
403.107	427.47
403.486	429.96
403.864	413.46
404.242	404.2
404.62	440.13
404.999	447.81
405.377	442.62
405.755	431.54
406.133	431.54
406.511	437.64
406.889	423.63
407.267	450.98
407.645	431.99
408.023	438.55
408.401	435.16
408.779	465.21
409.156	462.95
409.534	455.5
409.912	454.59
410.29	462.95
410.667	437.87
411.045	455.27
411.422	467.25
411.8	468.6
412.178	459.56
412.555	475.83
412.933	466.34
413.31	498.66
413.687	476.06
414.065	483.74
414.442	503.18
414.819	483.29
415.197	488.94
415.574	516.74
415.951	524.2
416.328	509.96
416.705	492.78
417.082	524.65
417.46	516.74
417.837	530.3
418.214	535.95
418.591	512.22
418.967	536.17
419.344	538.21
419.721	524.65
420.098	533.46
420.475	544.53
420.852	556.96
421.228	546.57
421.605	562.16
421.982	580.24
422.358	562.61
422.735	567.36
423.111	550.18
423.488	555.38
423.864	593.12
424.241	573.01
424.617	564.42
424.994	574.14
425.37	562.84
425.746	581.82
426.123	590.41
426.499	623.4
426.875	603.06
427.251	608.03
427.627	599.45
428.003	605.1
428.379	624.76
428.756	608.94
429.132	640.8
429.507	618.88
429.883	627.47
430.259	640.8
430.635	642.61
431.011	635.38
431.387	652.1
431.763	640.58
432.138	654.14
432.514	669.28
432.89	678.09
433.265	690.29
433.641	705.89
434.016	688.71
434.392	670.86
434.767	698.88
435.143	713.34
435.518	712.44
435.894	743.62
436.269	714.47
436.644	718.77
437.02	726.9
437.395	711.08
437.77	740.91
438.145	765.77
438.52	778.43
438.895	778.2
439.271	753.79
439.646	759.44
440.021	748.37
440.395	803.06
440.77	790.63
441.145	787.92
441.52	798.31
441.895	800.12
442.27	834.24
442.645	814.58
443.019	825.66
443.394	825.66
443.769	821.81
444.143	823.17
444.518	852.77
444.892	839.44
445.267	818.2
445.641	839.22
446.016	847.58
446.39	884.64
446.764	862.04
447.139	858.65
447.513	881.25
447.887	891.87
448.262	867.01
448.636	890.97
449.01	883.28
449.384	909.72
449.758	888.48
450.132	905.88
450.506	939.1
450.88	904.52
451.254	917.41
451.628	934.35
452.002	951.98
452.376	950.4
452.75	965.09
453.123	961.92
453.497	1002.6
453.871	991.3
454.244	1027.01
454.618	1008.93
454.992	1036.72
455.365	1041.7
455.739	1079.66
456.112	1052.77
456.486	1029.04
456.859	1043.5
457.232	1067.68
457.606	1068.36
457.979	1120.79
458.352	1098.87
458.725	1111.98
459.099	1139.32
459.472	1144.74
459.845	1155.14
460.218	1173.44
460.591	1166.66
460.964	1166.21
461.337	1208.7
461.71	1225.65
462.083	1227.23
462.456	1238.07
462.829	1243.5
463.201	1280.79
463.574	1266.77
463.947	1293.89
464.32	1334.57
464.692	1342.48
465.065	1350.16
465.438	1351.97
465.81	1376.83
466.183	1389.03
466.555	1417.96
466.928	1424.96
467.3	1440.56
467.672	1432.19
468.045	1490.05
468.417	1486.43
468.789	1526.2
469.161	1533.43
469.534	1548.12
469.906	1613.43
470.278	1599.65
470.65	1625.41
471.022	1660.44
471.394	1691.17
471.766	1719.64
472.138	1735.01
472.51	1759.64
472.882	1806.87
473.253	1833.54
473.625	1887.78
473.997	1925.51
474.369	1930.03
474.74	1953.99
475.112	1992.63
475.484	2040.77
475.855	2089.35
476.227	2105.4
476.598	2166.64
476.97	2201.67
477.341	2261.32
477.713	2312.17
478.084	2309.69
478.455	2403.02
478.827	2457.93
479.198	2503.58
479.569	2534.99
479.94	2633.97
480.311	2666.29
480.682	2752.39
481.053	2795.1
481.424	2871.03
481.795	2941.31
482.166	3000.97
482.537	3076.44
482.908	3156.44
483.279	3196.67
483.65	3264.69
484.021	3369.77
484.391	3421.75
484.762	3472.82
485.133	3540.61
485.503	3593.72
485.874	3696.77
486.244	3801.62
486.615	3902.19
486.985	3965.01
487.356	4119.35
487.726	4130.65
488.097	4272.8
488.467	4293.36
488.837	4417.2
489.207	4479.8
489.578	4563.64
489.948	4634.14
490.318	4746.01
490.688	4788.94
491.058	4911.2
491.428	5027.81
491.798	5084.08
492.168	5226.22
492.538	5284.52
492.908	5354.8
493.278	5453.56
493.648	5457.85
494.017	5638.19
494.387	5701.91
494.757	5729.03
495.126	5783.72
495.496	5905.97
495.866	5964.5
496.235	6085.4
496.605	6136.03
496.974	6272.52
497.344	6282.91
497.713	6297.83
498.082	6346.64
498.452	6507.09
498.821	6553.42
499.19	6630.93
499.559	6735.56
499.928	6792.73
500.298	6841.09
500.667	6984.82
501.036	6917.47
501.405	7104.59
501.774	7112.95
502.143	7220.29
502.512	7253.06
502.88	7327.86
503.249	7301.19
503.618	7419.83
503.987	7490.11
504.356	7644.46
504.724	7586.38
505.093	7658.02
505.462	7692.14
505.83	7789.31
506.199	7857.56
506.567	7944.79
506.936	7979.37
507.304	8029.76
507.672	8101.85
508.041	8208.06
508.409	8249.87
508.777	8268.17
509.145	8281.96
509.514	8326.25
509.882	8457.55
510.25	8423.42
510.618	8533.02
510.986	8586.36
511.354	8597.88
511.722	8720.82
512.09	8771.89
512.458	8766.24
512.826	8873.81
513.193	8940.7
513.561	8910.87
513.929	9059.34
514.297	9107.47
514.664	9213.46
515.032	9191.99
515.4	9328.71
515.767	9261.59
516.135	9337.75
516.502	9326.45
516.869	9502.26
517.237	9512.43
517.604	9482.83
517.972	9610.28
518.339	9609.83
518.706	9644.41
519.073	9668.14
519.44	9663.62
519.808	9881.69
520.175	9863.16
520.542	9983.83
520.909	9991.52
521.276	10038.07
521.643	10142.25
522.009	10130.27
522.376	10232.19
522.743	10308.8
523.11	10352.19
523.477	10417.27
523.843	10464.27
524.21	10587.66
524.577	10614.55
524.943	10640.09
525.31	10782.91
525.676	10738.39
526.043	10903.36
526.409	10942
526.776	11023.35
527.142	11062
527.508	11165.95
527.874	11212.95
528.241	11230.81
528.607	11261.54
528.973	11421.76
529.339	11414.53
529.705	11508.77
530.071	11618.37
530.437	11704.47
530.803	11689.1
531.169	11715.99
531.535	11804.8
531.901	11819.49
532.267	11822.2
532.632	11914.18
532.998	11908.08
533.364	12207.28
533.73	12064.46
534.095	12258.58
534.461	12254.28
534.826	12301.06
535.192	12345.58
535.557	12329.53
535.923	12431.23
536.288	12546.48
536.653	12536.08
537.019	12604.56
537.384	12574.95
537.749	12775.85
538.114	12672.8
538.479	12659.02
538.845	12788.05
539.21	12791.67
539.575	12877.09
539.94	12935.17
540.305	13015.84
540.67	13011.32
541.034	13094.49
541.399	13108.05
541.764	13151.21
542.129	13299.45
542.494	13259.45
542.858	13427.36
543.223	13407.02
543.587	13449.96
543.952	13502.61
544.316	13529.95
544.681	13508.03
545.045	13619.9
545.41	13733.11
545.774	13770.85
546.138	13855.14
546.503	13797.74
546.867	13842.49
547.231	13968.59
547.595	14003.61
547.959	14078.64
548.324	14046.33
548.688	14086.55
549.052	14120.67
549.416	14202.25
549.779	14200.67
550.143	14331.29
550.507	14392.53
550.871	14463.04
551.235	14350.5
551.599	14503.49
551.962	14522.47
552.326	14520.44
552.689	14694.22
553.053	14572.19
553.417	14588.91
553.78	14905.29
554.143	14769.24
554.507	14895.57
554.87	14959.52
555.234	15041.1
555.597	14967.21
555.96	15082.91
556.323	15127.88
556.686	15143.92
557.05	15277.03
557.413	15311.83
557.776	15256.46
558.139	15466.85
558.502	15459.17
558.865	15468.89
559.228	15546.63
559.59	15578.71
559.953	15580.97
560.316	15717.69
560.679	15791.36
561.041	15952.72
561.404	15897.8
561.767	15992.94
562.129	16024.58
562.492	16064.58
562.854	16182.77
563.217	16132.37
563.579	16220.05
563.941	16314.29
564.304	16363.55
564.666	16430.9
565.028	16449.65
565.39	16504.11
565.753	16600.83
566.115	16580.5
566.477	16809.64
566.839	16674.05
567.201	16891.22
567.563	16839.7
567.925	17029.3
568.287	17021.39
568.648	17109.07
569.01	17167.37
569.372	17325.56
569.734	17288.27
570.095	17412.56
570.457	17369.63
570.819	17475.39
571.18	17515.84
571.542	17574.82
571.903	17604.65
572.265	17741.37
572.626	17765.78
572.987	17900.01
573.349	17933.23
573.71	17995.15
574.071	18178.42
574.432	18243.73
574.794	18425.87
575.155	18459.99
575.516	18431.07
575.877	18706.54
576.238	18753.09
576.599	18809.59
576.96	18800.78
577.32	19089.81
577.681	19152.86
578.042	19429.46
578.403	19434.88
578.763	19568.44
579.124	19640.98
579.485	19882.1
579.845	19965.27
580.206	20093.62
580.566	20277.35
580.927	20427.85
581.287	20673.27
581.648	20675.53
582.008	20965.47
582.368	21061.28
582.728	21308.96
583.089	21400.26
583.449	21463.76
583.809	21863.97
584.169	22124.98
584.529	22186
584.889	22544.41
585.249	22663.95
585.609	22747.34
585.969	23107.78
586.329	23423.48
586.688	23513.87
587.048	23714.32
587.408	23854.2
587.768	24103.46
588.127	24514.98
588.487	24559.27
588.846	24942.08
589.206	25057.34
589.565	25245.13
589.925	25663.42
590.284	25827.03
590.643	26036.29
591.003	26501.59
591.362	26682.6
591.721	26922.82
592.08	27079.88
592.44	27408.69
592.799	27609.13
593.158	27942.23
593.517	28118.72
593.876	28475.1
594.235	28636.9
594.593	28880.74
594.952	29214.29
595.311	29353.95
595.67	29677.33
596.029	30154.15
596.387	30363.64
596.746	30643.63
597.104	30673.68
597.463	30949.16
597.822	31323.16
598.18	31392.31
598.538	31654.22
598.897	32011.28
599.255	31978.51
599.613	32658.04
599.972	32616.91
600.33	32944.59
600.688	33095.09
601.046	33371.47
601.404	33725.36
601.762	33910.66
602.12	34167.38
602.478	34370.31
602.836	34532.79
603.194	34675.61
603.552	34876.74
603.91	34956.74
604.268	35344.75
604.625	35451.86
604.983	35634.23
605.341	35793.32
605.698	35976.37
606.056	36310.15
606.413	36525.28
606.771	36722.11
607.128	36827.2
607.485	36847.08
607.843	37053.63
608.2	37477.8
608.557	37685.93
608.914	37657.68
609.272	37993.49
609.629	38203.66
609.986	38303.77
610.343	38235.97
610.7	38670.08
611.057	38678.22
611.414	38858.1
611.771	39013.8
612.127	39231.43
612.484	39415.83
612.841	39552.1
613.198	39533.34
613.554	39614.24
613.911	39926.55
614.267	39898.53
614.624	40097.62
614.98	40228.69
615.337	40526.99
615.693	40604.5
616.05	40674.1
616.406	40881.33
616.762	40892.4
617.118	40887.65
617.475	41211.49
617.831	41305.04
618.187	41447.41
618.543	41493.74
618.899	41831.58
619.255	41806.27
619.611	41833.84
619.967	41973.73
620.323	42126.94
620.678	42107.96
621.034	42101.63
621.39	42193.83
621.746	42134.4
622.101	42771.45
622.457	42518.12
622.812	42536.65
623.168	42775.29
623.523	42718.34
623.879	43000.37
624.234	42895.28
624.589	42872.69
624.945	43071.33
625.3	43032.91
625.655	43096.86
626.01	43197.88
626.365	43211.43
626.72	43181.83
627.075	43284.43
627.43	43214.15
627.785	43182.96
628.14	43366.46
628.495	43484.42
628.85	43415.5
629.205	43248.72
629.559	43525.55
629.914	43471.54
630.269	43654.36
630.623	43384.31
630.978	43436.06
631.332	43605.77
631.687	43646
632.041	43616.4
632.396	43627.69
632.75	43523.52
633.104	43607.36
633.459	43542.05
633.813	43448.94
634.167	43399.23
634.521	43541.6
634.875	43562.16
635.229	43471.09
635.583	43380.02
635.937	43355.61
636.291	43419.11
636.645	43430.19
636.999	43338.89
637.352	43606.68
637.706	43213.47
638.06	43487.59
638.413	43299.57
638.767	43241.72
639.121	43338.44
639.474	43095.96
639.828	43294.82
640.181	43275.16
640.534	43145.22
640.888	43021.83
641.241	43070.42
641.594	43093.25
641.947	43272.9
642.301	43071.1
642.654	43160.36
643.007	43042.17
643.36	43075.39
643.713	43118.1
644.066	43244.65
644.419	42996.07
644.771	42813.48
645.124	42275.64
645.477	42336.88
645.83	42188.86
646.182	42030
646.535	41859.61
646.888	41886.95
647.24	41862.77
647.593	41967.63
647.945	41924.01
648.298	41800.62
648.65	41726.95
649.002	41584.58
649.355	41721.98
649.707	41707.75
650.059	41866.84
650.411	42502.3
650.763	42360.84
651.115	42720.15
651.467	42599.47
651.819	42551.34
652.171	42569.64
652.523	42406.71
652.875	42410.33
653.227	42336.88
653.578	42565.8
653.93	42605.35
654.282	42262.98
654.633	42300.5
654.985	42365.13
655.337	42477.67
655.688	42217.34
656.039	42452.58
656.391	42111.8
656.742	42239.93
657.094	42282.87
657.445	42409.2
657.796	42323.77
658.147	42284.45
658.498	42225.47
658.849	42246.71
659.2	42291.01
659.551	42157.45
659.902	42222.76
660.253	42236.54
660.604	42222.31
660.955	42064.57
661.306	42255.3
661.656	42150.22
662.007	42193.16
662.358	42225.47
662.708	42083.78
663.059	42177.56
663.409	41809.66
663.76	42144.8
664.11	42050.79
664.461	42115.64
664.811	42095.98
665.161	42072.71
665.511	41964.46
665.862	41898.47
666.212	42039.94
666.562	42064.35
666.912	42003.78
667.262	41909.32
667.612	41953.84
667.962	42089.2
668.312	41948.64
668.662	42117
669.011	41964.01
669.361	41942.77
669.711	41792.26
670.06	41918.14
670.41	41832.71
670.76	41819.83
671.109	41891.02
671.459	41935.76
671.808	41772.83
672.157	41914.97
672.507	41535.77
672.856	41724.92
673.205	41690.57
673.554	41851.7
673.904	41706.84
674.253	41917.68
674.602	41787.97
674.951	41116.35
675.3	41032.06
675.649	41657.35
675.998	41447.19
676.346	41575.09
676.695	41742.77
677.044	41386.62
677.393	41517.47
677.741	41561.31
678.09	41404.48
678.438	41329.22
678.787	41433.63
679.135	41292.16
679.484	41186.85
679.832	41259.62
680.181	41093.75
680.529	41129.46
680.877	41072.28
681.225	40967.2
681.573	41254.65
681.922	41117.48
682.27	40834.77
682.618	40847.65
682.966	40738.73
683.314	40843.36
683.661	40779.18
684.009	40588.23
684.357	40606.98
684.705	40259.87
685.053	40518.17
685.4	40449.47
685.748	40320.21
686.095	40237.05
686.443	40163.38
686.79	40131.29
687.138	40179.42
687.485	40112.98
687.832	40163.6
688.18	39969.71
688.527	39830.28
688.874	39822.37
689.221	39640.68
689.568	39614.47
689.915	39597.29
690.262	39499.89
690.609	39408.37
690.956	39281.37
691.303	39274.81
691.65	39030.08
691.997	39171.54
692.344	38744.43
692.69	38938.33
693.037	38815.62
693.383	38390.32
693.73	38627.37
694.077	38437.55
694.423	38518.45
694.769	38300.38
695.116	38328.4
695.462	38288.17
695.808	38140.16
696.155	38101.96
696.501	37872.14
696.847	37926.38
697.193	37744.46
697.539	37721.64
697.885	37622.43
698.231	37435.54
698.577	37417.46
698.923	37267.86
699.269	37150.8
699.614	37102.89
699.96	36992.84
700.306	37018.38
700.651	36843.69
700.997	36707.65
701.342	36618.39
701.688	36527.32
702.033	36421.1
702.379	36369.58
702.724	36354.21
703.069	36426.53
703.415	35889.14
703.76	36081.9
704.105	36085.29
704.45	36043.94
704.795	35848.69
705.14	35671.97
705.485	35641.01
705.83	35407.35
706.175	35545.42
706.52	35452.99
706.865	35304.98
707.209	35279.21
707.554	35224.75
707.899	35253.45
708.243	34960.8
708.588	34928.94
708.932	34829.06
709.277	34810.53
709.621	34751.77
709.966	34599.68
710.31	34723.3
710.654	34274.49
710.998	34404.66
711.342	34294.61
711.687	34407.37
712.031	34251.67
712.375	34029.98
712.719	34138.23
713.063	34029.75
713.407	34096.19
713.75	33934.62
714.094	33909.76
714.438	33648.3
714.782	33772.81
715.125	33703.66
715.469	33639.48
715.812	33384.35
716.156	33256.89
716.499	33159.04
716.843	33383.44
717.186	33163.56
717.53	33285.37
717.873	33233.17
718.216	33037.92
718.559	33008.76
718.902	32804.93
719.246	32822.33
719.589	32691.03
719.932	32656.68
720.275	32631.37
720.617	32617.59
720.96	32677.47
721.303	32576.23
721.646	32612.39
721.989	32316.13
722.331	32422.79
722.674	32288.11
723.016	32336.24
723.359	32361.55
723.701	32285.62
724.044	31996.14
724.386	31915.69
724.729	32125.17
725.071	32017.15
725.413	31926.31
725.755	32049.47
726.097	31842.92
726.439	31602.25
726.782	31765.63
727.124	31739.87
727.465	31705.52
727.807	31617.61
728.149	31614
728.491	31561.8
728.833	31566.32
729.175	31348.7
729.516	31412.87
729.858	31305.76
730.199	31366.77
730.541	31237.51
730.882	31201.81
731.224	31268.7
731.565	31185.54
731.906	31086.1
732.248	31105.31
732.589	30809.95
732.93	30820.35
733.271	30864.19
733.612	30761.59
733.953	30874.36
734.294	30691.31
734.635	30670.97
734.976	30771.08
735.317	30589.85
735.658	30523.41
735.999	30515.5
736.339	30391.88
736.68	30542.16
737.021	30343.52
737.361	30350.76
737.702	30390.75
738.042	30301.27
738.383	30132.23
738.723	30214.94
739.063	30150.31
739.404	30233.92
739.744	30058.33
740.084	30018.33
740.424	30104.66
740.764	30070.54
741.104	30101.5
741.444	29715.74
741.784	29780.83
742.124	29846.81
742.464	29677.33
742.804	29702.64
743.143	29762.75
743.483	29618.12
743.823	29449.76
744.162	29560.72
744.502	29609.53
744.841	29476.88
745.181	29519.82
745.52	29407.96
745.86	29340.61
746.199	29324.57
746.538	29331.35
746.877	29256.32
747.216	29416.09
747.556	29204.8
747.895	29260.84
748.234	29090
748.573	29120.73
748.911	28992.6
749.25	28948.08
749.589	28845.26
749.928	28960.74
750.267	28990.11
750.605	28876.22
750.944	28702.66
751.283	28807.29
751.621	28641.65
751.96	28529.11
752.298	28675.55
752.636	28538.37
752.975	28513.74
753.313	28327.31
753.651	28563.91
753.989	28214.31
754.327	28318.72
754.666	28219.29
755.004	28196.01
755.342	28241.21
755.679	28078.72
756.017	28042.79
756.355	28176.35
756.693	27908.56
757.031	27972.97
757.368	27749.69
757.706	27716.93
758.044	27628.12
758.381	27655.91
758.719	27519.19
759.056	27522.58
759.394	27429.02
759.731	27266.09
760.068	27111.97
760.405	27201.69
760.743	27086.21
761.08	27249.37
761.417	26916.27
761.754	26925.53
762.091	26777.52
762.428	26731.42
762.765	26619.33
763.102	26733
763.438	26506.56
763.775	26461.59
764.112	26377.98
764.449	26466.56
764.785	26315.38
765.122	26047.82
765.458	26139.57
765.795	25861.38
766.131	25971.21
766.467	25935.05
766.804	25621.61
767.14	25690.77
767.476	25712.23
767.812	25414.61
768.148	25581.39
768.485	25299.81
768.821	25192.93
769.157	25145.92
769.492	25165.58
769.828	25141.18
770.164	24877
770.5	24824.12
770.836	24981.41
771.171	24709.55
771.507	24587.74
771.842	24375.77
772.178	24443.57
772.513	24409.22
772.849	24328.32
773.184	24286.28
773.519	24332.38
773.855	24070.24
774.19	24020.07
774.525	23992.05
774.86	23922.68
775.195	23821.89
775.53	23776.69
775.865	23536.02
776.2	23461.9
776.535	23283.37
776.87	23374.44
777.205	23127.89
777.539	23096.03
777.874	23225.07
778.209	22927.67
778.543	22921.35
778.878	22682.03
779.212	22660.79
779.547	22634.35
779.881	22650.85
780.215	22420.79
780.55	22498.98
780.884	22401.81
781.218	22188.03
781.552	22332.21
781.886	22117.98
782.22	22035.49
782.554	21942.84
782.888	21846.12
783.222	21724.09
783.556	21629.63
783.889	21600.7
784.223	21436.19
784.557	21483.42
784.89	21437.54
785.224	21341.28
785.557	21191
785.891	21157.78
786.224	21134.27
786.558	21033.94
786.891	20910.78
787.224	20749.88
787.557	20728.64
787.891	20749.65
788.224	20623.33
788.557	20649.99
788.89	20547.4
789.223	20544.69
789.556	20438.25
789.888	20336.56
790.221	20278.25
790.554	20101.76
790.887	20053.4
791.219	20080.97
791.552	19926.4
791.884	19910.8
792.217	19807.53
792.549	19734.76
792.882	19616.35
793.214	19503.36
793.546	19533.64
793.879	19472.85
794.211	19355.34
794.543	19445.73
794.875	19350.37
795.207	19344.94
795.539	19243.48
795.871	19181.56
796.203	19043.93
796.535	18889.59
796.867	18886.65
797.198	18859.98
797.53	18806.65
797.862	18779.99
798.193	18740.67
798.525	18580.22
798.856	18667.67
799.188	18433.78
799.519	18375.25
799.85	18245.99
800.182	18265.65
800.513	18262.71
800.844	18223.84
801.175	18219.1
801.506	18201.47
801.837	18004.87
802.168	18015.94
802.499	17907.47
802.83	17899.11
803.161	17845.77
803.491	17714.48
803.822	17677.87
804.153	17711.54
804.483	17429.74
804.814	17538.44
805.145	17493.47
805.475	17441.49
805.805	17422.96
806.136	17402.85
806.466	17356.97
806.796	17301.61
807.126	17124.21
807.457	17138.22
807.787	17157.66
808.117	17002.63
808.447	17012.12
808.777	17062.97
809.107	16961.28
809.436	16936.87
809.766	16877.21
810.096	16845.35
810.426	16797.21
810.755	16638.8
811.085	16643.55
811.414	16580.04
811.744	16512.25
812.073	16503.44
812.403	16566.26
812.732	16422.76
813.061	16444.23
813.39	16247.17
813.719	16307.96
814.049	16361.97
814.378	16140.96
814.707	16077.46
815.036	16063.67
815.365	16037.69
815.693	15869.55
816.022	15858.03
816.351	15851.25
816.68	15823.68
817.008	15865.03
817.337	15707.07
817.665	15642.22
817.994	15689.9
818.322	15594.99
818.651	15584.14
818.979	15566.74
819.307	15595.66
819.636	15533.07
819.964	15403.58
820.292	15537.81
820.62	15464.14
820.948	15428.89
821.276	15511.15
821.604	15380.08
821.932	15465.05
822.259	15508.89
822.587	15359.06
822.915	15425.27
823.243	15396.35
823.57	15338.72
823.898	15431.83
824.225	15309.8
824.553	15316.35
824.88	15310.7
825.207	15363.13
825.535	15290.59
825.862	15343.24
826.189	15374.88
826.516	15363.58
826.843	15471.82
827.17	15360.19
827.497	15414.43
827.824	15437.7
828.151	15407.65
828.478	15324.94
828.805	15374.2
829.131	15347.99
829.458	15304.6
829.785	15271.83
830.111	15267.54
830.438	15282
830.764	15216.01
831.09	15287.65
831.417	15239.29
831.743	15289.46
832.069	15249.01
832.395	15103.92
832.722	15234.99
833.048	15166.3
833.374	15215.11
833.7	15120.42
834.026	15111.38
834.351	15149.35
834.677	15046.75
835.003	15104.15
835.329	15135.56
835.654	15079.52
835.98	15052.17
836.306	15002.23
836.631	15050.14
836.956	15103.25
837.282	14948
837.607	14987.32
837.932	14859.19
838.258	14910.26
838.583	14926.98
838.908	14813.09
839.233	14807.66
839.558	14748.91
839.883	14730.38
840.208	14673.65
840.533	14655.12
840.858	14722.69
841.182	14615.12
841.507	14617.84
841.832	14537.61
842.156	14538.52
842.481	14503.04
842.805	14531.06
843.13	14482.92
843.454	14399.31
843.778	14473.43
844.103	14279.54
844.427	14304.4
844.751	14307.56
845.075	14208.13
845.399	14137.85
845.723	14164.97
846.047	14060.79
846.371	13997.97
846.695	14008.81
847.019	13900.79
847.343	13842.72
847.666	13832.77
847.99	13798.65
848.313	13726.11
848.637	13663.74
848.96	13680.01
849.284	13631.2
849.607	13491.76
849.931	13453.12
850.254	13351.2
850.577	13334.25
850.9	13201.83
851.223	13164.54
851.546	13155.05
851.869	13114.82
852.192	13076.86
852.515	12956.41
852.838	12943.3
853.161	12951.21
853.483	12866.02
853.806	12833.02
854.129	12769.07
854.451	12796.87
854.774	12631
855.096	12633.03
855.419	12644.33
855.741	12575.18
856.063	12506.71
856.385	12463.99
856.708	12506.71
857.03	12411.57
857.352	12449.76
857.674	12398.69
857.996	12317.11
858.318	12300.38
858.64	12206.6
858.961	12226.49
859.283	12146.26
859.605	12108.07
859.926	12183.1
860.248	12049.99
860.57	11975.87
860.891	12001.18
861.212	11963.22
861.534	11964.12
861.855	11933.84
862.176	11979.94
862.498	11961.18
862.819	11827.85
863.14	11818.36
863.461	11804.12
863.782	11766.84
864.103	11724.8
864.424	11739.72
864.745	11748.53
865.065	11678.03
865.386	11624.47
865.707	11606.62
866.027	11614.98
866.348	11576.33
866.668	11562.78
866.989	11536.11
867.309	11522.55
867.63	11568.42
867.95	11537.24
868.27	11418.6
868.59	11428.09
868.91	11359.84
869.23	11405.49
869.55	11379.96
869.87	11450.01
870.19	11378.15
870.51	11410.69
870.83	11415.89
871.15	11333.18
871.469	11313.52
871.789	11316.23
872.109	11257.47
872.428	11211.6
872.748	11209.34
873.067	11186.97
873.386	11167.98
873.706	11164.59
874.025	11073.97
874.344	11086.4
874.663	11122.79
874.982	11069.91
875.301	11085.95
875.62	11002.56
875.939	11002.11
876.258	11076.01
876.577	11022
876.896	10960.98
877.214	10915.33
877.533	10957.59
877.852	10896.8
878.17	10883.7
878.489	10884.37
878.807	10937.48
879.125	10847.99
879.444	10837.14
879.762	10792.4
880.08	10811.16
880.398	10676.7
880.716	10791.27
881.034	10695.45
881.352	10721.44
881.67	10704.72
881.988	10610.94
882.306	10665.17
882.624	10694.1
882.941	10546.3
883.259	10499.3
883.577	10518.73
883.894	10516.93
884.212	10525.74
884.529	10456.59
884.846	10427.89
885.164	10407.55
885.481	10393.54
885.798	10397.16
886.115	10320.77
886.432	10326.42
886.75	10310.83
887.067	10307.89
887.383	10216.82
887.7	10236.03
888.017	10190.16
888.334	10186.54
888.651	10106.77
888.967	10162.13
889.284	10146.54
889.6	10102.25
889.917	9955.59
890.233	10008.01
890.55	9945.19
890.866	9975.92
891.182	9888.02
891.498	9882.14
891.815	9879.2
892.131	9789.49
892.447	9740.22
892.763	9744.07
893.079	9745.87
893.395	9681.02
893.71	9717.85
894.026	9634.46
894.342	9672.43
894.657	9578.42
894.973	9540.46
895.289	9547.46
895.604	9518.54
895.92	9504.52
896.235	9354.25
896.55	9419.55
896.865	9392.89
897.181	9411.19
897.496	9342.04
897.811	9227.02
898.126	9256.17
898.441	9285.09
898.756	9205.32
899.071	9156.06
899.386	9114.03
899.7	9068.38
900.015	9057.3
900.33	8974.82
900.644	8982.96
900.959	8984.09
901.273	8938.66
901.588	8840.36
901.902	8890.75
902.216	8805.56
902.531	8766.69
902.845	8817.31
903.159	8746.8
903.473	8692.79
903.787	8622.74
904.101	8633.13
904.415	8656.41
904.729	8592.01
905.042	8564.89
905.356	8546.36
905.67	8475.4
905.984	8497.77
906.297	8407.83
906.611	8375.06
906.924	8458.45
907.237	8372.35
907.551	8315.85
907.864	8248.06
908.177	8250.32
908.491	8219.36
908.804	8158.8
909.117	8100.95
909.43	8064.56
909.743	8086.48
910.056	8070.44
910.368	8048.52
910.681	7948.18
910.994	7931.01
911.307	7881.74
911.619	7834.51
911.932	7832.7
912.244	7767.85
912.557	7767.17
912.869	7774.17
913.181	7710.9
913.494	7729.2
913.806	7660.96
914.118	7592.94
914.43	7608.08
914.742	7577.12
915.054	7444.47
915.366	7491.24
915.678	7519.72
915.99	7457.35
916.302	7412.6
916.613	7336.45
916.925	7356.56
917.236	7356.56
917.548	7310.68
917.859	7291.47
918.171	7203.57
918.482	7203.34
918.794	7155.43
919.105	7155.66
919.416	7101.42
919.727	7068.2
920.038	7036.79
920.349	7000.18
920.66	6960.18
920.971	6954.99
921.282	6964.03
921.593	6807.87
921.903	6869.34
922.214	6836.35
922.525	6753.41
922.835	6754.99
923.146	6713.19
923.456	6707.99
923.767	6635.9
924.077	6629.57
924.387	6600.65
924.697	6590.25
925.008	6502.34
925.318	6514.55
925.628	6554.09
925.938	6426.64
926.248	6438.16
926.558	6435.23
926.867	6412.18
927.177	6371.95
927.487	6350.71
927.796	6287.89
928.106	6359.75
928.416	6291.5
928.725	6244.27
929.034	6221.67
929.344	6242.46
929.653	6197.49
929.962	6097.83
930.271	6119.98
930.581	6066.65
930.89	6059.64
931.199	6053.09
931.508	5968.8
931.817	6032.75
932.125	5969.93
932.434	5986.88
932.743	5863.26
933.051	5887.9
933.36	5871.17
933.669	5815.13
933.977	5848.35
934.286	5811.51
934.594	5729.26
934.902	5773.55
935.21	5738.75
935.519	5710.5
935.827	5729.48
936.135	5588.47
936.443	5588.92
936.751	5582.82
937.059	5599.54
937.367	5542.82
937.674	5550.96
937.982	5473.44
938.29	5487.23
938.597	5484.06
938.905	5370.4
939.213	5349.15
939.52	5322.94
939.827	5395.48
940.135	5335.59
940.442	5318.19
940.749	5279.32
941.056	5286.78
941.363	5200.46
941.67	5245.43
941.977	5170.17
942.284	5172.21
942.591	5123.85
942.898	5104.87
943.205	5110.97
943.511	5067.8
943.818	5094.92
944.125	5048.6
944.431	5043.4
944.738	5017.86
945.044	4980.8
945.35	4970.41
945.657	4921.59
945.963	4893.8
946.269	4882.5
946.575	4899.67
946.881	4807.25
947.187	4819.68
947.493	4809.96
947.799	4801.82
948.105	4754.14
948.41	4721.37
948.716	4753.91
949.022	4701.71
949.327	4636.86
949.633	4635.73
949.938	4610.87
950.244	4639.57
950.549	4593.47
950.854	4597.53
951.16	4560.02
951.465	4518.21
951.77	4470.08
952.075	4487.48
952.38	4512.56
952.685	4480.7
952.99	4422.85
953.294	4404.32
953.599	4391.21
953.904	4333.59
954.209	4349.63
954.513	4325.9
954.818	4305.56
955.122	4259.01
955.426	4282.51
955.731	4248.17
956.035	4253.14
956.339	4231.22
956.643	4219.69
956.948	4226.02
957.252	4154.83
957.556	4172.46
957.86	4163.65
958.163	4098.34
958.467	4146.02
958.771	4108.28
959.075	4081.16
959.378	4045.91
959.682	4069.19
959.985	4025.57
960.289	4023.54
960.592	3984.44
960.896	3931.79
961.199	3951.9
961.502	3914.61
961.805	3936.99
962.108	3883.88
962.411	3832.36
962.714	3845.46
963.017	3870.55
963.32	3854.5
963.623	3802.08
963.926	3798.46
964.228	3780.15
964.531	3740.61
964.833	3750.55
965.136	3726.82
965.438	3708.74
965.741	3730.21
966.043	3689.76
966.345	3642.31
966.648	3685.02
966.95	3641.85
967.252	3643.21
967.554	3582.19
967.856	3544.23
968.158	3556.43
968.46	3532.48
968.761	3543.78
969.063	3495.64
969.365	3475.98
969.666	3505.36
969.968	3518.24
970.269	3463.1
970.571	3447.51
970.872	3432.14
971.174	3430.56
971.475	3426.49
971.776	3365.48
972.077	3370.67
972.378	3378.13
972.679	3308.08
972.98	3327.06
973.281	3306.27
973.582	3284.12
973.883	3299.94
974.183	3291.13
974.484	3222.66
974.785	3198.7
975.085	3242.54
975.386	3206.84
975.686	3251.36
975.986	3165.26
976.287	3178.36
976.587	3150.34
976.887	3102.21
977.187	3134.97
977.487	3113.05
977.787	3105.6
978.087	3053.39
978.387	3060.17
978.687	3080.06
978.987	3024.69
979.286	3035.54
979.586	3016.33
979.885	3003.45
980.185	2989.89
980.484	2962.32
980.784	2994.19
981.083	2911.7
981.382	2951.93
981.682	2942.66
981.981	2901.76
982.28	2878.03
982.579	2892.27
982.878	2906.28
983.177	2866.73
983.475	2864.02
983.774	2863.34
984.073	2789.9
984.372	2798.49
984.67	2771.82
984.969	2799.62
985.267	2784.02
985.566	2758.71
985.864	2690.92
986.162	2747.64
986.461	2697.02
986.759	2726.85
987.057	2648.43
987.355	2692.73
987.653	2707.87
987.951	2673.97
988.249	2669
988.547	2618.83
988.844	2647.08
989.142	2640.3
989.44	2575.44
989.737	2566.4
990.035	2583.35
990.332	2584.93
990.63	2532.96
990.927	2544.71
991.224	2512.84
991.521	2564.37
991.819	2501.77
992.116	2521.2
992.413	2454.09
992.71	2496.12
993.006	2448.21
993.303	2464.94
993.6	2454.99
993.897	2414.77
994.193	2405.05
994.49	2409.8
994.787	2403.47
995.083	2382
995.379	2383.58
995.676	2365.95
995.972	2341.32
996.268	2330.25
996.565	2275.79
996.861	2272.17
997.157	2307.43
997.453	2249.8
997.749	2253.87
998.044	2271.49
998.34	2246.86
998.636	2229.91
998.932	2240.53
999.227	2215.45
999.523	2207.31
999.818	2162.34
1000.114	2163.7
1000.409	2165.51
1000.704	2179.29
1001	2134.32
1001.295	2139.29
1001.59	2136.13
1001.885	2076.92
1002.18	2043.48
1002.475	2064.72
1002.77	2063.36
1003.065	2056.81
1003.359	2062.91
1003.654	2068.56
1003.949	2072.63
1004.243	2036.47
1004.538	2026.53
1004.832	2022.91
1005.127	2019.98
1005.421	1994.89
1005.715	1926.19
1006.009	1972.07
1006.304	1935.91
1006.598	1939.75
1006.892	1923.48
1007.186	1932.52
1007.48	1918.28
1007.773	1909.7
1008.067	1899.53
1008.361	1899.3
1008.655	1855.46
1008.948	1842.8
1009.242	1842.8
1009.535	1830.83
1009.829	1814.78
1010.122	1814.1
1010.415	1831.96
1010.708	1827.66
1011.001	1788.57
1011.295	1786.76
1011.588	1758.97
1011.881	1753.32
1012.173	1723.94
1012.466	1720.32
1012.759	1715.58
1013.052	1744.28
1013.344	1708.34
1013.637	1683.94
1013.93	1719.19
1014.222	1683.03
1014.514	1669.7
1014.807	1666.99
1015.099	1640.32
1015.391	1649.14
1015.683	1596.48
1015.976	1593.09
1016.268	1610.49
1016.56	1581.79
1016.851	1564.17
1017.143	1560.55
1017.435	1562.81
1017.727	1551.29
1018.018	1553.55
1018.31	1534.56
1018.602	1521.01
1018.893	1511.74
1019.185	1493.21
1019.476	1514.68
1019.767	1503.6
1020.058	1505.64
1020.35	1475.13
1020.641	1428.8
1020.932	1429.03
1021.223	1451.63
1021.514	1401.91
1021.804	1399.65
1022.095	1434.23
1022.386	1398.75
1022.677	1385.64
1022.967	1391.52
1023.258	1355.13
1023.548	1379.77
1023.839	1370.5
1024.129	1340.9
1024.419	1327.34
1024.709	1328.24
1025	1295.02
1025.29	1314.68
1025.58	1280.33
1025.87	1308.58
1026.16	1262.93
1026.449	1260
1026.739	1281.24
1027.029	1270.39
1027.319	1267.68
1027.608	1246.21
1027.898	1231.52
1028.187	1251.18
1028.477	1235.14
1028.766	1215.48
1029.055	1206.44
1029.344	1173.67
1029.634	1203.05
1029.923	1163.5
1030.212	1156.04
1030.501	1184.52
1030.79	1175.25
1031.078	1164.63
1031.367	1138.42
1031.656	1157.17
1031.945	1110.62
1032.233	1126.89
1032.522	1123.05
1032.81	1095.71
1033.099	1090.51
1033.387	1073.33
1033.675	1106.55
1033.963	1092.32
1034.251	1066.78
1034.54	1062.94
1034.828	1043.96
1035.116	1068.36
1035.403	1030.62
1035.691	1028.36
1035.979	1039.89
1036.267	1016.16
1036.554	1028.36
1036.842	995.82
1037.129	1015.26
1037.417	1026.55
1037.704	1003.05
1037.992	982.26
1038.279	988.36
1038.566	941.81
1038.853	941.81
1039.14	941.81
