Data from hue_10_FLMS001491_61.txt Node
Date: Mon Feb 06 15:32:19 GMT 2017
User: dcchb
Spectrometer: FLMS00149
Trigger mode: 0
Integration Time (sec): 2.000000E-2
Scans to average: 10
Electric dark correction enabled: true
Nonlinearity correction enabled: false
Boxcar width: 0
XAxis mode: Wavelengths
Number of Pixels in Spectrum: 2048
>>>>>Begin Spectral Data<<<<<
341.393	-7.91
341.776	-7.91
342.16	-7.91
342.543	-50.62
342.927	-65.31
343.31	-52.2
343.693	-80.68
344.077	-75.93
344.46	-55.37
344.843	-58.53
345.226	-45.2
345.61	-14.69
345.993	-23.5
346.376	-6.78
346.759	23.28
347.142	39.55
347.525	45.2
347.908	55.82
348.291	75.03
348.674	83.61
349.057	90.39
349.44	133.33
349.823	153.22
350.206	190.28
350.588	198.41
350.971	189.6
351.354	236.83
351.737	236.38
352.119	251.52
352.502	268.69
352.884	272.08
353.267	279.31
353.65	288.81
354.032	292.42
354.414	312.53
354.797	331.74
355.179	323.16
355.562	323.83
355.944	326.32
356.326	335.36
356.709	345.08
357.091	342.59
357.473	345.53
357.855	350.73
358.238	349.37
358.62	322.25
359.002	346.66
359.384	352.76
359.766	342.59
360.148	345.75
360.53	348.01
360.912	341.46
361.294	312.76
361.676	309.37
362.057	326.09
362.439	347.11
362.821	327.9
363.203	317.28
363.584	323.61
363.966	322.7
364.348	313.21
364.729	323.16
365.111	302.82
365.493	288.81
365.874	314.34
366.256	297.62
366.637	318.18
367.019	312.99
367.4	316.38
367.781	316.15
368.163	299.2
368.544	315.02
368.925	318.41
369.306	325.19
369.688	332.65
370.069	319.77
370.45	306.88
370.831	320.44
371.212	306.88
371.593	314.34
371.974	325.42
372.355	287.22
372.736	329.03
373.117	301.91
373.498	314.12
373.879	324.96
374.26	313.44
374.641	321.12
375.021	305.53
375.402	319.09
375.783	317.51
376.163	317.96
376.544	313.89
376.925	325.87
377.305	319.99
377.686	322.48
378.066	316.38
378.447	305.53
378.827	312.53
379.208	313.66
379.588	324.74
379.968	337.84
380.349	322.7
380.729	321.12
381.109	320.22
381.489	345.75
381.87	334.23
382.25	309.14
382.63	323.83
383.01	343.27
383.39	354.34
383.77	345.53
384.15	346.21
384.53	335.58
384.91	337.84
385.29	346.43
385.67	332.42
386.049	343.95
386.429	346.66
386.809	334.91
387.189	340.78
387.568	340.78
387.948	336.94
388.328	339.88
388.707	334.91
389.087	348.47
389.466	364.74
389.846	348.47
390.225	357.05
390.605	351.86
390.984	334.68
391.363	359.31
391.743	373.78
392.122	353.89
392.501	353.21
392.881	390.72
393.26	346.66
393.639	359.54
394.018	371.97
394.397	360.89
394.776	380.78
395.155	352.76
395.534	361.12
395.913	385.98
396.292	364.51
396.671	371.52
397.05	366.09
397.429	390.72
397.808	361.12
398.186	382.81
398.565	369.71
398.944	373.1
399.323	363.15
399.701	374.23
400.08	386.2
400.458	379.88
400.837	379.88
401.215	369.93
401.594	403.15
401.972	388.69
402.351	388.92
402.729	380.78
403.107	383.72
403.486	392.53
403.864	379.88
404.242	397.96
404.62	388.69
404.999	379.65
405.377	396.83
405.755	382.81
406.133	404.96
406.511	391.4
406.889	406.09
407.267	408.35
407.645	406.99
408.023	401.8
408.401	431.18
408.779	404.96
409.156	411.97
409.534	418.07
409.912	438.63
410.29	399.31
410.667	413.1
411.045	420.55
411.422	436.15
411.8	434.79
412.178	418.07
412.555	429.14
412.933	441.8
413.31	426.88
413.687	452.19
414.065	448.35
414.442	428.46
414.819	459.2
415.197	438.18
415.574	436.37
415.951	448.12
416.328	468.46
416.705	471.17
417.082	456.26
417.46	439.08
417.837	474.56
418.214	455.36
418.591	449.71
418.967	468.24
419.344	457.39
419.721	497.39
420.098	489.93
420.475	453.1
420.852	475.24
421.228	484.73
421.605	472.08
421.982	490.83
422.358	495.13
422.735	474.34
423.111	505.07
423.488	503.72
423.864	506.43
424.241	501.46
424.617	513.43
424.994	523.38
425.37	498.97
425.746	530.16
426.123	516.37
426.499	511.62
426.875	524.51
427.251	538.74
427.627	524.96
428.003	548.46
428.379	561.79
428.756	528.12
429.132	551.85
429.507	542.13
429.883	549.14
430.259	544.84
430.635	548.23
431.011	562.25
431.387	594.11
431.763	585.3
432.138	561.34
432.514	597.5
432.89	575.13
433.265	582.81
433.641	581.91
434.016	597.05
434.392	603.15
434.767	587.56
435.143	585.07
435.518	608.12
435.894	619.87
436.269	617.84
436.644	604.73
437.02	642.69
437.395	632.07
437.77	626.65
438.145	646.08
438.52	634.33
438.895	639.76
439.271	653.09
439.646	679.76
440.021	651.73
440.395	674.78
440.77	651.51
441.145	685.86
441.52	696.7
441.895	685.86
442.27	679.98
442.645	682.47
443.019	676.37
443.394	718.85
443.769	701
444.143	683.6
444.518	703.94
444.892	682.69
445.267	695.8
445.641	722.92
446.016	694.9
446.39	712.52
446.764	723.14
447.139	721.79
447.513	738.29
447.887	722.47
448.262	707.55
448.636	742.58
449.01	744.16
449.384	737.38
449.758	746.42
450.132	757.04
450.506	750.71
450.88	758.17
451.254	779.19
451.628	785.06
452.002	765.63
452.376	792.75
452.75	768.34
453.123	779.87
453.497	811.73
453.871	788.23
454.244	807.66
454.618	846.53
454.992	809.24
455.365	831.39
455.739	826.19
456.112	831.39
456.486	837.72
456.859	840.88
457.232	871.84
457.606	856.93
457.979	867.55
458.352	896.02
458.725	891.95
459.099	891.28
459.472	919.3
459.845	921.11
460.218	938.51
460.591	928.79
460.964	929.69
461.337	922.24
461.71	947.32
462.083	966.3
462.456	957.49
462.829	969.01
463.201	970.14
463.574	963.82
463.947	1008.34
464.32	1028.22
464.692	1019.63
465.065	1029.35
465.438	1051.5
465.81	1060.99
466.183	1082.91
466.555	1098.5
466.928	1080.42
467.3	1073.64
467.672	1125.62
468.045	1166.3
468.417	1139.18
468.789	1166.07
469.161	1168.78
469.534	1183.25
469.906	1185.96
470.278	1194.09
470.65	1239.29
471.022	1239.29
471.394	1225.05
471.766	1258.72
472.138	1278.61
472.51	1283.36
472.882	1311.38
473.253	1336.24
473.625	1362.9
473.997	1388.66
474.369	1413.52
474.74	1417.82
475.112	1447.19
475.484	1468.21
475.855	1454.43
476.227	1487.87
476.598	1516.34
476.97	1583.01
477.341	1584.37
477.713	1611.94
478.084	1620.3
478.455	1645.15
478.827	1708.88
479.198	1684.93
479.569	1723.12
479.94	1748.2
480.311	1785.72
480.682	1858.03
481.053	1877.69
481.424	1891.7
481.795	1908.2
482.166	1989.1
482.537	2003.11
482.908	2034.52
483.279	2076.1
483.65	2098.48
484.021	2142.77
484.391	2183.9
484.762	2191.81
485.133	2187.29
485.503	2232.48
485.874	2299.37
486.244	2334.63
486.615	2384.8
486.985	2411.46
487.356	2477.67
487.726	2488.75
488.097	2553.15
488.467	2610.55
488.837	2635.64
489.207	2646.94
489.578	2688.97
489.948	2730.32
490.318	2790.66
490.688	2794.73
491.058	2855.74
491.428	2849.42
491.798	2914.73
492.168	2958.34
492.538	2959.24
492.908	3024.78
493.278	3073.14
493.648	3079.92
494.017	3113.59
494.387	3182.29
494.757	3166.02
495.126	3199.46
495.496	3263.42
495.866	3256.86
496.235	3320.36
496.605	3289.41
496.974	3353.58
497.344	3383.64
497.713	3397.2
498.082	3402.17
498.452	3468.38
498.821	3495.5
499.19	3475.39
499.559	3539.34
499.928	3551.77
500.298	3588.15
500.667	3599.91
501.036	3573.92
501.405	3609.4
501.774	3650.07
502.143	3645.78
502.512	3742.05
502.88	3771.88
503.249	3720.58
503.618	3750.18
503.987	3774.82
504.356	3836.06
504.724	3820.24
505.093	3821.82
505.462	3870.18
505.83	3864.53
506.199	3906.56
506.567	3924.64
506.936	3943.17
507.304	4018.43
507.672	4023.85
508.041	4003.74
508.409	4050.74
508.777	4094.81
509.145	4059.55
509.514	4093.45
509.882	4147.69
510.25	4090.29
510.618	4165.54
510.986	4176.39
511.354	4185.88
511.722	4191.08
512.09	4242.37
512.458	4260
512.826	4275.14
513.193	4261.13
513.561	4285.76
513.929	4307.68
514.297	4351.75
514.664	4324.63
515.032	4395.82
515.4	4379.77
515.767	4387
516.135	4388.59
516.502	4403.27
516.869	4480.33
517.237	4499.09
517.604	4470.16
517.972	4520.56
518.339	4524.17
518.706	4535.25
519.073	4541.58
519.44	4562.82
519.808	4584.06
520.175	4636.71
520.542	4628.58
520.909	4654.34
521.276	4652.31
521.643	4658.41
522.009	4686.88
522.376	4700.22
522.743	4778.18
523.11	4759.65
523.477	4774.11
523.843	4847.78
524.21	4861.79
524.577	4853.66
524.943	4878.29
525.31	4898.63
525.676	4978.85
526.043	4950.83
526.409	5016.59
526.776	5008.68
527.142	5064.05
527.508	5088
527.874	5095.01
528.241	5124.16
528.607	5168.9
528.973	5161.22
529.339	5168
529.705	5218.85
530.071	5248.22
530.437	5237.83
530.803	5280.77
531.169	5405.06
531.535	5333.42
531.901	5359.41
532.267	5371.16
532.632	5424.49
532.998	5417.48
533.364	5431.95
533.73	5489.12
534.095	5512.85
534.461	5494.54
534.826	5491.38
535.192	5572.51
535.557	5650.47
535.923	5608.89
536.288	5638.72
536.653	5685.27
537.019	5674.2
537.384	5667.65
537.749	5765.5
538.114	5742.45
538.479	5835.55
538.845	5771.6
539.21	5772.05
539.575	5806.63
539.94	5879.62
540.305	5899.05
540.67	5915.1
541.034	5925.49
541.399	5963.91
541.764	5947.87
542.129	5973.63
542.494	5989.22
542.858	6041.88
543.223	6038.71
543.587	6083.91
543.952	6087.52
544.316	6143.79
544.681	6174.75
545.045	6119.39
545.41	6179.72
545.774	6268.99
546.138	6226.73
546.503	6246.39
546.867	6310.57
547.231	6332.71
547.595	6337.46
547.959	6335.65
548.324	6346.5
548.688	6383.11
549.052	6351.25
549.416	6432.15
549.779	6468.76
550.143	6471.47
550.507	6483.9
550.871	6548.08
551.235	6525.48
551.599	6609.32
551.962	6610
552.326	6583.56
552.689	6625.81
553.053	6654.97
553.417	6636.44
553.78	6699.26
554.143	6702.87
554.507	6678.92
554.87	6756.43
555.234	6778.35
555.597	6758.01
555.96	6795.98
556.323	6836.66
556.686	6800.73
557.05	6873.27
557.413	6931.57
557.776	6925.69
558.139	6912.36
558.502	6928.41
558.865	7019.25
559.228	7005.24
559.59	7090.66
559.953	7113.49
560.316	7113.71
560.679	7068.97
561.041	7184.67
561.404	7178.57
561.767	7219.02
562.129	7134.73
562.492	7284.33
562.854	7242.07
563.217	7258.57
563.579	7308.28
563.941	7263.76
564.304	7349.41
564.666	7427.38
565.028	7419.01
565.39	7384.66
565.753	7438.22
566.115	7463.53
566.477	7461.5
566.839	7519.8
567.201	7552.12
567.563	7586.69
567.925	7652.45
568.287	7620.59
568.648	7643.19
569.01	7714.37
569.372	7807.48
569.734	7782.39
570.095	7800.25
570.457	7840.7
570.819	7901.26
571.18	7876.86
571.542	7921.6
571.903	7994.37
572.265	8006.12
572.626	8036.17
572.987	8066.91
573.349	8086.12
573.71	8179.67
574.071	8242.72
574.432	8330.63
574.794	8414.02
575.155	8325.66
575.516	8304.41
575.877	8412.66
576.238	8517.97
576.599	8563.39
576.96	8581.92
577.32	8648.13
577.681	8704.86
578.042	8764.06
578.403	8834.8
578.763	8921.8
579.124	8986.2
579.485	9092.64
579.845	9270.72
580.206	9349.81
580.566	9383.03
580.927	9411.96
581.287	9640.42
581.648	9703.93
582.008	9884.03
582.368	10020.08
582.728	10093.97
583.089	10240.86
583.449	10364.47
583.809	10489.67
584.169	10669.78
584.529	10731.47
584.889	11010.11
585.249	11104.79
585.609	11258.91
585.969	11518.79
586.329	11698.22
586.688	11801.72
587.048	12057.76
587.408	12128.72
587.768	12400.13
588.127	12633.11
588.487	12878.53
588.846	13026.78
589.206	13201.91
589.565	13395.81
589.925	13773.88
590.284	13958.05
590.643	14148.33
591.003	14454.08
591.362	14642.33
591.721	14904.24
592.08	15164.35
592.44	15464.45
592.799	15748.96
593.158	15926.59
593.517	16281.15
593.876	16486.57
594.235	16807.24
594.593	17033.68
594.952	17307.79
595.311	17604.73
595.67	17932.64
596.029	18311.38
596.387	18565.84
596.746	18886.51
597.104	19000.86
597.463	19334.86
597.822	19593.61
598.18	19785.69
598.538	20115.63
598.897	20581.61
599.255	20647.59
599.613	21131.87
599.972	21200.12
600.33	21579.09
600.688	21822.25
601.046	22040.78
601.404	22428.79
601.762	22723.92
602.12	23112.84
602.478	23298.37
602.836	23537.91
603.194	23775.87
603.552	23998.92
603.91	24152.81
604.268	24543.76
604.625	24656.75
604.983	25106.01
605.341	25210.41
605.698	25520.46
606.056	25783.95
606.413	26132.87
606.771	26415.12
607.128	26612.63
607.485	26721.78
607.843	26978.5
608.2	27330.81
608.557	27575.55
608.914	27724.47
609.272	28073.84
609.629	28094.18
609.986	28539.81
610.343	28543.88
610.7	28989.52
611.057	29120.14
611.414	29199.23
611.771	29464.31
612.127	29795.83
612.484	29851.19
612.841	30121.24
613.198	30216.61
613.554	30255.02
613.911	30653.21
614.267	30782.02
614.624	30876.7
614.98	31144.72
615.337	31504.26
615.693	31575.89
616.05	31512.39
616.406	31803.01
616.762	31932.95
617.118	32148.76
617.475	32227.63
617.831	32505.36
618.187	32595.75
618.543	32787.39
618.899	33186.92
619.255	33033.26
619.611	33178.56
619.967	33313.93
620.323	33564.99
620.678	33507.59
621.034	33556.18
621.39	33691.09
621.746	33800.69
622.101	34294.24
622.457	34059.9
622.812	34228.93
623.168	34378.31
623.523	34439.77
623.879	34561.13
624.234	34544.63
624.589	34718.18
624.945	34960.44
625.3	34877.5
625.655	35094.9
626.01	34979.42
626.365	35197.49
626.72	35140.32
627.075	35272.74
627.43	35215.12
627.785	35215.8
628.14	35402.68
628.495	35517.71
628.85	35562.91
629.205	35447.66
629.559	35708.67
629.914	35626.18
630.269	35760.87
630.623	35649.46
630.978	35722.9
631.332	35793.64
631.687	36004.93
632.041	35699.85
632.396	35985.04
632.75	35791.38
633.104	35847.87
633.459	35802.22
633.813	35900.98
634.167	35919.96
634.521	35917.47
634.875	35976
635.229	36017.13
635.583	35859.4
635.937	35893.52
636.291	36015.1
636.645	35894.2
636.999	35851.94
637.352	36114.53
637.706	35861.2
638.06	35952.95
638.413	35950.69
638.767	35951.6
639.121	36026.85
639.474	35901.2
639.828	35935.78
640.181	35938.72
640.534	35931.94
640.888	35888.55
641.241	35737.59
641.594	35812.62
641.947	35973.07
642.301	35920.86
642.654	35918.6
643.007	35948.89
643.36	35904.37
643.713	35973.97
644.066	35987.53
644.419	35743.24
644.771	35609.91
645.124	35298.51
645.477	35170.15
645.83	34974.22
646.182	34962.92
646.535	34812.19
646.888	34803.38
647.24	34713.44
647.593	34925.64
647.945	34789.14
648.298	34588.02
648.65	34686.32
649.002	34443.39
649.355	34771.06
649.707	34653.1
650.059	34717.96
650.411	35197.04
650.763	35266.19
651.115	35586.63
651.467	35587.99
651.819	35444.27
652.171	35492.17
652.523	35360.2
652.875	35431.16
653.227	35166.53
653.578	35499.86
653.93	35450.14
654.282	35377.6
654.633	35252.41
654.985	35361.78
655.337	35336.02
655.688	35270.71
656.039	35499.86
656.391	35127.89
656.742	35233.42
657.094	35189.58
657.445	35357.49
657.796	35202.92
658.147	35264.38
658.498	35160.88
658.849	35299.86
659.2	35126.76
659.551	35133.99
659.902	35163.37
660.253	35227.55
660.604	35161.11
660.955	35130.15
661.306	35137.16
661.656	35115.46
662.007	35138.96
662.358	35203.82
662.708	35136.03
663.059	35047.21
663.409	34843.15
663.76	35132.41
664.11	35139.64
664.461	35217.83
664.811	35112.52
665.161	35162.47
665.511	35104.84
665.862	35072.3
666.212	35136.7
666.562	35136.03
666.912	35054.22
667.262	34912.75
667.612	34966.76
667.962	35058.06
668.312	34893.09
668.662	35194.33
669.011	35029.59
669.361	34884.05
669.711	34902.36
670.06	34876.15
670.41	34917.27
670.76	34889.03
671.109	34993.88
671.459	34843.83
671.808	34877.5
672.157	35104.61
672.507	34677.51
672.856	34664.17
673.205	34857.39
673.554	34918.4
673.904	34657.17
674.253	35024.62
674.602	34890.83
674.951	34151.19
675.3	34084.75
675.649	34763.61
675.998	34694.45
676.346	34631.18
676.695	34872.3
677.044	34506.66
677.393	34726.32
677.741	34596.83
678.09	34599.99
678.438	34472.54
678.787	34530.39
679.135	34496.04
679.484	34121.36
679.832	34478.64
680.181	34246.78
680.529	34341.7
680.877	34135.15
681.225	34239.55
681.573	34468.47
681.922	34164.98
682.27	34057.86
682.618	34088.82
682.966	34004.76
683.314	34164.75
683.661	33938.54
684.009	33952.1
684.357	33826.68
684.705	33705.1
685.053	33831.65
685.4	33678.44
685.748	33507.59
686.095	33493.13
686.443	33548.5
686.79	33316.64
687.138	33546.69
687.485	33479.12
687.832	33387.37
688.18	33408.61
688.527	33197.32
688.874	33166.59
689.221	33033.93
689.568	32938.79
689.915	32849.76
690.262	32941.96
690.609	32886.14
690.956	32837.33
691.303	32587.84
691.65	32588.75
691.997	32427.62
692.344	32261.98
692.69	32365.02
693.037	32348.53
693.383	32056.56
693.73	32212.94
694.077	31997.12
694.423	32065.82
694.769	31937.92
695.116	31833.51
695.462	31803.68
695.808	31774.31
696.155	31823.57
696.501	31525.27
696.847	31565.27
697.193	31210.03
697.539	31391.26
697.885	31142.01
698.231	31200.31
698.577	31064.27
698.923	31111.72
699.269	30810.94
699.614	30696.37
699.96	30723.71
700.306	30756.25
700.651	30594
700.997	30416.15
701.342	30483.49
701.688	30321.24
702.033	30312.2
702.379	30298.64
702.724	30180
703.069	30169.6
703.415	29902.49
703.76	30028.59
704.105	30040.79
704.45	29860.68
704.795	29708.82
705.14	29594.02
705.485	29480.58
705.83	29546.12
706.175	29482.84
706.52	29421.6
706.865	29412.79
707.209	29330.3
707.554	29116.75
707.899	29251.21
708.243	29057.54
708.588	29112.23
708.932	28931.89
709.277	28860.48
709.621	28765.8
709.966	28624.78
710.31	28823.87
710.654	28516.09
710.998	28541.4
711.342	28511.79
711.687	28367.62
712.031	28368.29
712.375	28221.4
712.719	28381.85
713.063	28272.25
713.407	28354.06
713.75	28294.85
714.094	28192.48
714.438	28063.89
714.782	28036.1
715.125	27886.95
715.469	27968.3
715.812	27784.81
716.156	27637.24
716.499	27557.92
716.843	27613.29
717.186	27456.23
717.53	27650.12
717.873	27673.4
718.216	27516.79
718.559	27324.71
718.902	27161.09
719.246	27326.97
719.589	27263.01
719.932	27088.78
720.275	27041.32
720.617	27078.38
720.96	27046.29
721.303	27083.81
721.646	27083.36
721.989	26872.06
722.331	26939.18
722.674	26875.23
723.016	26840.65
723.359	26803.81
723.701	26735.34
724.044	26537.61
724.386	26508.91
724.729	26643.14
725.071	26553.88
725.413	26467.1
725.755	26368.57
726.097	26443.15
726.439	26220.1
726.782	26286.77
727.124	26381.91
727.465	26313.88
727.807	26187.79
728.149	26146.43
728.491	25974.01
728.833	26213.1
729.175	26025.53
729.516	25932.2
729.858	25973.55
730.199	25930.39
730.541	25943.95
730.882	25858.53
731.224	25975.14
731.565	25652.88
731.906	25804.75
732.248	25744.86
732.589	25598.87
732.93	25579.67
733.271	25583.73
733.612	25504.41
733.953	25624.86
734.294	25411.76
734.635	25311.2
734.976	25426.9
735.317	25301.03
735.658	25242.27
735.999	25383.74
736.339	25208.83
736.68	25309.84
737.021	25123.18
737.361	25107.59
737.702	25347.81
738.042	25098.55
738.383	25023.75
738.723	25143.75
739.063	25038.89
739.404	25084.99
739.744	24964.54
740.084	24830.31
740.424	24940.81
740.764	24775.17
741.104	24838.67
741.444	24895.62
741.784	24685.23
742.124	24731.78
742.464	24761.83
742.804	24634.83
743.143	24608.39
743.483	24487.72
743.823	24496.08
744.162	24579.01
744.502	24558.68
744.841	24389.42
745.181	24509.64
745.52	24304.22
745.86	24373.37
746.199	24367.95
746.538	24334.73
746.877	24308.74
747.216	24347.61
747.556	24301.51
747.895	24207.73
748.234	24163.88
748.573	24085.02
748.911	24046.37
749.25	24062.19
749.589	23924.57
749.928	24009.76
750.267	23932.7
750.605	23917.11
750.944	23873.5
751.283	23689.32
751.621	23792.82
751.96	23574.07
752.298	23710.11
752.636	23643.9
752.975	23584.92
753.313	23502.88
753.651	23566.16
753.989	23453.17
754.327	23389.67
754.666	23211.59
755.004	23387.63
755.342	23332.04
755.679	23302.66
756.017	23117.58
756.355	23219.73
756.693	23123.01
757.031	23160.52
757.368	23021.32
757.706	22900.41
758.044	22823.58
758.381	22899.96
758.719	22906.29
759.056	22919.17
759.394	22744.03
759.731	22681.89
760.068	22628.33
760.405	22608.22
760.743	22528
761.08	22551.72
761.417	22330.03
761.754	22355.8
762.091	22301.56
762.428	22235.35
762.765	22057.5
763.102	22148.8
763.438	22100.89
763.775	21898.86
764.112	21943.15
764.449	21851.63
764.785	21834.45
765.122	21681.92
765.458	21520.11
765.795	21591.97
766.131	21565.53
766.467	21456.84
766.804	21403.28
767.14	21246.22
767.476	21327.12
767.812	21148.6
768.148	21225.43
768.485	21056.4
768.821	20932.56
769.157	20947.7
769.492	20821.83
769.828	20864.76
770.164	20667.93
770.5	20666.12
770.836	20567.82
771.171	20523.3
771.507	20319.01
771.842	20212.12
772.178	20265.46
772.513	20181.62
772.849	20208.51
773.184	20031.79
773.519	20065.69
773.855	19927.61
774.19	19938.23
774.525	19859.59
774.86	19872.92
775.195	19754.73
775.53	19657.79
775.865	19532.14
776.2	19461.18
776.535	19336.21
776.87	19268.65
777.205	19252.38
777.539	19151.13
777.874	19202.88
778.209	19033.62
778.543	18932.84
778.878	18831.14
779.212	18874.98
779.547	18740.07
779.881	18796.34
780.215	18707.3
780.55	18649.91
780.884	18585.95
781.218	18488.78
781.552	18446.52
781.886	18395.45
782.22	18260.31
782.554	18268.9
782.888	18092.41
783.222	17996.81
783.556	17847.44
783.889	17925.18
784.223	17757.27
784.557	17699.42
784.89	17790.49
785.224	17621.91
785.557	17536.71
785.891	17522.25
786.224	17477.73
786.558	17511.4
786.891	17315.93
787.224	17207.23
787.557	17161.58
787.891	17195.71
788.224	17118.87
788.557	17146.44
788.89	17077.07
789.223	17064.64
789.556	16895.15
789.888	16774.7
790.221	16779.9
790.554	16658.55
790.887	16755.04
791.219	16629.17
791.552	16514.37
791.884	16397.53
792.217	16434.82
792.549	16426.46
792.882	16297.88
793.214	16196.86
793.546	16251.78
793.879	16051.56
794.211	15952.35
794.543	16094.27
794.875	15979.69
795.207	15967.94
795.539	15858.34
795.871	15895.85
796.203	15751.22
796.535	15640.72
796.867	15633.94
797.198	15643.43
797.53	15611.79
797.862	15524.79
798.193	15532.47
798.525	15468.75
798.856	15422.42
799.188	15277.79
799.519	15199.15
799.85	15087.74
800.182	15206.61
800.513	15160.51
800.844	15049.77
801.175	15166.61
801.506	15000.28
801.837	14914.18
802.168	14973.62
802.499	14825.6
802.83	14806.39
803.161	14813.85
803.491	14740.63
803.822	14700.86
804.153	14674.19
804.483	14527.75
804.814	14523.01
805.145	14537.24
805.475	14420.64
805.805	14393.97
806.136	14436.91
806.466	14431.03
806.796	14360.53
807.126	14164.37
807.457	14198.72
807.787	14267.87
808.117	14103.13
808.447	14083.92
808.777	14112.4
809.107	13992.85
809.436	13985.62
809.766	13950.59
810.096	13873.76
810.426	13918.5
810.755	13968.9
811.085	13840.77
811.414	13818.39
811.744	13740.2
812.073	13675.35
812.403	13639.87
812.732	13611.85
813.061	13659.98
813.39	13477.16
813.719	13497.05
814.049	13521.9
814.378	13427.44
814.707	13450.95
815.036	13420.66
815.365	13336.82
815.693	13133.67
816.022	13187.9
816.351	13222.7
816.68	13138.86
817.008	13047.34
817.337	13029.49
817.665	12985.65
817.994	13073.78
818.322	13084.85
818.651	12905.2
818.979	12927.12
819.307	13028.81
819.636	12874.69
819.964	12843.96
820.292	12912.65
820.62	12815.03
820.948	12749.95
821.276	12880.34
821.604	12746.33
821.932	12773.9
822.259	12800.57
822.587	12785.88
822.915	12762.6
823.243	12770.29
823.57	12740.23
823.898	12741.13
824.225	12714.24
824.553	12673.79
824.88	12707.91
825.207	12718.54
825.535	12716.73
825.862	12735.94
826.189	12693.68
826.516	12733.22
826.843	12764.64
827.17	12768.03
827.497	12755.82
827.824	12749.5
828.151	12756.73
828.478	12743.85
828.805	12760.79
829.131	12677.18
829.458	12694.58
829.785	12614.13
830.111	12707.46
830.438	12671.31
830.764	12654.13
831.09	12729.83
831.417	12573.68
831.743	12719.21
832.069	12697.29
832.395	12629.5
832.722	12680.34
833.048	12613.45
833.374	12634.24
833.7	12552.21
834.026	12518.77
834.351	12594.7
834.677	12546.11
835.003	12604.19
835.329	12498.2
835.654	12560.8
835.98	12404.65
836.306	12398.77
836.631	12474.7
836.956	12457.75
837.282	12468.82
837.607	12364.65
837.932	12323.97
838.258	12378.21
838.583	12333.24
838.908	12293.91
839.233	12288.94
839.558	12220.02
839.883	12236.51
840.208	12251.66
840.533	12178.44
840.858	12193.35
841.182	12146.8
841.507	12151.77
841.832	12060.93
842.156	12053.92
842.481	12023.86
842.805	12028.84
843.13	12037.88
843.454	11971.66
843.778	11919.01
844.103	11898.67
844.427	11868.61
844.751	11883.76
845.075	11757.43
845.399	11764.44
845.723	11709.75
846.047	11754.49
846.371	11583.65
846.695	11718.34
847.019	11645.8
847.343	11511.34
847.666	11430.21
847.99	11392.47
848.313	11379.59
848.637	11358.8
848.96	11292.81
849.284	11247.39
849.607	11283.32
849.931	11146.37
850.254	11107.73
850.577	11048.98
850.9	10967.85
851.223	10957.45
851.546	10939.37
851.869	10854.86
852.192	10937.79
852.515	10758.36
852.838	10758.14
853.161	10690.57
853.483	10678.59
853.806	10677.23
854.129	10688.76
854.451	10581.42
854.774	10577.57
855.096	10483.57
855.419	10495.32
855.741	10491.48
856.063	10435.21
856.385	10393.63
856.708	10318.82
857.03	10344.59
857.352	10406.96
857.674	10326.28
857.996	10247.41
858.318	10148.21
858.64	10144.59
858.961	10124.93
859.283	10135.1
859.605	10051.04
859.926	10119.96
860.248	10120.41
860.57	10027.53
860.891	9982.56
861.212	9922.9
861.534	9920.64
861.855	9892.4
862.176	9943.69
862.498	9955.22
862.819	9905.5
863.14	9865.5
863.461	9789.57
863.782	9749.35
864.103	9769.91
864.424	9728.33
864.745	9790.7
865.065	9679.29
865.386	9691.72
865.707	9649.46
866.027	9719.97
866.348	9657.6
866.668	9635.9
866.989	9632.29
867.309	9560.65
867.63	9540.09
867.95	9553.2
868.27	9550.94
868.59	9555.68
868.91	9537.15
869.23	9548.68
869.55	9463.48
869.87	9418.96
870.19	9410.83
870.51	9432.75
870.83	9411.96
871.15	9329.7
871.469	9397.49
871.789	9422.8
872.109	9396.14
872.428	9283.82
872.748	9293.54
873.067	9291.96
873.386	9340.09
873.706	9246.31
874.025	9268.46
874.344	9251.06
874.663	9305.52
874.982	9197.95
875.301	9255.58
875.62	9189.59
875.939	9139.87
876.258	9140.55
876.577	9095.81
876.896	9143.49
877.214	9143.71
877.533	9107.56
877.852	9069.82
878.17	9030.5
878.489	9049.71
878.807	8973.32
879.125	8981.46
879.444	8981.23
879.762	8962.48
880.08	8959.54
880.398	8987.56
880.716	8920.67
881.034	8964.28
881.352	8945.75
881.67	8854
881.988	8884.29
882.306	8880.22
882.624	8846.55
882.941	8805.42
883.259	8765.19
883.577	8730.84
883.894	8783.95
884.212	8715.25
884.529	8711.18
884.846	8679.09
885.164	8680.68
885.481	8585.99
885.798	8714.12
886.115	8498.99
886.432	8591.64
886.75	8577.85
887.067	8600.23
887.383	8491.98
887.7	8502.6
888.017	8462.38
888.334	8511.64
888.651	8444.75
888.967	8399.78
889.284	8367.69
889.6	8341.7
889.917	8306.9
890.233	8281.14
890.55	8226.68
890.866	8281.14
891.182	8292.44
891.498	8195.26
891.815	8183.74
892.131	8223.29
892.447	8147.13
892.763	8173.12
893.079	8136.28
893.395	8093.57
893.71	8140.12
894.026	8048.15
894.342	8046.12
894.657	7976.97
894.973	7958.66
895.289	7976.06
895.604	8002.95
895.92	7879.34
896.235	7821.49
896.55	7900.36
896.865	7842.73
897.181	7743.75
897.496	7720.7
897.811	7706.01
898.126	7686.58
898.441	7682.74
898.756	7693.58
899.071	7568.16
899.386	7614.49
899.7	7527.26
900.015	7546.69
900.33	7429.64
900.644	7429.41
900.959	7460.14
901.273	7467.37
901.588	7445.23
901.902	7347.15
902.216	7331.33
902.531	7308.96
902.845	7300.37
903.159	7250.43
903.473	7262.63
903.787	7218.34
904.101	7154.16
904.415	7171.11
904.729	7139.93
905.042	7122.3
905.356	7108.06
905.67	7075.29
905.984	7052.02
906.297	7011.79
906.611	6955.75
906.924	6969.99
907.237	6957.11
907.551	6916.2
907.864	6886.82
908.177	6914.39
908.491	6859.03
908.804	6817.45
909.117	6742.87
909.43	6719.6
909.743	6743.1
910.056	6694.51
910.368	6652.71
910.681	6646.83
910.994	6576.55
911.307	6581.75
911.619	6572.26
911.932	6537
912.244	6483.22
912.557	6494.29
912.869	6436.21
913.181	6482.09
913.494	6390.57
913.806	6406.39
914.118	6347.4
914.43	6363.45
914.742	6319.83
915.054	6256.33
915.366	6298.82
915.678	6229.21
915.99	6166.84
916.302	6207.52
916.613	6116.22
916.925	6113.29
917.236	6143.12
917.548	6108.31
917.859	6085.26
918.171	6047.3
918.482	5992.16
918.794	5993.74
919.105	5951.03
919.416	5936.34
919.727	5921.2
920.038	5888.43
920.349	5845.95
920.66	5814.99
920.971	5811.37
921.282	5776.57
921.593	5780.86
921.903	5754.2
922.214	5696.57
922.525	5690.92
922.835	5669.91
923.146	5628.33
923.456	5617.03
923.767	5628.1
924.077	5600.98
924.387	5552.62
924.697	5473.75
925.008	5497.26
925.318	5557.82
925.628	5473.53
925.938	5427.2
926.248	5435.11
926.558	5343.81
926.867	5328.45
927.177	5291.16
927.487	5332.74
927.796	5288.22
928.106	5285.96
928.416	5241.22
928.725	5273.76
929.034	5206.19
929.344	5211.16
929.653	5155.8
929.962	5100.88
930.271	5139.07
930.581	5135.46
930.89	5072.18
931.199	5062.24
931.508	4975.91
931.817	5060.43
932.125	4996.7
932.434	5034.22
932.743	4953.54
933.051	4922.13
933.36	4919.19
933.669	4860.66
933.977	4883.71
934.286	4847.56
934.594	4812.98
934.902	4783.38
935.21	4799.2
935.519	4757.39
935.827	4718.75
936.135	4671.29
936.443	4710.84
936.751	4712.64
937.059	4636.49
937.367	4594.23
937.674	4636.04
937.982	4605.53
938.29	4606.88
938.597	4570.73
938.905	4555.36
939.213	4512.88
939.52	4505.42
939.827	4517.4
940.135	4461.58
940.442	4476.94
940.749	4432.43
941.056	4363.95
941.363	4401.47
941.67	4332.09
941.977	4353.78
942.284	4303.16
942.591	4345.65
942.898	4311.75
943.205	4281.47
943.511	4245.09
943.818	4296.38
944.125	4220.45
944.431	4205.77
944.738	4199.44
945.044	4180.68
945.35	4192.21
945.657	4130.06
945.963	4141.36
946.269	4085.09
946.575	4100.23
946.881	4102.27
947.187	4060.01
947.493	4042.38
947.799	4013.91
948.105	3999.89
948.41	3942.95
948.716	3967.58
949.022	3955.38
949.327	3932.1
949.633	3873.34
949.938	3857.07
950.244	3871.76
950.549	3890.52
950.854	3841.25
951.16	3823.18
951.465	3817.98
951.77	3820.01
952.075	3793.8
952.38	3766
952.685	3763.97
952.99	3735.49
953.294	3696.63
953.599	3699.56
953.904	3686.46
954.209	3643.29
954.513	3668.83
954.818	3639.23
955.122	3647.81
955.426	3656.18
955.731	3622.73
956.035	3571.43
956.339	3571.21
956.643	3563.97
956.948	3527.82
957.252	3500.47
957.556	3515.39
957.86	3489.4
958.163	3495.28
958.467	3462.06
958.771	3447.14
959.075	3454.37
959.378	3429.51
959.682	3395.16
959.985	3356.52
960.289	3377.31
960.592	3361.04
960.896	3354.04
961.199	3319.69
961.502	3336.18
961.805	3265.9
962.108	3302.51
962.411	3267.03
962.714	3227.94
963.017	3233.81
963.32	3255.96
963.623	3210.09
963.926	3192.91
964.228	3208.73
964.531	3128.96
964.833	3167.6
965.136	3142.06
965.438	3110.2
965.741	3127.38
966.043	3120.37
966.345	3071.11
966.648	3103.42
966.95	3029.3
967.252	3007.15
967.554	3066.36
967.856	3036.98
968.158	3007.38
968.46	3020.49
968.761	2988.85
969.063	3010.99
969.365	2990.66
969.666	2983.42
969.968	2938.45
970.269	2900.49
970.571	2909.53
970.872	2875.63
971.174	2900.04
971.475	2882.64
971.776	2878.34
972.077	2872.01
972.378	2879.92
972.679	2849.64
972.98	2841.73
973.281	2802.19
973.582	2770.77
973.883	2807.38
974.183	2770.55
974.484	2754.28
974.785	2735.97
975.085	2711.57
975.386	2768.51
975.686	2696.43
975.986	2689.19
976.287	2686.03
976.587	2650.55
976.887	2663.21
977.187	2664.11
977.487	2614.62
977.787	2625.47
978.087	2611.68
978.387	2587.95
978.687	2625.47
978.987	2584.34
979.286	2587.73
979.586	2553.15
979.885	2545.02
980.185	2509.54
980.484	2529.65
980.784	2521.52
981.083	2527.17
981.382	2500.73
981.682	2498.69
981.981	2487.39
982.28	2475.19
982.579	2477
982.878	2451.69
983.177	2446.26
983.475	2420.05
983.774	2403.78
984.073	2420.95
984.372	2393.38
984.67	2361.52
984.969	2353.84
985.267	2358.81
985.566	2343.22
985.864	2324.23
986.162	2324.91
986.461	2303.67
986.759	2336.21
987.057	2314.97
987.355	2292.37
987.653	2267.06
987.951	2272.03
988.249	2301.18
988.547	2259.38
988.844	2229.77
989.142	2236.33
989.44	2220.96
989.737	2225.03
990.035	2184.35
990.332	2184.8
990.63	2184.8
990.927	2161.3
991.224	2175.54
991.521	2142.54
991.819	2167.4
992.116	2136.67
992.413	2130.79
992.71	2084.01
993.006	2106.39
993.303	2105.03
993.6	2093.5
993.897	2065.03
994.193	2109.32
994.49	2075.43
994.787	2042.21
995.083	2029.33
995.379	1985.26
995.676	2001.08
995.972	2041.08
996.268	1978.03
996.565	1985.03
996.861	2004.47
997.157	1995.88
997.453	1943
997.749	1965.37
998.044	1927.41
998.34	1951.36
998.636	1950.23
998.932	1871.59
999.227	1915.2
999.523	1915.43
999.818	1873.4
1000.114	1878.82
1000.409	1878.14
1000.704	1870.46
1001	1868.88
1001.295	1869.1
1001.59	1829.56
1001.885	1858.26
1002.18	1801.99
1002.475	1814.19
1002.77	1792.95
1003.065	1771.48
1003.359	1778.94
1003.654	1768.77
1003.949	1756.79
1004.243	1729.9
1004.538	1720.86
1004.832	1707.3
1005.127	1732.61
1005.421	1707.3
1005.715	1692.16
1006.009	1694.87
1006.304	1675.89
1006.598	1663.46
1006.892	1644.93
1007.186	1644.93
1007.48	1637.47
1007.773	1658.26
1008.067	1654.87
1008.361	1616.91
1008.655	1619.62
1008.948	1589.56
1009.242	1623.69
1009.535	1606.96
1009.829	1555.67
1010.122	1592.95
1010.415	1563.57
1010.708	1554.54
1011.001	1527.19
1011.295	1558.6
1011.588	1528.1
1011.881	1486.06
1012.173	1535.55
1012.466	1510.24
1012.759	1488.55
1013.052	1477.25
1013.344	1496.23
1013.637	1474.09
1013.93	1447.42
1014.222	1450.13
1014.514	1427.31
1014.807	1429.79
1015.099	1403.13
1015.391	1413.07
1015.683	1396.57
1015.976	1387.08
1016.268	1384.37
1016.56	1349.57
1016.851	1364.03
1017.143	1353.86
1017.435	1370.59
1017.727	1356.8
1018.018	1348.44
1018.31	1326.97
1018.602	1324.26
1018.893	1325.84
1019.185	1339.4
1019.476	1322
1019.767	1292.17
1020.058	1288.55
1020.35	1249.68
1020.641	1296.69
1020.932	1263.92
1021.223	1242.45
1021.514	1241.55
1021.804	1236.8
1022.095	1240.87
1022.386	1241.78
1022.677	1181.66
1022.967	1209.01
1023.258	1162.46
1023.548	1192.51
1023.839	1182.57
1024.129	1197.26
1024.419	1167.88
1024.709	1124.72
1025	1159.74
1025.29	1137.15
1025.58	1150.48
1025.87	1140.31
1026.16	1132.85
1026.449	1119.29
1026.739	1087.43
1027.029	1119.07
1027.319	1091.27
1027.608	1081.55
1027.898	1102.8
1028.187	1096.92
1028.477	1077.71
1028.766	1066.86
1029.055	1066.64
1029.344	1030.26
1029.634	1063.25
1029.923	1056.7
1030.212	1037.94
1030.501	1039.97
1030.79	999.97
1031.078	1010.14
1031.367	1006.98
1031.656	1004.27
1031.945	1007.43
1032.233	992.97
1032.522	983.25
1032.81	992.97
1033.099	984.38
1033.387	945.74
1033.675	950.94
1033.963	959.07
1034.251	946.87
1034.54	945.29
1034.828	939.41
1035.116	948.9
1035.403	911.61
1035.691	916.59
1035.979	924.27
1036.267	905.74
1036.554	926.98
1036.842	899.64
1037.129	886.08
1037.417	914.55
1037.704	884.5
1037.992	871.16
1038.279	861.9
1038.566	856.47
1038.853	856.47
1039.14	856.47
