Data from hue_70_FLMS001491_48.txt Node
Date: Mon Feb 06 15:20:58 GMT 2017
User: dcchb
Spectrometer: FLMS00149
Trigger mode: 0
Integration Time (sec): 2.000000E-2
Scans to average: 10
Electric dark correction enabled: true
Nonlinearity correction enabled: false
Boxcar width: 0
XAxis mode: Wavelengths
Number of Pixels in Spectrum: 2048
>>>>>Begin Spectral Data<<<<<
341.393	-17.09
341.776	-17.09
342.16	-17.09
342.543	-61.61
342.927	-48.5
343.31	-65.9
343.693	-61.61
344.077	-63.87
344.46	-61.83
344.843	-52.57
345.226	-51.89
345.61	-41.5
345.993	-35.62
346.376	10.71
346.759	24.04
347.142	39.86
347.525	49.12
347.908	50.03
348.291	63.59
348.674	93.64
349.057	103.81
349.44	135
349.823	145.84
350.206	152.4
350.588	205.28
350.971	192.62
351.354	221.77
351.737	237.59
352.119	258.84
352.502	263.35
352.884	251.6
353.267	299.51
353.65	287.53
354.032	307.65
354.414	318.72
354.797	294.31
355.179	313.52
355.562	333.86
355.944	322.56
356.326	334.09
356.709	322.34
357.091	336.8
357.473	325.73
357.855	338.38
358.238	321.88
358.62	324.14
359.002	338.15
359.384	357.59
359.766	341.32
360.148	334.09
360.53	335.9
360.912	337.93
361.294	336.57
361.676	335.22
362.057	326.4
362.439	317.14
362.821	329.57
363.203	330.7
363.584	315.78
363.966	305.16
364.348	323.24
364.729	318.72
365.111	316.91
365.493	297.48
365.874	320.53
366.256	301.55
366.637	320.3
367.019	310.59
367.4	314.2
367.781	315.78
368.163	312.17
368.544	316.23
368.925	313.52
369.306	323.69
369.688	305.16
370.069	304.71
370.45	311.94
370.831	312.17
371.212	325.05
371.593	309.23
371.974	321.66
372.355	313.07
372.736	308.78
373.117	330.92
373.498	312.62
373.879	305.84
374.26	317.14
374.641	313.52
375.021	324.6
375.402	313.07
375.783	324.82
376.163	310.36
376.544	316.91
376.925	338.15
377.305	322.11
377.686	320.53
378.066	323.69
378.447	334.54
378.827	329.79
379.208	324.6
379.588	322.11
379.968	326.18
380.349	325.27
380.729	319.17
381.109	323.01
381.489	330.02
381.87	327.08
382.25	335.44
382.63	354.43
383.01	334.77
383.39	315.56
383.77	320.3
384.15	351.04
384.53	336.35
384.91	332.28
385.29	328.21
385.67	316.23
386.049	348.78
386.429	348.32
386.809	354.43
387.189	352.62
387.568	346.06
387.948	368.44
388.328	363.69
388.707	372.96
389.087	327.31
389.466	354.2
389.846	343.13
390.225	367.98
390.605	353.07
390.984	342.45
391.363	374.54
391.743	363.24
392.122	361.66
392.501	350.13
392.881	365.95
393.26	372.96
393.639	359.85
394.018	359.85
394.397	361.21
394.776	348.55
395.155	394.65
395.534	382.9
395.913	359.62
396.292	382.22
396.671	373.41
397.05	382
397.429	362.79
397.808	378.61
398.186	367.31
398.565	342.45
398.944	376.12
399.323	396.01
399.701	389.23
400.08	402.33
400.458	380.64
400.837	387.65
401.215	367.31
401.594	399.85
401.972	395.1
402.351	400.53
402.729	383.58
403.107	399.4
403.486	398.04
403.864	389.45
404.242	396.46
404.62	394.2
404.999	406.63
405.377	380.19
405.755	421.54
406.133	399.62
406.511	419.51
406.889	410.7
407.267	404.59
407.645	412.73
408.023	422.67
408.401	417.93
408.779	412.96
409.156	435.33
409.534	422.22
409.912	423.58
410.29	445.27
410.667	430.81
411.045	428.32
411.422	445.27
411.8	427.64
412.178	443.24
412.555	445.72
412.933	451.15
413.31	455.44
413.687	461.32
414.065	451.15
414.442	439.4
414.819	469
415.197	454.08
415.574	464.93
415.951	459.06
416.328	475.55
416.705	476.46
417.082	462.9
417.46	473.97
417.837	480.07
418.214	488.66
418.591	488.89
418.967	474.87
419.344	489.11
419.721	483.91
420.098	485.27
420.475	496.57
420.852	503.8
421.228	520.07
421.605	500.18
421.982	502.67
422.358	505.16
422.735	504.48
423.111	525.49
423.488	487.76
423.864	527.08
424.241	536.34
424.617	541.54
424.994	515.33
425.37	531.6
425.746	546.51
426.123	522.78
426.499	553.52
426.875	558.04
427.251	539.73
427.627	569.34
428.003	556.68
428.379	539.96
428.756	574.53
429.132	575.21
429.507	599.62
429.883	584.25
430.259	592.61
430.635	576.11
431.011	569.56
431.387	614.31
431.763	575.89
432.138	601.42
432.514	624.93
432.89	584.25
433.265	636.68
433.641	638.26
434.016	627.19
434.392	639.16
434.767	632.84
435.143	658.6
435.518	664.02
435.894	648.88
436.269	625.83
436.644	660.86
437.02	663.12
437.395	660.63
437.77	663.8
438.145	679.84
438.52	668.99
438.895	678.71
439.271	686.62
439.646	714.87
440.021	695.66
440.395	702.44
440.77	683.46
441.145	696.56
441.52	727.98
441.895	716.9
442.27	728.43
442.645	719.16
443.019	743.79
443.394	747.64
443.769	752.38
444.143	722.78
444.518	733.17
444.892	750.12
445.267	751.25
445.641	748.77
446.016	754.87
446.39	770.91
446.764	774.75
447.139	762.32
447.513	780.4
447.887	756.68
448.262	759.84
448.636	779.05
449.01	801.87
449.384	789.44
449.758	805.04
450.132	803.91
450.506	823.11
450.88	821.31
451.254	806.39
451.628	837.12
452.002	876.45
452.376	851.59
452.75	880.29
453.123	852.27
453.497	885.26
453.871	875.54
454.244	878.71
454.618	886.84
454.992	866.5
455.365	898.14
455.739	932.26
456.112	928.65
456.486	927.52
456.859	934.52
457.232	948.99
457.606	956.9
457.979	960.96
458.352	971.81
458.725	976.33
459.099	995.09
459.472	998.02
459.845	996.44
460.218	1016.78
460.591	1040.74
460.964	1034.63
461.337	1051.81
461.71	1070.79
462.083	1089.32
462.456	1096.1
462.829	1096.1
463.201	1149.66
463.574	1128.87
463.947	1167.06
464.32	1154.86
464.692	1165.03
465.065	1218.81
465.438	1193.05
465.81	1219.71
466.183	1219.49
466.555	1251.58
466.928	1272.14
467.3	1274.63
467.672	1308.75
468.045	1352.37
468.417	1361.63
468.789	1350.11
469.161	1363.66
469.534	1412.48
469.906	1432.36
470.278	1453.83
470.65	1452.93
471.022	1463.32
471.394	1534.06
471.766	1579.7
472.138	1589.42
472.51	1631.23
472.882	1685.69
473.253	1703.54
473.625	1725.24
473.997	1799.13
474.369	1816.08
474.74	1816.53
475.112	1863.76
475.484	1934.27
475.855	1939.02
476.227	2006.36
476.598	2096.3
476.97	2077.32
477.341	2183.3
477.713	2169.52
478.084	2270.08
478.455	2336.29
478.827	2403.19
479.198	2487.7
479.569	2521.15
479.94	2630.52
480.311	2644.31
480.682	2716.62
481.053	2847.02
481.424	2927.01
481.795	2995.49
482.166	3064.18
482.537	3128.82
482.908	3237.74
483.279	3346.66
483.65	3413.33
484.021	3516.6
484.391	3604.06
484.762	3707.11
485.133	3766.09
485.503	3902.36
485.874	4072.52
486.244	4136.47
486.615	4268.9
486.985	4369.01
487.356	4514.32
487.726	4577.37
488.097	4787.53
488.467	4887.19
488.837	4992.5
489.207	5127.41
489.578	5269.55
489.948	5319.94
490.318	5540.73
490.688	5568.3
491.058	5748.41
491.428	5886.26
491.798	6002.19
492.168	6208.06
492.538	6248.96
492.908	6427.26
493.278	6594.94
493.648	6704.32
494.017	6846.46
494.387	7043.52
494.757	7113.8
495.126	7285.09
495.496	7401.25
495.866	7448.02
496.235	7624.52
496.605	7857.73
496.974	8019.76
497.344	8115.8
497.713	8263.6
498.082	8397.6
498.452	8482.57
498.821	8592.18
499.19	8733.19
499.559	8887.99
499.928	9003.46
500.298	9098.83
500.667	9237.36
501.036	9279.84
501.405	9485.71
501.774	9573.62
502.143	9659.49
502.512	9818.58
502.88	9960.73
503.249	10068.97
503.618	10176.54
503.987	10346.03
504.356	10409.53
504.724	10533.82
505.093	10683.87
505.462	10700.14
505.83	10762.06
506.199	10981.72
506.567	11141.94
506.936	11139
507.304	11301.93
507.672	11490.63
508.041	11525.88
508.409	11633.9
508.777	11789.83
509.145	11908.47
509.514	11938.08
509.882	12115.25
510.25	12185.3
510.618	12310.72
510.986	12374
511.354	12493.09
511.722	12599.75
512.09	12773.99
512.458	12751.84
512.826	12935.79
513.193	12968.78
513.561	13139.85
513.929	13157.03
514.297	13359.06
514.664	13474.98
515.032	13500.07
515.4	13681.53
515.767	13681.08
516.135	13795.65
516.502	13799.95
516.869	13999.49
517.237	14010.11
517.604	14046.5
517.972	14267.05
518.339	14323.78
518.706	14312.93
519.073	14390.21
519.44	14592.02
519.808	14633.37
520.175	14730.77
520.542	14961.5
520.909	14967.83
521.276	14929.64
521.643	15102.51
522.009	15198.33
522.376	15260.7
522.743	15439.68
523.11	15563.74
523.477	15641.26
523.843	15743.17
524.21	15859.78
524.577	15940.68
524.943	15977.07
525.31	16124.86
525.676	16226.1
526.043	16323.05
526.409	16347.9
526.776	16541.57
527.142	16563.27
527.508	16605.3
527.874	16796.25
528.241	16805.07
528.607	16844.84
528.973	16916.02
529.339	16999.19
529.705	17068.79
530.071	17231.5
530.437	17326.18
530.803	17286.18
531.169	17398.05
531.535	17423.13
531.901	17472.62
532.267	17513.52
532.632	17595.55
532.998	17582
533.364	17651.15
533.73	17665.16
534.095	17822.44
534.461	17789.9
534.826	17926.62
535.192	17885.26
535.557	18014.53
535.923	18027.63
536.288	18092.94
536.653	18099.72
537.019	18035.99
537.384	18052.49
537.749	18190.79
538.114	18153.96
538.479	18111.25
538.845	18308.98
539.21	18207.52
539.575	18287.97
539.94	18315.08
540.305	18385.14
540.67	18226.5
541.034	18417
541.399	18349.88
541.764	18388.98
542.129	18456.77
542.494	18395.76
542.858	18498.13
543.223	18601.4
543.587	18517.34
543.952	18586.26
544.316	18609.31
544.681	18460.16
545.045	18664.9
545.41	18649.09
545.774	18714.17
546.138	18742.87
546.503	18776.77
546.867	18715.98
547.231	18781.51
547.595	18779.03
547.959	18904.45
548.324	18802.08
548.688	18794.39
549.052	18863.77
549.416	18859.93
549.779	18757.11
550.143	18855.41
550.507	18946.03
550.871	19004.33
551.235	18951.68
551.599	19099.47
551.962	19024.44
552.326	19095.18
552.689	19007.04
553.053	19092.24
553.417	19004.1
553.78	19273.02
554.143	19140.37
554.507	19181.05
554.87	19239.13
555.234	19338.79
555.597	19244.1
555.96	19321.38
556.323	19386.24
556.686	19348.95
557.05	19402.29
557.413	19473.7
557.776	19559.8
558.139	19604.99
558.502	19577.42
558.865	19617.87
559.228	19675.73
559.59	19821.03
559.953	19788.49
560.316	19925.44
560.679	19944.42
561.041	19897.64
561.404	20005.89
561.767	20060.12
562.129	20039.33
562.492	20152.78
562.854	20239.78
563.217	20235.71
563.579	20249.5
563.941	20379.44
564.304	20507.34
564.666	20541.69
565.028	20562.03
565.39	20507.12
565.753	20598.87
566.115	20621.92
566.477	20796.83
566.839	20716.38
567.201	20925.64
567.563	20916.37
567.925	21053.99
568.287	21044.96
568.648	21007.22
569.01	21060.32
569.372	21241.79
569.734	21147.78
570.095	21281.79
570.457	21396.36
570.819	21413.31
571.18	21388.9
571.542	21432.97
571.903	21431.61
572.265	21526.98
572.626	21544.38
572.987	21583.92
573.349	21669.57
573.71	21695.79
574.071	21720.19
574.432	21770.13
574.794	21888.1
575.155	21889
575.516	21782.56
575.877	21941.43
576.238	21972.61
576.599	22053.97
576.96	21979.39
577.32	22063.69
577.681	22141.2
578.042	22274.98
578.403	22202.21
578.763	22232.72
579.124	22272.27
579.485	22236.11
579.845	22270.23
580.206	22229.56
580.566	22225.04
580.927	22295.77
581.287	22361.08
581.648	22298.48
582.008	22362.43
582.368	22239.05
582.728	22451.47
583.089	22421.19
583.449	22287.41
583.809	22415.99
584.169	22386.16
584.529	22356.56
584.889	22480.17
585.249	22363.79
585.609	22272.72
585.969	22473.84
586.329	22281.53
586.688	22350.68
587.048	22402.43
587.408	22292.15
587.768	22286.28
588.127	22338.48
588.487	22270.69
588.846	22404.92
589.206	22253.28
589.565	22341.64
589.925	22376.9
590.284	22396.56
590.643	22426.16
591.003	22363.11
591.362	22457.57
591.721	22354.3
592.08	22316.33
592.44	22375.32
592.799	22404.69
593.158	22341.19
593.517	22362.89
593.876	22440.4
594.235	22301.19
594.593	22403.56
594.952	22418.7
595.311	22335.77
595.67	22363.79
596.029	22511.58
596.387	22552.71
596.746	22597.91
597.104	22373.28
597.463	22445.82
597.822	22420.96
598.18	22335.99
598.538	22317.01
598.897	22484.92
599.255	22232.04
599.613	22594.52
599.972	22549.55
600.33	22549.77
600.688	22450.57
601.046	22585.48
601.404	22597.46
601.762	22493.28
602.12	22733.05
602.478	22632.48
602.836	22600.39
603.194	22602.43
603.552	22612.6
603.91	22554.97
604.268	22640.62
604.625	22607.63
604.983	22585.03
605.341	22551.36
605.698	22572.15
606.056	22695.53
606.413	22702.09
606.771	22746.61
607.128	22814.63
607.485	22765.36
607.843	22756.77
608.2	22827.28
608.557	22999.71
608.914	22824.8
609.272	23002.42
609.629	22953.15
609.986	23005.13
610.343	22930.1
610.7	23246.71
611.057	22952.93
611.414	23100.27
611.771	23180.04
612.127	23176.42
612.484	23196.54
612.841	23446.25
613.198	23220.27
613.554	23136.2
613.911	23383.88
614.267	23253.71
614.624	23341.17
614.98	23346.82
615.337	23368.74
615.693	23507.72
616.05	23374.61
616.406	23554.27
616.762	23500.03
617.118	23555.62
617.475	23554.04
617.831	23587.94
618.187	23611.44
618.543	23570.54
618.899	23631.55
619.255	23549.3
619.611	23707.03
619.967	23773.92
620.323	23920.13
620.678	23742.96
621.034	23686.47
621.39	23626.58
621.746	23551.33
622.101	23955.84
622.457	23706.58
622.812	23689.63
623.168	23863.41
623.523	23782.96
623.879	23943.86
624.234	23805.11
624.589	23819.35
624.945	23820.48
625.3	23926.69
625.655	23998.55
626.01	23935.27
626.365	24008.49
626.72	23912.68
627.075	23913.58
627.43	23855.95
627.785	23851.89
628.14	23866.12
628.495	23876.07
628.85	23887.82
629.205	23716.52
629.559	23881.72
629.914	23855.5
630.269	23906.12
630.623	23730.31
630.978	23809.18
631.332	23914.26
631.687	23826.8
632.041	23772.34
632.396	23762.17
632.75	23714.04
633.104	23686.02
633.459	23683.98
633.813	23618.22
634.167	23669.29
634.521	23742.96
634.875	23649.86
635.229	23640.14
635.583	23642.4
635.937	23479.02
636.291	23490.09
636.645	23491.44
636.999	23569.41
637.352	23523.08
637.706	23430.43
638.06	23466.59
638.413	23539.58
638.767	23368.51
639.121	23400.37
639.474	23264.11
639.828	23270.43
640.181	23338.68
640.534	23397.89
640.888	23336.19
641.241	23252.58
641.594	23275.18
641.947	23223.65
642.301	23198.12
642.654	23355.63
643.007	23205.8
643.36	23238.8
643.713	23112.47
644.066	23240.83
644.419	22977.33
644.771	23027.05
645.124	22718.81
645.477	22709.77
645.83	22522.88
646.182	22597.46
646.535	22454.41
646.888	22466.84
647.24	22331.7
647.593	22509.55
647.945	22482.66
648.298	22378.03
648.65	22378.25
649.002	22286.96
649.355	22469.1
649.707	22278.14
650.059	22350.23
650.411	22800.62
650.763	22630
651.115	22974.62
651.467	22828.64
651.819	22931.46
652.171	22850.56
652.523	22817.34
652.875	22735.08
653.227	22625.25
653.578	22840.16
653.93	22787.28
654.282	22698.92
654.633	22724.68
654.985	22691.69
655.337	22824.57
655.688	22722.88
656.039	22868.18
656.391	22593.84
656.742	22612.15
657.094	22591.13
657.445	22768.75
657.796	22801.07
658.147	22692.37
658.498	22735.31
658.849	22738.02
659.2	22727.4
659.551	22713.39
659.902	22788.64
660.253	22777.56
660.604	22708.64
660.955	22624.57
661.306	22714.06
661.656	22738.47
662.007	22680.84
662.358	22789.99
662.708	22673.39
663.059	22621.64
663.409	22634.74
663.76	22811.24
664.11	22705.93
664.461	22670.9
664.811	22719.26
665.161	22672.26
665.511	22691.24
665.862	22746.83
666.212	22711.13
666.562	22804.91
666.912	22735.76
667.262	22755.64
667.612	22715.65
667.962	22741.86
668.312	22690.11
668.662	22929.88
669.011	22720.39
669.361	22664.57
669.711	22740.73
670.06	22631.58
670.41	22651.92
670.76	22659.15
671.109	22716.32
671.459	22689.88
671.808	22707.74
672.157	22624.35
672.507	22587.51
672.856	22494.86
673.205	22591.36
673.554	22582.77
673.904	22518.59
674.253	22555.88
674.602	22570.34
674.951	22187.98
675.3	22080.86
675.649	22474.07
675.998	22415.09
676.346	22460.74
676.695	22518.36
677.044	22212.83
677.393	22422.55
677.741	22424.35
678.09	22346.84
678.438	22250.8
678.787	22266.62
679.135	22251.03
679.484	22214.64
679.832	22133.29
680.181	22053.29
680.529	22192.27
680.877	22142.1
681.225	22107.07
681.573	22343
681.922	21980.52
682.27	22099.39
682.618	21919.51
682.966	21888.55
683.314	21912.05
683.661	21918.15
684.009	21833.18
684.357	21800.42
684.705	21668.22
685.053	21792.51
685.4	21648.56
685.748	21526.3
686.095	21522.46
686.443	21450.59
686.79	21376.92
687.138	21490.82
687.485	21390.93
687.832	21426.41
688.18	21347.32
688.527	21222.13
688.874	21254.89
689.221	21190.04
689.568	21147.55
689.915	21105.29
690.262	21061.9
690.609	20914.79
690.956	20841.12
691.303	20938.97
691.65	20728.13
691.997	20781.69
692.344	20629.82
692.69	20646.55
693.037	20603.61
693.383	20397.97
693.73	20546.44
694.077	20410.17
694.423	20375.59
694.769	20284.07
695.116	20240.23
695.462	20158.2
695.808	20169.05
696.155	20062.38
696.501	19960.24
696.847	20027.81
697.193	19856.06
697.539	19895.83
697.885	19617.65
698.231	19641.38
698.577	19624.43
698.923	19634.6
699.269	19488.61
699.614	19454.94
699.96	19428.5
700.306	19315.28
700.651	19301.95
700.997	19269.41
701.342	19187.38
701.688	19120.26
702.033	19070.32
702.379	19110.09
702.724	18986.48
703.069	18988.74
703.415	18763.89
703.76	18811.34
704.105	18795.75
704.45	18675.3
704.795	18577.22
705.14	18550.11
705.485	18508.52
705.83	18440.5
706.175	18506.72
706.52	18385.14
706.865	18304.01
707.209	18239.83
707.554	18300.39
707.899	18298.81
708.243	18090.91
708.588	18106.05
708.932	18027.86
709.277	17906.73
709.621	17945.83
709.966	17920.74
710.31	17763.46
710.654	17828.32
710.998	17812.27
711.342	17727.98
711.687	17692.5
712.031	17582.67
712.375	17568.21
712.719	17614.08
713.063	17525.73
713.407	17610.02
713.75	17478.27
714.094	17464.71
714.438	17414.54
714.782	17364.15
715.125	17222.23
715.469	17366.86
715.812	17262.91
716.156	17162.35
716.499	17146.3
716.843	17148.56
717.186	17050.03
717.53	17101.33
717.873	17156.47
718.216	17002.35
718.559	16887.1
718.902	16825.86
719.246	16890.94
719.589	16916.93
719.932	16826.76
720.275	16843.94
720.617	16716.71
720.96	16802.35
721.303	16722.81
721.646	16750.15
721.989	16627.9
722.331	16661.79
722.674	16704.28
723.016	16674.9
723.359	16613.21
723.701	16605.3
724.044	16391.74
724.386	16557.16
724.729	16544.28
725.071	16492.31
725.413	16558.29
725.755	16471.06
726.097	16361.91
726.439	16344.51
726.782	16377.06
727.124	16443.72
727.465	16281.46
727.807	16371.86
728.149	16267.91
728.491	16257.96
728.833	16334.8
729.175	16239.88
729.516	16156.72
729.858	16229.94
730.199	16184.07
730.541	16197.85
730.882	16144.74
731.224	16274.69
731.565	16134.8
731.906	16095.25
732.248	16098.42
732.589	16100
732.93	16076.5
733.271	15982.26
733.612	16130.28
733.953	16062.26
734.294	15976.84
734.635	15972.77
734.976	16101.81
735.317	15992.43
735.658	15998.08
735.999	15992.21
736.339	15938.42
736.68	16059.1
737.021	15901.81
737.361	15906.33
737.702	16041.7
738.042	16078.08
738.383	16022.71
738.723	15973.9
739.063	15974.81
739.404	15947.24
739.744	15942.04
740.084	15938.42
740.424	15932.77
740.764	15936.16
741.104	15978.2
741.444	15901.14
741.784	15956.5
742.124	15930.51
742.464	15944.52
742.804	16025.43
743.143	15979.55
743.483	16074.69
743.823	15932.32
744.162	15959.21
744.502	15987.24
744.841	15954.69
745.181	16154.69
745.52	16087.12
745.86	16073.79
746.199	16076.27
746.538	16086.44
746.877	16154.91
747.216	16222.94
747.556	16221.13
747.895	16278.75
748.234	16231.3
748.573	16304.51
748.911	16310.84
749.25	16342.48
749.589	16364.85
749.928	16393.1
750.267	16513.55
750.605	16456.6
750.944	16477.62
751.283	16607.33
751.621	16556.71
751.96	16575.92
752.298	16648.69
752.636	16784.73
752.975	16795.8
753.313	16873.31
753.651	16966.87
753.989	16968.23
754.327	17065.4
754.666	16951.5
755.004	17179.52
755.342	17273.98
755.679	17345.17
756.017	17317.6
756.355	17443.92
756.693	17450.7
757.031	17676.46
757.368	17599.85
757.706	17632.62
758.044	17713.29
758.381	17735.44
758.719	17925.94
759.056	17997.35
759.394	17982.44
759.731	17930.46
760.068	18066.95
760.405	18087.29
760.743	18163.9
761.08	18269.66
761.417	18222.88
761.754	18351.92
762.091	18460.84
762.428	18381.07
762.765	18425.36
763.102	18540.84
763.438	18478.24
763.775	18472.14
764.112	18678.01
764.449	18728.41
764.785	18709.88
765.122	18704.23
765.458	18682.98
765.795	18740.16
766.131	18832.36
766.467	18848.85
766.804	18863.77
767.14	18916.88
767.476	18854.5
767.812	18866.71
768.148	18968.63
768.485	18887.72
768.821	18936.31
769.157	18899.7
769.492	18900.15
769.828	18919.59
770.164	18874.16
770.5	18909.19
770.836	18871.23
771.171	18807.73
771.507	18883.66
771.842	18677.56
772.178	18845.46
772.513	18751.91
772.849	18759.82
773.184	18690.44
773.519	18743.09
773.855	18761.4
774.19	18686.6
774.525	18598.24
774.86	18632.82
775.195	18564.57
775.53	18540.61
775.865	18455.64
776.2	18385.36
776.535	18289.32
776.87	18386.04
777.205	18317.12
777.539	18193.5
777.874	18332.48
778.209	18177.46
778.543	18170.68
778.878	18075.99
779.212	18123.45
779.547	18032.6
779.881	18107.18
780.215	17905.38
780.55	18017.01
780.884	17930.01
781.218	17858.6
781.552	17869.9
781.886	17757.36
782.22	17799.39
782.554	17570.92
782.888	17540.87
783.222	17580.87
783.556	17389.91
783.889	17383.36
784.223	17243.7
784.557	17344.94
784.89	17300.19
785.224	17234.89
785.557	17160.99
785.891	17076.7
786.224	17000.77
786.558	17102.01
786.891	16978.17
787.224	16842.35
787.557	16909.47
787.891	16819.08
788.224	16822.02
788.557	16811.85
788.89	16730.49
789.223	16729.36
789.556	16578.86
789.888	16504.96
790.221	16539.99
790.554	16460.67
790.887	16405.53
791.219	16325.08
791.552	16272.88
791.884	16306.55
792.217	16213.22
792.549	16200.79
792.882	15944.75
793.214	15995.6
793.546	16027.46
793.879	15888.93
794.211	15862.94
794.543	15874.02
794.875	15874.7
795.207	15860.68
795.539	15784.3
795.871	15716.06
796.203	15538.43
796.535	15538.89
796.867	15528.26
797.198	15438.1
797.53	15499.56
797.862	15246.69
798.193	15377.99
798.525	15220.48
798.856	15335.73
799.188	15129.4
799.519	15099.35
799.85	15056.86
800.182	15054.15
800.513	15012.12
800.844	14907.72
801.175	14975.06
801.506	14930.31
801.837	14887.38
802.168	14825.91
802.499	14687.38
802.83	14719.7
803.161	14677.44
803.491	14666.59
803.822	14633.15
804.153	14518.57
804.483	14538.23
804.814	14481.29
805.145	14368.75
805.475	14379.14
805.805	14312.02
806.136	14311.8
806.466	14345.7
806.796	14296.88
807.126	14197.45
807.457	14118.13
807.787	14194.74
808.117	14125.59
808.447	14037
808.777	14055.99
809.107	14012.6
809.436	13939.83
809.766	13896.22
810.096	13906.39
810.426	13842.88
810.755	13943.45
811.085	13695.09
811.414	13752.49
811.744	13623.91
812.073	13647.86
812.403	13598.37
812.732	13483.35
813.061	13540.97
813.39	13494.19
813.719	13434.08
814.049	13476.34
814.378	13408.32
814.707	13353.41
815.036	13329.68
815.365	13332.84
815.693	13136.91
816.022	13157.03
816.351	13197.7
816.68	13123.13
817.008	13126.97
817.337	13049.01
817.665	12922.68
817.994	13099.85
818.322	13079.97
818.651	13028.22
818.979	12934.66
819.307	12912.74
819.636	12940.99
819.964	12844.27
820.292	12928.56
820.62	12919.52
820.948	12838.39
821.276	12849.69
821.604	12779.64
821.932	12780.77
822.259	12782.12
822.587	12755.68
822.915	12744.38
823.243	12775.12
823.57	12851.95
823.898	12785.29
824.225	12730.15
824.553	12795
824.88	12698.96
825.207	12780.09
825.535	12719.75
825.862	12755.91
826.189	12720.65
826.516	12677.49
826.843	12858.73
827.17	12826.19
827.497	12745.29
827.824	12746.87
828.151	12772.86
828.478	12799.75
828.805	12828.22
829.131	12724.27
829.458	12804.72
829.785	12654.89
830.111	12642.46
830.438	12790.71
830.764	12751.16
831.09	12717.94
831.417	12667.32
831.743	12746.64
832.069	12678.85
832.395	12658.28
832.722	12678.62
833.048	12630.04
833.374	12642.01
833.7	12590.04
834.026	12614.44
834.351	12625.29
834.677	12631.84
835.003	12569.7
835.329	12602.47
835.654	12561.11
835.98	12505.74
836.306	12579.19
836.631	12543.71
836.956	12517.72
837.282	12519.3
837.607	12432.98
837.932	12378.29
838.258	12495.35
838.583	12437.95
838.908	12287.9
839.233	12377.16
839.558	12333.09
839.883	12237.5
840.208	12270.72
840.533	12226.43
840.858	12271.63
841.182	12220.33
841.507	12228.24
841.832	12215.81
842.156	12129.71
842.481	12146.21
842.805	12096.04
843.13	12091.07
843.454	11989.83
843.778	12039.99
844.103	11963.61
844.427	11977.17
844.751	11932.2
845.075	11952.76
845.399	11815.14
845.723	11806.55
846.047	11830.51
846.371	11721.81
846.695	11706.67
847.019	11696.95
847.343	11526.56
847.666	11528.6
847.99	11491.76
848.313	11454.7
848.637	11375.83
848.96	11440.24
849.284	11294.25
849.607	11288.83
849.931	11304.42
850.254	11240.47
850.577	11142.62
850.9	10968.16
851.223	10975.84
851.546	10985.78
851.869	10892.45
852.192	10941.04
852.515	10854.04
852.838	10871.44
853.161	10769.07
853.483	10780.82
853.806	10687.49
854.129	10688.62
854.451	10687.94
854.774	10648.17
855.096	10581.73
855.419	10483.2
855.741	10511.67
856.063	10439.36
856.385	10410.43
856.708	10381.73
857.03	10344.22
857.352	10373.37
857.674	10335.18
857.996	10294.28
858.318	10224
858.64	10203.43
858.961	10245.69
859.283	10165.47
859.605	10158.91
859.926	10143.09
860.248	10056.32
860.57	10003.66
860.891	10016.32
861.212	10015.87
861.534	9966.83
861.855	9951.69
862.176	9995.75
862.498	9934.96
862.819	9962.53
863.14	9932.25
863.461	9883.89
863.782	9907.17
864.103	9904.46
864.424	9783.56
864.745	9802.09
865.065	9820.84
865.386	9781.52
865.707	9758.02
866.027	9809.54
866.348	9777
866.668	9712.37
866.989	9643.9
867.309	9624.24
867.63	9593.5
867.95	9642.77
868.27	9591.7
868.59	9622.88
868.91	9613.62
869.23	9562.32
869.55	9453.85
869.87	9599.61
870.19	9442.55
870.51	9544.47
870.83	9499.5
871.15	9418.59
871.469	9488.42
871.789	9450.23
872.109	9433.74
872.428	9395.54
872.748	9400.52
873.067	9390.8
873.386	9392.15
873.706	9317.58
874.025	9306.05
874.344	9169.79
874.663	9270.12
874.982	9198.03
875.301	9228.99
875.62	9239.39
875.939	9191.71
876.258	9235.77
876.577	9188.77
876.896	9182.89
877.214	9179.28
877.533	9201.65
877.852	9145.61
878.17	9138.6
878.489	9120.97
878.807	9078.49
879.125	9083.69
879.444	9092.28
879.762	9011.15
880.08	9094.31
880.398	8982.45
880.716	9025.38
881.034	8918.72
881.352	8946.06
881.67	8955.56
881.988	8946.06
882.306	8937.93
882.624	8870.59
882.941	8824.94
883.259	8887.31
883.577	8805.05
883.894	8827.88
884.212	8844.37
884.529	8752.4
884.846	8761.44
885.164	8792.4
885.481	8747.43
885.798	8681.44
886.115	8603.25
886.432	8650.25
886.75	8621.1
887.067	8676.47
887.383	8536.58
887.7	8605.51
888.017	8478.96
888.334	8468.56
888.651	8494.32
888.967	8493.42
889.284	8491.84
889.6	8419.98
889.917	8373.42
890.233	8422.69
890.55	8353.09
890.866	8338.4
891.182	8278.06
891.498	8295.01
891.815	8292.97
892.131	8243.26
892.447	8211.17
892.763	8112.19
893.079	8233.09
893.395	8123.94
893.71	8092.98
894.026	8054.34
894.342	8080.78
894.657	8012.53
894.973	7975.69
895.289	7999.42
895.604	8000.1
895.92	7913.32
896.235	7919.42
896.55	7905.41
896.865	7859.77
897.181	7835.58
897.496	7836.94
897.811	7798.3
898.126	7784.96
898.441	7698.41
898.756	7728.24
899.071	7597.85
899.386	7684.85
899.7	7608.25
900.015	7584.52
900.33	7462.71
900.644	7487.35
900.959	7495.93
901.273	7445.76
901.588	7422.94
901.902	7415.26
902.216	7407.57
902.531	7361.25
902.845	7270.63
903.159	7267.46
903.473	7271.76
903.787	7197.64
904.101	7239.22
904.415	7192.21
904.729	7229.5
905.042	7124.19
905.356	7127.58
905.67	7092.55
905.984	7033.8
906.297	7062.27
906.611	7003.74
906.924	6972.56
907.237	6944.53
907.551	6966.23
907.864	6860.7
908.177	6898.43
908.491	6887.14
908.804	6864.99
909.117	6772.34
909.43	6786.35
909.743	6743.64
910.056	6684.43
910.368	6719.23
910.681	6700.47
910.994	6666.58
911.307	6600.36
911.619	6574.83
911.932	6570.76
912.244	6530.76
912.557	6535.28
912.869	6493.25
913.181	6518.33
913.494	6432.01
913.806	6472.68
914.118	6373.7
914.43	6310.65
914.742	6351.1
915.054	6310.2
915.366	6257.32
915.678	6233.59
915.99	6225.68
916.302	6181.84
916.613	6104.78
916.925	6146.82
917.236	6136.42
917.548	6085.35
917.859	6099.81
918.171	6015.97
918.482	6009.19
918.794	5931.91
919.105	5972.58
919.416	5923.09
919.727	5937.56
920.038	5904.56
920.349	5862.53
920.66	5850.33
920.971	5882.64
921.282	5816.43
921.593	5776.88
921.903	5680.84
922.214	5690.1
922.525	5738.01
922.835	5692.36
923.146	5691.01
923.456	5646.72
923.767	5630.22
924.077	5637.45
924.387	5605.14
924.697	5554.97
925.008	5556.55
925.318	5531.69
925.628	5527.17
925.938	5422.54
926.248	5399.26
926.558	5422.77
926.867	5427.29
927.177	5371.92
927.487	5311.81
927.796	5354.07
928.106	5338.93
928.416	5277.69
928.725	5270.91
929.034	5243.79
929.344	5193.39
929.653	5213.96
929.962	5128.31
930.271	5145.49
930.581	5168.31
930.89	5062.1
931.199	5071.36
931.508	5095.09
931.817	5030.69
932.125	5019.16
932.434	4978.48
932.743	4974.42
933.051	4909.11
933.36	4910.46
933.669	4883.12
933.977	4893.97
934.286	4856.91
934.594	4900.07
934.902	4822.33
935.21	4818.49
935.519	4783.01
935.827	4772.39
936.135	4709.11
936.443	4711.6
936.751	4698.72
937.059	4681.32
937.367	4637.48
937.674	4646.74
937.982	4675.44
938.29	4599.06
938.597	4567.2
938.905	4549.12
939.213	4540.3
939.52	4497.59
939.827	4523.81
940.135	4499.4
940.442	4449.91
940.749	4463.24
941.056	4443.36
941.363	4424.83
941.67	4386.41
941.977	4352.74
942.284	4369.01
942.591	4348.44
942.898	4317.03
943.205	4334.21
943.511	4271.84
943.818	4280.2
944.125	4270.03
944.431	4220.31
944.738	4221.67
945.044	4215.79
945.35	4194.1
945.657	4163.59
945.963	4142.57
946.269	4112.74
946.575	4145.29
946.881	4127.89
947.187	4098.06
947.493	4090.6
947.799	4033.2
948.105	4037.04
948.41	3977.61
948.716	4020.77
949.022	3995.46
949.327	3947.78
949.633	3920.66
949.938	3931.05
950.244	3941.68
950.549	3878.85
950.854	3871.4
951.16	3861.45
951.465	3825.07
951.77	3826.65
952.075	3785.97
952.38	3822.36
952.685	3812.19
952.99	3772.87
953.294	3708.01
953.599	3717.05
953.904	3715.69
954.209	3690.16
954.513	3694
954.818	3667.56
955.122	3668.01
955.426	3671.85
955.731	3623.27
956.035	3564.06
956.339	3558.41
956.643	3573.78
956.948	3581.46
957.252	3534.46
957.556	3531.97
957.86	3539.88
958.163	3507.56
958.467	3470.95
958.771	3463.72
959.075	3448.81
959.378	3428.92
959.682	3428.47
959.985	3423.05
960.289	3429.6
960.592	3357.28
960.896	3346.89
961.199	3362.03
961.502	3362.26
961.805	3313.22
962.108	3284.29
962.411	3304.63
962.714	3301.01
963.017	3247.23
963.32	3289.49
963.623	3240.23
963.926	3228.25
964.228	3203.16
964.531	3196.16
964.833	3169.27
965.136	3187.12
965.438	3167.01
965.741	3136.05
966.043	3114.35
966.345	3162.26
966.648	3117.06
966.95	3110.06
967.252	3057.18
967.554	3054.47
967.856	3046.78
968.158	3039.33
968.46	2997.07
968.761	2967.92
969.063	3021.02
969.365	3009.5
969.666	2962.94
969.968	2933.34
970.269	2947.35
970.571	2933.11
970.872	2887.92
971.174	2895.38
971.475	2869.16
971.776	2846.56
972.077	2872.78
972.378	2898.99
972.679	2844.08
972.98	2843.85
973.281	2795.27
973.582	2830.29
973.883	2803.17
974.183	2806.34
974.484	2764.53
974.785	2798.66
975.085	2757.75
975.386	2710.07
975.686	2683.86
975.986	2702.39
976.287	2736.96
976.587	2678.66
976.887	2702.39
977.187	2677.3
977.487	2661.26
977.787	2609.96
978.087	2640.47
978.387	2623.29
978.687	2614.03
978.987	2625.33
979.286	2585.33
979.586	2576.51
979.885	2567.7
980.185	2554.59
980.484	2510.53
980.784	2518.89
981.083	2518.44
981.382	2504.2
981.682	2503.52
981.981	2484.09
982.28	2478.44
982.579	2484.09
982.878	2467.82
983.177	2450.19
983.475	2467.14
983.774	2375.84
984.073	2403.19
984.372	2377.42
984.67	2387.82
984.969	2388.04
985.267	2375.39
985.566	2356.63
985.864	2355.05
986.162	2379.01
986.461	2330.87
986.759	2313.47
987.057	2306.24
987.355	2294.04
987.653	2291.78
987.951	2281.83
988.249	2292.23
988.547	2267.82
988.844	2260.14
989.142	2239.8
989.44	2219.91
989.737	2218.78
990.035	2202.51
990.332	2218.78
990.63	2195.06
990.927	2190.31
991.224	2197.54
991.521	2162.29
991.819	2141.5
992.116	2157.99
992.413	2131.78
992.71	2152.57
993.006	2096.98
993.303	2095.62
993.6	2092.01
993.897	2093.59
994.193	2093.36
994.49	2069.86
994.787	2045.45
995.083	2049.07
995.379	2016.98
995.676	2011.56
995.972	2009.75
996.268	2036.64
996.565	2017.66
996.861	1987.38
997.157	2017.21
997.453	1961.39
997.749	1953.25
998.044	1972.46
998.34	1950.09
998.636	1920.94
998.932	1910.99
999.227	1899.7
999.523	1911.22
999.818	1840.26
1000.114	1884.1
1000.409	1857.66
1000.704	1857.44
1001	1846.59
1001.295	1841.84
1001.59	1852.47
1001.885	1851.11
1002.18	1824.44
1002.475	1803.2
1002.77	1821.96
1003.065	1776.31
1003.359	1776.31
1003.654	1767.95
1003.949	1756.42
1004.243	1751.9
1004.538	1737.67
1004.832	1751.23
1005.127	1736.99
1005.421	1711
1005.715	1718.46
1006.009	1723.43
1006.304	1681.4
1006.598	1661.51
1006.892	1648.85
1007.186	1673.04
1007.48	1646.82
1007.773	1622.41
1008.067	1611.57
1008.361	1611.12
1008.655	1609.53
1008.948	1610.66
1009.242	1594.17
1009.535	1591
1009.829	1575.64
1010.122	1552.13
1010.415	1563.21
1010.708	1545.13
1011.001	1544.22
1011.295	1534.06
1011.588	1537.45
1011.881	1494.51
1012.173	1520.04
1012.466	1490.89
1012.759	1483.89
1013.052	1479.59
1013.344	1478.24
1013.637	1478.46
1013.93	1469.42
1014.222	1436.43
1014.514	1432.59
1014.807	1425.36
1015.099	1441.85
1015.391	1434.85
1015.683	1390.33
1015.976	1405.47
1016.268	1407.05
1016.56	1405.47
1016.851	1404.34
1017.143	1355.98
1017.435	1352.82
1017.727	1374.06
1018.018	1367.05
1018.31	1325.47
1018.602	1346.26
1018.893	1325.93
1019.185	1332.03
1019.476	1283.21
1019.767	1319.6
1020.058	1293.38
1020.35	1274.63
1020.641	1278.7
1020.932	1279.6
1021.223	1285.02
1021.514	1249.54
1021.804	1252.26
1022.095	1239.37
1022.386	1255.19
1022.677	1231.69
1022.967	1202.31
1023.258	1210.45
1023.548	1178.58
1023.839	1189.66
1024.129	1184.46
1024.419	1171.13
1024.709	1152.14
1025	1177
1025.29	1143.78
1025.58	1139.49
1025.87	1114.18
1026.16	1160.05
1026.449	1108.76
1026.739	1100.39
1027.029	1098.81
1027.319	1110.56
1027.608	1128.87
1027.898	1082.54
1028.187	1097.01
1028.477	1056.55
1028.766	1066.72
1029.055	1059.94
1029.344	1065.59
1029.634	1052.49
1029.923	1032.37
1030.212	1065.14
1030.501	1028.76
1030.79	1010.23
1031.078	1006.84
1031.367	993.5
1031.656	993.96
1031.945	1012.71
1032.233	977.91
1032.522	994.63
1032.81	976.56
1033.099	969.1
1033.387	987.63
1033.675	975.65
1033.963	919.61
1034.251	965.26
1034.54	932.72
1034.828	942.66
1035.116	941.3
1035.403	920.96
1035.691	919.61
1035.979	915.31
1036.267	912.38
1036.554	906.5
1036.842	867.86
1037.129	900.63
1037.417	872.15
1037.704	850.46
1037.992	891.13
1038.279	864.47
1038.566	841.64
1038.853	841.64
1039.14	841.64
