Data from hue_80_FLMS001491_45.txt Node
Date: Mon Feb 06 15:23:03 GMT 2017
User: dcchb
Spectrometer: FLMS00149
Trigger mode: 0
Integration Time (sec): 2.000000E-2
Scans to average: 10
Electric dark correction enabled: true
Nonlinearity correction enabled: false
Boxcar width: 0
XAxis mode: Wavelengths
Number of Pixels in Spectrum: 2048
>>>>>Begin Spectral Data<<<<<
341.393	-17.17
341.776	-17.17
342.16	-17.17
342.543	-49.04
342.927	-56.04
343.31	-51.07
343.693	-71.41
344.077	-70.96
344.46	-76.83
344.843	-79.77
345.226	-33.45
345.61	-23.28
345.993	-13.11
346.376	-10.17
346.759	-5.65
347.142	22.37
347.525	51.3
347.908	69.15
348.291	77.06
348.674	105.31
349.057	110.51
349.44	116.83
349.823	148.24
350.206	164.06
350.588	167.23
350.971	212.42
351.354	231.86
351.737	251.52
352.119	256.26
352.502	260.56
352.884	268.24
353.267	283.83
353.65	302.59
354.032	310.95
354.414	300.56
354.797	324.96
355.179	333.32
355.562	327.22
355.944	317.51
356.326	349.37
356.709	343.72
357.091	352.08
357.473	353.44
357.855	332.87
358.238	346.88
358.62	339.43
359.002	333.1
359.384	332.87
359.766	341.91
360.148	338.07
360.53	302.14
360.912	350.73
361.294	332.87
361.676	331.97
362.057	336.04
362.439	335.36
362.821	336.49
363.203	338.07
363.584	322.7
363.966	308.01
364.348	332.19
364.729	296.94
365.111	336.71
365.493	329.93
365.874	336.04
366.256	302.14
366.637	320.44
367.019	311.18
367.4	323.16
367.781	327.9
368.163	333.55
368.544	316.15
368.925	296.72
369.306	316.83
369.688	320.9
370.069	305.75
370.45	334.91
370.831	319.54
371.212	322.03
371.593	300.56
371.974	314.79
372.355	325.19
372.736	305.75
373.117	306.66
373.498	328.13
373.879	329.71
374.26	307.79
374.641	312.76
375.021	320.67
375.402	324.74
375.783	325.42
376.163	309.6
376.544	332.65
376.925	323.16
377.305	341.01
377.686	323.83
378.066	308.24
378.447	336.49
378.827	346.88
379.208	335.58
379.588	322.93
379.968	348.24
380.349	322.7
380.729	301.69
381.109	327.22
381.489	334.68
381.87	333.1
382.25	342.36
382.63	346.21
383.01	339.2
383.39	347.79
383.77	347.56
384.15	340.56
384.53	349.37
384.91	344.85
385.29	362.25
385.67	341.69
386.049	361.12
386.429	337.84
386.809	348.24
387.189	377.62
387.568	354.34
387.948	356.83
388.328	359.99
388.707	367.45
389.087	341.01
389.466	358.41
389.846	362.93
390.225	352.53
390.605	352.08
390.984	360.67
391.363	373.78
391.743	361.8
392.122	364.06
392.501	363.61
392.881	370.61
393.26	368.58
393.639	363.61
394.018	376.71
394.397	387.11
394.776	365.41
395.155	386.43
395.534	381.46
395.913	386.43
396.292	383.49
396.671	380.78
397.05	398.86
397.429	387.56
397.808	391.85
398.186	383.04
398.565	380.1
398.944	396.15
399.323	396.6
399.701	404.28
400.08	407.22
400.458	381.01
400.837	402.25
401.215	416.26
401.594	413.77
401.972	387.56
402.351	404.51
402.729	412.87
403.107	409.71
403.486	423.49
403.864	396.37
404.242	399.09
404.62	409.03
404.999	412.19
405.377	416.71
405.755	418.75
406.133	431.63
406.511	419.2
406.889	418.07
407.267	421.23
407.645	438.18
408.023	438.41
408.401	442.47
408.779	444.73
409.156	449.25
409.534	457.16
409.912	450.61
410.29	446.99
410.667	450.84
411.045	444.96
411.422	431.85
411.8	442.25
412.178	484.51
412.555	486.77
412.933	477.05
413.31	477.5
413.687	460.78
414.065	462.81
414.442	491.51
414.819	476.82
415.197	465.98
415.574	486.54
415.951	501
416.328	485.18
416.705	522.7
417.082	511.62
417.46	512.3
417.837	492.64
418.214	510.95
418.591	505.52
418.967	532.19
419.344	500.78
419.721	522.92
420.098	540.78
420.475	512.08
420.852	512.53
421.228	530.38
421.605	525.64
421.982	521.57
422.358	558.63
422.735	554.79
423.111	552.3
423.488	553.88
423.864	534
424.241	564.5
424.617	569.48
424.994	574.67
425.37	561.79
425.746	559.31
426.123	567.22
426.499	561.34
426.875	561.57
427.251	571.74
427.627	607.89
428.003	593.43
428.379	580.1
428.756	602.7
429.132	606.76
429.507	603.15
429.883	635.24
430.259	614
430.635	634.11
431.011	617.38
431.387	628.91
431.763	654.9
432.138	629.36
432.514	677.72
432.89	653.99
433.265	689.47
433.641	651.96
434.016	667.55
434.392	663.03
434.767	702.13
435.143	678.63
435.518	703.94
435.894	698.96
436.269	687.44
436.644	682.92
437.02	722.69
437.395	720.43
437.77	710.26
438.145	734.67
438.52	730.15
438.895	733.09
439.271	729.47
439.646	764.5
440.021	746.42
440.395	747.1
440.77	750.49
441.145	765.86
441.52	776.25
441.895	747.32
442.27	776.7
442.645	801.79
443.019	788
443.394	805.85
443.769	790.49
444.143	791.17
444.518	801.33
444.892	803.59
445.267	824.39
445.641	812.41
446.016	810.83
446.39	810.37
446.764	854.67
447.139	840.2
447.513	846.08
447.887	858.96
448.262	855.57
448.636	848.11
449.01	857.15
449.384	881.56
449.758	886.76
450.132	861.67
450.506	901.9
450.88	897.6
451.254	905.51
451.628	906.64
452.002	933.99
452.376	929.47
452.75	917.26
453.123	944.38
453.497	938.73
453.871	946.42
454.244	980.09
454.618	984.15
454.992	1000.2
455.365	1007.21
455.739	1015.79
456.112	1025.96
456.486	1021.22
456.859	1053.98
457.232	1059.63
457.606	1061.22
457.979	1055.34
458.352	1109.35
458.725	1107.09
459.099	1105.73
459.472	1120.65
459.845	1117.26
460.218	1114.1
460.591	1147.77
460.964	1157.48
461.337	1182.57
461.71	1200.42
462.083	1198.16
462.456	1242.23
462.829	1235.67
463.201	1252.17
463.574	1252.17
463.947	1282.45
464.32	1305.95
464.692	1343.92
465.065	1334.2
465.438	1370.81
465.81	1377.14
466.183	1366.07
466.555	1386.4
466.928	1438.15
467.3	1422.79
467.672	1466.4
468.045	1494.2
468.417	1510.47
468.789	1506.63
469.161	1578.94
469.534	1566.96
469.906	1580.07
470.278	1639.96
470.65	1648.09
471.022	1717.24
471.394	1716.57
471.766	1749.78
472.138	1767.64
472.51	1813.96
472.882	1863.68
473.253	1908.65
473.625	1946.62
473.997	1976.45
474.369	1999.95
474.74	2014.41
475.112	2083.34
475.484	2131.47
475.855	2173.73
476.227	2189.55
476.598	2283.1
476.97	2334.63
477.341	2404
477.713	2447.62
478.084	2513.83
478.455	2591.34
478.827	2631.8
479.198	2723.54
479.569	2752.92
479.94	2873.82
480.311	2949.53
480.682	2995.63
481.053	3126.47
481.424	3180.26
481.795	3251.44
482.166	3359.01
482.537	3450.08
482.908	3540.92
483.279	3639.23
483.65	3728.49
484.021	3825.89
484.391	3949.95
484.762	4013
485.133	4085.09
485.503	4212.77
485.874	4328.7
486.244	4478.98
486.615	4574.34
486.985	4693.66
487.356	4798.74
487.726	4904.73
488.097	5083.26
488.467	5155.8
488.837	5311.72
489.207	5418.39
489.578	5579.97
489.948	5654.77
490.318	5850.24
490.688	5943.57
491.058	6074.87
491.428	6208.88
491.798	6327.29
492.168	6488.42
492.538	6674.63
492.908	6806.6
493.278	6979.25
493.648	7023.54
494.017	7196.19
494.387	7309.64
494.757	7355.06
495.126	7585.79
495.496	7704.66
495.866	7839.12
496.235	7981.94
496.605	8152.33
496.974	8220.8
497.344	8361.81
497.713	8476.16
498.082	8594.35
498.452	8764.52
498.821	8854.46
499.19	8994.11
499.559	9126.99
499.928	9280.43
500.298	9347.32
500.667	9483.59
501.036	9523.37
501.405	9676.81
501.774	9694.43
502.143	9946.18
502.512	9959.29
502.88	10077.93
503.249	10195.66
503.618	10241.31
503.987	10430.69
504.356	10422.32
504.724	10554.75
505.093	10720.17
505.462	10779.83
505.83	10861.64
506.199	11017.56
506.567	11066.15
506.936	11162.42
507.304	11347.5
507.672	11381.62
508.041	11509.75
508.409	11642.18
508.777	11685.34
509.145	11777.32
509.514	11867.48
509.882	12005.11
510.25	12020.47
510.618	12146.8
510.986	12171.88
511.354	12338.43
511.722	12499.78
512.09	12500.91
512.458	12555.15
512.826	12657.75
513.193	12700.23
513.561	12789.49
513.929	12906.55
514.297	12987
514.664	13116.94
515.032	13171.63
515.4	13251.4
515.767	13242.82
516.135	13357.39
516.502	13315.13
516.869	13542.02
517.237	13652.3
517.604	13515.12
517.972	13680.09
518.339	13786.98
518.706	13772.07
519.073	13908.56
519.44	13997.37
519.808	14126.86
520.175	14119.63
520.542	14278.49
520.909	14291.15
521.276	14306.74
521.643	14367.98
522.009	14502.22
522.376	14530.69
522.743	14636.9
523.11	14697.47
523.477	14831.93
523.843	14872.83
524.21	14970.68
524.577	15052.49
524.943	15069.66
525.31	15188.3
525.676	15301.29
526.043	15349.65
526.409	15349.43
526.776	15595.07
527.142	15486.15
527.508	15546.71
527.874	15668.51
528.241	15663.99
528.607	15729.98
528.973	15778.12
529.339	15777.44
529.705	15830.32
530.071	15909.41
530.437	15873.03
530.803	16002.52
531.169	16121.38
531.535	16003.2
531.901	16141.27
532.267	16061.5
532.632	16235.73
532.998	16208.39
533.364	16177.65
533.73	16258.1
534.095	16328.61
534.461	16321.83
534.826	16400.7
535.192	16519.57
535.557	16482.28
535.923	16373.81
536.288	16464.2
536.653	16489.96
537.019	16431.21
537.384	16478.89
537.749	16508.27
538.114	16442.51
538.479	16419
538.845	16474.37
539.21	16511.88
539.575	16490.64
539.94	16482.05
540.305	16569.96
540.67	16457.42
541.034	16668.49
541.399	16604.54
541.764	16600.24
542.129	16538.55
542.494	16586.46
542.858	16640.01
543.223	16609.73
543.587	16641.6
543.952	16613.8
544.316	16617.87
544.681	16543.07
545.045	16609.05
545.41	16621.48
545.774	16634.59
546.138	16628.49
546.503	16555.04
546.867	16549.85
547.231	16664.87
547.595	16579.9
547.959	16610.41
548.324	16617.87
548.688	16736.28
549.052	16629.62
549.416	16609.28
549.779	16616.29
550.143	16584.87
550.507	16722.95
550.871	16618.09
551.235	16672.56
551.599	16730.18
551.962	16661.03
552.326	16723.4
552.689	16820.12
553.053	16638.66
553.417	16630.75
553.78	16759.33
554.143	16741.48
554.507	16700.35
554.87	16757.07
555.234	16820.35
555.597	16677.75
555.96	16728.83
556.323	16721.59
556.686	16736.51
557.05	16897.18
557.413	16780.35
557.776	16824.87
558.139	16904.19
558.502	16896.73
558.865	16877.97
559.228	16983.73
559.59	17037.97
559.953	16948.93
560.316	17161.58
560.679	17122.04
561.041	17197.29
561.404	17201.58
561.767	17275.03
562.129	17284.52
562.492	17291.52
562.854	17256.72
563.217	17162.49
563.579	17241.81
563.941	17409.71
564.304	17362.71
564.666	17472.76
565.028	17542.59
565.39	17438.41
565.753	17439.99
566.115	17515.02
566.477	17669.14
566.839	17630.72
567.201	17771.06
567.563	17753.21
567.925	17809.48
568.287	17767.22
568.648	17853.32
569.01	17903.26
569.372	17974.67
569.734	17955.23
570.095	17971.73
570.457	18064.84
570.819	17958.85
571.18	18058.06
571.542	18055.8
571.903	18117.04
572.265	18114.55
572.626	18066.19
572.987	18183.25
573.349	18220.09
573.71	18233.64
574.071	18310.7
574.432	18293.3
574.794	18499.17
575.155	18339.86
575.516	18348.67
575.877	18435.22
576.238	18390.02
576.599	18522.45
576.96	18472.28
577.32	18483.81
577.681	18448.78
578.042	18498.95
578.403	18615.1
578.763	18572.84
579.124	18569.23
579.485	18696.23
579.845	18625.27
580.206	18645.16
580.566	18664.59
580.927	18607.42
581.287	18741.2
581.648	18555.9
582.008	18645.61
582.368	18685.84
582.728	18719.06
583.089	18698.27
583.449	18606.97
583.809	18694.65
584.169	18608.1
584.529	18530.13
584.889	18736
585.249	18611.94
585.609	18556.12
585.969	18736
586.329	18570.36
586.688	18615.1
587.048	18573.97
587.408	18571.72
587.768	18608.55
588.127	18489.23
588.487	18489.68
588.846	18709.11
589.206	18384.6
589.565	18543.69
589.925	18555.44
590.284	18507.99
590.643	18479.29
591.003	18511.6
591.362	18612.39
591.721	18453.53
592.08	18584.82
592.44	18649.68
592.799	18545.5
593.158	18564.03
593.517	18506.63
593.876	18574.2
594.235	18560.19
594.593	18468.67
594.952	18504.82
595.311	18470.7
595.67	18518.38
596.029	18618.27
596.387	18617.82
596.746	18529.68
597.104	18512.51
597.463	18471.38
597.822	18537.59
598.18	18529.91
598.538	18518.84
598.897	18562
599.255	18387.99
599.613	18682.67
599.972	18626.18
600.33	18559.51
600.688	18631.83
601.046	18561.55
601.404	18691.94
601.762	18580.75
602.12	18704.14
602.478	18563.35
602.836	18744.82
603.194	18490.59
603.552	18572.39
603.91	18597.7
604.268	18645.84
604.625	18583.69
604.983	18754.99
605.341	18663.24
605.698	18677.47
606.056	18680.19
606.413	18616.69
606.771	18766.74
607.128	18783.46
607.485	18606.97
607.843	18705.72
608.2	18724.03
608.557	18705.04
608.914	18731.48
609.272	18851.26
609.629	18824.59
609.986	18852.84
610.343	18786.4
610.7	18926.73
611.057	19031.82
611.414	18939.84
611.771	18918.37
612.127	18990.24
612.484	18957.02
612.841	19020.74
613.198	19020.97
613.554	18993.85
613.911	19084.24
614.267	19099.84
614.624	19086.05
614.98	19071.14
615.337	19268.19
615.693	19142.32
616.05	19169.21
616.406	19248.53
616.762	19201.53
617.118	19279.49
617.475	19166.5
617.831	19146.62
618.187	19288.53
618.543	19359.26
618.899	19358.81
619.255	19311.58
619.611	19273.62
619.967	19479.94
620.323	19509.77
620.678	19386.16
621.034	19342.54
621.39	19342.32
621.746	19310.23
622.101	19425.03
622.457	19287.85
622.812	19464.12
623.168	19509.54
623.523	19414.63
623.879	19413.05
624.234	19364.91
624.589	19409.43
624.945	19477.23
625.3	19464.8
625.655	19491.92
626.01	19450.11
626.365	19518.58
626.72	19491.92
627.075	19432.94
627.43	19370.79
627.785	19401.3
628.14	19441.75
628.495	19432.03
628.85	19421.64
629.205	19411.47
629.559	19444.69
629.914	19435.42
630.269	19397
630.623	19388.87
630.978	19329.89
631.332	19371.69
631.687	19328.53
632.041	19323.56
632.396	19313.39
632.75	19241.75
633.104	19293.73
633.459	19214.41
633.813	19187.52
634.167	19244.01
634.521	19217.8
634.875	19180.74
635.229	19199.27
635.583	19048.54
635.937	19067.52
636.291	19070.69
636.645	19016.68
636.999	18976.45
637.352	19138.25
637.706	18944.59
638.06	19085.37
638.413	19053.06
638.767	18957.24
639.121	19010.8
639.474	18840.18
639.828	18889.67
640.181	18853.52
640.534	18909.11
640.888	18758.6
641.241	18754.08
641.594	18812.39
641.947	18885.61
642.301	18793.18
642.654	18883.8
643.007	18768.09
643.36	18799.05
643.713	18714.08
644.066	18765.16
644.419	18667.08
644.771	18515.67
645.124	18360.65
645.477	18471.38
645.83	18234.32
646.182	18163.14
646.535	18209.46
646.888	18168.79
647.24	18139.86
647.593	18210.14
647.945	18104.61
648.298	18096.25
648.65	17991.62
649.002	18048.56
649.355	18084.27
649.707	18038.62
650.059	18183.48
650.411	18260.54
650.763	18468.44
651.115	18576.01
651.467	18494.43
651.819	18388.67
652.171	18517.71
652.523	18474.77
652.875	18434.54
653.227	18360.87
653.578	18521.09
653.93	18363.13
654.282	18348.9
654.633	18364.49
654.985	18517.03
655.337	18358.39
655.688	18374.88
656.039	18585.73
656.391	18332.63
656.742	18560.64
657.094	18495.78
657.445	18480.64
657.796	18497.14
658.147	18461.66
658.498	18383.92
658.849	18516.58
659.2	18438.84
659.551	18376.01
659.902	18515.45
660.253	18382.34
660.604	18489.91
660.955	18377.14
661.306	18484.03
661.656	18397.03
662.007	18529.68
662.358	18434.32
662.708	18520.64
663.059	18438.16
663.409	18326.07
663.76	18489.68
664.11	18527.2
664.461	18531.72
664.811	18493.75
665.161	18471.38
665.511	18557.7
665.862	18484.03
666.212	18592.73
666.562	18514.09
666.912	18546.41
667.262	18486.29
667.612	18528.33
667.962	18468.89
668.312	18434.09
668.662	18479.29
669.011	18524.48
669.361	18538.27
669.711	18430.7
670.06	18379.86
670.41	18388.22
670.76	18373.3
671.109	18398.61
671.459	18382.34
671.808	18385.28
672.157	18435
672.507	18345.05
672.856	18199.75
673.205	18262.57
673.554	18434.32
673.904	18215.11
674.253	18426.63
674.602	18307.99
674.951	18050.15
675.3	17930.83
675.649	18267.99
675.998	18275.23
676.346	18205.17
676.695	18278.16
677.044	18142.8
677.393	18215.57
677.741	18271.84
678.09	18193.19
678.438	18192.29
678.787	18103.93
679.135	18136.25
679.484	18004.5
679.832	18089.92
680.181	17868
680.529	18051.95
680.877	17955.69
681.225	17952.52
681.573	17978.96
681.922	17843.82
682.27	17870.72
682.618	17814.9
682.966	17808.12
683.314	17768.12
683.661	17667.56
684.009	17606.54
684.357	17578.75
684.705	17447.45
685.053	17556.37
685.4	17525.64
685.748	17467.56
686.095	17419.2
686.443	17388.47
686.79	17291.97
687.138	17393.44
687.485	17382.82
687.832	17361.8
688.18	17291.97
688.527	17189.38
688.874	17066.9
689.221	17126.33
689.568	17119.55
689.915	16972.44
690.262	16915.04
690.609	16909.16
690.956	16861.25
691.303	16904.19
691.65	16765.43
691.997	16768.15
692.344	16680.47
692.69	16635.72
693.037	16671.2
693.383	16521.6
693.73	16574.93
694.077	16374.26
694.423	16453.8
694.769	16306.69
695.116	16314.6
695.462	16248.61
695.808	16228.27
696.155	16254.71
696.501	16121.61
696.847	16070.99
697.193	15975.63
697.539	16044.1
697.885	15944.44
698.231	15801.62
698.577	15851.56
698.923	15749.87
699.269	15672.13
699.614	15658.12
699.96	15668.51
700.306	15584
700.651	15435.07
700.997	15461.74
701.342	15428.75
701.688	15338.58
702.033	15287.96
702.379	15261.97
702.724	15174.97
703.069	15233.27
703.415	15041.41
703.76	15071.24
704.105	15027.63
704.45	14998.7
704.795	14933.39
705.14	14796
705.485	14793.96
705.83	14717.58
706.175	14742.89
706.52	14732.72
706.865	14645.94
707.209	14617.24
707.554	14562.55
707.899	14633.06
708.243	14439.85
708.588	14420.86
708.932	14385.16
709.277	14396.46
709.621	14391.03
709.966	14276.46
710.31	14315.33
710.654	14186.52
710.998	14116.01
711.342	14155.56
711.687	14123.7
712.031	14125.28
712.375	14022.46
712.719	14002.8
713.063	13939.75
713.407	13996.92
713.75	13938.62
714.094	13977.03
714.438	13819.75
714.782	13882.35
715.125	13829.24
715.469	13800.77
715.812	13674.22
716.156	13680.09
716.499	13686.42
716.843	13681.22
717.186	13675.35
717.53	13617.72
717.873	13651.17
718.216	13638.06
718.559	13598.06
718.902	13455.01
719.246	13586.76
719.589	13458.63
719.932	13440.1
720.275	13494.79
720.617	13380.89
720.96	13426.09
721.303	13378.41
721.646	13463.6
721.989	13309.25
722.331	13426.99
722.674	13324.62
723.016	13313.77
723.359	13220.44
723.701	13316.94
724.044	13225.19
724.386	13231.29
724.729	13226.77
725.071	13115.36
725.413	13143.16
725.755	13097.96
726.097	13191.97
726.439	13085.08
726.782	13066.78
727.124	13207.79
727.465	13132.54
727.807	13049.6
728.149	12982.48
728.491	12975.7
728.833	13054.57
729.175	12991.97
729.516	12967.79
729.858	12994.01
730.199	12941.13
730.541	13005.08
730.882	12903.84
731.224	13017.28
731.565	12890.73
731.906	12958.08
732.248	12909.49
732.589	12874.92
732.93	12841.92
733.271	12878.53
733.612	12925.31
733.953	12920.79
734.294	12802.15
734.635	12864.52
734.976	12950.85
735.317	12827.01
735.658	12869.27
735.999	12856.84
736.339	12864.97
736.68	12957.17
737.021	12885.54
737.361	12840.57
737.702	12835.82
738.042	12962.37
738.383	12787.91
738.723	12936.61
739.063	12872.66
739.404	12987
739.744	12898.64
740.084	12868.14
740.424	12880.34
740.764	12933.9
741.104	12987.23
741.444	12866.1
741.784	12885.76
742.124	13014.35
742.464	12863.84
742.804	13000.56
743.143	13012.09
743.483	12982.48
743.823	12968.02
744.162	13036.04
744.502	12974.12
744.841	12984.74
745.181	13175.25
745.52	13048.02
745.86	13088.92
746.199	13137.06
746.538	13222.25
746.877	13241.23
747.216	13339.99
747.556	13296.15
747.895	13366.2
748.234	13311.51
748.573	13400.33
748.911	13432.87
749.25	13494.33
749.589	13485.97
749.928	13557.38
750.267	13674.89
750.605	13743.59
750.944	13795.8
751.283	13775.23
751.621	14014.77
751.96	13803.48
752.298	13967.32
752.636	14103.36
752.975	14183.58
753.313	14219.74
753.651	14298.83
753.989	14467.42
754.327	14483.01
754.666	14473.52
755.004	14659.95
755.342	14781.08
755.679	14891.13
756.017	14860.63
756.355	15027.4
756.693	15072.15
757.031	15263.33
757.368	15311.69
757.706	15365.92
758.044	15536.09
758.381	15646.14
758.719	15669.87
759.056	15844.33
759.394	15949.19
759.731	15998.45
760.068	16055.85
760.405	16196.41
760.743	16204.32
761.08	16362.96
761.417	16396.63
761.754	16527.02
762.091	16585.78
762.428	16692.67
762.765	16720.92
763.102	16880.23
763.438	16914.13
763.775	17083.17
764.112	17122.26
764.449	17131.07
764.785	17319.09
765.122	17253.11
765.458	17411.07
765.795	17455.13
766.131	17453.55
766.467	17686.09
766.804	17683.6
767.14	17672.08
767.476	17754.79
767.812	17769.25
768.148	17899.19
768.485	17929.02
768.821	18018.74
769.157	17977.61
769.492	18055.34
769.828	18143.03
770.164	18105.96
770.5	18109.35
770.836	18214.89
771.171	18167.21
771.507	18275.68
771.842	18134.89
772.178	18206.3
772.513	18258.95
772.849	18237.26
773.184	18194.55
773.519	18299.18
773.855	18252.18
774.19	18240.42
774.525	18285.17
774.86	18314.32
775.195	18278.84
775.53	18266.64
775.865	18212.4
776.2	18207.2
776.535	18071.39
776.87	18155.45
777.205	18084.72
777.539	18118.62
777.874	18164.04
778.209	18083.82
778.543	17995.46
778.878	18016.02
779.212	17898.06
779.547	17998.17
779.881	17990.71
780.215	17840.89
780.55	17916.59
780.884	17892.64
781.218	17870.04
781.552	17864.39
781.886	17785.07
782.22	17736.93
782.554	17701
782.888	17624.17
783.222	17594.11
783.556	17493.78
783.889	17497.17
784.223	17421.69
784.557	17396.83
784.89	17345.08
785.224	17313.22
785.557	17343.5
785.891	17255.14
786.224	17206.33
786.558	17168.14
786.891	17137.4
787.224	17061.47
787.557	17034.13
787.891	17018.31
788.224	16908.71
788.557	16998.88
788.89	16931.08
789.223	16937.63
789.556	16762.5
789.888	16701.48
790.221	16713.01
790.554	16626.68
790.887	16553.69
791.219	16526.35
791.552	16621.94
791.884	16461.49
792.217	16475.95
792.549	16410.19
792.882	16261.04
793.214	16260.14
793.546	16258.1
793.879	16207.71
794.211	16066.02
794.543	16153.25
794.875	16047.94
795.207	16069.18
795.539	15984.44
795.871	16032.8
796.203	15923.88
796.535	15759.81
796.867	15744.9
797.198	15795.06
797.53	15753.94
797.862	15600.95
798.193	15671.23
798.525	15560.04
798.856	15629.87
799.188	15411.8
799.519	15377.22
799.85	15357.34
800.182	15402.98
800.513	15351.01
800.844	15259.26
801.175	15245.02
801.506	15261.52
801.837	15175.42
802.168	15150.79
802.499	15102.65
802.83	15015.65
803.161	15016.1
803.491	15089.32
803.822	15000.06
804.153	14917.35
804.483	14811.14
804.814	14737.92
805.145	14788.31
805.475	14687.3
805.805	14628.54
806.136	14623.57
806.466	14650.69
806.796	14632.38
807.126	14427.87
807.457	14498.6
807.787	14531.82
808.117	14392.16
808.447	14386.06
808.777	14359.62
809.107	14323.69
809.436	14292.96
809.766	14262.68
810.096	14187.65
810.426	14207.76
810.755	14143.81
811.085	14174.54
811.414	14130.7
811.744	14036.69
812.073	14011.61
812.403	13956.24
812.732	13856.58
813.061	13904.49
813.39	13770.03
813.719	13843.48
814.049	13812.07
814.378	13800.99
814.707	13765.06
815.036	13690.94
815.365	13762.58
815.693	13555.58
816.022	13618.4
816.351	13488.91
816.68	13456.6
817.008	13577.04
817.337	13356.71
817.665	13350.61
817.994	13372.08
818.322	13412.75
818.651	13219.54
818.979	13198.97
819.307	13323.04
819.636	13326.88
819.964	13209.14
820.292	13306.54
820.62	13249.6
820.948	13221.12
821.276	13268.35
821.604	13172.99
821.932	13201.46
822.259	13216.15
822.587	13105.42
822.915	13182.48
823.243	13235.81
823.57	13080.79
823.898	13125.3
824.225	13038.75
824.553	13111.52
824.88	13128.69
825.207	13151.74
825.535	13128.47
825.862	13145.64
826.189	13075.59
826.516	13079.43
826.843	13260.67
827.17	13135.93
827.497	13129.15
827.824	13169.15
828.151	13138.19
828.478	13038.3
828.805	13199.2
829.131	13062.71
829.458	13135.47
829.785	13056.38
830.111	13052.54
830.438	13096.15
830.764	13076.27
831.09	13167.11
831.417	13085.53
831.743	13138.86
832.069	13107.45
832.395	12990.17
832.722	13025.19
833.048	13090.28
833.374	13049.15
833.7	12972.77
834.026	12994.01
834.351	12963.27
834.677	12944.97
835.003	13021.58
835.329	12974.8
835.654	12939.55
835.98	12935.25
836.306	12841.02
836.631	12911.98
836.956	12907.01
837.282	12886.89
837.607	12857.74
837.932	12779.1
838.258	12763.51
838.583	12791.98
838.908	12720.12
839.233	12737.97
839.558	12717.63
839.883	12664.98
840.208	12685.09
840.533	12611.19
840.858	12652.55
841.182	12699.55
841.507	12576.17
841.832	12568.71
842.156	12492.1
842.481	12625.2
842.805	12475.83
843.13	12453.23
843.454	12470.41
843.778	12367.36
844.103	12340.92
844.427	12326
844.751	12367.36
845.075	12316.29
845.399	12286.46
845.723	12138.89
846.047	12214.37
846.371	12053.47
846.695	12184.09
847.019	12015.28
847.343	11995.39
847.666	11817.09
847.99	11794.94
848.313	11768.5
848.637	11767.83
848.96	11721.73
849.284	11682.63
849.607	11634.5
849.931	11512.01
850.254	11513.6
850.577	11483.09
850.9	11425.91
851.223	11370.55
851.546	11308.63
851.869	11274.96
852.192	11330.32
852.515	11189.31
852.838	11205.58
853.161	11182.53
853.483	11112.93
853.806	11059.37
854.129	11063.21
854.451	11002.65
854.774	10918.36
855.096	10898.24
855.419	10917.45
855.741	10841.97
856.063	10795.42
856.385	10823.44
856.708	10697.8
857.03	10693.28
857.352	10691.47
857.674	10702.77
857.996	10593.17
858.318	10595.43
858.64	10553.62
858.961	10494.87
859.283	10493.06
859.605	10380.07
859.926	10402.44
860.248	10456
860.57	10419.39
860.891	10355.89
861.212	10355.66
861.534	10380.97
861.855	10235.44
862.176	10316.34
862.498	10321.54
862.819	10297.81
863.14	10188.66
863.461	10238.6
863.782	10118.38
864.103	10160.86
864.424	10055.55
864.745	10128.32
865.065	10067.98
865.386	9996.57
865.707	10027.08
866.027	10088.77
866.348	9984.82
866.668	10025.73
866.989	9966.74
867.309	9918.16
867.63	9952.05
867.95	9986.4
868.27	9867.54
868.59	9922.68
868.91	9821.21
869.23	9871.15
869.55	9786.41
869.87	9858.05
870.19	9732.17
870.51	9829.8
870.83	9788.9
871.15	9723.13
871.469	9730.14
871.789	9737.37
872.109	9742.57
872.428	9644.49
872.748	9738.73
873.067	9709.8
873.386	9747.77
873.706	9700.31
874.025	9641.55
874.344	9612.4
874.663	9562.46
874.982	9598.39
875.301	9610.82
875.62	9566.53
875.939	9550.03
876.258	9488.34
876.577	9453.31
876.896	9419.87
877.214	9460.09
877.533	9412.86
877.852	9481.56
878.17	9438.62
878.489	9483.59
878.807	9415.57
879.125	9362.69
879.444	9364.27
879.762	9329.7
880.08	9403.14
880.398	9281.11
880.716	9330.6
881.034	9244.28
881.352	9263.94
881.67	9242.02
881.988	9295.57
882.306	9221.45
882.624	9190.04
882.941	9126.77
883.259	9117.27
883.577	9089.48
883.894	9026.88
884.212	9045.19
884.529	9026.2
884.846	9037.95
885.164	9049.25
885.481	8996.37
885.798	8936.49
886.115	8963.15
886.432	8931.52
886.75	8875.92
887.067	8930.84
887.383	8826.21
887.7	8865.08
888.017	8872.54
888.334	8776.49
888.651	8782.37
888.967	8753.22
889.284	8700.56
889.6	8699.66
889.917	8644.74
890.233	8651.07
890.55	8573.33
890.866	8609.72
891.182	8583.73
891.498	8594.35
891.815	8486.56
892.131	8494.92
892.447	8516.61
892.763	8436.39
893.079	8430.96
893.395	8369.5
893.71	8410.4
894.026	8413.79
894.342	8330.4
894.657	8329.95
894.973	8253.12
895.289	8297.41
895.604	8272.1
895.92	8167.24
896.235	8121.14
896.55	8178.09
896.865	8061.48
897.181	8037.3
897.496	8093.35
897.811	8031.43
898.126	8019.9
898.441	7964.08
898.756	7971.32
899.071	7878.66
899.386	7924.09
899.7	7794.82
900.015	7755.28
900.33	7779.68
900.644	7754.37
900.959	7770.87
901.273	7750.76
901.588	7657.88
901.902	7606.58
902.216	7611.78
902.531	7655.17
902.845	7536.75
903.159	7540.37
903.473	7421.95
903.787	7427.83
904.101	7441.16
904.415	7480.03
904.729	7431.67
905.042	7352.12
905.356	7315.29
905.67	7320.71
905.984	7333.14
906.297	7258.11
906.611	7228.74
906.924	7202.3
907.237	7158.23
907.551	7173.6
907.864	7178.57
908.177	7139.02
908.491	7103.54
908.804	7071.9
909.117	7030.78
909.43	6959.59
909.743	6973.83
910.056	6948.74
910.368	6887.73
910.681	6882.3
910.994	6855.86
911.307	6876.2
911.619	6794.85
911.932	6773.83
912.244	6741.07
912.557	6751.46
912.869	6671.69
913.181	6679.6
913.494	6628.53
913.806	6604.57
914.118	6668.07
914.43	6554.63
914.742	6524.57
915.054	6508.3
915.366	6490.45
915.678	6455.65
915.99	6417.46
916.302	6351.92
916.613	6388.31
916.925	6348.31
917.236	6299.27
917.548	6336.1
917.859	6322.55
918.171	6280.51
918.482	6213.17
918.794	6139.5
919.105	6154.64
919.416	6153.74
919.727	6129.33
920.038	6149.67
920.349	6070.57
920.66	6047.75
920.971	6012.05
921.282	6009.79
921.593	5953.06
921.903	5914.42
922.214	5924.14
922.525	5896.34
922.835	5822.45
923.146	5848.43
923.456	5878.49
923.767	5803.46
924.077	5803.24
924.387	5763.01
924.697	5722.56
925.008	5712.84
925.318	5664.71
925.628	5688.66
925.938	5612.51
926.248	5616.12
926.558	5607.99
926.867	5554.43
927.177	5553.53
927.487	5553.75
927.796	5452.96
928.106	5480.99
928.416	5479.63
928.725	5448.67
929.034	5443.02
929.344	5390.14
929.653	5435.79
929.962	5382.01
930.271	5297.49
930.581	5283.7
930.89	5223.59
931.199	5276.25
931.508	5266.53
931.817	5268.79
932.125	5218.39
932.434	5129.13
932.743	5141.33
933.051	5095.46
933.36	5104.95
933.669	5101.79
933.977	5025.4
934.286	5034.67
934.594	5046.2
934.902	4991.96
935.21	4994.44
935.519	4962.13
935.827	4956.93
936.135	4935.24
936.443	4890.27
936.751	4867.44
937.059	4854.79
937.367	4825.64
937.674	4793.55
937.982	4793.77
938.29	4771.17
938.597	4792.87
938.905	4714.23
939.213	4688.01
939.52	4686.66
939.827	4726.43
940.135	4689.59
940.442	4643.04
940.749	4589.03
941.056	4661.12
941.363	4558.3
941.67	4531.18
941.977	4536.6
942.284	4482.82
942.591	4483.5
942.898	4469.26
943.205	4457.51
943.511	4422.26
943.818	4443.95
944.125	4384.29
944.431	4376.38
944.738	4373.9
945.044	4347.46
945.35	4356.04
945.657	4288.02
945.963	4276.27
946.269	4274.01
946.575	4275.37
946.881	4247.12
947.187	4173.45
947.493	4169.61
947.799	4202.15
948.105	4176.16
948.41	4141.13
948.716	4159.89
949.022	4121.25
949.327	4148.14
949.633	4065.66
949.938	4057.97
950.244	4033.34
950.549	4006.45
950.854	3975.26
951.16	3978.2
951.465	3970.29
951.77	3915.83
952.075	3919.22
952.38	3910.63
952.685	3919.44
952.99	3854.81
953.294	3863.18
953.599	3881.03
953.904	3872.89
954.209	3797.64
954.513	3837.19
954.818	3807.58
955.122	3788.15
955.426	3764.42
955.731	3771.65
956.035	3721.48
956.339	3700.69
956.643	3677.42
956.948	3682.84
957.252	3671.09
957.556	3642.62
957.86	3634.48
958.163	3648.49
958.467	3609.85
958.771	3577.31
959.075	3566.69
959.378	3521.94
959.682	3553.8
959.985	3488.95
960.289	3516.97
960.592	3477.65
960.896	3449.17
961.199	3486.69
961.502	3481.94
961.805	3436.07
962.108	3439.68
962.411	3389.29
962.714	3379.35
963.017	3353.81
963.32	3362.17
963.623	3368.05
963.926	3294.38
964.228	3328.05
964.531	3317.2
964.833	3276.98
965.136	3288.95
965.438	3269.52
965.741	3230.42
966.043	3205.79
966.345	3234.04
966.648	3241.27
966.95	3175.28
967.252	3166.02
967.554	3152.69
967.856	3140.03
968.158	3146.58
968.46	3143.65
968.761	3112.46
969.063	3099.81
969.365	3102.29
969.666	3086.25
969.968	3060.94
970.269	3038.79
970.571	3053.03
970.872	3006.47
971.174	3013.71
971.475	3012.8
971.776	3003.76
972.077	2960.37
972.378	2938.45
972.679	2991.79
972.98	2938.23
973.281	2918.12
973.582	2894.39
973.883	2853.26
974.183	2884.22
974.484	2856.65
974.785	2838.12
975.085	2837.21
975.386	2865.69
975.686	2844.22
975.986	2797.67
976.287	2818.68
976.587	2783.43
976.887	2782.3
977.187	2751.11
977.487	2709.99
977.787	2745.69
978.087	2702.53
978.387	2707.05
978.687	2693.04
978.987	2663.88
979.286	2657.56
979.586	2655.07
979.885	2628.41
980.185	2609.2
980.484	2605.36
980.784	2640.61
981.083	2630.89
981.382	2613.26
981.682	2570.55
981.981	2547.96
982.28	2560.38
982.579	2558.58
982.878	2553.83
983.177	2509.76
983.475	2505.47
983.774	2502.99
984.073	2489.88
984.372	2475.64
984.67	2479.48
984.969	2483.55
985.267	2435.64
985.566	2448.3
985.864	2436.09
986.162	2412.82
986.461	2438.35
986.759	2409.65
987.057	2406.04
987.355	2357.23
987.653	2404.68
987.951	2366.49
988.249	2354.51
988.547	2364.68
988.844	2305.25
989.142	2332.59
989.44	2299.83
989.737	2278.58
990.035	2269.77
990.332	2271.58
990.63	2259.15
990.927	2246.04
991.224	2254.18
991.521	2225.7
991.819	2240.85
992.116	2233.39
992.413	2234.74
992.71	2205.14
993.006	2187.29
993.303	2170.79
993.6	2148.42
993.897	2140.51
994.193	2127.18
994.49	2126.5
994.787	2124.92
995.083	2103
995.379	2095.31
995.676	2073.62
995.972	2074.07
996.268	2050.34
996.565	2035.88
996.861	2047.4
997.157	2034.07
997.453	2038.82
997.749	2013.51
998.044	1997.46
998.34	2018.48
998.636	1983.9
998.932	1969.89
999.227	1945.49
999.523	1973.06
999.818	1956.11
1000.114	1942.55
1000.409	1916.33
1000.704	1932.15
1001	1938.93
1001.295	1896.45
1001.59	1904.13
1001.885	1879.05
1002.18	1868.88
1002.475	1871.82
1002.77	1874.3
1003.065	1826.39
1003.359	1845.6
1003.654	1818.03
1003.949	1814.64
1004.243	1802.21
1004.538	1808.09
1004.832	1818.94
1005.127	1787.07
1005.421	1763.34
1005.715	1757.69
1006.009	1741.65
1006.304	1719.28
1006.598	1717.47
1006.892	1760.86
1007.186	1689.22
1007.48	1699.16
1007.773	1706.85
1008.067	1683.8
1008.361	1684.02
1008.655	1684.25
1008.948	1662.33
1009.242	1661.43
1009.535	1639.5
1009.829	1648.09
1010.122	1656.91
1010.415	1609.22
1010.708	1615.55
1011.001	1599.28
1011.295	1599.05
1011.588	1578.72
1011.881	1573.07
1012.173	1558.38
1012.466	1577.81
1012.759	1529.9
1013.052	1524.71
1013.344	1516.34
1013.637	1506.85
1013.93	1548.89
1014.222	1499.62
1014.514	1496.23
1014.807	1492.84
1015.099	1462.79
1015.391	1447.19
1015.683	1443.8
1015.976	1459.62
1016.268	1428.21
1016.56	1411.71
1016.851	1435.22
1017.143	1405.84
1017.435	1381.21
1017.727	1404.71
1018.018	1372.17
1018.31	1384.6
1018.602	1369.68
1018.893	1330.81
1019.185	1361.32
1019.476	1367.65
1019.767	1325.39
1020.058	1327.2
1020.35	1319.74
1020.641	1289.23
1020.932	1308.44
1021.223	1304.6
1021.514	1283.58
1021.804	1265.05
1022.095	1280.42
1022.386	1254.88
1022.677	1264.37
1022.967	1231.38
1023.258	1241.32
1023.548	1271.38
1023.839	1240.65
1024.129	1222.57
1024.419	1250.14
1024.709	1189.12
1025	1181.89
1025.29	1179.18
1025.58	1168.78
1025.87	1185.05
1026.16	1133.3
1026.449	1153.42
1026.739	1144.6
1027.029	1127.88
1027.319	1143.47
1027.608	1160.2
1027.898	1126.75
1028.187	1118.39
1028.477	1083.81
1028.766	1126.3
1029.055	1089.69
1029.344	1084.27
1029.634	1095.79
1029.923	1095.11
1030.212	1063.47
1030.501	1031.84
1030.79	1049.24
1031.078	1037.49
1031.367	1035.68
1031.656	1027.54
1031.945	1036.58
1032.233	1037.49
1032.522	985.28
1032.81	982.8
1033.099	985.74
1033.387	990.03
1033.675	985.96
1033.963	1005.62
1034.251	997.94
1034.54	968.56
1034.828	947.09
1035.116	985.06
1035.403	956.81
1035.691	938.51
1035.979	925.63
1036.267	920.88
1036.554	931.73
1036.842	933.76
1037.129	931.95
1037.417	925.63
1037.704	922.46
1037.992	882.01
1038.279	923.59
1038.566	910.03
1038.853	910.03
1039.14	910.03
