Data from hue_40_FLMS001491_25.txt Node
Date: Mon Feb 06 15:07:40 GMT 2017
User: dcchb
Spectrometer: FLMS00149
Trigger mode: 0
Integration Time (sec): 2.000000E-2
Scans to average: 10
Electric dark correction enabled: true
Nonlinearity correction enabled: false
Boxcar width: 0
XAxis mode: Wavelengths
Number of Pixels in Spectrum: 2048
>>>>>Begin Spectral Data<<<<<
341.393	-26.78
341.776	-26.78
342.16	-26.78
342.543	-45.76
342.927	-65.65
343.31	-89.15
343.693	-46.44
344.077	-62.48
344.46	-41.69
344.843	-64.07
345.226	-42.37
345.61	-14.8
345.993	-27.46
346.376	-5.31
346.759	11.64
347.142	18.19
347.525	37.63
347.908	58.64
348.291	68.59
348.674	89.15
349.057	109.94
349.44	109.94
349.823	134.8
350.206	177.06
350.588	197.17
350.971	202.37
351.354	233.1
351.737	234.46
352.119	242.82
352.502	248.92
352.884	267.9
353.267	280.11
353.65	286.66
354.032	317.39
354.414	314
354.797	306.32
355.179	309.71
355.562	315.81
355.944	322.14
356.326	323.95
356.709	355.36
357.091	322.59
357.473	321.91
357.855	334.12
358.238	349.26
358.62	344.06
359.002	330.73
359.384	347.22
359.766	330.73
360.148	325.53
360.53	344.51
360.912	323.04
361.294	367.79
361.676	325.98
362.057	323.27
362.439	322.36
362.821	324.85
363.203	335.02
363.584	323.49
363.966	340.22
364.348	335.25
364.729	320.56
365.111	321.01
365.493	322.59
365.874	327.79
366.256	307.68
366.637	306.32
367.019	311.29
367.4	331.86
367.781	327.79
368.163	330.05
368.544	312.87
368.925	322.59
369.306	311.74
369.688	319.65
370.069	320.78
370.45	305.64
370.831	335.47
371.212	321.46
371.593	332.08
371.974	317.84
372.355	298.18
372.736	310.16
373.117	321.01
373.498	318.75
373.879	304.06
374.26	314
374.641	309.71
375.021	314.91
375.402	314.23
375.783	316.94
376.163	335.47
376.544	344.51
376.925	337.05
377.305	338.64
377.686	332.76
378.066	336.6
378.447	342.02
378.827	332.31
379.208	317.17
379.588	316.49
379.968	330.5
380.349	347.45
380.729	356.26
381.109	316.49
381.489	317.17
381.87	344.51
382.25	322.36
382.63	339.09
383.01	338.41
383.39	340.22
383.77	348.58
384.15	342.48
384.53	336.83
384.91	361.46
385.29	366.21
385.67	353.78
386.049	354.68
386.429	337.05
386.809	353.55
387.189	342.93
387.568	366.43
387.948	349.93
388.328	343.38
388.707	361.01
389.087	384.06
389.466	344.28
389.846	378.63
390.225	378.63
390.605	368.24
390.984	373.44
391.363	369.82
391.743	356.71
392.122	372.76
392.501	363.27
392.881	378.41
393.26	368.46
393.639	379.31
394.018	369.82
394.397	392.19
394.776	375.24
395.155	377.5
395.534	364.62
395.913	381.8
396.292	391.74
396.671	378.18
397.05	389.03
397.429	387
397.808	405.3
398.186	387.22
398.565	412.08
398.944	404.4
399.323	393.77
399.701	400.55
400.08	391.97
400.458	402.81
400.837	404.62
401.215	413.44
401.594	418.18
401.972	397.84
402.351	402.14
402.729	426.77
403.107	400.78
403.486	415.7
403.864	410.27
404.242	401.91
404.62	423.6
404.999	420.67
405.377	428.35
405.755	436.26
406.133	426.54
406.511	417.96
406.889	430.84
407.267	426.54
407.645	418.18
408.023	444.85
408.401	464.28
408.779	431.06
409.156	456.37
409.534	455.24
409.912	453.66
410.29	451.4
410.667	481.68
411.045	467.22
411.422	448.91
411.8	468.12
412.178	484.17
412.555	464.73
412.933	453.89
413.31	468.12
413.687	470.16
414.065	517.84
414.442	506.99
414.819	503.38
415.197	500.66
415.574	502.02
415.951	510.83
416.328	503.38
416.705	494.56
417.082	521.23
417.46	518.07
417.837	531.85
418.214	549.48
418.591	517.39
418.967	533.43
419.344	511.96
419.721	537.5
420.098	546.77
420.475	550.16
420.852	549.03
421.228	552.87
421.605	534.79
421.982	556.71
422.358	567.33
422.735	549.48
423.111	575.92
423.488	565.3
423.864	561.23
424.241	555.58
424.617	559.87
424.994	551.51
425.37	577.95
425.746	594.45
426.123	595.35
426.499	592.64
426.875	608.46
427.251	573.66
427.627	600.1
428.003	606.65
428.379	621.57
428.756	635.58
429.132	612.53
429.507	621.57
429.883	632.64
430.259	633.09
430.635	631.73
431.011	631.96
431.387	670.38
431.763	672.19
432.138	671.51
432.514	671.96
432.89	675.12
433.265	673.99
433.641	684.39
434.016	684.84
434.392	697.27
434.767	715.57
435.143	715.8
435.518	722.13
435.894	702.02
436.269	745.63
436.644	742.01
437.02	727.78
437.395	747.89
437.77	787.66
438.145	763.48
438.52	766.65
438.895	786.08
439.271	771.17
439.646	767.1
440.021	788.79
440.395	784.73
440.77	786.53
441.145	789.24
441.52	784.27
441.895	819.07
442.27	827.66
442.645	813.2
443.019	814.33
443.394	840.32
443.769	803.93
444.143	826.98
444.518	853.2
444.892	828.34
445.267	833.31
445.641	850.49
446.016	846.87
446.39	849.13
446.764	865.63
447.139	856.59
447.513	858.62
447.887	878.96
448.262	880.77
448.636	889.81
449.01	876.7
449.384	902.01
449.758	902.91
450.132	938.17
450.506	916.02
450.88	906.53
451.254	908.11
451.628	929.13
452.002	917.15
452.376	976.58
452.75	961.44
453.123	959.86
453.497	966.64
453.871	966.19
454.244	996.92
454.618	1011.39
454.992	1043.7
455.365	1008
455.739	1041.22
456.112	1016.13
456.486	1036.02
456.859	1071.95
457.232	1073.76
457.606	1087.32
457.979	1069.24
458.352	1117.15
458.725	1118.5
459.099	1104.94
459.472	1144.49
459.845	1142
460.218	1177.94
460.591	1177.48
460.964	1175.68
461.337	1184.71
461.71	1240.53
462.083	1204.6
462.456	1218.39
462.829	1272.17
463.201	1275.11
463.574	1274.2
463.947	1294.77
464.32	1322.34
464.692	1356.69
465.065	1353.98
465.438	1344.26
465.81	1386.29
466.183	1403.24
466.555	1426.74
466.928	1424.48
467.3	1457.48
467.672	1457.7
468.045	1483.69
468.417	1518.27
468.789	1532.05
469.161	1545.38
469.534	1564.59
469.906	1601.43
470.278	1622.44
470.65	1648.43
471.022	1667.64
471.394	1735.43
471.766	1718.49
472.138	1757.58
472.51	1802.55
472.882	1831.48
473.253	1853.85
473.625	1918.71
473.997	1942.21
474.369	2030.57
474.74	1994.64
475.112	2061.53
475.484	2070.79
475.855	2114.41
476.227	2161.64
476.598	2257.23
476.97	2275.31
477.341	2328.19
477.713	2377.9
478.084	2397.79
478.455	2482.76
478.827	2536.54
479.198	2610.21
479.569	2610.89
479.94	2777.67
480.311	2823.77
480.682	2893.14
481.053	2954.39
481.424	2992.35
481.795	3094.95
482.166	3228.73
482.537	3278.44
482.908	3327.26
483.279	3447.93
483.65	3514.37
484.021	3625.1
484.391	3729.28
484.762	3794.36
485.133	3836.62
485.503	3912.78
485.874	4043.62
486.244	4105.99
486.615	4211.3
486.985	4349.15
487.356	4491.97
487.726	4521.58
488.097	4677.96
488.467	4736.26
488.837	4869.14
489.207	4978.74
489.578	5033.88
489.948	5211.28
490.318	5278.84
490.688	5373.76
491.058	5513.41
491.428	5638.61
491.798	5736.69
492.168	5871.37
492.538	5925.83
492.908	6051.03
493.278	6190.46
493.648	6255.09
494.017	6443.79
494.387	6457.12
494.757	6573.95
495.126	6728.75
495.496	6755.87
495.866	6878.12
496.235	6989.31
496.605	7142.98
496.974	7232.24
497.344	7327.83
497.713	7417.77
498.082	7514.27
498.452	7639.91
498.821	7743.86
499.19	7792.45
499.559	7912.45
499.928	8020.47
500.298	8161.48
500.667	8255.26
501.036	8229.05
501.405	8385.2
501.774	8467.69
502.143	8514.92
502.512	8629.26
502.88	8740.22
503.249	8812.99
503.618	8907.22
503.987	8960.56
504.356	9071.51
504.724	9161.45
505.093	9218.85
505.462	9271.96
505.83	9374.56
506.199	9485.74
506.567	9602.57
506.936	9634.66
507.304	9801.44
507.672	9865.39
508.041	9893.41
508.409	10023.35
508.777	10110.58
509.145	10149
509.514	10203.46
509.882	10297.47
510.25	10356.9
510.618	10487.29
510.986	10537.92
511.354	10664.24
511.722	10731.81
512.09	10792.6
512.458	10844.35
512.826	10952.14
513.193	10975.64
513.561	11052.48
513.929	11140.16
514.297	11240.95
514.664	11358.91
515.032	11416.31
515.4	11530.21
515.767	11508.51
516.135	11620.15
516.502	11528.62
516.869	11792.35
517.237	11809.07
517.604	11857.88
517.972	11897.65
518.339	12009.51
518.706	12113.01
519.073	12144.2
519.44	12155.5
519.808	12304.65
520.175	12333.8
520.542	12559.33
520.909	12604.98
521.276	12608.82
521.643	12771.3
522.009	12858.31
522.376	12865.99
522.743	12973.11
523.11	13017.85
523.477	13124.97
523.843	13201.35
524.21	13332.87
524.577	13459.19
524.943	13519.08
525.31	13590.49
525.676	13659.87
526.043	13795.23
526.409	13849.24
526.776	14022.8
527.142	14051.27
527.508	14127.43
527.874	14308.66
528.241	14308.89
528.607	14348.66
528.973	14487.87
529.339	14562.44
529.705	14685.6
530.071	14854.86
530.437	14781.87
530.803	14914.07
531.169	14908.87
531.535	15045.82
531.901	15079.72
532.267	15106.83
532.632	15251.69
532.998	15271.8
533.364	15373.04
533.73	15370.78
534.095	15547.05
534.461	15616.88
534.826	15657.78
535.192	15737.1
535.557	15837.44
535.923	15920.6
536.288	15980.03
536.653	15942.29
537.019	16025.91
537.384	16075.85
537.749	16128.95
538.114	16162.17
538.479	16234.71
538.845	16328.27
539.21	16382.51
539.575	16382.28
539.94	16506.8
540.305	16484.43
540.67	16560.13
541.034	16670.64
541.399	16745.21
541.764	16742.27
542.129	16956.28
542.494	16980.91
542.858	16998.31
543.223	16951.53
543.587	17244.18
543.952	17204.63
544.316	17224.52
544.681	17227.46
545.045	17338.19
545.41	17541.57
545.774	17549.26
546.138	17552.19
546.503	17564.85
546.867	17674.45
547.231	17725.3
547.595	17833.77
547.959	17889.13
548.324	17918.74
548.688	17848.68
549.052	18026.31
549.416	18083.03
549.779	18155.79
550.143	18237.6
550.507	18257.26
550.871	18268.11
551.235	18410.93
551.599	18440.76
551.962	18515.33
552.326	18527.76
552.689	18601.43
553.053	18605.27
553.417	18656.35
553.78	18876.68
554.143	18838.94
554.507	18937.02
554.87	19010.01
555.234	19134.75
555.597	19095.43
555.96	19187.63
556.323	19273.96
556.686	19373.84
557.05	19368.64
557.413	19503.33
557.776	19559.82
558.139	19614.96
558.502	19704.45
558.865	19690.44
559.228	19909.19
559.59	19876.43
559.953	19994.39
560.316	20070.09
560.679	20080.04
561.041	20303.08
561.404	20399.12
561.767	20460.82
562.129	20392.57
562.492	20520.03
562.854	20457.2
563.217	20635.5
563.579	20680.7
563.941	20878.43
564.304	20795.27
564.666	21016.74
565.028	21102.83
565.39	21067.13
565.753	21295.37
566.115	21281.59
566.477	21475.93
566.839	21505.31
567.201	21599.77
567.563	21611.3
567.925	21804.74
568.287	21775.13
568.648	21869.82
569.01	21947.33
569.372	22035.92
569.734	22084.96
570.095	22246.08
570.457	22287.89
570.819	22306.19
571.18	22456.47
571.542	22620.54
571.903	22636.58
572.265	22704.6
572.626	22712.74
572.987	22884.93
573.349	22955.89
573.71	22998.83
574.071	23142.56
574.432	23255.09
574.794	23459.84
575.155	23481.3
575.516	23486.05
575.877	23609.44
576.238	23700.96
576.599	23879.49
576.96	23957
577.32	24114.06
577.681	24199.48
578.042	24361.73
578.403	24426.59
578.763	24541.39
579.124	24602.4
579.485	24896.86
579.845	24971.89
580.206	24943.86
580.566	25220.47
580.927	25236.96
581.287	25661.13
581.648	25542.72
582.008	25913.33
582.368	25894.35
582.728	26170.5
583.089	26163.04
583.449	26361.23
583.809	26601.22
584.169	26798.73
584.529	26855.45
584.889	27309.45
585.249	27202.34
585.609	27342.44
585.969	27660.85
586.329	27745.82
586.688	27999.83
587.048	28077.11
587.408	28228.07
587.768	28360.05
588.127	28675.52
588.487	28806.36
588.846	29141.49
589.206	29101.04
589.565	29348.72
589.925	29550.07
590.284	29712.1
590.643	29984.64
591.003	30228.92
591.362	30465.98
591.721	30576.71
592.08	30723.82
592.44	31008.56
592.799	31170.59
593.158	31304.83
593.517	31446.52
593.876	31718.6
594.235	31853.29
594.593	31954.08
594.952	32302.31
595.311	32307.29
595.67	32680.16
596.029	32918.34
596.387	33124.21
596.746	33252.35
597.104	33337.99
597.463	33461.15
597.822	33831.77
598.18	33795.16
598.538	33923.06
598.897	34324.86
599.255	34165.32
599.613	34827.45
599.972	34744.28
600.33	34977.72
600.688	34972.53
601.046	35202.8
601.404	35484.6
601.762	35514.66
602.12	35897.93
602.478	35953.29
602.836	36090.01
603.194	36021.31
603.552	36233.28
603.91	36270.57
604.268	36489.55
604.625	36655.19
604.983	36815.87
605.341	36661.3
605.698	36909.2
606.056	37277.32
606.413	37428.51
606.771	37455.63
607.128	37654.04
607.485	37612.01
607.843	37690.2
608.2	37965.22
608.557	38258.32
608.914	38145.1
609.272	38559.55
609.629	38514.81
609.986	38725.65
610.343	38643.39
610.7	39023.95
611.057	38970.16
611.414	38904.85
611.771	39234.34
612.127	39428
612.484	39430.49
612.841	39590.48
613.198	39456.48
613.554	39671.16
613.911	39868.67
614.267	39891.04
614.624	39949.57
614.98	40140.53
615.337	40335.55
615.693	40312.05
616.05	40371.48
616.406	40665.03
616.762	40605.6
617.118	40701.64
617.475	40678.37
617.831	40994.29
618.187	40955.42
618.543	40979.83
618.899	41333.49
619.255	41276.77
619.611	41408.29
619.967	41432.47
620.323	41571.22
620.678	41453.71
621.034	41381.4
621.39	41504.11
621.746	41521.73
622.101	41977.31
622.457	41744.78
622.812	41819.58
623.168	41901.84
623.523	42018.67
623.879	42083.3
624.234	41904.77
624.589	42109.74
624.945	42137.76
625.3	42219.12
625.655	42196.29
626.01	42202.85
626.365	42371.65
626.72	42381.37
627.075	42333.24
627.43	42258.66
627.785	42238.78
628.14	42499.79
628.495	42404.87
628.85	42440.8
629.205	42356.06
629.559	42627.69
629.914	42463.18
630.269	42515.61
630.623	42463.4
630.978	42388.38
631.332	42629.73
631.687	42598.31
632.041	42372.78
632.396	42617.3
632.75	42416.17
633.104	42441.03
633.459	42224.54
633.813	42358.1
634.167	42355.16
634.521	42262.05
634.875	42375.04
635.229	42325.1
635.583	42105.67
635.937	42201.49
636.291	42263.41
636.645	42244.2
636.999	42081.49
637.352	42264.54
637.706	42018.9
638.06	42250.53
638.413	42248.04
638.767	41910.42
639.121	42099.8
639.474	41991.78
639.828	41983.19
640.181	41912.23
640.534	42058.44
640.888	41968.5
641.241	41830.2
641.594	41964.66
641.947	41950.42
642.301	41898.9
642.654	41970.08
643.007	41945.68
643.36	41897.99
643.713	41872.68
644.066	41929.41
644.419	41756.3
644.771	41518.12
645.124	41034.51
645.477	41020.05
645.83	40659.16
646.182	40713.17
646.535	40507.75
646.888	40542.78
647.24	40405.6
647.593	40684.47
647.945	40531.7
648.298	40449.22
648.65	40335.78
649.002	40225.04
649.355	40358.37
649.707	40303.46
650.059	40419.62
650.411	40966.49
650.763	41013.27
651.115	41376.88
651.467	41193.15
651.819	41319.93
652.171	41224.79
652.523	41181.86
652.875	41098.02
653.227	41003.55
653.578	41242.87
653.93	41197.45
654.282	40980.73
654.633	40855.99
654.985	40990.67
655.337	40947.51
655.688	40983.89
656.039	41036.77
656.391	40766.95
656.742	40862.32
657.094	40773.96
657.445	40985.7
657.796	40863.22
658.147	40682.89
658.498	40739.83
658.849	40743.22
659.2	40646.73
659.551	40666.16
659.902	40923.78
660.253	40705.26
660.604	40651.02
660.955	40460.97
661.306	40749.55
661.656	40735.54
662.007	40667.97
662.358	40757.69
662.708	40845.59
663.059	40608.31
663.409	40506.39
663.76	40753.17
664.11	40575.77
664.461	40505.49
664.811	40597.46
665.161	40609.44
665.511	40551.14
665.862	40513.85
666.212	40526.73
666.562	40591.14
666.912	40563.79
667.262	40599.5
667.612	40516.11
667.962	40666.16
668.312	40493.06
668.662	40726.95
669.011	40582.32
669.361	40528.99
669.711	40474.3
670.06	40323.8
670.41	40441.99
670.76	40279.51
671.109	40497.81
671.459	40303.23
671.808	40419.16
672.157	40443.57
672.507	40145.5
672.856	40274.31
673.205	40143.46
673.554	40298.49
673.904	40217.13
674.253	40244.03
674.602	40197.93
674.951	39653.99
675.3	39502.58
675.649	40131.49
675.998	40079.06
676.346	40128.78
676.695	40258.04
677.044	39873.87
677.393	39980.3
677.741	40044.48
678.09	40024.37
678.438	39783.7
678.787	39908.89
679.135	39865.05
679.484	39722.68
679.832	39901.66
680.181	39657.6
680.529	39737.37
680.877	39594.33
681.225	39546.64
681.573	39888.78
681.922	39312.07
682.27	39543.48
682.618	39282.02
682.966	39293.09
683.314	39432.97
683.661	39285.41
684.009	39132.64
684.357	38991.86
684.705	38988.24
685.053	39171.51
685.4	38959.09
685.748	38811.52
686.095	38764.52
686.443	38684.52
686.79	38560.91
687.138	38793.44
687.485	38780.79
687.832	38530.85
688.18	38511.19
688.527	38296.73
688.874	38281.14
689.221	38181.48
689.568	38078.66
689.915	38022.39
690.262	38034.82
690.609	37917.08
690.956	37859
691.303	37747.37
691.65	37616.07
691.997	37430.32
692.344	37370.88
692.69	37279.81
693.037	37336.08
693.383	37067.84
693.73	37268.29
694.077	36971.8
694.423	37134.96
694.769	36865.81
695.116	36831.01
695.462	36728.64
695.808	36684.35
696.155	36720.73
696.501	36380.17
696.847	36420.4
697.193	36137.47
697.539	36359.38
697.885	35985.61
698.231	35965.27
698.577	35917.81
698.923	35875.55
699.269	35759.85
699.614	35578.84
699.96	35474.21
700.306	35593.53
700.651	35329.81
700.997	35339.3
701.342	35318.05
701.688	35207.1
702.033	35134.56
702.379	35022.02
702.724	34919.87
703.069	35015.92
703.415	34504.97
703.76	34635.36
704.105	34602.82
704.45	34553.1
704.795	34343.62
705.14	34329.83
705.485	34205.54
705.83	34104.75
706.175	34144.07
706.52	34101.36
706.865	33948.6
707.209	33839
707.554	33909.05
707.899	33955.6
708.243	33701.6
708.588	33611.88
708.932	33469.52
709.277	33451.44
709.621	33396.52
709.966	33131.22
710.31	33368.73
710.654	32973.71
710.998	33087.38
711.342	33102.07
711.687	32934.16
712.031	32892.36
712.375	32653.27
712.719	32724
713.063	32720.83
713.407	32773.49
713.75	32630.44
714.094	32487.39
714.438	32339.6
714.782	32452.37
715.125	32252.37
715.469	32406.94
715.812	32059.61
716.156	32036.33
716.499	32092.38
716.843	31975.32
717.186	31839.28
717.53	32020.51
717.873	31928.54
718.216	31943.23
718.559	31717.02
718.902	31495.56
719.246	31626.4
719.589	31483.58
719.932	31471.15
720.275	31437.25
720.617	31461.43
720.96	31420.98
721.303	31307.54
721.646	31357.48
721.989	31070.26
722.331	31302.11
722.674	31039.97
723.016	30944.16
723.359	31020.54
723.701	30993.42
724.044	30820.32
724.386	30684.96
724.729	30808.12
725.071	30718.18
725.413	30712.53
725.755	30691.96
726.097	30542.13
726.439	30235.02
726.782	30500.33
727.124	30515.47
727.465	30423.95
727.807	30273.67
728.149	30283.38
728.491	30131.52
728.833	30144.63
729.175	30144.63
729.516	29992.77
729.858	29929.5
730.199	30025.99
730.541	29939.44
730.882	29903.28
731.224	29884.3
731.565	29756.84
731.906	29792.32
732.248	29899.67
732.589	29576.96
732.93	29573.35
733.271	29526.34
733.612	29578.54
733.953	29599.33
734.294	29462.16
734.635	29304.43
734.976	29449.06
735.317	29146.47
735.658	29237.76
735.999	29164.77
736.339	29172.23
736.68	29232.11
737.021	29058.11
737.361	29002.51
737.702	29166.35
738.042	28951.89
738.383	28947.83
738.723	28960.71
739.063	28868.73
739.404	28792.12
739.744	28916.19
740.084	28628.74
740.424	28741.5
740.764	28682.07
741.104	28732.01
741.444	28493.83
741.784	28489.53
742.124	28405.69
742.464	28435.52
742.804	28329.76
743.143	28348.75
743.483	28286.6
743.823	28219.71
744.162	28125.02
744.502	28286.15
744.841	28095.19
745.181	28108.75
745.52	28039.83
745.86	28066.49
746.199	27945.37
746.538	27954.86
746.877	28140.84
747.216	27956.44
747.556	27914.63
747.895	27827.86
748.234	27770.91
748.573	27739.04
748.911	27783.56
749.25	27661.53
749.589	27508.32
749.928	27704.02
750.267	27645.04
750.605	27540.86
750.944	27411.37
751.283	27353.52
751.621	27361.88
751.96	27299.06
752.298	27139.74
752.636	27254.76
752.975	27072.62
753.313	27029.46
753.651	27198.49
753.989	26951.49
754.327	26800.76
754.666	26773.19
755.004	26805.51
755.342	26789.01
755.679	26656.59
756.017	26545.4
756.355	26707.43
756.693	26579.98
757.031	26542.24
757.368	26335.01
757.706	26408.91
758.044	26352.64
758.381	26375.92
758.719	26067
759.056	26229.71
759.394	26000.33
759.731	25946.32
760.068	25841.92
760.405	25863.61
760.743	25696.84
761.08	25640.12
761.417	25591.98
761.754	25607.35
762.091	25552.66
762.428	25413.91
762.765	25130.53
763.102	25170.75
763.438	25195.83
763.775	24964.88
764.112	25129.85
764.449	25158.1
764.785	24961.94
765.122	24743.42
765.458	24607.38
765.795	24708.62
766.131	24653.48
766.467	24409.64
766.804	24428.17
767.14	24372.58
767.476	24381.17
767.812	24249.87
768.148	24253.26
768.485	24013.04
768.821	24036.77
769.157	24062.98
769.492	23877.9
769.828	23851.92
770.164	23639.49
770.5	23601.98
770.836	23550.23
771.171	23474.75
771.507	23315.66
771.842	23250.58
772.178	23134.42
772.513	23060.52
772.849	23133.52
773.184	22964.93
773.519	22960.19
773.855	22827.99
774.19	22678.84
774.525	22673.87
774.86	22602.23
775.195	22620.54
775.53	22487.43
775.865	22398.62
776.2	22256.25
776.535	22150.27
776.87	22082.47
777.205	21996.14
777.539	21983.94
777.874	21962.02
778.209	21696.72
778.543	21803.83
778.878	21596.38
779.212	21563.16
779.547	21493.56
779.881	21469.83
780.215	21272.55
780.55	21429.38
780.884	21141.03
781.218	21205.21
781.552	21197.52
781.886	20949.17
782.22	20960.92
782.554	20713.92
782.888	20613.36
783.222	20645.45
783.556	20527.71
783.889	20428.28
784.223	20270.77
784.557	20245.91
784.89	20320.71
785.224	20076.87
785.557	19995.97
785.891	19935.41
786.224	19879.14
786.558	19947.61
786.891	19812.93
787.224	19729.54
787.557	19640.5
787.891	19582.2
788.224	19573.38
788.557	19568.19
788.89	19401.86
789.223	19334.75
789.556	19279.15
789.888	19250.91
790.221	19172.72
790.554	19059.27
790.887	18960.29
791.219	18947.86
791.552	18908.77
791.884	18715.1
792.217	18707.19
792.549	18606.4
792.882	18497.03
793.214	18493.19
793.546	18543.35
793.879	18385.39
794.211	18222.68
794.543	18311.27
794.875	18257.26
795.207	18259.52
795.539	18166.87
795.871	18204.61
796.203	17995.8
796.535	17866.08
796.867	17831.96
797.198	17799.64
797.53	17786.76
797.862	17691.4
798.193	17715.58
798.525	17522.82
798.856	17546.54
799.188	17399.88
799.519	17372.31
799.85	17222.03
800.182	17310.39
800.513	17309.94
800.844	17166.22
801.175	17172.32
801.506	17191.07
801.837	17016.61
802.168	17009.84
802.499	16987.24
802.83	16828.15
803.161	16845.32
803.491	16721.03
803.822	16900.91
804.153	16642.39
804.483	16621.82
804.814	16498.21
805.145	16539.11
805.475	16573.46
805.805	16460.02
806.136	16458.89
806.466	16481.04
806.796	16323.53
807.126	16236.75
807.457	16225
807.787	16201.95
808.117	16104.55
808.447	15942.29
808.777	16045.11
809.107	15923.99
809.436	15987.94
809.766	15974.61
810.096	15840.83
810.426	15784.33
810.755	15799.7
811.085	15768.06
811.414	15687.61
811.744	15565.35
812.073	15585.92
812.403	15627.72
812.732	15453.49
813.061	15494.85
813.39	15339.37
813.719	15353.83
814.049	15461.63
814.378	15335.3
814.707	15281.07
815.036	15312.03
815.365	15294.63
815.693	15145.03
816.022	15133.95
816.351	15063.22
816.68	14926.5
817.008	15010.11
817.337	14904.35
817.665	14823.23
817.994	14785.49
818.322	14784.13
818.651	14845.15
818.979	14741.42
819.307	14765.15
819.636	14752.72
819.964	14570.58
820.292	14668.65
820.62	14679.73
820.948	14605.83
821.276	14588.2
821.604	14601.99
821.932	14580.75
822.259	14590.69
822.587	14526.96
822.915	14471.37
823.243	14542.33
823.57	14468.66
823.898	14467.53
824.225	14519.73
824.553	14495.55
824.88	14454.42
825.207	14489.9
825.535	14477.7
825.862	14479.73
826.189	14390.24
826.516	14491.26
826.843	14559.28
827.17	14508.43
827.497	14536.68
827.824	14481.54
828.151	14482.22
828.478	14417.59
828.805	14539.17
829.131	14466.63
829.458	14376.68
829.785	14347.08
830.111	14444.25
830.438	14424.37
830.764	14394.54
831.09	14448.09
831.417	14365.61
831.743	14404.25
832.069	14399.96
832.395	14353.41
832.722	14452.61
833.048	14332.62
833.374	14319.28
833.7	14365.61
834.026	14333.52
834.351	14377.14
834.677	14265.5
835.003	14321.32
835.329	14285.61
835.654	14316.57
835.98	14233.86
836.306	14217.59
836.631	14143.02
836.956	14194.77
837.282	14216.69
837.607	14120.42
837.932	14126.52
838.258	14124.94
838.583	14085.39
838.908	14019.63
839.233	14055.79
839.558	13986.41
839.883	13888.79
840.208	13936.24
840.533	13883.14
840.858	13934.21
841.182	13865.29
841.507	13863.48
841.832	13816.7
842.156	13729.7
842.481	13723.14
842.805	13610.83
843.13	13746.64
843.454	13612.86
843.778	13603.15
844.103	13486.76
844.427	13532.64
844.751	13586.87
845.075	13548.01
845.399	13416.48
845.723	13385.52
846.047	13416.71
846.371	13263.27
846.695	13286.77
847.019	13173.1
847.343	13106.21
847.666	13109.37
847.99	13001.35
848.313	12913.45
848.637	12888.81
848.96	12916.61
849.284	12854.24
849.607	12745.99
849.931	12671.42
850.254	12616.73
850.577	12574.47
850.9	12600.23
851.223	12538.77
851.546	12457.64
851.869	12300.13
852.192	12482.04
852.515	12328.15
852.838	12206.8
853.161	12304.42
853.483	12203.86
853.806	12114.6
854.129	12024.43
854.451	12016.52
854.774	12011.1
855.096	11923.19
855.419	11975.39
855.741	11747.37
856.063	11821.27
856.385	11849.52
856.708	11753.25
857.03	11652.69
857.352	11725.91
857.674	11795.06
857.996	11634.61
858.318	11566.36
858.64	11641.39
858.961	11559.36
859.283	11562.75
859.605	11497.21
859.926	11445.24
860.248	11395.29
860.57	11366.82
860.891	11396.65
861.212	11371.57
861.534	11325.92
861.855	11234.39
862.176	11329.76
862.498	11220.38
862.819	11225.13
863.14	11136.54
863.461	11183.55
863.782	11172.93
864.103	11132.7
864.424	11067.84
864.745	11054.74
865.065	11002.54
865.386	11007.51
865.707	11031.91
866.027	10967.96
866.348	10986.26
866.668	10937.45
866.989	10952.59
867.309	10817.91
867.63	10870.79
867.95	10851.35
868.27	10859.49
868.59	10897.45
868.91	10826.72
869.23	10827.4
869.55	10741.98
869.87	10736.55
870.19	10755.08
870.51	10804.8
870.83	10769.55
871.15	10635.31
871.469	10679.83
871.789	10676.89
872.109	10716.44
872.428	10591.47
872.748	10643.9
873.067	10619.04
873.386	10627.86
873.706	10585.82
874.025	10508.99
874.344	10446.39
874.663	10504.7
874.982	10471.48
875.301	10524.36
875.62	10430.8
875.939	10454.98
876.258	10427.18
876.577	10380.18
876.896	10332.04
877.214	10317.81
877.533	10332.27
877.852	10330.46
878.17	10362.55
878.489	10325.72
878.807	10293.4
879.125	10268.77
879.444	10269.67
879.762	10196.68
880.08	10241.2
880.398	10159.39
880.716	10192.84
881.034	10110.13
881.352	10148.09
881.67	10022
881.988	10127.08
882.306	10014.31
882.624	10045.05
882.941	10002.56
883.259	9931.83
883.577	9920.98
883.894	9947.2
884.212	9902.9
884.529	9910.59
884.846	9863.36
885.164	9826.97
885.481	9818.61
885.798	9850.02
886.115	9774.32
886.432	9819.74
886.75	9750.59
887.067	9793.53
887.383	9697.26
887.7	9723.25
888.017	9603.7
888.334	9549.01
888.651	9593.76
888.967	9542.01
889.284	9523.7
889.6	9506.98
889.917	9511.28
890.233	9468.34
890.55	9428.11
890.866	9418.62
891.182	9449.13
891.498	9337.49
891.815	9358.06
892.131	9324.39
892.447	9303.37
892.763	9261.34
893.079	9246.88
893.395	9181.34
893.71	9136.37
894.026	9151.51
894.342	9144.05
894.657	9052.08
894.973	9024.73
895.289	9045.98
895.604	8930.95
895.92	8959.43
896.235	8934.79
896.55	8968.24
896.865	8876.04
897.181	8865.42
897.496	8763.72
897.811	8819.54
898.126	8745.65
898.441	8749.71
898.756	8693.9
899.071	8645.54
899.386	8650.28
899.7	8631.98
900.015	8629.04
900.33	8532.09
900.644	8492.55
900.959	8513.56
901.273	8454.13
901.588	8429.27
901.902	8379.55
902.216	8309.73
902.531	8330.52
902.845	8351.98
903.159	8214.81
903.473	8215.04
903.787	8189.28
904.101	8099.79
904.415	8102.95
904.729	8112.22
905.042	8042.61
905.356	8040.35
905.67	8057.08
905.984	7983.63
906.297	7986.12
906.611	7925.1
906.924	7867.93
907.237	7919.45
907.551	7866.12
907.864	7794.26
908.177	7848.95
908.491	7772.79
908.804	7708.38
909.117	7659.12
909.43	7619.8
909.743	7614.6
910.056	7622.29
910.368	7616.64
910.681	7522.85
910.994	7539.8
911.307	7446.92
911.619	7389.3
911.932	7467.94
912.244	7341.39
912.557	7389.07
912.869	7312.46
913.181	7300.03
913.494	7260.71
913.806	7229.08
914.118	7222.52
914.43	7200.83
914.742	7180.72
915.054	7035.63
915.366	7031.79
915.678	7045.13
915.99	7043.32
916.302	6999.25
916.613	6914.73
916.925	6940.95
917.236	6910.44
917.548	6852.59
917.859	6858.69
918.171	6819.37
918.482	6765.58
918.794	6750.9
919.105	6773.27
919.416	6732.14
919.727	6724.23
920.038	6665.25
920.349	6625.7
920.66	6559.04
920.971	6573.05
921.282	6627.28
921.593	6472.94
921.903	6442.88
922.214	6456.21
922.525	6415.09
922.835	6387.06
923.146	6351.36
923.456	6363.79
923.767	6354.75
924.077	6341.19
924.387	6240.4
924.697	6195.43
925.008	6239.5
925.318	6192.04
925.628	6180.29
925.938	6151.14
926.248	6076.56
926.558	6102.33
926.867	6089.22
927.177	6003.12
927.487	5980.97
927.796	5986.62
928.106	5992.27
928.416	5928.09
928.725	5937.81
929.034	5877.47
929.344	5885.38
929.653	5865.27
929.962	5841.54
930.271	5754.54
930.581	5733.75
930.89	5716.12
931.199	5671.15
931.508	5688.1
931.817	5663.01
932.125	5695.56
932.434	5602.23
932.743	5620.3
933.051	5529.46
933.36	5527.65
933.669	5495.79
933.977	5512.74
934.286	5462.57
934.594	5444.72
934.902	5425.73
935.21	5347.54
935.519	5379.63
935.827	5341.22
936.135	5317.04
936.443	5279.97
936.751	5244.27
937.059	5251.5
937.367	5206.08
937.674	5204.95
937.982	5185.51
938.29	5147.32
938.597	5175.12
938.905	5112.97
939.213	5104.84
939.52	5091.05
939.827	5065.74
940.135	5020.32
940.442	5021.45
940.749	5039.3
941.056	4990.04
941.363	4955.69
941.67	4929.25
941.977	4931.96
942.284	4897.84
942.591	4881.57
942.898	4826.2
943.205	4788.69
943.511	4785.98
943.818	4809.7
944.125	4752.53
944.431	4764.06
944.738	4763.6
945.044	4802.92
945.35	4691.74
945.657	4638.64
945.963	4660.56
946.269	4659.2
946.575	4632.76
946.881	4558.41
947.187	4554.8
947.493	4558.19
947.799	4543.5
948.105	4524.74
948.41	4466.89
948.716	4489.03
949.022	4449.04
949.327	4446.1
949.633	4399.77
949.938	4401.35
950.244	4383.73
950.549	4368.36
950.854	4366.78
951.16	4296.5
951.465	4279.55
951.77	4302.82
952.075	4233
952.38	4244.97
952.685	4213.56
952.99	4193.22
953.294	4221.24
953.599	4190.96
953.904	4152.09
954.209	4106.9
954.513	4126.78
954.818	4080.91
955.122	4120.46
955.426	4059.22
955.731	4034.81
956.035	4047.24
956.339	4021.7
956.643	3963.4
956.948	3984.42
957.252	3978.77
957.556	3957.07
957.86	3968.14
958.163	3874.36
958.467	3904.64
958.771	3880.69
959.075	3925.43
959.378	3878.43
959.682	3827.13
959.985	3790.3
960.289	3756.17
960.592	3770.64
960.896	3771.99
961.199	3759.34
961.502	3752.78
961.805	3698.77
962.108	3686.8
962.411	3661.71
962.714	3644.08
963.017	3633.69
963.32	3670.3
963.623	3617.42
963.926	3626.01
964.228	3575.39
964.531	3569.96
964.833	3517.53
965.136	3522.05
965.438	3522.28
965.741	3503.07
966.043	3502.17
966.345	3509.63
966.648	3498.1
966.95	3435.5
967.252	3439.8
967.554	3397.54
967.856	3364.32
968.158	3376.75
968.46	3390.08
968.761	3366.35
969.063	3356.86
969.365	3333.13
969.666	3356.41
969.968	3259.01
970.269	3276.19
970.571	3274.38
970.872	3264.43
971.174	3269.41
971.475	3177.66
971.776	3182.63
972.077	3164.32
972.378	3192.57
972.679	3207.03
972.98	3139.24
973.281	3163.65
973.582	3135.85
973.883	3097.88
974.183	3070.77
974.484	3100.6
974.785	3112.8
975.085	3067.6
975.386	3068.05
975.686	3048.85
975.986	3044.78
976.287	2991.9
976.587	2962.75
976.887	2982.41
977.187	2978.57
977.487	2976.53
977.787	2963.88
978.087	2920.49
978.387	2921.39
978.687	2909.42
978.987	2878
979.286	2836.87
979.586	2871.9
979.885	2850.89
980.185	2833.03
980.484	2785.58
980.784	2767.05
981.083	2794.84
981.382	2796.65
981.682	2782.64
981.981	2779.47
982.28	2776.54
982.579	2758.91
982.878	2724.56
983.177	2715.07
983.475	2685.01
983.774	2699.25
984.073	2651.34
984.372	2641.63
984.67	2658.12
984.969	2644.79
985.267	2648.18
985.566	2626.26
985.864	2584.23
986.162	2601.4
986.461	2595.07
986.759	2602.98
987.057	2558.01
987.355	2551.46
987.653	2511.69
987.951	2531.57
988.249	2501.74
988.547	2518.24
988.844	2515.75
989.142	2504.45
989.44	2493.15
989.737	2444.57
990.035	2425.81
990.332	2422.87
990.63	2413.83
990.927	2421.97
991.224	2385.36
991.521	2400.05
991.819	2361.18
992.116	2378.36
992.413	2391.24
992.71	2335.87
993.006	2333.84
993.303	2345.81
993.6	2346.49
993.897	2324.12
994.193	2267.4
994.49	2280.73
994.787	2291.35
995.083	2247.29
995.379	2238.92
995.676	2227.17
995.972	2249.55
996.268	2229.21
996.565	2204.12
996.861	2175.42
997.157	2199.6
997.453	2162.77
997.749	2181.52
998.044	2146.5
998.34	2136.55
998.636	2118.48
998.932	2137.91
999.227	2156.67
999.523	2096.78
999.818	2077.8
1000.114	2047.97
1000.409	2060.17
1000.704	2031.7
1001	2061.98
1001.295	2033.96
1001.59	2007.74
1001.885	2011.81
1002.18	1994.86
1002.475	2006.16
1002.77	2000.51
1003.065	1952.83
1003.359	1958.71
1003.654	1976.56
1003.949	1936.79
1004.243	1900.18
1004.538	1929.55
1004.832	1944.69
1005.127	1883.91
1005.421	1911.7
1005.715	1877.58
1006.009	1872.83
1006.304	1876
1006.598	1822.89
1006.892	1850.69
1007.186	1795.55
1007.48	1837.13
1007.773	1805.04
1008.067	1833.51
1008.361	1789.22
1008.655	1798.03
1008.948	1754.19
1009.242	1747.19
1009.535	1744.93
1009.829	1741.76
1010.122	1739.05
1010.415	1763.23
1010.708	1703.12
1011.001	1727.3
1011.295	1679.62
1011.588	1679.39
1011.881	1702.22
1012.173	1658.83
1012.466	1672.84
1012.759	1657.24
1013.052	1645.49
1013.344	1636.45
1013.637	1605.27
1013.93	1603.69
1014.222	1615.21
1014.514	1592.16
1014.807	1573.63
1015.099	1564.37
1015.391	1567.98
1015.683	1553.29
1015.976	1521.88
1016.268	1542.22
1016.56	1522.11
1016.851	1521.88
1017.143	1494.31
1017.435	1513.97
1017.727	1477.81
1018.018	1489.34
1018.31	1462.67
1018.602	1443.46
1018.893	1465.84
1019.185	1456.8
1019.476	1439.17
1019.767	1430.13
1020.058	1418.15
1020.35	1424.26
1020.641	1411.38
1020.932	1421.77
1021.223	1369.57
1021.514	1386.29
1021.804	1358.27
1022.095	1361.66
1022.386	1352.62
1022.677	1333.64
1022.967	1325.05
1023.258	1298.84
1023.548	1301.1
1023.839	1292.51
1024.129	1321.21
1024.419	1284.37
1024.709	1277.82
1025	1287.54
1025.29	1287.54
1025.58	1262.68
1025.87	1231.72
1026.16	1259.06
1026.449	1229.91
1026.739	1223.81
1027.029	1233.98
1027.319	1226.97
1027.608	1202.12
1027.898	1187.88
1028.187	1190.59
1028.477	1186.07
1028.766	1144.94
1029.055	1159.86
1029.344	1173.19
1029.634	1156.92
1029.923	1141.55
1030.212	1126.19
1030.501	1139.07
1030.79	1118.05
1031.078	1079.41
1031.367	1100.2
1031.656	1088.22
1031.945	1083.93
1032.233	1071.72
1032.522	1063.36
1032.81	1070.82
1033.099	1052.74
1033.387	1066.3
1033.675	1031.05
1033.963	1021.33
1034.251	1029.46
1034.54	1012.52
1034.828	1009.35
1035.116	1024.94
1035.403	1008.67
1035.691	997.15
1035.979	1002.12
1036.267	959.18
1036.554	967.09
1036.842	965.06
1037.129	963.93
1037.417	955.12
1037.704	977.49
1037.992	950.37
1038.279	968
1038.566	931.84
1038.853	931.84
1039.14	931.84
