Data from hue_270_FLMS001491_00032.txt Node
Date: Tue Feb 07 15:57:06 GMT 2017
User: dcchb
Spectrometer: FLMS00149
Trigger mode: 0
Integration Time (sec): 2.000000E-2
Scans to average: 10
Electric dark correction enabled: true
Nonlinearity correction enabled: false
Boxcar width: 0
XAxis mode: Wavelengths
Number of Pixels in Spectrum: 2048
>>>>>Begin Spectral Data<<<<<
341.393	-15.48
341.776	-15.48
342.16	-15.48
342.543	-76.95
342.927	-83.95
343.31	-59.55
343.693	-60
344.077	-74.91
344.46	-57.06
344.843	-63.16
345.226	-59.55
345.61	-46.89
345.993	-9.15
346.376	-9.6
346.759	11.64
347.142	26.55
347.525	41.24
347.908	57.29
348.291	79.88
348.674	107.45
349.057	115.82
349.44	135.25
349.823	132.76
350.206	141.13
350.588	195.36
350.971	175.93
351.354	215.25
351.737	241.01
352.119	262.93
352.502	268.58
352.884	251.18
353.267	283.5
353.65	283.04
354.032	288.24
354.414	315.36
354.797	298.18
355.179	298.18
355.562	302.93
355.944	323.04
356.326	323.27
356.709	331.86
357.091	337.51
357.473	342.48
357.855	336.15
358.238	323.72
358.62	336.83
359.002	341.35
359.384	335.25
359.766	340.89
360.148	326.43
360.53	330.27
360.912	316.04
361.294	319.88
361.676	319.43
362.057	321.91
362.439	319.2
362.821	322.59
363.203	330.73
363.584	297.96
363.966	334.34
364.348	304.29
364.729	301.35
365.111	321.46
365.493	325.98
365.874	327.56
366.256	304.96
366.637	322.14
367.019	322.14
367.4	314
367.781	297.73
368.163	302.03
368.544	293.44
368.925	302.03
369.306	291.63
369.688	323.04
370.069	303.83
370.45	309.71
370.831	291.86
371.212	282.59
371.593	307.68
371.974	299.77
372.355	301.57
372.736	297.73
373.117	317.17
373.498	326.21
373.879	338.64
374.26	311.97
374.641	301.8
375.021	323.49
375.402	347.67
375.783	302.48
376.163	312.42
376.544	327.11
376.925	342.02
377.305	307.68
377.686	306.55
378.066	324.85
378.447	325.53
378.827	314.23
379.208	330.05
379.588	345.41
379.968	320.78
380.349	333.44
380.729	325.53
381.109	316.04
381.489	340.67
381.87	326.66
382.25	310.84
382.63	345.19
383.01	350.84
383.39	356.49
383.77	349.48
384.15	321.23
384.53	337.05
384.91	339.31
385.29	344.28
385.67	353.32
386.049	342.93
386.429	348.13
386.809	354.23
387.189	363.04
387.568	346.09
387.948	351.74
388.328	357.39
388.707	341.57
389.087	364.85
389.466	346.54
389.846	348.13
390.225	357.39
390.605	360.56
390.984	362.14
391.363	368.24
391.743	371.63
392.122	363.27
392.501	380.89
392.881	391.97
393.26	372.31
393.639	364.85
394.018	369.37
394.397	375.7
394.776	367.33
395.155	376.15
395.534	375.02
395.913	400.33
396.292	389.48
396.671	394
397.05	391.52
397.429	401.01
397.808	391.97
398.186	380.44
398.565	410.27
398.944	398.75
399.323	403.72
399.701	399.65
400.08	404.4
400.458	402.59
400.837	401.46
401.215	415.02
401.594	420.89
401.972	438.75
402.351	424.51
402.729	409.82
403.107	421.57
403.486	425.41
403.864	419.76
404.242	430.84
404.62	420.67
404.999	445.75
405.377	430.16
405.755	451.85
406.133	453.66
406.511	465.41
406.889	457.28
407.267	461.12
407.645	464.51
408.023	457.28
408.401	462.25
408.779	484.85
409.156	462.02
409.534	497.5
409.912	492.98
410.29	509.25
410.667	487.33
411.045	501.57
411.422	504.05
411.8	505.86
412.178	509.03
412.555	511.96
412.933	527.78
413.31	542.7
413.687	516.94
414.065	558.74
414.442	558.97
414.819	559.65
415.197	576.82
415.574	580.21
415.951	589.93
416.328	584.5
416.705	604.62
417.082	620.66
417.46	590.15
417.837	631.06
418.214	626.54
418.591	606.88
418.967	622.24
419.344	654.56
419.721	650.27
420.098	656.82
420.475	662.47
420.852	659.76
421.228	680.1
421.605	675.12
421.982	699.3
422.358	685.97
422.735	704.73
423.111	722.13
423.488	719.19
423.864	733.2
424.241	742.24
424.617	757.16
424.994	753.99
425.37	786.08
425.746	773.2
426.123	786.31
426.499	795.12
426.875	833.99
427.251	834.67
427.627	849.81
428.003	830.37
428.379	862.24
428.756	872.18
429.132	866.53
429.507	899.75
429.883	891.39
430.259	897.04
430.635	899.98
431.011	922.8
431.387	930.48
431.763	956.7
432.138	969.58
432.514	948.11
432.89	969.13
433.265	1022.91
433.641	1023.36
434.016	1033.53
434.392	1038.5
434.767	1068.56
435.143	1066.07
435.518	1096.13
435.894	1093.42
436.269	1106.07
436.644	1160.31
437.02	1151.04
437.395	1133.19
437.77	1202.79
438.145	1179.52
438.52	1214.77
438.895	1207.09
439.271	1234.2
439.646	1263.36
440.021	1285.73
440.395	1289.8
440.77	1266.07
441.145	1293.86
441.52	1311.72
441.895	1328.21
442.27	1325.05
442.645	1349
443.019	1356.46
443.394	1368.66
443.769	1413.64
444.143	1405.27
444.518	1383.81
444.892	1447.76
445.267	1423.58
445.641	1417.48
446.016	1434.2
446.39	1443.69
446.764	1448.44
447.139	1456.12
447.513	1472.62
447.887	1456.57
448.262	1502.45
448.636	1495.21
449.01	1512.84
449.384	1529.56
449.758	1517.59
450.132	1523.91
450.506	1564.82
450.88	1551.03
451.254	1555.55
451.628	1586.29
452.002	1602.33
452.376	1604.59
452.75	1635.1
453.123	1616.12
453.497	1658.6
453.871	1679.84
454.244	1690.01
454.618	1715.55
454.992	1726.85
455.365	1710.58
455.739	1743.8
456.112	1803
456.486	1783.79
456.859	1813.4
457.232	1801.42
457.606	1813.4
457.979	1829.44
458.352	1890.01
458.725	1872.61
459.099	1897.92
459.472	1914.19
459.845	1947.41
460.218	1969.55
460.591	1937.01
460.964	1995.54
461.337	2016.11
461.71	2031.02
462.083	2060.17
462.456	2059.95
462.829	2048.87
463.201	2081.87
463.574	2113.73
463.947	2108.76
464.32	2150.79
464.692	2171.81
465.065	2197.57
465.438	2237.57
465.81	2222.65
466.183	2271.01
466.555	2288.87
466.928	2292.03
467.3	2354.63
467.672	2327.96
468.045	2355.08
468.417	2408.41
468.789	2379.49
469.161	2400.73
469.534	2444.79
469.906	2504
470.278	2535.19
470.65	2551.01
471.022	2564.79
471.394	2630.55
471.766	2593.94
472.138	2669.65
472.51	2703.54
472.882	2736.54
473.253	2759.14
473.625	2827.61
473.997	2832.35
474.369	2837.33
474.74	2893.37
475.112	2884.33
475.484	2972.69
475.855	3016.76
476.227	3019.47
476.598	3080.71
476.97	3108.73
477.341	3190.54
477.713	3174.49
478.084	3182.63
478.455	3308.73
478.827	3326.58
479.198	3390.53
479.569	3357.76
479.94	3478.89
480.311	3524.99
480.682	3520.7
481.053	3612.9
481.424	3639.79
481.795	3656.29
482.166	3756.85
482.537	3744.2
482.908	3822.61
483.279	3833.68
483.65	3918.88
484.021	3943.06
484.391	3963.4
484.762	4012.66
485.133	4026
485.503	4098.76
485.874	4150.74
486.244	4177.4
486.615	4283.16
486.985	4251.07
487.356	4363.39
487.726	4366.78
488.097	4410.84
488.467	4470.73
488.837	4515.47
489.207	4560.67
489.578	4618.3
489.948	4668.92
490.318	4675.92
490.688	4714.57
491.058	4763.83
491.428	4809.93
491.798	4871.62
492.168	4940.77
492.538	4936.93
492.908	4997.72
493.278	4966.08
493.648	5013.54
494.017	5096.25
494.387	5138.06
494.757	5155.68
495.126	5182.8
495.496	5240.43
495.866	5242.46
496.235	5276.58
496.605	5332.18
496.974	5336.47
497.344	5343.93
497.713	5401.33
498.082	5410.82
498.452	5472.06
498.821	5495.11
499.19	5489.23
499.559	5511.61
499.928	5520.65
500.298	5606.52
500.667	5629.8
501.036	5583.69
501.405	5620.76
501.774	5582.57
502.143	5657.37
502.512	5677.93
502.88	5711.38
503.249	5735.78
503.618	5773.29
503.987	5762.67
504.356	5776.46
504.724	5825.95
505.093	5837.25
505.462	5812.39
505.83	5832.28
506.199	5912.5
506.567	5960.41
506.936	5971.26
507.304	6024.59
507.672	6003.8
508.041	5969.45
508.409	6030.01
508.777	6065.26
509.145	6104.13
509.514	6084.25
509.882	6133.96
510.25	6106.62
510.618	6137.58
510.986	6143.68
511.354	6153.85
511.722	6173.96
512.09	6239.27
512.458	6173.06
512.826	6177.8
513.193	6271.59
513.561	6221.64
513.929	6273.39
514.297	6343.22
514.664	6376.67
515.032	6316.11
515.4	6396.33
515.767	6341.19
516.135	6319.04
516.502	6331.7
516.869	6388.65
517.237	6422.54
517.604	6343.9
517.972	6391.81
518.339	6419.61
518.706	6390.45
519.073	6419.61
519.44	6441.75
519.808	6463.9
520.175	6461.19
520.542	6536.66
520.909	6494.63
521.276	6517.68
521.643	6533.05
522.009	6514.07
522.376	6612.14
522.743	6571.69
523.11	6634.74
523.477	6693.95
523.843	6656.89
524.21	6694.85
524.577	6721.29
524.943	6699.15
525.31	6773.72
525.676	6750.67
526.043	6839.26
526.409	6808.3
526.776	6827.5
527.142	6811.01
527.508	6858.24
527.874	6895.07
528.241	6879.03
528.607	6881.29
528.973	6926.94
529.339	6907.5
529.705	6971.68
530.071	6994.28
530.437	7002.41
530.803	7024.34
531.169	7010.55
531.535	7010.55
531.901	7004.9
532.267	7084.22
532.632	7104.78
532.998	7118.34
533.364	7100.72
533.73	7100.94
534.095	7119.02
534.461	7124.67
534.826	7119.93
535.192	7155.86
535.557	7149.08
535.923	7151.34
536.288	7120.15
536.653	7166.93
537.019	7159.92
537.384	7185.91
537.749	7200.38
538.114	7224.78
538.479	7185.46
538.845	7189.3
539.21	7164.22
539.575	7175.97
539.94	7217.1
540.305	7205.8
540.67	7210.54
541.034	7203.09
541.399	7248.51
541.764	7215.97
542.129	7197.44
542.494	7180.04
542.858	7251
543.223	7243.54
543.587	7315.63
543.952	7315.4
544.316	7305.23
544.681	7260.71
545.045	7269.53
545.41	7289.64
545.774	7318.79
546.138	7296.87
546.503	7272.69
546.867	7269.3
547.231	7279.02
547.595	7261.39
547.959	7324.89
548.324	7297.1
548.688	7267.94
549.052	7270.43
549.416	7305.46
549.779	7385.23
550.143	7268.85
550.507	7307.27
550.871	7358.79
551.235	7328.73
551.599	7342.74
551.962	7419.35
552.326	7384.1
552.689	7365.57
553.053	7316.3
553.417	7377.77
553.78	7417.09
554.143	7393.59
554.507	7347.49
554.87	7369.64
555.234	7478.56
555.597	7434.04
555.96	7429.97
556.323	7403.31
556.686	7481.27
557.05	7455.06
557.413	7534.15
557.776	7461.84
558.139	7499.8
558.502	7523.08
558.865	7513.36
559.228	7610.99
559.59	7559.46
559.953	7619.35
560.316	7691.44
560.679	7595.62
561.041	7643.3
561.404	7661.38
561.767	7749.06
562.129	7706.13
562.492	7743.19
562.854	7739.57
563.217	7737.76
563.579	7829.29
563.941	7820.7
564.304	7811.66
564.666	7893.46
565.028	7944.08
565.39	7919.68
565.753	7964.65
566.115	7978.21
566.477	7957.64
566.839	7971.88
567.201	8076.74
567.563	8031.31
567.925	8134.36
568.287	8057.3
568.648	8106.57
569.01	8166.68
569.372	8206.22
569.734	8236.51
570.095	8236.28
570.457	8295.94
570.819	8262.49
571.18	8286.45
571.542	8285.32
571.903	8346.79
572.265	8408.71
572.626	8410.29
572.987	8409.38
573.349	8370.97
573.71	8440.34
574.071	8513.11
574.432	8574.35
574.794	8510.62
575.155	8606.44
575.516	8555.82
575.877	8628.36
576.238	8632.2
576.599	8646.89
576.96	8667.68
577.32	8643.28
577.681	8785.64
578.042	8823.38
578.403	8823.61
578.763	8758.98
579.124	8861.35
579.485	8902.7
579.845	8920.78
580.206	8918.52
580.566	8942.48
580.927	8982.7
581.287	9003.49
581.648	8974.11
582.008	9092.53
582.368	9135.24
582.728	9048.24
583.089	9153.09
583.449	9123.94
583.809	9147.67
584.169	9128.01
584.529	9209.59
584.889	9295.24
585.249	9229.02
585.609	9274.45
585.969	9328.46
586.329	9338.62
586.688	9400.09
587.048	9317.38
587.408	9391.5
587.768	9455.68
588.127	9508.79
588.487	9419.53
588.846	9508.11
589.206	9491.84
589.565	9448
589.925	9516.7
590.284	9591.05
590.643	9622.91
591.003	9615.23
591.362	9717.82
591.721	9685.73
592.08	9688.22
592.44	9746.52
592.799	9812.51
593.158	9747.43
593.517	9725.28
593.876	9843.7
594.235	9809.8
594.593	9798.73
594.952	9808.89
595.311	9847.99
595.67	9925.28
596.029	9984.71
596.387	10003.47
596.746	9960.98
597.104	9977.03
597.463	9992.17
597.822	9985.84
598.18	9991.04
598.538	10035.1
598.897	10028.78
599.255	10052.05
599.613	10087.08
599.972	10038.95
600.33	10097.25
600.688	10045.72
601.046	10103.8
601.404	10268.77
601.762	10139.51
602.12	10257.92
602.478	10137.47
602.836	10197.81
603.194	10216.12
603.552	10212.73
603.91	10181.54
604.268	10190.58
604.625	10212.27
604.983	10295.44
605.341	10229
605.698	10284.14
606.056	10247.53
606.413	10266.96
606.771	10345.15
607.128	10311.71
607.485	10311.71
607.843	10286.62
608.2	10363.68
608.557	10415.88
608.914	10425.38
609.272	10444.81
609.629	10438.48
609.986	10473.06
610.343	10435.77
610.7	10523.68
611.057	10508.54
611.414	10479.61
611.771	10539.95
612.127	10542.43
612.484	10464.47
612.841	10534.98
613.198	10524.13
613.554	10575.2
613.911	10676.44
614.267	10604.13
614.624	10590.12
614.98	10571.59
615.337	10619.95
615.693	10627.86
616.05	10643.9
616.406	10737.68
616.762	10680.51
617.118	10694.75
617.475	10660.62
617.831	10668.08
618.187	10674.18
618.543	10787.4
618.899	10729.55
619.255	10765.48
619.611	10740.62
619.967	10759.15
620.323	10744.01
620.678	10736.55
621.034	10792.82
621.39	10753.28
621.746	10771.36
622.101	10844.12
622.457	10720.28
622.812	10835.08
623.168	10789.43
623.523	10826.27
623.879	10897.45
624.234	10749.89
624.589	10806.38
624.945	10781.98
625.3	10759.38
625.655	10813.16
626.01	10835.76
626.365	10798.7
626.72	10718.48
627.075	10767.29
627.43	10659.95
627.785	10750.79
628.14	10741.75
628.495	10892.48
628.85	10745.37
629.205	10733.16
629.559	10823.78
629.914	10755.31
630.269	10734.75
630.623	10689.55
630.978	10737.01
631.332	10752.15
631.687	10784.01
632.041	10705.14
632.396	10716.22
632.75	10693.39
633.104	10688.19
633.459	10592.83
633.813	10647.97
634.167	10677.8
634.521	10603.45
634.875	10605.26
635.229	10608.65
635.583	10552.38
635.937	10564.13
636.291	10577.69
636.645	10551.25
636.999	10546.28
637.352	10513.28
637.706	10447.75
638.06	10527.07
638.413	10464.92
638.767	10484.13
639.121	10460.63
639.474	10334.76
639.828	10374.3
640.181	10404.59
640.534	10453.4
640.888	10344.02
641.241	10283.68
641.594	10337.24
641.947	10383.57
642.301	10381.99
642.654	10374.3
643.007	10319.39
643.36	10383.12
643.713	10354.19
644.066	10349.9
644.419	10320.97
644.771	10236.91
645.124	10152.39
645.477	10169.34
645.83	10046.63
646.182	10096.12
646.535	9990.13
646.888	10018.83
647.24	10023.35
647.593	9982.68
647.945	10017.48
648.298	9997.36
648.65	9896.8
649.002	9949.46
649.355	9960.53
649.707	9967.08
650.059	10048.44
650.411	10203.23
650.763	10120.07
651.115	10183.12
651.467	10178.6
651.819	10178.15
652.171	10195.33
652.523	10193.07
652.875	10172.5
653.227	10159.17
653.578	10240.3
653.93	10233.74
654.282	10154.2
654.633	10127.53
654.985	10268.32
655.337	10204.36
655.688	10120.52
656.039	10204.82
656.391	10091.15
656.742	10137.02
657.094	10076.46
657.445	10160.07
657.796	10124.59
658.147	10189.22
658.498	10084.59
658.849	10158.04
659.2	10145.16
659.551	10143.35
659.902	10143.12
660.253	10124.59
660.604	10245.04
660.955	10063.13
661.306	10156.91
661.656	10197.58
662.007	10131.82
662.358	10246.4
662.708	10165.95
663.059	10228.54
663.409	10156.46
663.76	10174.53
664.11	10193.52
664.461	10189.45
664.811	10180.18
665.161	10221.99
665.511	10141.99
665.862	10185.83
666.212	10191.03
666.562	10204.59
666.912	10189.45
667.262	10159.85
667.612	10197.36
667.962	10234.19
668.312	10203.69
668.662	10279.16
669.011	10220.64
669.361	10197.36
669.711	10182.44
670.06	10193.29
670.41	10178.83
670.76	10148.55
671.109	10143.58
671.459	10093.86
671.808	10094.99
672.157	10065.39
672.507	10035.33
672.856	10105.61
673.205	10081.2
673.554	10118.94
673.904	10084.59
674.253	10143.35
674.602	10017.93
674.951	9972.28
675.3	9894.54
675.649	10054.99
675.998	9998.95
676.346	10047.31
676.695	9993.97
677.044	9954.65
677.393	9982.68
677.741	9996.91
678.09	9951.49
678.438	9901.32
678.787	10015.67
679.135	9913.52
679.484	9890.25
679.832	9939.29
680.181	9859.51
680.529	9895.67
680.877	9885.05
681.225	9877.37
681.573	9883.02
681.922	9837.37
682.27	9805.73
682.618	9755.56
682.966	9723.02
683.314	9777.93
683.661	9767.99
684.009	9682.12
684.357	9717.37
684.705	9652.74
685.053	9670.37
685.4	9666.98
685.748	9685.73
686.095	9624.72
686.443	9574.78
686.79	9576.36
687.138	9524.16
687.485	9560.99
687.832	9557.6
688.18	9552.4
688.527	9466.08
688.874	9504.27
689.221	9428.11
689.568	9375.46
689.915	9318.51
690.262	9321.45
690.609	9338.17
690.956	9261.56
691.303	9211.85
691.65	9189.7
691.997	9273.09
692.344	9151.06
692.69	9137.5
693.037	9074.9
693.383	8985.64
693.73	9066.54
694.077	9019.54
694.423	9012.76
694.769	8897.73
695.116	8915.36
695.462	8891.86
695.808	8902.25
696.155	8859.99
696.501	8859.09
696.847	8772.76
697.193	8745.42
697.539	8764.63
697.885	8708.13
698.231	8665.42
698.577	8646.21
698.923	8677.62
699.269	8639.21
699.614	8566.44
699.96	8502.26
700.306	8482.38
700.651	8483.73
700.997	8441.92
701.342	8430.17
701.688	8401.47
702.033	8349.72
702.379	8377.97
702.724	8326.45
703.069	8320.57
703.415	8257.97
703.76	8256.85
704.105	8231.08
704.45	8257.75
704.795	8169.62
705.14	8206.9
705.485	8176.17
705.83	8130.52
706.175	8125.55
706.52	8100.01
706.865	8037.87
707.209	7999.22
707.554	7967.36
707.899	8037.87
708.243	7970.52
708.588	7919.23
708.932	7861.83
709.277	7842.62
709.621	7836.29
709.966	7775.95
710.31	7771.21
710.654	7748.84
710.998	7787.25
711.342	7713.36
711.687	7668.16
712.031	7677.88
712.375	7741.38
712.719	7672.45
713.063	7688.72
713.407	7643.98
713.75	7634.71
714.094	7620.03
714.438	7630.19
714.782	7634.49
715.125	7595.62
715.469	7601.27
715.812	7614.6
716.156	7508.84
716.499	7542.74
716.843	7553.36
717.186	7503.42
717.53	7505.45
717.873	7542.97
718.216	7490.76
718.559	7430.88
718.902	7372.57
719.246	7485.34
719.589	7387.94
719.932	7350.88
720.275	7376.87
720.617	7358.56
720.96	7360.6
721.303	7378.22
721.646	7330.09
721.989	7344.78
722.331	7324.44
722.674	7265.46
723.016	7317.89
723.359	7322.86
723.701	7246.48
724.044	7253.93
724.386	7263.42
724.729	7325.12
725.071	7244.89
725.413	7235.63
725.755	7207.16
726.097	7201.28
726.439	7209.41
726.782	7158.34
727.124	7269.98
727.465	7199.47
727.807	7152.02
728.149	7191.34
728.491	7183.88
728.833	7160.6
729.175	7169.19
729.516	7133.94
729.858	7171
730.199	7169.64
730.541	7209.19
730.882	7137.78
731.224	7199.47
731.565	7167.61
731.906	7118.34
732.248	7133.48
732.589	7143.43
732.93	7111.56
733.271	7105.46
733.612	7142.3
733.953	7061.17
734.294	7112.24
734.635	7110.89
734.976	7180.04
735.317	7123.54
735.658	7077.44
735.999	7137.33
736.339	7142.98
736.68	7113.6
737.021	7135.97
737.361	7125.35
737.702	7120.83
738.042	7135.97
738.383	7167.16
738.723	7133.03
739.063	7170.09
739.404	7230.66
739.744	7166.93
740.084	7168.06
740.424	7204.9
740.764	7232.01
741.104	7220.04
741.444	7191.11
741.784	7222.07
742.124	7253.03
742.464	7195.4
742.804	7246.93
743.143	7192.69
743.483	7284.67
743.823	7274.95
744.162	7268.17
744.502	7334.16
744.841	7299.81
745.181	7373.03
745.52	7396.98
745.86	7441.05
746.199	7402.4
746.538	7567.6
746.877	7542.29
747.216	7524.89
747.556	7622.74
747.895	7658.22
748.234	7670.87
748.573	7736.41
748.911	7786.35
749.25	7777.54
749.589	7867.93
749.928	7905.67
750.267	8022.05
750.605	8008.72
750.944	8073.8
751.283	8087.13
751.621	8194.7
751.96	8230.63
752.298	8329.39
752.636	8404.41
752.975	8427.46
753.313	8521.24
753.651	8663.39
753.989	8666.78
754.327	8821.12
754.666	8907.9
755.004	9016.83
755.342	9182.02
755.679	9281.68
756.017	9361.9
756.355	9388.11
756.693	9529.35
757.031	9702
757.368	9769.35
757.706	9892.28
758.044	10100.86
758.381	10294.08
758.719	10290.01
759.056	10491.36
759.394	10671.92
759.731	10694.97
760.068	10919.15
760.405	10978.13
760.743	11139.48
761.08	11268.07
761.417	11420.15
761.754	11580.15
762.091	11787.83
762.428	11922.29
762.765	12019.46
763.102	12275.95
763.438	12343.07
763.775	12379.45
764.112	12614.02
764.449	12805.88
764.785	13014.23
765.122	13043.39
765.458	13117.28
765.795	13340.78
766.131	13553.2
766.467	13583.03
766.804	13772.41
767.14	13893.08
767.476	14022.57
767.812	14060.08
768.148	14241.32
768.485	14328.32
768.821	14448.09
769.157	14577.36
769.492	14677.24
769.828	14936.22
770.164	14914.07
770.5	15016.67
770.836	15148.64
771.171	15167.85
771.507	15319.03
771.842	15411.69
772.178	15534.85
772.513	15590.66
772.849	15685.58
773.184	15749.08
773.519	15779.59
773.855	15821.39
774.19	16005.12
774.525	15891.22
774.86	16094.83
775.195	16184.32
775.53	16256.63
775.865	16286.01
776.2	16270.19
776.535	16366.91
776.87	16431.77
777.205	16428.61
777.539	16536.18
777.874	16553.35
778.209	16538.44
778.543	16570.3
778.878	16522.16
779.212	16635.16
779.547	16573.24
779.881	16641.48
780.215	16514.03
780.55	16808.71
780.884	16812.33
781.218	16758.77
781.552	16765.55
781.886	16726.9
782.22	16720.13
782.554	16676.51
782.888	16651.2
783.222	16724.19
783.556	16684.87
783.889	16783.4
784.223	16584.31
784.557	16667.47
784.89	16713.12
785.224	16599
785.557	16625.21
785.891	16651.65
786.224	16677.19
786.558	16643.29
786.891	16533.69
787.224	16552.45
787.557	16586.8
787.891	16597.64
788.224	16552.9
788.557	16542.73
788.89	16620.47
789.223	16509.51
789.556	16425.67
789.888	16446.69
790.221	16396.29
790.554	16186.81
790.887	16325.79
791.219	16293.7
791.552	16315.39
791.884	16245.79
792.217	16319.46
792.549	16227.26
792.882	16160.82
793.214	16112.68
793.546	16158.78
793.879	16045.34
794.211	16121.72
794.543	16144.77
794.875	16139.8
795.207	16156.3
795.539	16055.28
795.871	16077.2
796.203	15905.91
796.535	15848.74
796.867	15819.81
797.198	15916.3
797.53	15869.75
797.862	15673.15
798.193	15749.53
798.525	15681.51
798.856	15735.97
799.188	15537.78
799.519	15541.85
799.85	15480.38
800.182	15557.67
800.513	15464.34
800.844	15468.86
801.175	15463.89
801.506	15412.59
801.837	15431.57
802.168	15346.6
802.499	15328.75
802.83	15238.58
803.161	15218.02
803.491	15244.01
803.822	15225.93
804.153	15136.21
804.483	15027.51
804.814	14977.57
805.145	15004.69
805.475	14993.62
805.805	14921.08
806.136	14916.33
806.466	14937.8
806.796	14863.45
807.126	14726.28
807.457	14708.88
807.787	14729.9
808.117	14718.14
808.447	14648.09
808.777	14712.27
809.107	14706.39
809.436	14681.08
809.766	14553.18
810.096	14492.39
810.426	14576.68
810.755	14591.14
811.085	14510.01
811.414	14448.09
811.744	14427.3
812.073	14364.71
812.403	14372.16
812.732	14275.9
813.061	14367.19
813.39	14214.2
813.719	14209.68
814.049	14258.95
814.378	14153.64
814.707	14162.68
815.036	14052.4
815.365	14071.61
815.693	14004.04
816.022	14032.29
816.351	13984.83
816.68	13957.71
817.008	13879.07
817.337	13758.62
817.665	13817.6
817.994	13835.68
818.322	13752.97
818.651	13799.3
818.979	13689.92
819.307	13773.99
819.636	13685.18
819.964	13664.84
820.292	13778.96
820.62	13665.06
820.948	13699.41
821.276	13700.32
821.604	13679.3
821.932	13626.87
822.259	13706.87
822.587	13635.23
822.915	13582.13
823.243	13714.78
823.57	13641.79
823.898	13659.64
824.225	13628.68
824.553	13593.65
824.88	13664.84
825.207	13649.92
825.535	13650.6
825.862	13775.34
826.189	13666.42
826.516	13665.52
826.843	13751.84
827.17	13721.11
827.497	13726.31
827.824	13678.62
828.151	13781.67
828.478	13736.7
828.805	13731.05
829.131	13849.01
829.458	13700.77
829.785	13661.45
830.111	13752.07
830.438	13661.45
830.764	13709.81
831.09	13737.38
831.417	13658.74
831.743	13754.55
832.069	13674.56
832.395	13592.07
832.722	13639.08
833.048	13636.14
833.374	13629.36
833.7	13561.79
834.026	13663.03
834.351	13614.67
834.677	13591.85
835.003	13529.7
835.329	13632.75
835.654	13503.94
835.98	13508.91
836.306	13463.71
836.631	13434.56
836.956	13447.44
837.282	13411.96
837.607	13413.55
837.932	13435.24
838.258	13461.68
838.583	13336.26
838.908	13319.08
839.233	13255.81
839.558	13269.59
839.883	13278.18
840.208	13230.95
840.533	13193.21
840.858	13207
841.182	13183.72
841.507	13183.27
841.832	13102.37
842.156	13119.32
842.481	13111.18
842.805	13124.51
843.13	13106.66
843.454	12989.15
843.778	12972.65
844.103	12909.15
844.427	12918.42
844.751	12883.16
845.075	12890.62
845.399	12849.94
845.723	12757.74
846.047	12765.88
846.371	12660.8
846.695	12710.06
847.019	12651.31
847.343	12461.71
847.666	12488.37
847.99	12445.21
848.313	12417.19
848.637	12369.96
848.96	12251.32
849.284	12284.31
849.607	12207.02
849.931	12174.26
850.254	12082.96
850.577	12114.6
850.9	11942.85
851.223	11924.32
851.546	11880.25
851.869	11762.06
852.192	11887.26
852.515	11743.31
852.838	11687.72
853.161	11684.33
853.483	11597.77
853.806	11570.2
854.129	11637.55
854.451	11540.37
854.774	11502.86
855.096	11438.91
855.419	11489.3
855.741	11435.74
856.063	11383.77
856.385	11338.12
856.708	11336.54
857.03	11231.68
857.352	11232.59
857.674	11154.85
857.996	11206.15
858.318	11150.1
858.64	11027.39
858.961	11021.29
859.283	11026.72
859.605	10957.11
859.926	11002.99
860.248	10949.88
860.57	10864.01
860.891	10894.29
861.212	10917.11
861.534	10819.26
861.855	10746.95
862.176	10786.5
862.498	10764.12
862.819	10824.91
863.14	10708.98
863.461	10699.27
863.782	10734.07
864.103	10752.6
864.424	10671.24
864.745	10709.44
865.065	10598.03
865.386	10553.28
865.707	10498.82
866.027	10620.4
866.348	10560.74
866.668	10556.45
866.989	10558.71
867.309	10463.57
867.63	10476.67
867.95	10438.48
868.27	10358.03
868.59	10419.27
868.91	10372.27
869.23	10412.04
869.55	10290.01
869.87	10330.01
870.19	10380.63
870.51	10386.05
870.83	10370.91
871.15	10316.45
871.469	10296.79
871.789	10204.36
872.109	10264.25
872.428	10145.83
872.748	10270.58
873.067	10212.5
873.386	10206.62
873.706	10177.7
874.025	10146.06
874.344	10082.11
874.663	10130.24
874.982	10068.55
875.301	10095.44
875.62	10000.3
875.939	10005.05
876.258	10053.86
876.577	9999.4
876.896	10012.28
877.214	10021.32
877.533	10001.88
877.852	9843.24
878.17	9935.67
878.489	9972.05
878.807	9963.01
879.125	9897.03
879.444	9854.77
879.762	9833.75
880.08	9814.32
880.398	9756.92
880.716	9861.77
881.034	9803.7
881.352	9726.18
881.67	9732.29
881.988	9772.74
882.306	9711.27
882.624	9644.38
882.941	9699.52
883.259	9671.72
883.577	9571.84
883.894	9621.55
884.212	9586.75
884.529	9553.53
884.846	9546.08
885.164	9506.08
885.481	9431.28
885.798	9462.46
886.115	9408
886.432	9348.79
886.75	9363.48
887.067	9356.7
887.383	9348.79
887.7	9261.34
888.017	9220.89
888.334	9233.77
888.651	9250.27
888.967	9210.94
889.284	9198.52
889.6	9139.08
889.917	9081.46
890.233	9034.68
890.55	9055.92
890.866	9055.92
891.182	9043.04
891.498	8984.51
891.815	8987.9
892.131	8845.3
892.447	8939.76
892.763	8888.01
893.079	8923.72
893.395	8848.92
893.71	8813.44
894.026	8822.25
894.342	8777.74
894.657	8739.77
894.973	8653.22
895.289	8634.24
895.604	8654.57
895.92	8591.07
896.235	8537.29
896.55	8576.61
896.865	8566.89
897.181	8499.55
897.496	8478.99
897.811	8464.75
898.126	8427.69
898.441	8412.55
898.756	8381.59
899.071	8315.15
899.386	8330.29
899.7	8209.16
900.015	8152.44
900.33	8128.26
900.644	8163.06
900.959	8189.05
901.273	8089.62
901.588	8101.14
901.902	8000.35
902.216	8048.94
902.531	7975.72
902.845	8002.84
903.159	7931.43
903.473	7929.62
903.787	7871.32
904.101	7831.55
904.415	7780.25
904.729	7770.76
905.042	7726.46
905.356	7731.44
905.67	7654.15
905.984	7668.16
906.297	7646.01
906.611	7545
906.924	7569.18
907.237	7571.89
907.551	7485.11
907.864	7469.3
908.177	7455.51
908.491	7422.74
908.804	7400.37
909.117	7329.64
909.43	7337.1
909.743	7241.73
910.056	7260.04
910.368	7233.37
910.681	7141.62
910.994	7161.51
911.307	7172.13
911.619	7086.25
911.932	7112.02
912.244	7040.38
912.557	7051.68
912.869	6977.56
913.181	6957.22
913.494	6897.33
913.806	6910.67
914.118	6942.76
914.43	6819.59
914.742	6862.76
915.054	6786.6
915.366	6787.73
915.678	6738.24
915.99	6728.75
916.302	6690.33
916.613	6638.58
916.925	6651.24
917.236	6599.49
917.548	6613.5
917.859	6590.22
918.171	6571.92
918.482	6553.84
918.794	6448.53
919.105	6383.45
919.416	6387.97
919.727	6438.14
920.038	6418.93
920.349	6339.61
920.66	6336.67
920.971	6338.93
921.282	6295.09
921.593	6223.23
921.903	6208.54
922.214	6199.5
922.525	6172.83
922.835	6220.97
923.146	6147.97
923.456	6099.61
923.767	6090.57
924.077	6066.39
924.387	6045.83
924.697	5999.5
925.008	5948.43
925.318	6000.86
925.628	5922.44
925.938	5946.17
926.248	5854.87
926.558	5825.04
926.867	5854.65
927.177	5792.96
927.487	5826.17
927.796	5746.85
928.106	5769.23
928.416	5701.66
928.725	5731.26
929.034	5639.06
929.344	5640.42
929.653	5640.42
929.962	5598.61
930.271	5600.87
930.581	5550.93
930.89	5584.82
931.199	5480.65
931.508	5493.98
931.817	5495.56
932.125	5500.31
932.434	5417.15
932.743	5426.41
933.051	5385.73
933.36	5335.34
933.669	5328.56
933.977	5280.43
934.286	5263.03
934.594	5296.92
934.902	5272.97
935.21	5230.94
935.519	5239.07
935.827	5171.05
936.135	5150.03
936.443	5106.87
936.751	5143.25
937.059	5102.13
937.367	5094.22
937.674	5044.27
937.982	5050.83
938.29	5017.83
938.597	5037.95
938.905	4937.16
939.213	4917.5
939.52	4871.4
939.827	4905.07
940.135	4875.92
940.442	4880.21
940.749	4803.15
941.056	4891.28
941.363	4799.08
941.67	4803.38
941.977	4769.25
942.284	4786.88
942.591	4698.97
942.898	4716.83
943.205	4727.9
943.511	4681.8
943.818	4627.79
944.125	4616.49
944.431	4577.62
944.738	4590.5
945.044	4561.35
945.35	4529.26
945.657	4490.62
945.963	4508.47
946.269	4462.59
946.575	4478.64
946.881	4454.23
947.187	4431.41
947.493	4420.11
947.799	4398.64
948.105	4351.41
948.41	4376.72
948.716	4329.04
949.022	4282.94
949.327	4280.68
949.633	4269.38
949.938	4294.46
950.244	4225.09
950.549	4257.63
950.854	4198.19
951.16	4185.09
951.465	4134.02
951.77	4132.43
952.075	4145.54
952.38	4150.06
952.685	4093.56
952.99	4058.54
953.294	4070.74
953.599	4004.08
953.904	3999.1
954.209	4005.21
954.513	4013.57
954.818	3989.61
955.122	3981.48
955.426	3929.95
955.731	3926.11
956.035	3884.08
956.339	3863.51
956.643	3886.79
956.948	3852.67
957.252	3814.7
957.556	3812.44
957.86	3804.53
958.163	3812.22
958.467	3739.9
958.771	3762.5
959.075	3712.78
959.378	3747.36
959.682	3696.96
959.985	3692.9
960.289	3712.11
960.592	3677.98
960.896	3656.06
961.199	3692.67
961.502	3658.32
961.805	3626.91
962.108	3566.57
962.411	3579
962.714	3572.22
963.017	3562.51
963.32	3546.69
963.623	3470.08
963.926	3540.36
964.228	3460.59
964.531	3489.06
964.833	3503.52
965.136	3441.15
965.438	3382.17
965.741	3429.63
966.043	3381.49
966.345	3377.2
966.648	3380.36
966.95	3339.23
967.252	3374.04
967.554	3352.12
967.856	3290.87
968.158	3301.95
968.46	3251.33
968.761	3240.25
969.063	3229.18
969.365	3223.53
969.666	3237.54
969.968	3209.29
970.269	3221.72
970.571	3181.5
970.872	3194.38
971.174	3134.95
971.475	3185.79
971.776	3122.74
972.077	3115.29
972.378	3133.36
972.679	3102.4
972.98	3051.33
973.281	3056.76
973.582	3046.59
973.883	3038.68
974.183	3025.8
974.484	3005.23
974.785	3000.03
975.085	2988.96
975.386	2989.86
975.686	2989.41
975.986	2953.03
976.287	2942.41
976.587	2952.35
976.887	2890.88
977.187	2918.91
977.487	2886.36
977.787	2870.09
978.087	2868.96
978.387	2803.88
978.687	2817.89
978.987	2816.76
979.286	2780.15
979.586	2825.58
979.885	2743.77
980.185	2773.6
980.484	2811.34
980.784	2711.68
981.083	2727.05
981.382	2724.34
981.682	2713.94
981.981	2680.72
982.28	2652.92
982.579	2699.93
982.878	2645.02
983.177	2625.58
983.475	2666.48
983.774	2612.93
984.073	2630.1
984.372	2601.17
984.67	2616.32
984.969	2594.17
985.267	2569.76
985.566	2542.65
985.864	2538.13
986.162	2522.53
986.461	2544.45
986.759	2484.79
987.057	2448.18
987.355	2452.48
987.653	2460.16
987.951	2447.28
988.249	2460.16
988.547	2455.87
988.844	2422.65
989.142	2451.57
989.44	2424
989.737	2371.35
990.035	2360.28
990.332	2399.15
990.63	2376.55
990.927	2349.66
991.224	2353.72
991.521	2366.38
991.819	2313.05
992.116	2333.16
992.413	2282.99
992.71	2292.26
993.006	2262.2
993.303	2265.82
993.6	2277.34
993.897	2257.91
994.193	2233.05
994.49	2271.69
994.787	2210.68
995.083	2187.85
995.379	2199.15
995.676	2181.75
995.972	2174.29
996.268	2201.86
996.565	2104.46
996.861	2138.81
997.157	2128.19
997.453	2106.05
997.749	2124.12
998.044	2072.15
998.34	2099.94
998.636	2059.04
998.932	2072.6
999.227	2066.95
999.523	2058.82
999.818	2019.95
1000.114	1983.34
1000.409	2007.52
1000.704	1986.73
1001	2035.54
1001.295	1972.72
1001.59	1968.87
1001.885	1934.3
1002.18	1951.25
1002.475	1930.46
1002.77	1940.85
1003.065	1925.94
1003.359	1896.33
1003.654	1881.65
1003.949	1895.88
1004.243	1878.71
1004.538	1848.65
1004.832	1852.04
1005.127	1851.36
1005.421	1860.86
1005.715	1799.84
1006.009	1816.79
1006.304	1819.05
1006.598	1777.69
1006.892	1801.87
1007.186	1756.23
1007.48	1731.37
1007.773	1735.66
1008.067	1734.98
1008.361	1705.38
1008.655	1748.09
1008.948	1714.42
1009.242	1697.92
1009.535	1690.46
1009.829	1689.79
1010.122	1676.45
1010.415	1660.86
1010.708	1674.65
1011.001	1658.37
1011.295	1620.86
1011.588	1641.88
1011.881	1607.75
1012.173	1607.08
1012.466	1588.09
1012.759	1588.09
1013.052	1596.91
1013.344	1589.22
1013.637	1567.53
1013.93	1532.95
1014.222	1556.46
1014.514	1507.42
1014.807	1526.63
1015.099	1505.84
1015.391	1513.97
1015.683	1506.29
1015.976	1486.85
1016.268	1466.97
1016.56	1480.98
1016.851	1459.74
1017.143	1472.39
1017.435	1449.57
1017.727	1426.74
1018.018	1431.26
1018.31	1399.85
1018.602	1414.09
1018.893	1389.91
1019.185	1400.08
1019.476	1395.1
1019.767	1388.33
1020.058	1353.07
1020.35	1297.03
1020.641	1353.98
1020.932	1322.11
1021.223	1338.38
1021.514	1316.69
1021.804	1310.14
1022.095	1303.58
1022.386	1286.41
1022.677	1286.41
1022.967	1285.05
1023.258	1267.42
1023.548	1287.76
1023.839	1259.06
1024.129	1226.75
1024.419	1244.83
1024.709	1218.61
1025	1234.88
1025.29	1215.22
1025.58	1218.39
1025.87	1170.7
1026.16	1160.53
1026.449	1189.69
1026.739	1158.5
1027.029	1196.92
1027.319	1176.35
1027.608	1146.07
1027.898	1159.18
1028.187	1154.66
1028.477	1137.26
1028.766	1125.06
1029.055	1118.5
1029.344	1114.21
1029.634	1106.52
1029.923	1100.65
1030.212	1096.81
1030.501	1087.09
1030.79	1059.97
1031.078	1076.02
1031.367	1067.2
1031.656	1040.31
1031.945	1062.91
1032.233	1040.54
1032.522	1037.37
1032.81	1046.64
1033.099	1040.54
1033.387	1001.89
1033.675	1012.74
1033.963	991.95
1034.251	1010.03
1034.54	1007.54
1034.828	990.14
1035.116	986.08
1035.403	993.08
1035.691	975
1035.979	947.88
1036.267	960.31
1036.554	953.53
1036.842	947.88
1037.129	924.38
1037.417	933.87
1037.704	909.47
1037.992	935.46
1038.279	916.25
1038.566	908.11
1038.853	908.11
1039.14	908.11
