Data from hue_330_FLMS001491_43.txt Node
Date: Mon Feb 06 15:45:26 GMT 2017
User: dcchb
Spectrometer: FLMS00149
Trigger mode: 0
Integration Time (sec): 2.000000E-2
Scans to average: 10
Electric dark correction enabled: true
Nonlinearity correction enabled: false
Boxcar width: 0
XAxis mode: Wavelengths
Number of Pixels in Spectrum: 2048
>>>>>Begin Spectral Data<<<<<
341.393	-24.32
341.776	-24.32
342.16	-24.32
342.543	-62.96
342.927	-69.97
343.31	-67.03
343.693	-80.59
344.077	-70.87
344.46	-54.6
344.843	-59.35
345.226	-44.89
345.61	-26.81
345.993	-7.15
346.376	3.7
346.759	24.49
347.142	20.88
347.525	36.92
347.908	62.23
348.291	69.69
348.674	92.51
349.057	100.87
349.44	141.78
349.823	144.49
350.206	165.73
350.588	206.86
350.971	211.38
351.354	227.65
351.737	231.04
352.119	253.64
352.502	251.38
352.884	283.69
353.267	289.34
353.65	273.75
354.032	289.57
354.414	298.61
354.797	306.74
355.179	332.05
355.562	314.65
355.944	319.85
356.326	320.3
356.709	342.67
357.091	335.44
357.473	337.03
357.855	344.26
358.238	346.29
358.62	343.35
359.002	341.32
359.384	345.84
359.766	344.03
360.148	336.12
360.53	333.41
360.912	316.23
361.294	325.27
361.676	331.38
362.057	353.3
362.439	317.36
362.821	329.34
363.203	312.39
363.584	317.36
363.966	338.38
364.348	319.17
364.729	334.09
365.111	321.43
365.493	317.59
365.874	327.31
366.256	326.18
366.637	304.26
367.019	318.72
367.4	308.55
367.781	324.6
368.163	310.81
368.544	307.2
368.925	305.39
369.306	332.96
369.688	309.68
370.069	323.01
370.45	304.71
370.831	322.11
371.212	311.26
371.593	295.9
371.974	300.64
372.355	316.01
372.736	303.81
373.117	312.39
373.498	316.23
373.879	315.78
374.26	303.35
374.641	294.99
375.021	307.2
375.402	317.82
375.783	311.49
376.163	330.02
376.544	315.78
376.925	329.12
377.305	318.04
377.686	323.69
378.066	326.18
378.447	321.88
378.827	316.69
379.208	313.97
379.588	310.59
379.968	341.09
380.349	343.8
380.729	325.27
381.109	331.15
381.489	312.84
381.87	338.38
382.25	346.97
382.63	343.58
383.01	334.99
383.39	344.48
383.77	332.73
384.15	338.83
384.53	340.64
384.91	346.97
385.29	336.8
385.67	344.71
386.049	339.28
386.429	339.28
386.809	345.61
387.189	342.45
387.568	330.02
387.948	358.95
388.328	329.57
388.707	354.43
389.087	351.94
389.466	365.27
389.846	359.17
390.225	359.85
390.605	367.98
390.984	373.41
391.363	351.04
391.743	363.69
392.122	373.86
392.501	371.83
392.881	384.48
393.26	370.02
393.639	378.61
394.018	386.52
394.397	360.75
394.776	376.8
395.155	387.42
395.534	372.05
395.913	392.62
396.292	373.18
396.671	370.02
397.05	381.09
397.429	375.89
397.808	376.12
398.186	385.84
398.565	384.48
398.944	378.38
399.323	385.84
399.701	397.59
400.08	373.63
400.458	381.54
400.837	409.57
401.215	405.05
401.594	407.98
401.972	410.47
402.351	398.49
402.729	412.05
403.107	412.28
403.486	404.59
403.864	403.69
404.242	407.76
404.62	418.38
404.999	432.84
405.377	412.96
405.755	443.01
406.133	447.3
406.511	436.91
406.889	422.22
407.267	437.59
407.645	420.41
408.023	447.53
408.401	431.03
408.779	459.06
409.156	469
409.534	459.06
409.912	461.32
410.29	449.34
410.667	454.99
411.045	478.72
411.422	491.82
411.8	466.29
412.178	492.05
412.555	494.99
412.933	511.48
413.31	504.7
413.687	513.74
414.065	508.32
414.442	517.59
414.819	516.68
415.197	550.13
415.574	511.48
415.951	522.78
416.328	547.41
416.705	547.64
417.082	542.67
417.46	558.49
417.837	558.26
418.214	583.57
418.591	564.36
418.967	594.87
419.344	581.99
419.721	591.26
420.098	593.06
420.475	565.72
420.852	589.9
421.228	594.42
421.605	608.88
421.982	618.15
422.358	640.97
422.735	634.42
423.111	617.24
423.488	661.54
423.864	695.89
424.241	673.29
424.617	681.65
424.994	667.64
425.37	674.87
425.746	650.69
426.123	681.87
426.499	677.81
426.875	704.7
427.251	706.51
427.627	707.18
428.003	730.69
428.379	716.9
428.756	727.3
429.132	748.99
429.507	734.98
429.883	752.38
430.259	769.1
430.635	800.06
431.011	778.14
431.387	766.17
431.763	812.04
432.138	803.68
432.514	811.36
432.89	823.34
433.265	814.75
433.641	816.11
434.016	841.87
434.392	836.45
434.767	825.6
435.143	830.57
435.518	873.51
435.894	876.45
436.269	915.99
436.644	895.43
437.02	883.45
437.395	887.07
437.77	924.35
438.145	917.35
438.52	931.81
438.895	951.47
439.271	935.65
439.646	961.19
440.021	960.29
440.395	991.47
440.77	977.23
441.145	988.08
441.52	1005.93
441.895	984.69
442.27	1010.23
442.645	993.5
443.019	1008.87
443.394	1007.06
443.769	1021.53
444.143	993.73
444.518	1021.07
444.892	994.18
445.267	1024.92
445.641	1040.06
446.016	1064.01
446.39	1066.27
446.764	1046.84
447.139	1062.66
447.513	1049.77
447.887	1052.26
448.262	1086.84
448.636	1057.01
449.01	1105.37
449.384	1108.98
449.758	1077.12
450.132	1093.62
450.506	1123.67
450.88	1118.02
451.254	1130.68
451.628	1114.18
452.002	1111.02
452.376	1132.03
452.75	1125.03
453.123	1143.78
453.497	1144.46
453.871	1163.44
454.244	1205.7
454.618	1196.21
454.992	1181.07
455.365	1193.73
455.739	1231.92
456.112	1211.35
456.486	1204.35
456.859	1226.72
457.232	1233.27
457.606	1236.66
457.979	1250.9
458.352	1281.41
458.725	1292.48
459.099	1310.11
459.472	1312.59
459.845	1302.65
460.218	1316.43
460.591	1322.54
460.964	1294.06
461.337	1355.3
461.71	1365.7
462.083	1385.36
462.456	1374.96
462.829	1384.68
463.201	1432.82
463.574	1380.16
463.947	1410.22
464.32	1451.35
464.692	1440.27
465.065	1454.28
465.438	1477.33
465.81	1466.03
466.183	1493.15
466.555	1517.56
466.928	1528.86
467.3	1524.56
467.672	1543.1
468.045	1567.28
468.417	1560.27
468.789	1619.03
469.161	1591
469.534	1637.56
469.906	1653.6
470.278	1680.04
470.65	1669.87
471.022	1708.06
471.394	1734.28
471.766	1715.97
472.138	1730.43
472.51	1787.61
472.882	1789.42
473.253	1811.79
473.625	1838.45
473.997	1852.24
474.369	1848.17
474.74	1895.63
475.112	1903.76
475.484	1906.25
475.855	1913.93
476.227	1969.75
476.598	1981.5
476.97	2023.99
477.341	2061.27
477.713	2064.21
478.084	2088.39
478.455	2141.5
478.827	2144.44
479.198	2196.86
479.569	2218.33
479.94	2244.09
480.311	2244.32
480.682	2297.88
481.053	2337.42
481.424	2385.11
481.795	2405.22
482.166	2409.96
482.537	2421.94
482.908	2501.49
483.279	2517.53
483.65	2565.22
484.021	2604.08
484.391	2619.68
484.762	2621.71
485.133	2635.27
485.503	2653.35
485.874	2751.2
486.244	2760.92
486.615	2747.81
486.985	2804.76
487.356	2871.42
487.726	2849.28
488.097	2873.91
488.467	2968.59
488.837	2966.33
489.207	3009.05
489.578	3041.13
489.948	3037.07
490.318	3134.69
490.688	3076.84
491.058	3167.46
491.428	3144.86
491.798	3239.77
492.168	3275.03
492.538	3273.67
492.908	3288.59
493.278	3351.41
493.648	3330.84
494.017	3395.02
494.387	3409.71
494.757	3440.9
495.126	3483.16
495.496	3450.62
495.866	3487.22
496.235	3524.96
496.605	3540.78
496.974	3517.28
497.344	3577.39
497.713	3590.72
498.082	3560.44
498.452	3653.77
498.821	3665.98
499.19	3691.06
499.559	3678.41
499.928	3685.19
500.298	3747.78
500.667	3704.85
501.036	3752.3
501.405	3803.37
501.774	3775.58
502.143	3822.13
502.512	3835.46
502.88	3856.93
503.249	3889.25
503.618	3890.83
503.987	3926.99
504.356	3927.89
504.724	3930.15
505.093	3946.42
505.462	3917.27
505.83	4014.67
506.199	4012.41
506.567	3989.13
506.936	4018.74
507.304	4026.65
507.672	4089.69
508.041	4037.72
508.409	4083.37
508.777	4135.8
509.145	4150.26
509.514	4157.72
509.882	4171.5
510.25	4125.85
510.618	4187.55
510.986	4208.79
511.354	4192.29
511.722	4228.9
512.09	4271.61
512.458	4276.36
512.826	4286.98
513.193	4317.26
513.561	4291.72
513.929	4251.72
514.297	4338.5
514.664	4350.7
515.032	4377.82
515.4	4387.99
515.767	4375.34
516.135	4421.66
516.502	4393.42
516.869	4497.59
517.237	4488.55
517.604	4408.78
517.972	4441.55
518.339	4493.53
518.706	4474.09
519.073	4503.7
519.44	4509.8
519.808	4547.54
520.175	4587.53
520.542	4570.36
520.909	4594.54
521.276	4563.58
521.643	4615.56
522.009	4661.66
522.376	4623.24
522.743	4685.39
523.11	4744.37
523.477	4714.31
523.843	4777.59
524.21	4752.5
524.577	4816.68
524.943	4791.6
525.31	4850.13
525.676	4875.44
526.043	4883.12
526.409	4906.62
526.776	4937.58
527.142	4952.5
527.508	4989.33
527.874	5022.55
528.241	4983.23
528.607	5058.93
528.973	5101.42
529.339	5044.92
529.705	5123.11
530.071	5197.01
530.437	5180.51
530.803	5204.24
531.169	5228.87
531.535	5202.43
531.901	5217.57
532.267	5199.5
532.632	5292.37
532.998	5311.58
533.364	5347.29
533.73	5388.42
534.095	5412.15
534.461	5383.9
534.826	5425.25
535.192	5434.29
535.557	5458.47
535.923	5486.95
536.288	5460.73
536.653	5574.18
537.019	5521.52
537.384	5599.71
537.749	5605.36
538.114	5629.99
538.479	5645.13
538.845	5667.05
539.21	5693.72
539.575	5662.08
539.94	5694.62
540.305	5756.77
540.67	5776.2
541.034	5749.54
541.399	5777.56
541.764	5847.39
542.129	5810.33
542.494	5892.81
542.858	5882.19
543.223	5883.77
543.587	5976.42
543.952	5977.1
544.316	5946.37
544.681	5940.27
545.045	6092.81
545.41	6111.34
545.774	6088.96
546.138	6065.01
546.503	6081.05
546.867	6132.13
547.231	6220.03
547.595	6187.27
547.959	6231.79
548.324	6284.44
548.688	6234.27
549.052	6280.82
549.416	6292.8
549.779	6347.26
550.143	6335.06
550.507	6382.29
550.871	6355.17
551.235	6396.07
551.599	6425.68
551.962	6388.62
552.326	6440.37
552.689	6510.2
553.053	6440.14
553.417	6515.62
553.78	6553.13
554.143	6575.96
554.507	6632.68
554.87	6609.85
555.234	6733.92
555.597	6590.65
555.96	6635.62
556.323	6662.73
556.686	6674.26
557.05	6702.06
557.413	6725.56
557.776	6714.03
558.139	6797.65
558.502	6809.85
558.865	6821.37
559.228	6872.22
559.59	6886.23
559.953	6890.75
560.316	6930.98
560.679	6956.74
561.041	6998.77
561.404	7015.72
561.767	6988.83
562.129	7006.68
562.492	7069.28
562.854	7079.9
563.217	7092.55
563.579	7098.2
563.941	7175.94
564.304	7171.65
564.666	7174.13
565.028	7240.12
565.39	7261.36
565.753	7273.11
566.115	7262.94
566.477	7288.25
566.839	7301.36
567.201	7387.91
567.563	7361.25
567.925	7420.23
568.287	7413.22
568.648	7412.77
569.01	7441.25
569.372	7569.83
569.734	7528.02
570.095	7568.47
570.457	7595.59
570.819	7655.7
571.18	7712.42
571.542	7715.14
571.903	7752.42
572.265	7784.74
572.626	7858.41
572.987	7873.32
573.349	7869.48
573.71	7971.85
574.071	8041.23
574.432	8096.37
574.794	8211.62
575.155	8203.94
575.516	8226.99
575.877	8362.8
576.238	8365.06
576.599	8431.5
576.96	8460.2
577.32	8545.17
577.681	8586.07
578.042	8727.31
578.403	8737.48
578.763	8852.96
579.124	8971.83
579.485	9027.87
579.845	9217.47
580.206	9244.14
580.566	9372.49
580.927	9423.34
581.287	9574.75
581.648	9686.61
582.008	9837.79
582.368	9992.14
582.728	10109.42
583.089	10279.14
583.449	10382.64
583.809	10625.12
584.169	10737.66
584.529	10819.01
584.889	11126.35
585.249	11255.16
585.609	11437.52
585.969	11640.91
586.329	11818.31
586.688	12092.65
587.048	12196.37
587.408	12470.04
587.768	12639.98
588.127	12839.75
588.487	13105.05
588.846	13376.23
589.206	13542.55
589.565	13799.5
589.925	14147.51
590.284	14305.47
590.643	14507.95
591.003	14867.72
591.362	15137.31
591.721	15332.11
592.08	15655.49
592.44	15949.72
592.799	16246.89
593.158	16437.17
593.517	16732.07
593.876	17126.64
594.235	17323.92
594.593	17637.36
594.952	17932.27
595.311	18175.43
595.67	18409.09
596.029	18875.29
596.387	19190.54
596.746	19399.8
597.104	19723.41
597.463	19854.25
597.822	20294.92
598.18	20539.66
598.538	20855.36
598.897	21096.25
599.255	21266.64
599.613	21716.35
599.972	21867.53
600.33	22303.45
600.688	22447.4
601.046	22792.48
601.404	23213.49
601.762	23432.91
602.12	23778.44
602.478	24089.39
602.836	24287.58
603.194	24442.38
603.552	24803.27
603.91	24936.15
604.268	25266.77
604.625	25518.96
604.983	25789.01
605.341	26049.34
605.698	26311.03
606.056	26627.63
606.413	26779.49
606.771	27174.06
607.128	27374.51
607.485	27404.56
607.843	27703.99
608.2	28054.04
608.557	28320.02
608.914	28411.77
609.272	28734.02
609.629	29014.69
609.986	29091.98
610.343	29200.22
610.7	29674.33
611.057	29730.83
611.414	29924.95
611.771	30096.02
612.127	30365.84
612.484	30517.02
612.841	30876.11
613.198	30950.01
613.554	30996.11
613.911	31331.92
614.267	31556.09
614.624	31747.72
614.98	31880.6
615.337	32114.04
615.693	32162.18
616.05	32355.17
616.406	32637.64
616.762	32682.16
617.118	32756.06
617.475	32911.76
617.831	33188.82
618.187	33277.63
618.543	33445.31
618.899	33770.72
619.255	33819.53
619.611	33786.77
619.967	34072.41
620.323	34138.4
620.678	34140.66
621.034	34228.56
621.39	34369.8
621.746	34514.66
622.101	34921.65
622.457	34699.74
622.812	34828.55
623.168	35024.93
623.523	35007.07
623.879	35441.41
624.234	35297.01
624.589	35371.58
624.945	35518.7
625.3	35597.57
625.655	35535.87
626.01	35735.64
626.365	35734.51
626.72	35780.16
627.075	35755.53
627.43	35945.13
627.785	35801.86
628.14	35880.5
628.495	36124.78
628.85	36164.33
629.205	36074.62
629.559	36435.96
629.914	36224.89
630.269	36148.74
630.623	36225.8
630.978	36355.51
631.332	36445.23
631.687	36609.29
632.041	36438.45
632.396	36572.46
632.75	36411.33
633.104	36500.37
633.459	36346.47
633.813	36393.7
634.167	36561.38
634.521	36471.67
634.875	36587.15
635.229	36550.08
635.583	36493.59
635.937	36545.79
636.291	36605.9
636.645	36629.63
636.999	36479.8
637.352	36588.73
637.706	36400.48
638.06	36593.02
638.413	36426.25
638.767	36495.4
639.121	36466.47
639.474	36376.3
639.828	36396.19
640.181	36501.95
640.534	36605.68
640.888	36576.75
641.241	36319.58
641.594	36407.72
641.947	36489.97
642.301	36346.7
642.654	36433.93
643.007	36496.75
643.36	36343.31
643.713	36297.21
644.066	36593.7
644.419	36335.85
644.771	36133.37
645.124	35774.06
645.477	35798.01
645.83	35683.89
646.182	35496.33
646.535	35508.76
646.888	35534.97
647.24	35260.4
647.593	35446.16
647.945	35406.84
648.298	35275.32
648.65	35231.02
649.002	35252.72
649.355	35430.57
649.707	35268.76
650.059	35423.79
650.411	35739.71
650.763	35837.33
651.115	36246.59
651.467	36018.8
651.819	36073.03
652.171	36056.76
652.523	35921.17
652.875	35986.26
653.227	35901.51
653.578	36172.02
653.93	36046.82
654.282	35888.86
654.633	35715.53
654.985	35801.63
655.337	35777.9
655.688	35909.42
656.039	35857.22
656.391	35642.54
656.742	35792.14
657.094	35886.82
657.445	35847.96
657.796	35871.46
658.147	35624.46
658.498	35674.63
658.849	35814.96
659.2	35761.63
659.551	35657.68
659.902	35814.74
660.253	35840.5
660.604	35810.22
660.955	35621.07
661.306	35785.81
661.656	35611.35
662.007	35678.69
662.358	35641.63
662.708	35650.9
663.059	35612.03
663.409	35371.81
663.76	35736.55
664.11	35738.13
664.461	35617.91
664.811	35641.86
665.161	35587.17
665.511	35508.53
665.862	35553.73
666.212	35691.58
666.562	35708.07
666.912	35632.82
667.262	35551.01
667.612	35492.26
667.962	35621.07
668.312	35531.13
668.662	35649.09
669.011	35618.58
669.361	35682.31
669.711	35504.46
670.06	35463.11
670.41	35515.31
670.76	35318.7
671.109	35609.54
671.459	35508.98
671.808	35434.18
672.157	35583.1
672.507	35258.59
672.856	35191.93
673.205	35272.83
673.554	35416.1
673.904	35279.16
674.253	35623.78
674.602	35393.5
674.951	34970.01
675.3	34686.86
675.649	35282.32
675.998	35237.58
676.346	35316.22
676.695	35317.35
677.044	35008.66
677.393	35139.95
677.741	35255.65
678.09	35028.54
678.438	35084.36
678.787	35070.35
679.135	35007.53
679.484	34878.04
679.832	35027.19
680.181	34783.35
680.529	34966.85
680.877	34898.83
681.225	34792.62
681.573	34876
681.922	34716.69
682.27	34619.74
682.618	34706.97
682.966	34504.04
683.314	34750.36
683.661	34551.94
684.009	34463.13
684.357	34257.94
684.705	34254.78
685.053	34284.83
685.4	34259.75
685.748	34166.87
686.095	34083.26
686.443	33868.57
686.79	33944.28
687.138	33992.19
687.485	33947.89
687.832	33828.35
688.18	33926.65
688.527	33654.79
688.874	33744.96
689.221	33561.24
689.568	33478.53
689.915	33508.58
690.262	33404.4
690.609	33341.35
690.956	33380.45
691.303	33285.99
691.65	33189.49
691.997	33047.58
692.344	32857.75
692.69	32906.56
693.037	32867.47
693.383	32641.71
693.73	32671.32
694.077	32651.2
694.423	32570.3
694.769	32400.36
695.116	32364.21
695.462	32329.86
695.808	32190.42
696.155	32293.25
696.501	32059.13
696.847	32142.74
697.193	31895.74
697.539	31976.65
697.885	31734.39
698.231	31641.06
698.577	31689.87
698.923	31564.45
699.269	31444.68
699.614	31331.46
699.96	31334.63
700.306	31237.68
700.651	31153.84
700.997	31085.82
701.342	31110.45
701.688	30797.24
702.033	30822.33
702.379	30709.11
702.724	30747.75
703.069	30835.43
703.415	30461.88
703.76	30442.67
704.105	30510.47
704.45	30324.49
704.795	30261.21
705.14	30085.85
705.485	30019.41
705.83	29995.91
706.175	30047.88
706.52	30020.54
706.865	29870.26
707.209	29842.01
707.554	29665.97
707.899	29793.65
708.243	29573.09
708.588	29615.35
708.932	29422.36
709.277	29379.65
709.621	29379.65
709.966	29191.63
710.31	29382.14
710.654	29066.44
710.998	29048.81
711.342	29051.52
711.687	29044.29
712.031	28886.56
712.375	28695.6
712.719	28760.23
713.063	28739.67
713.407	28909.61
713.75	28674.13
714.094	28642.27
714.438	28486.12
714.782	28619.67
715.125	28381.94
715.469	28348.94
715.812	28252.45
716.156	28113.24
716.499	28087.71
716.843	28095.62
717.186	27996.86
717.53	28113.92
717.873	28207.48
718.216	28034.15
718.559	27987.6
718.902	27699.02
719.246	27668.96
719.589	27728.17
719.932	27584.67
720.275	27525.91
720.617	27608.85
720.96	27515.52
721.303	27488.85
721.646	27494.73
721.989	27408.18
722.331	27493.37
722.674	27308.75
723.016	27239.82
723.359	27385.81
723.701	27311.23
724.044	27005.48
724.386	27035.31
724.729	27079.37
725.071	27057.45
725.413	26963.22
725.755	26918.02
726.097	26824.46
726.439	26690.46
726.782	26684.13
727.124	26862.2
727.465	26612.72
727.807	26667.63
728.149	26572.49
728.491	26577.47
728.833	26508.77
729.175	26546.96
729.516	26549.67
729.858	26319.39
730.199	26391.03
730.541	26424.93
730.882	26353.74
731.224	26324.14
731.565	26145.61
731.906	26191.71
732.248	26200.53
732.589	26005.73
732.93	25998.72
733.271	26063.13
733.612	26103.13
733.953	26118.95
734.294	25868.11
734.635	25854.09
734.976	25941.55
735.317	25790.37
735.658	25720.99
735.999	25688.9
736.339	25661.1
736.68	25862.23
737.021	25703.59
737.361	25479.19
737.702	25596.7
738.042	25518.96
738.383	25469.25
738.723	25485.52
739.063	25444.84
739.404	25351.96
739.744	25336.59
740.084	25231.29
740.424	25373.88
740.764	25217.95
741.104	25355.12
741.444	25274.9
741.784	25119.2
742.124	25155.58
742.464	25075.81
742.804	24986.55
743.143	24964.63
743.483	24975.25
743.823	24892.09
744.162	24874.68
744.502	24923.5
744.841	24735.03
745.181	24955.13
745.52	24796.49
745.86	24845.08
746.199	24666.55
746.538	24542.72
746.877	24695.71
747.216	24577.29
747.556	24504.98
747.895	24571.42
748.234	24391.53
748.573	24429.72
748.911	24390.86
749.25	24440.35
749.589	24317.41
749.928	24273.12
750.267	24259.11
750.605	24226.11
750.944	24128.49
751.283	23979.57
751.621	24097.53
751.96	23891.21
752.298	23877.2
752.636	23923.98
752.975	23825
753.313	23759.69
753.651	23783.64
753.989	23705.45
754.327	23726.24
754.666	23534.16
755.004	23615.06
755.342	23580.93
755.679	23515.4
756.017	23400.83
756.355	23397.66
756.693	23347.72
757.031	23341.62
757.368	23250.32
757.706	23176.42
758.044	23136.65
758.381	23080.61
758.719	23004
759.056	22994.06
759.394	22869.54
759.731	22666.38
760.068	22853.27
760.405	22664.12
760.743	22600.62
761.08	22709.32
761.417	22510.45
761.754	22409.89
762.091	22383.23
762.428	22348.88
762.765	22246.05
763.102	22179.61
763.438	22149.56
763.775	21972.16
764.112	22049.22
764.449	22035.21
764.785	21962.9
765.122	21805.16
765.458	21615.56
765.795	21649.91
766.131	21567.2
766.467	21540.99
766.804	21480.2
767.14	21297.15
767.476	21418.96
767.812	21302.35
768.148	21244.95
768.485	21028.91
768.821	21172.41
769.157	20963.15
769.492	20825.98
769.828	20859.42
770.164	20797.05
770.5	20704.4
770.836	20662.59
771.171	20528.36
771.507	20607.23
771.842	20441.58
772.178	20518.19
772.513	20297.86
772.849	20281.81
773.184	20224.41
773.519	20194.58
773.855	20023.06
774.19	19970.41
774.525	19944.19
774.86	19849.51
775.195	19826.23
775.53	19766.12
775.865	19655.16
776.2	19473.7
776.535	19399.12
776.87	19341.5
777.205	19364.77
777.539	19293.81
777.874	19311.67
778.209	19078.23
778.543	19029.41
778.878	18894.05
779.212	18916.2
779.547	18765.47
779.881	18857.22
780.215	18730.21
780.55	18744
780.884	18600.05
781.218	18443.67
781.552	18520.73
781.886	18320.51
782.22	18390.11
782.554	18315.08
782.888	18075.54
783.222	18046.16
783.556	17994.19
783.889	17929.56
784.223	17875.77
784.557	17794.42
784.89	17860.41
785.224	17690.47
785.557	17715.78
785.891	17577.48
786.224	17535.44
786.558	17526.63
786.891	17375.45
787.224	17336.8
787.557	17255
787.891	17288.9
788.224	17285.51
788.557	17178.39
788.89	17140.43
789.223	17122.57
789.556	16894.78
789.888	16897.27
790.221	16800.09
790.554	16713.32
790.887	16610.27
791.219	16623.38
791.552	16584.51
791.884	16571.85
792.217	16442.14
792.549	16383.38
792.882	16285.31
793.214	16278.07
793.546	16274.46
793.879	16127.34
794.211	16118.53
794.543	16174.35
794.875	16037.18
795.207	16121.47
795.539	15837.18
795.871	15928.93
796.203	15821.82
796.535	15640.13
796.867	15680.8
797.198	15634.93
797.53	15661.82
797.862	15442.16
798.193	15610.97
798.525	15418.89
798.856	15532.78
799.188	15319
799.519	15291.43
799.85	15156.3
800.182	15268.38
800.513	15239.01
800.844	15095.73
801.175	15122.62
801.506	15049.63
801.837	14987.04
802.168	14972.57
802.499	14802.63
802.83	14863.87
803.161	14679.7
803.491	14734.61
803.822	14791.56
804.153	14637.44
804.483	14625.46
804.814	14524.9
805.145	14503.66
805.475	14429.99
805.805	14451
806.136	14465.92
806.466	14451.23
806.796	14390.67
807.126	14236.55
807.457	14226.6
807.787	14181.41
808.117	14155.64
808.447	14177.57
808.777	14126.27
809.107	14059.15
809.436	14009.21
809.766	13957.01
810.096	13951.13
810.426	13860.96
810.755	13874.75
811.085	13917.46
811.414	13791.13
811.744	13766.73
812.073	13745.71
812.403	13653.06
812.732	13599.05
813.061	13605.83
813.39	13533.97
813.719	13502.55
814.049	13496
814.378	13506.4
814.707	13414.42
815.036	13448.32
815.365	13324.93
815.693	13285.39
816.022	13352.95
816.351	13154.32
816.68	13260.98
817.008	13167.87
817.337	13148.67
817.665	13067.76
817.994	13123.81
818.322	13049.01
818.651	12967.2
818.979	12935.34
819.307	12985.05
819.636	13000.19
819.964	12844.49
820.292	12901.67
820.62	12903.02
820.948	12813.53
821.276	12808.34
821.604	12793.42
821.932	12828.22
822.259	12817.6
822.587	12828
822.915	12819.41
823.243	12812.86
823.57	12789.13
823.898	12772.18
824.225	12776.02
824.553	12654.89
824.88	12816.24
825.207	12767.88
825.535	12709.58
825.862	12719.07
826.189	12712.07
826.516	12784.61
826.843	12822.35
827.17	12797.04
827.497	12760.2
827.824	12732.41
828.151	12807.21
828.478	12721.33
828.805	12802.69
829.131	12686.08
829.458	12688.34
829.785	12684.27
830.111	12721.78
830.438	12723.14
830.764	12749.58
831.09	12657.61
831.417	12647.21
831.743	12623.93
832.069	12752.52
832.395	12676.81
832.722	12605.4
833.048	12685.85
833.374	12626.42
833.7	12593.2
834.026	12591.62
834.351	12568.79
834.677	12597.27
835.003	12610.83
835.329	12576.25
835.654	12535.35
835.98	12497.61
836.306	12559.75
836.631	12481.11
836.956	12512.75
837.282	12483.37
837.607	12358.63
837.932	12460.55
838.258	12426.88
838.583	12320.21
838.908	12308.91
839.233	12327.44
839.558	12325.86
839.883	12231.63
840.208	12122.93
840.533	12194.79
840.858	12212.19
841.182	12263.04
841.507	12145.98
841.832	12081.57
842.156	12163.61
842.481	12101.69
842.805	12028.7
843.13	12044.74
843.454	12020.33
843.778	11951.41
844.103	11960.22
844.427	11884.97
844.751	11928.81
845.075	11857.63
845.399	11861.47
845.723	11758.87
846.047	11720.68
846.371	11712.77
846.695	11726.56
847.019	11576.28
847.343	11587.8
847.666	11476.39
847.99	11445.21
848.313	11432.1
848.637	11320.01
848.96	11275.72
849.284	11346.23
849.607	11238.66
849.931	11219.68
850.254	11112.11
850.577	11028.5
850.9	11044.77
851.223	11069.62
851.546	10888.16
851.869	10849.97
852.192	10951.21
852.515	10854.94
852.838	10769.52
853.161	10731.1
853.483	10678.22
853.806	10672.12
854.129	10635.51
854.451	10617.88
854.774	10539.24
855.096	10487.04
855.419	10414.05
855.741	10434.16
856.063	10390.32
856.385	10383.09
856.708	10379.47
857.03	10334.73
857.352	10312.13
857.674	10298.12
857.996	10325.69
858.318	10178.35
858.64	10217.9
858.961	10084.79
859.283	10076.66
859.605	10065.13
859.926	10113.72
860.248	10043.21
860.57	10105.58
860.891	10018.13
861.212	9958.47
861.534	9976.55
861.855	9904.46
862.176	9913.27
862.498	9965.47
862.819	9863.1
863.14	9872.37
863.461	9792.14
863.782	9821.3
864.103	9797.34
864.424	9723.22
864.745	9706.95
865.065	9740.39
865.386	9700.17
865.707	9681.41
866.027	9716.89
866.348	9612.04
866.668	9631.02
866.989	9643.67
867.309	9497.24
867.63	9530
867.95	9544.01
868.27	9468.54
868.59	9557.12
868.91	9472.6
869.23	9524.35
869.55	9439.61
869.87	9496.56
870.19	9468.99
870.51	9431.02
870.83	9522.32
871.15	9381.08
871.469	9354.19
871.789	9428.99
872.109	9331.36
872.428	9371.59
872.748	9381.76
873.067	9300.18
873.386	9354.42
873.706	9332.04
874.025	9246.85
874.344	9263.57
874.663	9259.73
874.982	9243.91
875.301	9182.89
875.62	9234.19
875.939	9217.47
876.258	9159.84
876.577	9109.9
876.896	9172.27
877.214	9113.74
877.533	9098.6
877.852	9113.07
878.17	9091.15
878.489	9071.48
878.807	9106.51
879.125	9036.68
879.444	9039.62
879.762	9037.36
880.08	9009.11
880.398	8982.9
880.716	9006.85
881.034	8933.64
881.352	8883.47
881.67	8871.26
881.988	8936.57
882.306	8894.54
882.624	8901.32
882.941	8813.64
883.259	8789.91
883.577	8764.15
883.894	8695.45
884.212	8805.73
884.529	8730.25
884.846	8633.98
885.164	8703.58
885.481	8737.03
885.798	8684.83
886.115	8616.58
886.432	8575
886.75	8622.68
887.067	8555.34
887.383	8555.57
887.7	8608.45
888.017	8541.33
888.334	8500.65
888.651	8428.34
888.967	8513.08
889.284	8485.51
889.6	8365.29
889.917	8357.38
890.233	8287.55
890.55	8330.49
890.866	8343.14
891.182	8284.16
891.498	8246.65
891.815	8245.74
892.131	8210.49
892.447	8219.08
892.763	8163.71
893.079	8117.61
893.395	8138.85
893.71	8069.25
894.026	8101.79
894.342	7998.97
894.657	7967.11
894.973	8025.64
895.289	8000.1
895.604	7992.87
895.92	7904.74
896.235	7855.47
896.55	7861.8
896.865	7850.5
897.181	7791.97
897.496	7836.26
897.811	7696.83
898.126	7729.83
898.441	7723.05
898.756	7645.31
899.071	7659.54
899.386	7662.71
899.7	7566.21
900.015	7563.5
900.33	7478.08
900.644	7494.12
900.959	7471.53
901.273	7460
901.588	7374.81
901.902	7376.39
902.216	7386.78
902.531	7363.51
902.845	7334.36
903.159	7276.28
903.473	7222.04
903.787	7194.47
904.101	7173.91
904.415	7157.64
904.729	7195.83
905.042	7125.1
905.356	7118.32
905.67	7085.1
905.984	7052.78
906.297	7007.58
906.611	7006.91
906.924	7004.87
907.237	6931.65
907.551	6904.54
907.864	6878.77
908.177	6870.86
908.491	6930.98
908.804	6847.59
909.117	6826.57
909.43	6757.87
909.743	6753.81
910.056	6738.66
910.368	6729.85
910.681	6624.77
910.994	6664.09
911.307	6581.38
911.619	6536.86
911.932	6588.39
912.244	6460.48
912.557	6531.44
912.869	6521.5
913.181	6432.01
913.494	6445.11
913.806	6364.66
914.118	6403.98
914.43	6354.49
914.742	6355.62
915.054	6320.6
915.366	6258.68
915.678	6295.51
915.99	6212.8
916.302	6116.53
916.613	6158.34
916.925	6143.88
917.236	6168.06
917.548	6085.12
917.859	6080.38
918.171	6024.56
918.482	5978.01
918.794	5972.13
919.105	5968.52
919.416	5925.35
919.727	5917.22
920.038	5885.13
920.349	5867.95
920.66	5834.51
920.971	5875.18
921.282	5788.18
921.593	5738.24
921.903	5758.8
922.214	5713.38
922.525	5701.63
922.835	5706.38
923.146	5685.13
923.456	5622.31
923.767	5606.04
924.077	5569.66
924.387	5596.32
924.697	5557.23
925.008	5591.58
925.318	5502.76
925.628	5521.52
925.938	5471.13
926.248	5440.17
926.558	5369.21
926.867	5338.93
927.177	5402.88
927.487	5364.01
927.796	5285.82
928.106	5300.06
928.416	5321.53
928.725	5274.3
929.034	5206.05
929.344	5218.93
929.653	5165.15
929.962	5139.16
930.271	5196.11
930.581	5092.38
930.89	5096.22
931.199	5088.99
931.508	5044.92
931.817	5056.9
932.125	4990.24
932.434	5002.44
932.743	4959.73
933.051	4929.45
933.36	4930.58
933.669	4897.81
933.977	4828.21
934.286	4919.05
934.594	4878.83
934.902	4797.47
935.21	4794.99
935.519	4738.27
935.827	4743.91
936.135	4741.65
936.443	4737.81
936.751	4690.13
937.059	4661.43
937.367	4676.12
937.674	4623.69
937.982	4594.31
938.29	4592.51
938.597	4611.94
938.905	4555.67
939.213	4555.45
939.52	4499.4
939.827	4559.74
940.135	4470.48
940.442	4470.48
940.749	4464.6
941.056	4434.54
941.363	4403.13
941.67	4461.44
941.977	4377.14
942.284	4333.98
942.591	4309.35
942.898	4293.31
943.205	4321.78
943.511	4276.58
943.818	4248.33
944.125	4197.71
944.431	4164.04
944.738	4214.44
945.044	4177.6
945.35	4177.15
945.657	4148.9
945.963	4126.98
946.269	4084.05
946.575	4090.82
946.881	4076.81
947.187	4066.42
947.493	4044.5
947.799	4086.98
948.105	4060.09
948.41	3970.6
948.716	3963.82
949.022	3981.45
949.327	3958.62
949.633	3882.69
949.938	3925.86
950.244	3926.54
950.549	3889.02
950.854	3859.19
951.16	3872.53
951.465	3823.71
951.77	3782.81
952.075	3785.75
952.38	3785.3
952.685	3783.04
952.99	3713.43
953.294	3727.22
953.599	3697.61
953.904	3702.59
954.209	3675.24
954.513	3677.05
954.818	3644.28
955.122	3623.72
955.426	3602.93
955.731	3595.02
956.035	3558.64
956.339	3578.97
956.643	3556.15
956.948	3519.99
957.252	3499.65
957.556	3523.83
957.86	3531.07
958.163	3464.17
958.467	3496.94
958.771	3468.47
959.075	3434.57
959.378	3401.8
959.682	3416.49
959.985	3394.12
960.289	3443.16
960.592	3399.77
960.896	3362.26
961.199	3348.02
961.502	3379.43
961.805	3300.79
962.108	3288.13
962.411	3264.63
962.714	3273.22
963.017	3298.53
963.32	3300.34
963.623	3251.3
963.926	3230.51
964.228	3186.67
964.531	3228.7
964.833	3190.28
965.136	3161.81
965.438	3141.92
965.741	3144.18
966.043	3124.3
966.345	3102.83
966.648	3136.5
966.95	3092.21
967.252	3047.69
967.554	3040.23
967.856	3023.96
968.158	3002.04
968.46	3005.66
968.761	2972.89
969.063	2976.28
969.365	2965.88
969.666	2976.28
969.968	2958.2
970.269	2910.06
970.571	2922.72
970.872	2927.24
971.174	2874.59
971.475	2882.27
971.776	2889.95
972.077	2865.09
972.378	2836.17
972.679	2831.2
972.98	2841.82
973.281	2806.79
973.582	2777.41
973.883	2757.07
974.183	2787.36
974.484	2769.73
974.785	2750.29
975.085	2744.65
975.386	2747.58
975.686	2710.52
975.986	2697.87
976.287	2696.29
976.587	2697.87
976.887	2665.1
977.187	2668.72
977.487	2628.04
977.787	2661.94
978.087	2616.29
978.387	2570.19
978.687	2607.02
978.987	2585.33
979.286	2559.57
979.586	2561.15
979.885	2555.05
980.185	2601.6
980.484	2517.76
980.784	2547.36
981.083	2523.86
981.382	2518.44
981.682	2490.19
981.981	2531.09
982.28	2486.35
982.579	2468.49
982.878	2457.2
983.177	2443.86
983.475	2439.12
983.774	2408.61
984.073	2416.97
984.372	2382.39
984.67	2382.85
984.969	2367.93
985.267	2358.21
985.566	2353.24
985.864	2371.32
986.162	2327.03
986.461	2347.59
986.759	2341.27
987.057	2324.54
987.355	2265.34
987.653	2314.6
987.951	2269.63
988.249	2265.56
988.547	2249.07
988.844	2248.16
989.142	2258.1
989.44	2228.05
989.737	2195.28
990.035	2195.73
990.332	2200.93
990.63	2202.29
990.927	2181.04
991.224	2159.12
991.521	2158.45
991.819	2149.41
992.116	2129.52
992.413	2111.44
992.71	2114.83
993.006	2125.45
993.303	2111.44
993.6	2101.5
993.897	2078.67
994.193	2063.76
994.49	2066.25
994.787	2078.45
995.083	1990.09
995.379	2051.33
995.676	2039.58
995.972	2002.52
996.268	1967.04
996.565	2029.86
996.861	1966.59
997.157	2007.94
997.453	1955.51
997.749	1945.12
998.044	1937.21
998.34	1946.7
998.636	1957.32
998.932	1915.51
999.227	1880.94
999.523	1918.68
999.818	1874.84
1000.114	1852.47
1000.409	1859.7
1000.704	1852.47
1001	1834.16
1001.295	1831.22
1001.59	1810.66
1001.885	1811.11
1002.18	1821.51
1002.475	1791
1002.77	1828.06
1003.065	1780.6
1003.359	1796.87
1003.654	1755.74
1003.949	1731.34
1004.243	1749.87
1004.538	1738.57
1004.832	1746.71
1005.127	1722.07
1005.421	1717.55
1005.715	1711.9
1006.009	1700.15
1006.304	1673.26
1006.598	1670.55
1006.892	1685.69
1007.186	1629.65
1007.48	1630.55
1007.773	1630.32
1008.067	1640.49
1008.361	1654.28
1008.655	1610.21
1008.948	1620.16
1009.242	1620.16
1009.535	1588.97
1009.829	1591
1010.122	1557.56
1010.415	1556.2
1010.708	1528.63
1011.001	1529.99
1011.295	1522.76
1011.588	1497.22
1011.881	1542.87
1012.173	1485.7
1012.466	1508.97
1012.759	1486.15
1013.052	1505.81
1013.344	1488.41
1013.637	1457.45
1013.93	1481.85
1014.222	1440.72
1014.514	1438.69
1014.807	1422.65
1015.099	1396.43
1015.391	1416.09
1015.683	1443.44
1015.976	1400.27
1016.268	1400.5
1016.56	1364.79
1016.851	1390.56
1017.143	1366.38
1017.435	1346.49
1017.727	1330.22
1018.018	1372.48
1018.31	1351.24
1018.602	1330.22
1018.893	1317.11
1019.185	1327.28
1019.476	1297.9
1019.767	1317.34
1020.058	1297.9
1020.35	1247.96
1020.641	1254.97
1020.932	1277.57
1021.223	1271.46
1021.514	1263.78
1021.804	1247.51
1022.095	1241.63
1022.386	1224.69
1022.677	1227.4
1022.967	1205.93
1023.258	1178.13
1023.548	1188.98
1023.839	1181.3
1024.129	1189.43
1024.419	1188.08
1024.709	1160.51
1025	1175.65
1025.29	1151.92
1025.58	1130
1025.87	1135.65
1026.16	1140.62
1026.449	1162.54
1026.739	1133.84
1027.029	1100.62
1027.319	1113.73
1027.608	1119.6
1027.898	1061.53
1028.187	1095.42
1028.477	1063.56
1028.766	1076.89
1029.055	1090.45
1029.344	1040.96
1029.634	1045.93
1029.923	1072.15
1030.212	1044.8
1030.501	1044.58
1030.79	1020.17
1031.078	1038.25
1031.367	1005.48
1031.656	1000.28
1031.945	997.8
1032.233	1009.55
1032.522	986.73
1032.81	965.03
1033.099	978.59
1033.387	961.19
1033.675	951.92
1033.963	946.27
1034.251	959.83
1034.54	940.4
1034.828	955.09
1035.116	939.72
1035.403	956.44
1035.691	925.71
1035.979	919.61
1036.267	918.7
1036.554	922.32
1036.842	923.9
1037.129	898.59
1037.417	894.3
1037.704	879.38
1037.992	873.73
1038.279	878.48
1038.566	876.9
1038.853	876.9
1039.14	876.9
