Data from hue_130_FLMS001491_00054.txt Node
Date: Tue Feb 07 16:57:47 GMT 2017
User: dcchb
Spectrometer: FLMS00149
Trigger mode: 0
Integration Time (sec): 2.000000E-2
Scans to average: 10
Electric dark correction enabled: true
Nonlinearity correction enabled: false
Boxcar width: 0
XAxis mode: Wavelengths
Number of Pixels in Spectrum: 2048
>>>>>Begin Spectral Data<<<<<
341.393	-0.72
341.776	-0.72
342.16	-0.72
342.543	-61.06
342.927	-56.31
343.31	-40.72
343.693	-82.07
344.077	-74.62
344.46	-61.96
344.843	-75.07
345.226	-39.14
345.61	-28.97
345.993	-23.09
346.376	-28.74
346.759	32.95
347.142	33.86
347.525	33.86
347.908	61.2
348.291	70.92
348.674	102.33
349.057	119.28
349.44	125.83
349.823	127.64
350.206	158.37
350.588	185.94
350.971	184.59
351.354	227.07
351.737	245.37
352.119	243.34
352.502	262.78
352.884	268.43
353.267	270.91
353.65	288.54
354.032	280.63
354.414	301.87
354.797	321.31
355.179	305.49
355.562	306.39
355.944	294.41
356.326	309.33
356.709	325.37
357.091	312.94
357.473	337.35
357.855	349.1
358.238	356.11
358.62	329.67
359.002	330.8
359.384	338.93
359.766	351.59
360.148	331.47
360.53	326.73
360.912	304.58
361.294	344.81
361.676	322.66
362.057	323.11
362.439	308.2
362.821	315.2
363.203	321.98
363.584	323.56
363.966	306.84
364.348	332.38
364.729	326.5
365.111	327.18
365.493	312.72
365.874	313.62
366.256	298.03
366.637	338.71
367.019	311.36
367.4	310.68
367.781	306.39
368.163	308.88
368.544	319.72
368.925	304.58
369.306	305.94
369.688	320.18
370.069	332.6
370.45	299.16
370.831	298.71
371.212	306.62
371.593	293.51
371.974	319.5
372.355	318.37
372.736	316.79
373.117	336.45
373.498	290.57
373.879	316.56
374.26	326.95
374.641	324.69
375.021	295.77
375.402	305.49
375.783	311.81
376.163	345.03
376.544	333.73
376.925	328.54
377.305	349.78
377.686	340.97
378.066	342.1
378.447	330.8
378.827	341.19
379.208	318.82
379.588	347.29
379.968	355.43
380.349	335.77
380.729	343.9
381.109	342.32
381.489	340.51
381.87	350.46
382.25	345.49
382.63	345.26
383.01	349.1
383.39	352.94
383.77	331.93
384.15	327.41
384.53	360.63
384.91	345.94
385.29	331.25
385.67	357.24
386.049	366.95
386.429	372.83
386.809	375.99
387.189	356.78
387.568	355.43
387.948	358.59
388.328	340.06
388.707	386.16
389.087	378.48
389.466	375.54
389.846	364.02
390.225	368.08
390.605	384.13
390.984	368.99
391.363	371.47
391.743	365.37
392.122	378.93
392.501	359.27
392.881	379.16
393.26	382.32
393.639	398.37
394.018	395.65
394.397	396.56
394.776	373.28
395.155	382.55
395.534	396.11
395.913	397.91
396.292	384.81
396.671	404.47
397.05	394.07
397.429	394.98
397.808	389.33
398.186	402.66
398.565	420.74
398.944	394.98
399.323	406.27
399.701	402.88
400.08	400.63
400.458	426.16
400.837	429.78
401.215	394.75
401.594	413.73
401.972	414.64
402.351	425.48
402.729	409.66
403.107	420.51
403.486	435.65
403.864	426.61
404.242	413.73
404.62	431.58
404.999	439.95
405.377	427.74
405.755	427.74
406.133	432.71
406.511	443.79
406.889	419.38
407.267	453.96
407.645	444.69
408.023	458.93
408.401	444.47
408.779	441.08
409.156	453.51
409.534	472.26
409.912	461.64
410.29	466.61
410.667	454.18
411.045	487.63
411.422	479.04
411.8	493.73
412.178	467.06
412.555	453.28
412.933	497.12
413.31	488.76
413.687	515.2
414.065	502.32
414.442	489.44
414.819	512.26
415.197	508.64
415.574	507.06
415.951	518.36
416.328	523.11
416.705	507.97
417.082	527.85
417.46	523.79
417.837	557.01
418.214	550.68
418.591	527.85
418.967	513.39
419.344	539.83
419.721	553.39
420.098	554.29
420.475	535.76
420.852	555.88
421.228	564.69
421.605	572.6
421.982	559.49
422.358	579.15
422.735	564.24
423.111	551.58
423.488	585.7
423.864	579.38
424.241	590
424.617	590.22
424.994	578.47
425.37	605.59
425.746	594.07
426.123	625.7
426.499	591.81
426.875	603.78
427.251	602.2
427.627	640.39
428.003	636.1
428.379	640.17
428.756	634.52
429.132	653.27
429.507	663.89
429.883	647.85
430.259	658.02
430.635	653.95
431.011	674.52
431.387	669.09
431.763	697.57
432.138	685.82
432.514	709.54
432.89	710
433.265	708.64
433.641	725.14
434.016	718.81
434.392	717.9
434.767	748.64
435.143	745.02
435.518	736.66
435.894	762.65
436.269	764.46
436.644	774.17
437.02	765.14
437.395	781.41
437.77	801.52
438.145	802.42
438.52	807.85
438.895	801.29
439.271	792.25
439.646	824.12
440.021	815.98
440.395	815.76
440.77	833.16
441.145	839.03
441.52	845.81
441.895	860.27
442.27	862.08
442.645	867.96
443.019	877.67
443.394	895.3
443.769	888.3
444.143	884.91
444.518	884
444.892	898.01
445.267	899.59
445.641	889.2
446.016	916.32
446.39	930.33
446.764	929.88
447.139	931.23
447.513	964.23
447.887	928.29
448.262	942.53
448.636	945.92
449.01	948.18
449.384	972.59
449.758	961.06
450.132	971.23
450.506	987.05
450.88	992.47
451.254	992.7
451.628	997.22
452.002	1022.3
452.376	1023.21
452.75	1029.99
453.123	1033.38
453.497	1086.26
453.871	1060.49
454.244	1058.23
454.618	1057.1
454.992	1102.75
455.365	1091.91
455.739	1142.98
456.112	1162.64
456.486	1155.18
456.859	1147.72
457.232	1173.26
457.606	1162.64
457.979	1169.42
458.352	1196.31
458.725	1218.91
459.099	1235.41
459.472	1243.54
459.845	1257.1
460.218	1269.98
460.591	1273.82
460.964	1284.67
461.337	1312.69
461.71	1346.59
462.083	1370.09
462.456	1376.64
462.829	1417.1
463.201	1417.1
463.574	1407.15
463.947	1420.94
464.32	1475.4
464.692	1493.7
465.065	1476.75
465.438	1523.76
465.81	1545.91
466.183	1524.44
466.555	1582.29
466.928	1582.06
467.3	1627.49
467.672	1643.53
468.045	1693.7
468.417	1681.04
468.789	1706.58
469.161	1730.53
469.534	1750.65
469.906	1824.54
470.278	1820.02
470.65	1837.42
471.022	1886.01
471.394	1932.11
471.766	1968.49
472.138	1996.97
472.51	2081.26
472.882	2077.87
473.253	2151.09
473.625	2126
473.997	2230.63
474.369	2262.72
474.74	2287.13
475.112	2345.66
475.484	2383.17
475.855	2474.69
476.227	2500.23
476.598	2603.05
476.97	2617.52
477.341	2712.88
477.713	2794.46
478.084	2817.96
478.455	2941.35
478.827	2976.6
479.198	3091.4
479.569	3137.5
479.94	3248.69
480.311	3294.11
480.682	3438.06
481.053	3536.59
481.424	3626.08
481.795	3701.1
482.166	3771.16
482.537	3876.92
482.908	4009.57
483.279	4077.82
483.65	4231.94
484.021	4338.37
484.391	4416.11
484.762	4518.48
485.133	4603.68
485.503	4758.48
485.874	4873.73
486.244	4947.4
486.615	5165.7
486.985	5293.38
487.356	5425.35
487.726	5473.26
488.097	5690.2
488.467	5768.62
488.837	5929.75
489.207	6078.44
489.578	6243.64
489.948	6344.2
490.318	6531.76
490.688	6585.1
491.058	6795.03
491.428	6922.04
491.798	7082.94
492.168	7270.05
492.538	7348.69
492.908	7528.35
493.278	7763.37
493.648	7814.22
494.017	7955
494.387	8045.62
494.757	8261.44
495.126	8360.64
495.496	8485.84
495.866	8557.25
496.235	8806.05
496.605	8857.8
496.974	9039.27
497.344	9173.95
497.713	9282.43
498.082	9348.86
498.452	9561.74
498.821	9654.17
499.19	9766.71
499.559	9865.69
499.928	10010.32
500.298	10136.19
500.667	10226.13
501.036	10286.01
501.405	10419.34
501.774	10498.21
502.143	10643.75
502.512	10692.33
502.88	10878.54
503.249	10878.99
503.618	11002.15
503.987	11062.94
504.356	11227.46
504.724	11292.77
505.093	11339.55
505.462	11444.18
505.83	11544.29
506.199	11631.29
506.567	11750.61
506.936	11800.55
507.304	11947.44
507.672	11997.61
508.041	12045.29
508.409	12149.92
508.777	12315.79
509.145	12389.24
509.514	12403.47
509.882	12482.79
510.25	12513.3
510.618	12591.26
510.986	12668.33
511.354	12712.62
511.722	12807.98
512.09	12904.93
512.458	12797.81
512.826	12986.28
513.193	13033.29
513.561	12993.74
513.929	13163.23
514.297	13309.21
514.664	13293.62
515.032	13295.43
515.4	13367.06
515.767	13443.9
516.135	13535.19
516.502	13461.75
516.869	13632.59
517.237	13637.11
517.604	13558.02
517.972	13798.69
518.339	13739.94
518.706	13754.4
519.073	13749.43
519.44	13835.98
519.808	13918.46
520.175	13962.75
520.542	13965.01
520.909	14056.76
521.276	14056.09
521.643	14150.32
522.009	14224.89
522.376	14237.55
522.743	14242.52
523.11	14439.13
523.477	14409.52
523.843	14435.06
524.21	14572
524.577	14627.14
524.943	14489.75
525.31	14550.76
525.676	14713.7
526.043	14708.5
526.409	14729.29
526.776	14847.25
527.142	14842.96
527.508	14890.64
527.874	14893.58
528.241	14922.96
528.607	14900.13
528.973	14985.33
529.339	14884.31
529.705	15023.29
530.071	15107.81
530.437	15042.95
530.803	15087.92
531.169	15072.1
531.535	14988.72
531.901	15032.78
532.267	14985.33
532.632	15092.67
532.998	15071.2
533.364	15039.11
533.73	15058.77
534.095	15191.87
534.461	15107.81
534.826	15141.48
535.192	15068.26
535.557	15167.92
535.923	15101.71
536.288	15097.87
536.653	15087.02
537.019	14968.6
537.384	15073.23
537.749	14935.84
538.114	14979
538.479	14904.88
538.845	14859.68
539.21	14781.49
539.575	14771.09
539.94	14717.76
540.305	14800.92
540.67	14706.01
541.034	14759.8
541.399	14772
541.764	14724.09
542.129	14794.6
542.494	14684.77
542.858	14637.31
543.223	14598.22
543.587	14561.38
543.952	14580.82
544.316	14627.6
544.681	14458.33
545.045	14464.89
545.41	14523.19
545.774	14416.98
546.138	14385.12
546.503	14368.17
546.867	14308.96
547.231	14368.39
547.595	14319.58
547.959	14245.91
548.324	14303.31
548.688	14251.33
549.052	14221.5
549.416	14225.57
549.779	14090.43
550.143	14072.36
550.507	14114.39
550.871	13986.93
551.235	13999.82
551.599	14022.64
551.962	14101.28
552.326	13958.01
552.689	13987.84
553.053	13907.61
553.417	13770.44
553.78	14055.41
554.143	13859.25
554.507	13829.65
554.87	13919.14
555.234	13944.9
555.597	13801.85
555.96	13800.95
556.323	13877.11
556.686	13778.13
557.05	13771.35
557.413	13820.16
557.776	13835.07
558.139	13829.2
558.502	13788.97
558.865	13776.32
559.228	13852.02
559.59	13821.52
559.953	13764.57
560.316	13871.01
560.679	13781.29
561.041	13913.94
561.404	13887.5
561.767	13942.42
562.129	13808.41
562.492	13946.26
562.854	13929.76
563.217	13876.43
563.579	13918.46
563.941	13979.03
564.304	13965.24
564.666	13899.93
565.028	13939.25
565.39	13957.56
565.753	14041.17
566.115	14085.01
566.477	13977.44
566.839	14032.58
567.201	14183.31
567.563	14101.73
567.925	14160.49
568.287	14116.65
568.648	14163.2
569.01	14156.2
569.372	14233.93
569.734	14108.74
570.095	14179.7
570.457	14250.43
570.819	14241.39
571.18	14282.29
571.542	14299.02
571.903	14224.67
572.265	14329.75
572.626	14235.97
572.987	14335.4
573.349	14362.07
573.71	14384.89
574.071	14352.8
574.432	14392.35
574.794	14468.73
575.155	14393.03
575.516	14369.75
575.877	14401.39
576.238	14396.64
576.599	14345.34
576.96	14508.28
577.32	14497.43
577.681	14456.3
578.042	14400.93
578.403	14436.87
578.763	14474.83
579.124	14511.67
579.485	14556.19
579.845	14583.53
580.206	14523.87
580.566	14484.32
580.927	14535.17
581.287	14539.01
581.648	14461.72
582.008	14555.73
582.368	14490.42
582.728	14475.28
583.089	14488.62
583.449	14439.8
583.809	14405
584.169	14435.74
584.529	14490.42
584.889	14560.7
585.249	14473.25
585.609	14438.67
585.969	14494.27
586.329	14500.82
586.688	14427.6
587.048	14443.87
587.408	14379.69
587.768	14348.73
588.127	14321.84
588.487	14376.53
588.846	14374.72
589.206	14377.66
589.565	14368.85
589.925	14327.94
590.284	14249.3
590.643	14324.1
591.003	14437.32
591.362	14364.33
591.721	14371.33
592.08	14301.5
592.44	14424.44
592.799	14394.83
593.158	14301.95
593.517	14244.33
593.876	14340.37
594.235	14295.17
594.593	14254.27
594.952	14292.24
595.311	14170.88
595.67	14273.71
596.029	14347.15
596.387	14311.9
596.746	14287.27
597.104	14163.43
597.463	14179.92
597.822	14180.15
598.18	14171.79
598.538	14194.39
598.897	14187.61
599.255	14194.16
599.613	14303.54
599.972	14205.46
600.33	14230.09
600.688	14216.08
601.046	14339.47
601.404	14282.75
601.762	14246.59
602.12	14358.45
602.478	14191.67
602.836	14325.23
603.194	14220.6
603.552	14213.82
603.91	14135.86
604.268	14175.4
604.625	14212.47
604.983	14264.67
605.341	14125.69
605.698	14279.36
606.056	14332.46
606.413	14199.36
606.771	14324.78
607.128	14289.53
607.485	14219.47
607.843	14301.28
608.2	14421.5
608.557	14418.34
608.914	14386.7
609.272	14361.39
609.629	14398
609.986	14416.75
610.343	14421.05
610.7	14323.2
611.057	14341.28
611.414	14331.33
611.771	14363.42
612.127	14453.36
612.484	14453.81
612.841	14571.33
613.198	14427.15
613.554	14464.21
613.911	14548.73
614.267	14485
614.624	14528.16
614.98	14468.73
615.337	14583.3
615.693	14508.5
616.05	14483.19
616.406	14628.73
616.762	14522.97
617.118	14562.29
617.475	14623.3
617.831	14683.64
618.187	14615.62
618.543	14581.95
618.899	14805.44
619.255	14640.25
619.611	14663.53
619.967	14765.22
620.323	14780.59
620.678	14705.56
621.034	14660.36
621.39	14663.98
621.746	14644.54
622.101	14734.94
622.457	14599.57
622.812	14731.32
623.168	14714.37
623.523	14731.55
623.879	14795.95
624.234	14740.14
624.589	14681.61
624.945	14818.55
625.3	14752.56
625.655	14719.34
626.01	14613.36
626.365	14677.76
626.72	14657.88
627.075	14684.09
627.43	14716.18
627.785	14673.92
628.14	14649.74
628.495	14673.92
628.85	14646.8
629.205	14616.07
629.559	14639.57
629.914	14616.97
630.269	14667.82
630.623	14554.6
630.978	14551.21
631.332	14663.98
631.687	14706.46
632.041	14525.68
632.396	14628.05
632.75	14570.87
633.104	14570.65
633.459	14431.89
633.813	14508.95
634.167	14500.59
634.521	14461.5
634.875	14500.14
635.229	14389.64
635.583	14374.49
635.937	14486.36
636.291	14442.74
636.645	14350.77
636.999	14338.79
637.352	14369.75
637.706	14334.5
638.06	14354.61
638.413	14353.03
638.767	14188.29
639.121	14289.98
639.474	14171.79
639.828	14225.8
640.181	14187.83
640.534	14247.72
640.888	14142.18
641.241	14077.33
641.594	14255.85
641.947	14132.92
642.301	14153.03
642.654	14163.43
643.007	14083.88
643.36	14145.8
643.713	14025.13
644.066	14102.86
644.419	14024.67
644.771	13935.18
645.124	13879.59
645.477	13824.68
645.83	13728.86
646.182	13638.02
646.535	13625.59
646.888	13701.74
647.24	13613.61
647.593	13581.52
647.945	13586.95
648.298	13634.85
648.65	13511.92
649.002	13560.51
649.355	13552.6
649.707	13568.64
650.059	13565.48
650.411	13861.97
650.763	13801.85
651.115	13940.83
651.467	13831.91
651.819	13848.63
652.171	13904.22
652.523	13920.95
652.875	13853.15
653.227	13778.35
653.578	13885.92
653.93	13859.25
654.282	13810.89
654.633	13791.69
654.985	13817.45
655.337	13844.79
655.688	13924.56
656.039	13821.97
656.391	13794.85
656.742	13784.68
657.094	13814.74
657.445	13933.38
657.796	13864
658.147	13862.42
658.498	13850.44
658.849	13836.66
659.2	13815.41
659.551	13861.51
659.902	13869.88
660.253	13921.4
660.604	13945.81
660.955	13916.2
661.306	13902.64
661.656	13883.66
662.007	13908.74
662.358	13923.43
662.708	13880.5
663.059	13952.59
663.409	13816.09
663.76	13975.18
664.11	13918.91
664.461	13949.2
664.811	13972.92
665.161	13910.33
665.511	13895.41
665.862	13969.99
666.212	13996.2
666.562	13919.37
666.912	13853.15
667.262	13902.64
667.612	13919.82
667.962	13925.24
668.312	13946.48
668.662	14068.97
669.011	13938.35
669.361	13943.77
669.711	13918.01
670.06	13869.88
670.41	13918.69
670.76	13853.15
671.109	13890.44
671.459	13917.11
671.808	13880.5
672.157	13811.35
672.507	13778.58
672.856	13778.58
673.205	13774.51
673.554	13841.63
673.904	13757.79
674.253	13853.15
674.602	13762.99
674.951	13628.98
675.3	13517.34
675.649	13771.57
675.998	13701.29
676.346	13771.8
676.695	13694.06
677.044	13675.98
677.393	13732.03
677.741	13678.92
678.09	13625.59
678.438	13606.61
678.787	13649.09
679.135	13599.37
679.484	13511.69
679.832	13595.08
680.181	13383.33
680.529	13506.72
680.877	13488.19
681.225	13433.5
681.573	13545.36
681.922	13445.93
682.27	13431.47
682.618	13405.71
682.966	13335.65
683.314	13412.49
683.661	13327.97
684.009	13285.94
684.357	13256.33
684.705	13124.58
685.053	13224.02
685.4	13178.59
685.748	13110.35
686.095	13198.48
686.443	13036.45
686.79	12983.12
687.138	13033.29
687.485	13056.56
687.832	13012.95
688.18	12967.75
688.527	12885.72
688.874	12908.09
689.221	12893.4
689.568	12811.6
689.915	12794.42
690.262	12810.92
690.609	12756.68
690.956	12645.95
691.303	12678.95
691.65	12584.03
691.997	12596.91
692.344	12526.63
692.69	12549.23
693.037	12466.52
693.383	12363.25
693.73	12361.44
694.077	12266.98
694.423	12346.07
694.769	12180.2
695.116	12171.61
695.462	12185.4
695.808	12182.69
696.155	12152.41
696.501	11990.6
696.847	12025.63
697.193	11890.27
697.539	11970.49
697.885	11893.66
698.231	11888.23
698.577	11867.89
698.923	11865.41
699.269	11806.2
699.614	11646.88
699.96	11623.61
700.306	11658.86
700.651	11603.95
700.997	11556.94
701.342	11511.75
701.688	11541.12
702.033	11443.72
702.379	11427.45
702.724	11346.55
703.069	11361.69
703.415	11246.89
703.76	11238.76
704.105	11280.11
704.45	11240.11
704.795	11146.78
705.14	11102.72
705.485	11077.63
705.83	10940.01
706.175	11032.89
706.52	10988.82
706.865	11008.26
707.209	10916.73
707.554	10931.2
707.899	10922.61
708.243	10808.26
708.588	10840.58
708.932	10733.46
709.277	10753.12
709.621	10743.86
709.966	10628.15
710.31	10756.96
710.654	10585.22
710.998	10587.93
711.342	10559.91
711.687	10552.22
712.031	10537.53
712.375	10483.07
712.719	10477.2
713.063	10498.44
713.407	10535.95
713.75	10422.06
714.094	10413.47
714.438	10360.36
714.782	10388.39
715.125	10324.43
715.469	10347.93
715.812	10246.47
716.156	10272.91
716.499	10192.91
716.843	10306.58
717.186	10166.92
717.53	10237.43
717.873	10155.85
718.216	10194.49
718.559	10176.87
718.902	10035.4
719.246	10113.14
719.589	10081.73
719.932	10128.05
720.275	10028.17
720.617	10094.38
720.96	10018.23
721.303	10012.35
721.646	10011.9
721.989	9998.11
722.331	9980.03
722.674	9950.43
723.016	9938
723.359	9990.66
723.701	9935.06
724.044	9886.7
724.386	9877.66
724.729	9990.43
725.071	9938.45
725.413	9908.17
725.755	9972.58
726.097	9818
726.439	9803.77
726.782	9824.78
727.124	9851.22
727.465	9830.66
727.807	9832.47
728.149	9786.82
728.491	9825.69
728.833	9825.69
729.175	9815.52
729.516	9810.1
729.858	9805.12
730.199	9757.89
730.541	9704.11
730.882	9729.65
731.224	9768.29
731.565	9695.3
731.906	9790.89
732.248	9715.18
732.589	9706.6
732.93	9687.61
733.271	9701.17
733.612	9723.77
733.953	9765.12
734.294	9672.47
734.635	9722.87
734.976	9684.9
735.317	9644.45
735.658	9690.78
735.999	9716.31
736.339	9641.29
736.68	9792.47
737.021	9732.36
737.361	9690.78
737.702	9778.91
738.042	9695.3
738.383	9705.92
738.723	9738.01
739.063	9750.44
739.404	9742.75
739.744	9755.86
740.084	9758.35
740.424	9774.39
740.764	9776.88
741.104	9911.11
741.444	9849.42
741.784	9795.63
742.124	9894.84
742.464	9907.27
742.804	9893.93
743.143	9916.99
743.483	9930.77
743.823	9832.02
744.162	9940.04
744.502	9956.53
744.841	9996.3
745.181	9994.27
745.52	10082.4
745.86	10070.88
746.199	10122.4
746.538	10147.94
746.877	10189.29
747.216	10226.36
747.556	10216.41
747.895	10309.29
748.234	10374.6
748.573	10392.9
748.911	10454.37
749.25	10487.14
749.589	10590.41
749.928	10716.51
750.267	10712.67
750.605	10742.73
750.944	10837.64
751.283	10938.43
751.621	11073.56
751.96	11077.18
752.298	11181.36
752.636	11307.23
752.975	11381.58
753.313	11378.64
753.651	11608.01
753.989	11679.2
754.327	11758.29
754.666	11898.4
755.004	11932.53
755.342	12143.59
755.679	12245.06
756.017	12360.08
756.355	12523.92
756.693	12618.83
757.031	12870.58
757.368	12913.06
757.706	13012.04
758.044	13192.38
758.381	13341.53
758.719	13479.15
759.056	13723.44
759.394	13788.52
759.731	13896.32
760.068	14022.19
760.405	14239.36
760.743	14361.84
761.08	14570.2
761.417	14700.81
761.754	14851.54
762.091	15000.92
762.428	15175.38
762.765	15232.33
763.102	15480.23
763.438	15609.04
763.775	15831.18
764.112	16024.85
764.449	16186.88
764.785	16217.38
765.122	16334.44
765.458	16588.45
765.795	16734.88
766.131	16842.68
766.467	17065.27
766.804	17160.64
767.14	17260.07
767.476	17342.78
767.812	17386.85
768.148	17588.2
768.485	17695.99
768.821	17829.55
769.157	17900.28
769.492	17905.02
769.828	18175.75
770.164	18180.04
770.5	18271.34
770.836	18478.34
771.171	18476.31
771.507	18547.72
771.842	18602.63
772.178	18712.01
772.513	18897.99
772.849	18916.75
773.184	19000.59
773.519	19045.11
773.855	19057.08
774.19	19111.77
774.525	19230.86
774.86	19339.11
775.195	19382.72
775.53	19373.01
775.865	19438.32
776.2	19284.2
776.535	19310.86
776.87	19398.54
777.205	19528.48
777.539	19456.17
777.874	19644.86
778.209	19557.64
778.543	19540.91
778.878	19611.42
779.212	19656.39
779.547	19517.86
779.881	19624.3
780.215	19531.2
780.55	19634.92
780.884	19569.84
781.218	19772.77
781.552	19631.98
781.886	19633.34
782.22	19634.24
782.554	19604.19
782.888	19506.11
783.222	19489.39
783.556	19481.03
783.889	19422.05
784.223	19352.22
784.557	19449.16
784.89	19337.53
785.224	19386.11
785.557	19283.29
785.891	19347.92
786.224	19339.11
786.558	19380.01
786.891	19307.92
787.224	19151.77
787.557	19179.57
787.891	19150.64
788.224	19149.96
788.557	19157.19
788.89	19192.45
789.223	19119.23
789.556	19018.89
789.888	19004.88
790.221	19024.32
790.554	18894.6
790.887	18875.17
791.219	18899.8
791.552	18789.29
791.884	18788.84
792.217	18750.2
792.549	18717.66
792.882	18669.3
793.214	18531
793.546	18776.41
793.879	18540.94
794.211	18416.42
794.543	18603.08
794.875	18407.38
795.207	18573.03
795.539	18351.57
795.871	18461.62
796.203	18154.28
796.535	18292.36
796.867	18155.41
797.198	18187.05
797.53	18095.3
797.862	17992.25
798.193	18066.38
798.525	17930.56
798.856	18060.5
799.188	17817.79
799.519	17740.51
799.85	17780.96
800.182	17747.06
800.513	17766.27
800.844	17681.3
801.175	17637.46
801.506	17639.04
801.837	17611.47
802.168	17547.29
802.499	17463.68
802.83	17388.2
803.161	17443.11
803.491	17498.03
803.822	17438.14
804.153	17326.28
804.483	17220.52
804.814	17178.71
805.145	17151.6
805.475	17180.97
805.805	17021.2
806.136	17078.83
806.466	17039.96
806.796	17065.05
807.126	16894.65
807.457	16976.91
807.787	16879.51
808.117	16855.79
808.447	16702.57
808.777	16755.9
809.107	16715.22
809.436	16642.91
809.766	16589.35
810.096	16576.24
810.426	16505.96
810.755	16585.28
811.085	16460.77
811.414	16436.36
811.744	16354.78
812.073	16347.1
812.403	16231.17
812.732	16222.13
813.061	16231.62
813.39	16200.66
813.719	16143.26
814.049	16200.66
814.378	16171.06
814.707	16106.43
815.036	16124.51
815.365	16009.93
815.693	15855.36
816.022	15964.96
816.351	15878.86
816.68	15768.58
817.008	15763.38
817.337	15707.34
817.665	15674.57
817.994	15697.62
818.322	15671.18
818.651	15636.16
818.979	15505.54
819.307	15685.65
819.636	15660.11
819.964	15470.51
820.292	15550.96
820.62	15518.42
820.948	15493.11
821.276	15579.89
821.604	15464.18
821.932	15436.61
822.259	15557.74
822.587	15480.45
822.915	15437.97
823.243	15563.84
823.57	15384.41
823.898	15505.09
824.225	15444.98
824.553	15498.99
824.88	15495.14
825.207	15514.8
825.535	15501.02
825.862	15563.39
826.189	15356.39
826.516	15531.3
826.843	15512.32
827.17	15551.87
827.497	15551.64
827.824	15582.6
828.151	15586.44
828.478	15540.34
828.805	15523.17
829.131	15520.45
829.458	15510.06
829.785	15389.84
830.111	15468.03
830.438	15506.22
830.764	15523.39
831.09	15461.47
831.417	15479.32
831.743	15484.97
832.069	15503.73
832.395	15334.02
832.722	15426.67
833.048	15416.5
833.374	15404.07
833.7	15347.35
834.026	15320.68
834.351	15353.45
834.677	15301.7
835.003	15347.58
835.329	15371.53
835.654	15344.64
835.98	15209.28
836.306	15279.1
836.631	15205.89
836.956	15298.54
837.282	15245.66
837.607	15155.94
837.932	15148.26
838.258	15190.74
838.583	15129.28
838.908	15134.47
839.233	15116.62
839.558	15055.15
839.883	15036.4
840.208	14925.67
840.533	14971.77
840.858	14988.26
841.182	14897.19
841.507	14981.26
841.832	14910.75
842.156	14870.3
842.481	14863.75
842.805	14834.82
843.13	14752.11
843.454	14787.14
843.778	14641.83
844.103	14651.1
844.427	14524.32
844.751	14627.6
845.075	14540.37
845.399	14494.72
845.723	14448.39
846.047	14510.99
846.371	14328.62
846.695	14336.76
847.019	14250.88
847.343	14143.09
847.666	14116.87
847.99	14082.53
848.313	13997.33
848.637	13979.7
848.96	13856.09
849.284	13864.68
849.607	13803.89
849.931	13816.09
850.254	13659.03
850.577	13599.37
850.9	13541.3
851.223	13533.39
851.546	13385.59
851.869	13385.14
852.192	13381.75
852.515	13267.18
852.838	13165.49
853.161	13310.79
853.483	13079.61
853.806	13098.37
854.129	13057.02
854.451	13083.68
854.774	13008.66
855.096	12969.33
855.419	12917.81
855.741	12901.54
856.063	12835.78
856.385	12780.41
856.708	12783.8
857.03	12746.06
857.352	12694.31
857.674	12682.34
857.996	12622.45
858.318	12546.07
858.64	12568.21
858.961	12572.06
859.283	12439.18
859.605	12442.57
859.926	12483.7
860.248	12339.97
860.57	12298.39
860.891	12336.13
861.212	12242.57
861.534	12225.17
861.855	12125.06
862.176	12202.12
862.498	12204.38
862.819	12192.18
863.14	12129.13
863.461	12061.11
863.782	12088.45
864.103	11989.47
864.424	12033.31
864.745	12020.66
865.065	11960.55
865.386	11877.16
865.707	11906.76
866.027	11788.35
866.348	11881
866.668	11855.92
866.989	11852.98
867.309	11794.68
867.63	11830.16
867.95	11745.41
868.27	11732.76
868.59	11755.13
868.91	11703.15
869.23	11657.73
869.55	11605.53
869.87	11802.81
870.19	11621.12
870.51	11574.34
870.83	11648.24
871.15	11590.61
871.469	11581.8
871.789	11610.05
872.109	11554.91
872.428	11525.3
872.748	11418.87
873.067	11536.38
873.386	11526.66
873.706	11399.66
874.025	11370.05
874.344	11421.13
874.663	11452.76
874.982	11403.05
875.301	11338.42
875.62	11299.55
875.939	11259.55
876.258	11326.67
876.577	11340.22
876.896	11289.83
877.214	11190.17
877.533	11265.65
877.852	11233.11
878.17	11260.9
878.489	11231.07
878.807	11237.85
879.125	11106.56
879.444	11172.09
879.762	11109.27
880.08	11104.75
880.398	11093.45
880.716	11071.98
881.034	11001.7
881.352	10990.63
881.67	10960.8
881.988	10980.01
882.306	10924.87
882.624	10841.71
882.941	10884.87
883.259	10869.28
883.577	10791.99
883.894	10803.74
884.212	10707.92
884.529	10807.36
884.846	10715.38
885.164	10661.15
885.481	10608.27
885.798	10663.41
886.115	10556.29
886.432	10531.43
886.75	10611.88
887.067	10513.13
887.383	10526.23
887.7	10460.02
888.017	10439.46
888.334	10472.68
888.651	10424.99
888.967	10387.93
889.284	10336.63
889.6	10307.71
889.917	10214.6
890.233	10227.49
890.55	10208.5
890.866	10148.17
891.182	10135.74
891.498	10139.8
891.815	10156.75
892.131	10088.96
892.447	10036.08
892.763	10029.07
893.079	9998.79
893.395	9923.76
893.71	9932.8
894.026	9903.65
894.342	9840.83
894.657	9810.32
894.973	9830.21
895.289	9812.35
895.604	9788.4
895.92	9750.21
896.235	9705.47
896.55	9712.47
896.865	9652.81
897.181	9604.45
897.496	9607.16
897.811	9560.38
898.126	9517
898.441	9514.28
898.756	9425.25
899.071	9371.24
899.386	9329.66
899.7	9288.53
900.015	9259.15
900.33	9155.65
900.644	9198.81
900.959	9158.36
901.273	9123.56
901.588	9143.22
901.902	9033.62
902.216	9035.2
902.531	9017.35
902.845	8918.59
903.159	8935.54
903.473	8917.24
903.787	8860.06
904.101	8820.74
904.415	8802.89
904.729	8750.69
905.042	8779.61
905.356	8707.3
905.67	8682.22
905.984	8644.02
906.297	8593.4
906.611	8516.57
906.924	8499.17
907.237	8505.95
907.551	8504.37
907.864	8435.89
908.177	8478.83
908.491	8346.4
908.804	8326.97
909.117	8338.04
909.43	8242.23
909.743	8230.48
910.056	8178.05
910.368	8195.67
910.681	8090.82
910.994	8120.42
911.307	8031.84
911.619	7969.92
911.932	8009.69
912.244	7954.32
912.557	7937.6
912.869	7935.57
913.181	7868.68
913.494	7827.32
913.806	7853.99
914.118	7850.82
914.43	7734.9
914.742	7699.64
915.054	7640.89
915.366	7686.76
915.678	7642.24
915.99	7596.37
916.302	7511.4
916.613	7498.74
916.925	7462.81
917.236	7444.28
917.548	7447.9
917.859	7429.14
918.171	7411.51
918.482	7331.06
918.794	7311.86
919.105	7311.63
919.416	7237.96
919.727	7277.51
920.038	7164.29
920.349	7152.31
920.66	7108.7
920.971	7154.8
921.282	7066.21
921.593	7017.85
921.903	7011.52
922.214	7072.09
922.525	6927.69
922.835	6927.01
923.146	6917.29
923.456	6881.81
923.767	6817.63
924.077	6818.54
924.387	6731.76
924.697	6723.17
925.008	6740.8
925.318	6622.38
925.628	6696.5
925.938	6634.36
926.248	6599.11
926.558	6563.4
926.867	6600.46
927.177	6536.51
927.487	6539.22
927.796	6470.3
928.106	6443.4
928.416	6430.07
928.725	6448.15
929.034	6382.16
929.344	6352.56
929.653	6333.8
929.962	6277.53
930.271	6280.24
930.581	6259.23
930.89	6196.18
931.199	6183.3
931.508	6133.58
931.817	6166.12
932.125	6165.67
932.434	6114.15
932.743	6103.98
933.051	6031.66
933.36	6002.29
933.669	5992.12
933.977	5944.43
934.286	5975.62
934.594	5962.74
934.902	5854.27
935.21	5879.35
935.519	5808.17
935.827	5827.38
936.135	5792.12
936.443	5767.04
936.751	5699.47
937.059	5704.67
937.367	5698.79
937.674	5680.26
937.982	5651.56
938.29	5681.62
938.597	5596.42
938.905	5547.83
939.213	5540.15
939.52	5511.9
939.827	5538.12
940.135	5493.82
940.442	5438.68
940.749	5449.76
941.056	5449.76
941.363	5407.27
941.67	5370.44
941.977	5332.7
942.284	5337.67
942.591	5299.93
942.898	5270.33
943.205	5257.22
943.511	5247.28
943.818	5234.85
944.125	5168.64
944.431	5164.34
944.738	5141.74
945.044	5125.7
945.35	5087.06
945.657	5039.6
945.963	5065.14
946.269	5018.13
946.575	5017.9
946.881	4948.75
947.187	4976.55
947.493	4932.03
947.799	4870.11
948.105	4880.96
948.41	4861.07
948.716	4848.19
949.022	4837.34
949.327	4828.76
949.633	4799.83
949.938	4799.38
950.244	4819.94
950.549	4730
950.854	4713.96
951.16	4669.44
951.465	4609.1
951.77	4635.32
952.075	4686.39
952.38	4610.01
952.685	4627.18
952.99	4558.71
953.294	4561.19
953.599	4536.11
953.904	4511.93
954.209	4476.68
954.513	4439.16
954.818	4432.16
955.122	4465.38
955.426	4408.2
955.731	4415.43
956.035	4360.29
956.339	4342.44
956.643	4356.45
956.948	4328.66
957.252	4297.92
957.556	4252.5
957.86	4221.32
958.163	4249.56
958.467	4210.02
958.771	4203.91
959.075	4207.76
959.378	4160.3
959.682	4264.48
959.985	4141.32
960.289	4145.61
960.592	4091.83
960.896	4064.94
961.199	4095.44
961.502	4053.41
961.805	4021.55
962.108	4002.79
962.411	4025.61
962.714	3991.94
963.017	3948.1
963.32	3958.95
963.623	3932.06
963.926	3920.08
964.228	3864.71
964.531	3888.44
964.833	3818.16
965.136	3831.27
965.438	3852.74
965.741	3781.78
966.043	3784.26
966.345	3793.3
966.648	3757.6
966.95	3793.53
967.252	3730.93
967.554	3750.82
967.856	3706.53
968.158	3689.35
968.46	3692.97
968.761	3624.27
969.063	3636.7
969.365	3643.93
969.666	3578.17
969.968	3516.93
970.269	3557.6
970.571	3572.29
970.872	3538.62
971.174	3503.82
971.475	3500.2
971.776	3490.04
972.077	3501.33
972.378	3467.66
972.679	3473.76
972.98	3406.65
973.281	3422.92
973.582	3374.56
973.883	3352.19
974.183	3365.29
974.484	3369.59
974.785	3306.99
975.085	3349.47
975.386	3339.53
975.686	3317.61
975.986	3298.18
976.287	3291.62
976.587	3268.57
976.887	3279.42
977.187	3247.78
977.487	3225.64
977.787	3226.99
978.087	3162.13
978.387	3195.13
978.687	3155.35
978.987	3164.62
979.286	3148.35
979.586	3120.1
979.885	3116.26
980.185	3078.97
980.484	3063.61
980.784	3082.59
981.083	3035.81
981.382	2994.68
981.682	3027.67
981.981	2988.58
982.28	2935.7
982.579	2990.84
982.878	2990.16
983.177	2928.92
983.475	2985.42
983.774	2914.23
984.073	2920.56
984.372	2849.6
984.67	2905.87
984.969	2895.93
985.267	2875.59
985.566	2896.83
985.864	2822.26
986.162	2819.32
986.461	2832.88
986.759	2789.71
987.057	2740.22
987.355	2729.6
987.653	2748.13
987.951	2781.13
988.249	2735.03
988.547	2735.48
988.844	2706.55
989.142	2672.66
989.44	2664.97
989.737	2652.09
990.035	2655.71
990.332	2649.83
990.63	2622.04
990.927	2639.21
991.224	2616.61
991.521	2596.73
991.819	2578.19
992.116	2544.98
992.413	2582.04
992.71	2574.13
993.006	2544.3
993.303	2485.77
993.6	2547.69
993.897	2505.43
994.193	2525.54
994.49	2505.88
994.787	2479.44
995.083	2450.51
995.379	2471.31
995.676	2433.34
995.972	2425.66
996.268	2396.96
996.565	2386.11
996.861	2366.68
997.157	2377.52
997.453	2358.09
997.749	2335.49
998.044	2333.91
998.34	2324.42
998.636	2307.92
998.932	2304.76
999.227	2262.05
999.523	2292.55
999.818	2269.28
1000.114	2244.64
1000.409	2255.27
1000.704	2220.01
1001	2203.52
1001.295	2179.56
1001.59	2194.25
1001.885	2192.67
1002.18	2144.08
1002.475	2141.82
1002.77	2144.76
1003.065	2108.15
1003.359	2100.92
1003.654	2123.29
1003.949	2107.92
1004.243	2095.72
1004.538	2101.82
1004.832	2059.34
1005.127	2069.06
1005.421	2005.1
1005.715	2022.05
1006.009	1999
1006.304	2006.46
1006.598	2010.53
1006.892	1991.54
1007.186	1984.09
1007.48	1987.25
1007.773	1928.72
1008.067	1933.92
1008.361	1923.07
1008.655	1917.42
1008.948	1906.35
1009.242	1875.16
1009.535	1911.55
1009.829	1849.17
1010.122	1862.28
1010.415	1846.91
1010.708	1836.97
1011.001	1850.98
1011.295	1831.1
1011.588	1774.37
1011.881	1790.65
1012.173	1788.61
1012.466	1783.87
1012.759	1760.36
1013.052	1753.36
1013.344	1744.77
1013.637	1727.14
1013.93	1735.28
1014.222	1707.94
1014.514	1679.01
1014.807	1698.9
1015.099	1667.71
1015.391	1674.49
1015.683	1661.38
1015.976	1646.47
1016.268	1640.82
1016.56	1640.82
1016.851	1617.99
1017.143	1607.6
1017.435	1587.71
1017.727	1604.89
1018.018	1601.5
1018.31	1561.72
1018.602	1545.68
1018.893	1558.33
1019.185	1554.27
1019.476	1548.39
1019.767	1528.28
1020.058	1513.36
1020.35	1491.44
1020.641	1484.44
1020.932	1493.48
1021.223	1464.1
1021.514	1472.01
1021.804	1441.28
1022.095	1438.56
1022.386	1415.51
1022.677	1415.74
1022.967	1419.36
1023.258	1414.61
1023.548	1403.54
1023.839	1386.81
1024.129	1385.23
1024.419	1385.01
1024.709	1371.9
1025	1377.1
1025.29	1341.62
1025.58	1339.81
1025.87	1322.41
1026.16	1328.51
1026.449	1294.16
1026.739	1292.58
1027.029	1298.91
1027.319	1279.02
1027.608	1251.68
1027.898	1247.61
1028.187	1276.99
1028.477	1222.3
1028.766	1264.56
1029.055	1216.87
1029.344	1243.99
1029.634	1213.03
1029.923	1231.11
1030.212	1208.06
1030.501	1192.69
1030.79	1187.27
1031.078	1171.45
1031.367	1181.85
1031.656	1167.38
1031.945	1150.21
1032.233	1155.18
1032.522	1138.46
1032.81	1114.5
1033.099	1102.3
1033.387	1095.3
1033.675	1123.77
1033.963	1112.02
1034.251	1089.87
1034.54	1083.09
1034.828	1063.88
1035.116	1058.23
1035.403	1078.35
1035.691	1072.02
1035.979	1046.71
1036.267	1054.17
1036.554	1039.7
1036.842	1037.67
1037.129	1036.31
1037.417	1036.31
1037.704	1028.18
1037.992	1017.78
1038.279	1009.2
1038.566	1032.7
1038.853	1032.7
1039.14	1032.7
