Data from hue_300_FLMS001491_00053.txt Node
Date: Tue Feb 07 15:50:54 GMT 2017
User: dcchb
Spectrometer: FLMS00149
Trigger mode: 0
Integration Time (sec): 2.000000E-2
Scans to average: 10
Electric dark correction enabled: true
Nonlinearity correction enabled: false
Boxcar width: 0
XAxis mode: Wavelengths
Number of Pixels in Spectrum: 2048
>>>>>Begin Spectral Data<<<<<
341.393	-22.33
341.776	-22.33
342.16	-22.33
342.543	-40.63
342.927	-59.62
343.31	-90.58
343.693	-61.88
344.077	-66.85
344.46	-42.67
344.843	-35.21
345.226	-44.93
345.61	-29.11
345.993	-18.94
346.376	-13.74
346.759	21.28
347.142	42.53
347.525	23.32
347.908	52.47
348.291	74.16
348.674	87.72
349.057	102.41
349.44	124.56
349.823	116.88
350.206	166.14
350.588	198.91
350.971	210.21
351.354	222.64
351.737	222.41
352.119	242.97
352.502	258.79
352.884	274.61
353.267	263.76
353.65	284.78
354.032	304.89
354.414	298.11
354.797	304.44
355.179	284.33
355.562	307.6
355.944	309.86
356.326	344.21
356.709	331.11
357.091	317.32
357.473	336.3
357.855	333.59
358.238	330.43
358.62	347.83
359.002	338.11
359.384	339.02
359.766	337.89
360.148	336.98
360.53	342.63
360.912	353.71
361.294	335.85
361.676	324.33
362.057	311.9
362.439	333.37
362.821	333.82
363.203	304.22
363.584	304.22
363.966	315.74
364.348	321.16
364.729	325.91
365.111	322.07
365.493	333.59
365.874	308.73
366.256	309.19
366.637	309.41
367.019	310.09
367.4	314.84
367.781	305.35
368.163	315.29
368.544	316.42
368.925	285.91
369.306	311.22
369.688	299.7
370.069	323.65
370.45	298.79
370.831	325.46
371.212	320.26
371.593	296.76
371.974	307.83
372.355	321.62
372.736	309.19
373.117	328.85
373.498	308.06
373.879	304.67
374.26	332.46
374.641	311.45
375.021	313.25
375.402	308.51
375.783	318.23
376.163	338.79
376.544	317.32
376.925	326.36
377.305	314.38
377.686	322.07
378.066	341.05
378.447	324.55
378.827	325.91
379.208	336.08
379.588	312.8
379.968	318.23
380.349	323.88
380.729	329.75
381.109	341.73
381.489	329.53
381.87	332.01
382.25	307.6
382.63	328.4
383.01	333.59
383.39	325.23
383.77	327.94
384.15	341.95
384.53	341.28
384.91	326.36
385.29	343.31
385.67	337.43
386.049	335.4
386.429	372.46
386.809	353.03
387.189	352.12
387.568	350.99
387.948	347.38
388.328	341.05
388.707	365.91
389.087	373.82
389.466	374.95
389.846	358.45
390.225	356.87
390.605	356.19
390.984	358
391.363	363.42
391.743	365.91
392.122	343.31
392.501	367.94
392.881	400.94
393.26	365.68
393.639	365.91
394.018	361.61
394.397	374.5
394.776	382.41
395.155	375.63
395.534	360.94
395.913	388.28
396.292	378.34
396.671	386.47
397.05	403.87
397.429	385.12
397.808	376.3
398.186	395.51
398.565	393.25
398.944	387.38
399.323	385.79
399.701	395.96
400.08	420.82
400.458	401.39
400.837	414.72
401.215	434.83
401.594	392.8
401.972	409.98
402.351	414.27
402.729	409.52
403.107	418.56
403.486	416.98
403.864	422.86
404.242	425.57
404.62	441.39
404.999	453.82
405.377	450.65
405.755	440.93
406.133	462.4
406.511	438
406.889	446.36
407.267	438
407.645	458.34
408.023	477.54
408.401	492.01
408.779	494.49
409.156	495.4
409.534	508.28
409.912	487.49
410.29	513.48
410.667	520.71
411.045	512.8
411.422	515.96
411.8	534.04
412.178	538.33
412.555	551.89
412.933	543.08
413.31	575.39
413.687	589.86
414.065	576.07
414.442	566.58
414.819	579.69
415.197	604.09
415.574	602.74
415.951	605
416.328	652
416.705	610.2
417.082	648.84
417.46	649.97
417.837	659.23
418.214	661.27
418.591	659.23
418.967	662.62
419.344	689.97
419.721	693.36
420.098	712.34
420.475	691.55
420.852	721.83
421.228	735.16
421.605	744.2
421.982	745.11
422.358	749.18
422.735	760.7
423.111	772.9
423.488	796.18
423.864	796.63
424.241	807.03
424.617	800.25
424.994	797.76
425.37	800.25
425.746	815.39
426.123	834.37
426.499	845.22
426.875	833.92
427.251	875.05
427.627	901.71
428.003	863.3
428.379	887.48
428.756	908.04
429.132	915.95
429.507	917.98
429.883	952.79
430.259	946.01
430.635	953.01
431.011	960.47
431.387	977.64
431.763	990.52
432.138	1017.87
432.514	1018.77
432.89	1033.91
433.265	1043.63
433.641	1071.88
434.016	1062.16
434.392	1071.88
434.767	1099.22
435.143	1084.99
435.518	1113.01
435.894	1121.59
436.269	1130.63
436.644	1142.16
437.02	1142.39
437.395	1167.47
437.77	1168.83
438.145	1183.51
438.52	1188.71
438.895	1215.38
439.271	1224.19
439.646	1197.53
440.021	1219.22
440.395	1222.84
440.77	1211.99
441.145	1234.59
441.52	1242.72
441.895	1251.99
442.27	1289.05
442.645	1287.24
443.019	1284.98
443.394	1285.88
443.769	1307.8
444.143	1310.29
444.518	1327.69
444.892	1288.6
445.267	1302.38
445.641	1326.56
446.016	1306
446.39	1345.32
446.764	1348.03
447.139	1316.39
447.513	1355.71
447.887	1359.55
448.262	1311.65
448.636	1379.22
449.01	1391.87
449.384	1370.18
449.758	1384.19
450.132	1392.55
450.506	1393.9
450.88	1407.46
451.254	1418.54
451.628	1408.14
452.002	1416.95
452.376	1432.1
452.75	1435.03
453.123	1429.16
453.497	1443.17
453.871	1422.83
454.244	1475.26
454.618	1459.67
454.992	1452.21
455.365	1472.77
455.739	1501.7
456.112	1506.9
456.486	1538.53
456.859	1541.47
457.232	1560.23
457.606	1551.19
457.979	1539.66
458.352	1562.49
458.725	1581.02
459.099	1606.33
459.472	1609.94
459.845	1643.84
460.218	1662.15
460.591	1651.75
460.964	1642.94
461.337	1678.42
461.71	1694.01
462.083	1725.42
462.456	1713.67
462.829	1702.14
463.201	1745.76
463.574	1722.03
463.947	1769.71
464.32	1764.29
464.692	1795.25
465.065	1800.45
465.438	1796.83
465.81	1817.62
466.183	1825.31
466.555	1851.07
466.928	1833.44
467.3	1873.44
467.672	1865.08
468.045	1891.29
468.417	1922.25
468.789	1917.28
469.161	1923.83
469.534	1953.66
469.906	1981.46
470.278	1996.37
470.65	1977.62
471.022	2051.74
471.394	2069.82
471.766	2029.37
472.138	2102.59
472.51	2101
472.882	2121.34
473.253	2155.24
473.625	2138.97
473.997	2176.71
474.369	2206.76
474.74	2205.86
475.112	2200.89
475.484	2227.78
475.855	2260.55
476.227	2308.91
476.598	2336.03
476.97	2370.15
477.341	2378.51
477.713	2379.19
478.084	2422.8
478.455	2477.27
478.827	2463.93
479.198	2500.77
479.569	2511.61
479.94	2543.25
480.311	2555.91
480.682	2618.05
481.053	2604.27
481.424	2651.27
481.795	2647.43
482.166	2741.67
482.537	2726.07
482.908	2778.5
483.279	2796.8
483.65	2807.2
484.021	2867.99
484.391	2883.81
484.762	2873.19
485.133	2874.54
485.503	2914.54
485.874	2957.25
486.244	2973.98
486.615	2995.67
486.985	3017.36
487.356	3076.12
487.726	3073.63
488.097	3127.19
488.467	3112.5
488.837	3187.3
489.207	3188.89
489.578	3238.15
489.948	3260.3
490.318	3276.57
490.688	3270.92
491.058	3376.9
491.428	3328.54
491.798	3351.82
492.168	3422.55
492.538	3444.47
492.908	3449.22
493.278	3466.62
493.648	3545.03
494.017	3507.97
494.387	3527.41
494.757	3553.4
495.126	3579.38
495.496	3563.56
495.866	3578.71
496.235	3611.92
496.605	3662.32
496.974	3628.87
497.344	3643.34
497.713	3704.58
498.082	3677.23
498.452	3697.8
498.821	3718.81
499.19	3717.68
499.559	3751.58
499.928	3790
500.298	3751.58
500.667	3831.35
501.036	3802.43
501.405	3819.6
501.774	3792.03
502.143	3853.73
502.512	3883.78
502.88	3868.42
503.249	3897.12
503.618	3878.58
503.987	3925.14
504.356	3912.03
504.724	3936.66
505.093	3945.02
505.462	3975.98
505.83	3986.83
506.199	3991.58
506.567	4045.59
506.936	4006.72
507.304	4053.27
507.672	4020.05
508.041	4033.38
508.409	4054.4
508.777	4092.14
509.145	4123.32
509.514	4112.93
509.882	4111.8
510.25	4143.66
510.618	4159.26
510.986	4152.02
511.354	4177.79
511.722	4203.32
512.09	4239.93
512.458	4236.54
512.826	4236.77
513.193	4238.35
513.561	4249.42
513.929	4246.48
514.297	4316.99
514.664	4297.56
515.032	4298.46
515.4	4328.52
515.767	4267.5
516.135	4349.08
516.502	4301.85
516.869	4348.85
517.237	4369.87
517.604	4350.21
517.972	4362.87
518.339	4402.86
518.706	4388.18
519.073	4398.34
519.44	4394.5
519.808	4403.54
520.175	4398.12
520.542	4495.97
520.909	4464.33
521.276	4478.57
521.643	4488.51
522.009	4494.84
522.376	4535.74
522.743	4538.68
523.11	4545.23
523.477	4582.97
523.843	4648.06
524.21	4667.72
524.577	4615.74
524.943	4618.45
525.31	4714.27
525.676	4727.83
526.043	4730.54
526.409	4773.02
526.776	4741.39
527.142	4759.69
527.508	4861.84
527.874	4832.23
528.241	4858.22
528.607	4855.51
528.973	4873.59
529.339	4952.45
529.705	4940.48
530.071	4993.36
530.437	4974.37
530.803	5027.03
531.169	5060.25
531.535	5083.75
531.901	5069.97
532.267	5064.09
532.632	5090.08
532.998	5084.2
533.364	5184.76
533.73	5159
534.095	5159.45
534.461	5166.69
534.826	5287.81
535.192	5260.02
535.557	5241.03
535.923	5319.9
536.288	5315.38
536.653	5319
537.019	5328.26
537.384	5352.67
537.749	5410.3
538.114	5436.06
538.479	5416.4
538.845	5409.62
539.21	5428.37
539.575	5455.94
539.94	5508.82
540.305	5498.65
540.67	5476.73
541.034	5525.32
541.399	5593.34
541.764	5599.44
542.129	5622.49
542.494	5661.14
542.858	5713.56
543.223	5717.86
543.587	5730.97
543.952	5740.68
544.316	5750.85
544.681	5760.79
545.045	5800.57
545.41	5787.91
545.774	5863.62
546.138	5874.69
546.503	5936.84
546.867	5931.64
547.231	5949.04
547.595	5938.87
547.959	5954.24
548.324	5966.44
548.688	6024.52
549.052	6045.53
549.416	6002.6
549.779	6082.14
550.143	6060.22
550.507	6101.8
550.871	6083.95
551.235	6161.46
551.599	6175.7
551.962	6203.04
552.326	6204.4
552.689	6262.25
553.053	6236.26
553.417	6239.65
553.78	6324.85
554.143	6300.67
554.507	6293.21
554.87	6329.82
555.234	6408.91
555.597	6356.49
555.96	6376.6
556.323	6385.41
556.686	6468.57
557.05	6527.55
557.413	6466.99
557.776	6455.01
558.139	6528.68
558.502	6580.21
558.865	6566.42
559.228	6591.28
559.59	6531.4
559.953	6608.68
560.316	6655.01
560.679	6584.73
561.041	6646.2
561.404	6729.58
561.767	6740.66
562.129	6695.91
562.492	6783.59
562.854	6729.13
563.217	6736.59
563.579	6785.17
563.941	6825.17
564.304	6846.64
564.666	6891.39
565.028	6911.73
565.39	6864.04
565.753	6959.63
566.115	6953.53
566.477	6991.5
566.839	7016.36
567.201	7050.7
567.563	7072.62
567.925	7047.09
568.287	7148.1
568.648	7120.53
569.01	7173.41
569.372	7238.95
569.734	7185.16
570.095	7210.47
570.457	7235.56
570.819	7312.39
571.18	7367.76
571.542	7389.68
571.903	7467.42
572.265	7488.21
572.626	7560.75
572.987	7530.69
573.349	7562.78
573.71	7607.3
574.071	7641.88
574.432	7756.45
574.794	7796
575.155	7825.6
575.516	7873.73
575.877	7980.62
576.238	7966.84
576.599	8105.82
576.96	8191.47
577.32	8191.24
577.681	8345.36
578.042	8417.67
578.403	8457.22
578.763	8589.65
579.124	8644.56
579.485	8772.02
579.845	8954.16
580.206	8976.98
580.566	9142.4
580.927	9296.75
581.287	9457.65
581.648	9468.04
582.008	9654.7
582.368	9805.43
582.728	9964.53
583.089	10069.83
583.449	10310.73
583.809	10434.12
584.169	10603.61
584.529	10776.26
584.889	11040.66
585.249	11111.61
585.609	11356.35
585.969	11698.72
586.329	11797.7
586.688	12116.33
587.048	12236.33
587.408	12565.59
587.768	12716.54
588.127	12993.6
588.487	13228.17
588.846	13577.76
589.206	13657.99
589.565	13906.12
589.925	14327.12
590.284	14476.5
590.643	14797.39
591.003	15111.51
591.362	15457.04
591.721	15648.22
592.08	15964.59
592.44	16337.47
592.799	16681.41
593.158	16922.76
593.517	17093.83
593.876	17465.57
594.235	17750.76
594.593	18080.47
594.952	18386.45
595.311	18662.38
595.67	19014.46
596.029	19521.34
596.387	19678.4
596.746	20003.58
597.104	20247.87
597.463	20485.15
597.822	20910.45
598.18	21101.18
598.538	21399.03
598.897	21869.3
599.255	21996.3
599.613	22544.53
599.972	22711.31
600.33	23088.47
600.688	23239.88
601.046	23684.17
601.404	24006.64
601.762	24264.49
602.12	24625.61
602.478	24846.17
602.836	25058.37
603.194	25120.96
603.552	25530.22
603.91	25780.38
604.268	26277.54
604.625	26261.05
604.983	26588.72
605.341	26712.79
605.698	27105.32
606.056	27335.59
606.413	27599.54
606.771	28026.88
607.128	28179.19
607.485	28227.55
607.843	28495.79
608.2	28950.24
608.557	29285.6
608.914	29225.04
609.272	29656.21
609.629	29867.51
609.986	30213.26
610.343	30120.83
610.7	30730.08
611.057	30766.01
611.414	30923.07
611.771	31197.41
612.127	31444.87
612.484	31376.62
612.841	31892.99
613.198	31782.48
613.554	32018.41
613.911	32428.57
614.267	32463.14
614.624	32575.23
614.98	32857.03
615.337	33131.37
615.693	33195.1
616.05	33250.47
616.406	33687.52
616.762	33630.8
617.118	33786.05
617.475	34016.78
617.831	34155.53
618.187	34286.37
618.543	34481.85
618.899	34713.03
619.255	34845
619.611	34768.17
619.967	35049.29
620.323	35220.36
620.678	35091.78
621.034	35460.13
621.39	35409.51
621.746	35476.85
622.101	35898.53
622.457	35682.49
622.812	35774.24
623.168	36210.62
623.523	36088.13
623.879	36311.86
624.234	36226.89
624.589	36486.09
624.945	36416.03
625.3	36591.62
625.655	36688.12
626.01	36873.42
626.365	36889.69
626.72	36855.12
627.075	36936.25
627.43	37066.64
627.785	36820.54
628.14	37126.75
628.495	37240.42
628.85	37319.06
629.205	37069.35
629.559	37287.88
629.914	37313.19
630.269	37418.04
630.623	37328.1
630.978	37273.64
631.332	37493.29
631.687	37572.84
632.041	37450.58
632.396	37580.07
632.75	37557.02
633.104	37523.8
633.459	37459.17
633.813	37427.98
634.167	37491.49
634.521	37540.3
634.875	37722.21
635.229	37574.65
635.583	37396.12
635.937	37631.6
636.291	37479.28
636.645	37502.56
636.999	37610.58
637.352	37639.05
637.706	37501.66
638.06	37618.94
638.413	37711.82
638.767	37488.32
639.121	37687.64
639.474	37349.12
639.828	37521.32
640.181	37608.32
640.534	37495.33
640.888	37408.1
641.241	37451.26
641.594	37519.96
641.947	37580.52
642.301	37424.14
642.654	37561.77
643.007	37519.28
643.36	37559.96
643.713	37397.48
644.066	37663.46
644.419	37387.08
644.771	37134.43
645.124	36860.09
645.477	36654.67
645.83	36551.4
646.182	36530.83
646.535	36324.51
646.888	36460.78
647.24	36449.71
647.593	36570.61
647.945	36395.92
648.298	36331.29
648.65	36299.2
649.002	36231.41
649.355	36406.77
649.707	36319.99
650.059	36516.82
650.411	36934.21
650.763	37001.56
651.115	37408.32
651.467	37145.28
651.819	37205.17
652.171	37098.28
652.523	37124.72
652.875	37071.16
653.227	37010.59
653.578	37215.11
653.93	37040.88
654.282	36870.03
654.633	36969.92
654.985	36911.61
655.337	37107.32
655.688	37061.21
656.039	37152.29
656.391	36695.57
656.742	36960.2
657.094	36971.95
657.445	37070.48
657.796	37031.84
658.147	36865.74
658.498	36905.06
658.849	36977.15
659.2	36919.52
659.551	36791.39
659.902	36830.03
660.253	36904.38
660.604	36978.05
660.955	36853.08
661.306	36929.92
661.656	36849.47
662.007	36818.74
662.358	36858.73
662.708	36891.95
663.059	36854.44
663.409	36671.85
663.76	36966.75
664.11	36827.77
664.461	36936.02
664.811	36860.77
665.161	36888.56
665.511	36816.7
665.862	36693.54
666.212	36797.04
666.562	36750.49
666.912	36764.5
667.262	36845.63
667.612	36724.05
667.962	36783.26
668.312	36664.16
668.662	36878.39
669.011	36762.92
669.361	36763.82
669.711	36710.72
670.06	36716.37
670.41	36709.36
670.76	36585.07
671.109	36729.02
671.459	36645.86
671.808	36606.76
672.157	36590.72
672.507	36418.97
672.856	36547.33
673.205	36538.52
673.554	36745.52
673.904	36554.56
674.253	36721.79
674.602	36538.52
674.951	36080.45
675.3	35897.86
675.649	36331.29
675.998	36355.7
676.346	36329.03
676.695	36632.07
677.044	36269.37
677.393	36427.79
677.741	36422.81
678.09	36369.26
678.438	36273.66
678.787	36317.51
679.135	36312.31
679.484	36055.37
679.832	36171.07
680.181	36128.58
680.529	36170.84
680.877	36035.25
681.225	35962.49
681.573	36213.55
681.922	35998.64
682.27	35813.11
682.618	35881.36
682.966	35815.82
683.314	35937.18
683.661	35731.76
684.009	35583.97
684.357	35534.93
684.705	35379.23
685.053	35423.74
685.4	35552.78
685.748	35194.37
686.095	35276.18
686.443	35165.45
686.79	35084.09
687.138	35243.64
687.485	35155.05
687.832	35008.39
688.18	35026.01
688.527	34845.68
688.874	34949.63
689.221	34797.77
689.568	34663.31
689.915	34593.48
690.262	34504.67
690.609	34456.54
690.956	34404.56
691.303	34380.83
691.65	34200.95
691.997	34294.06
692.344	33938.81
692.69	34056.55
693.037	33933.61
693.383	33745.82
693.73	33865.37
694.077	33674.41
694.423	33623.34
694.769	33542.44
695.116	33446.17
695.462	33487.52
695.808	33376.79
696.155	33426.51
696.501	33196.68
696.847	33213.86
697.193	33024.26
697.539	33052.96
697.885	32747.66
698.231	32684.83
698.577	32814.32
698.923	32661.1
699.269	32464.27
699.614	32280.32
699.96	32321.23
700.306	32212.08
700.651	32240.55
700.997	32048.69
701.342	32083.04
701.688	31907.45
702.033	31935.7
702.379	31945.87
702.724	31808.25
703.069	31880.33
703.415	31436.05
703.76	31539.55
704.105	31500.68
704.45	31352.44
704.795	31323.74
705.14	31138.43
705.485	31114.7
705.83	30931.43
706.175	30960.36
706.52	30984.99
706.865	30859.12
707.209	30864.32
707.554	30765.11
707.899	30866.35
708.243	30703.64
708.588	30529.64
708.932	30321.5
709.277	30441.05
709.621	30395.85
709.966	30151.57
710.31	30235.63
710.654	30047.16
710.998	30100.72
711.342	30110.89
711.687	29937.56
712.031	29757.23
712.375	29825.7
712.719	29820.73
713.063	29763.1
713.407	29707.96
713.75	29622.99
714.094	29593.61
714.438	29553.84
714.782	29476.78
715.125	29402.21
715.469	29422.77
715.812	29301.87
716.156	29134.87
716.499	29138.26
716.843	29134.42
717.186	28987.53
717.53	29171.48
717.873	29079.05
718.216	29008.55
718.559	28816.01
718.902	28697.37
719.246	28785.73
719.589	28586.18
719.932	28620.08
720.275	28496.02
720.617	28603.81
720.96	28510.93
721.303	28547.54
721.646	28503.93
721.989	28292.41
722.331	28399.75
722.674	28218.96
723.016	28371.95
723.359	28139.64
723.701	28207.66
724.044	28009.7
724.386	27906.2
724.729	27894.22
725.071	28048.57
725.413	27979.87
725.755	27868.69
726.097	27772.87
726.439	27691.52
726.782	27746.88
727.124	27842.47
727.465	27686.32
727.807	27601.8
728.149	27571.97
728.491	27579.43
728.833	27588.24
729.175	27452.65
729.516	27412.2
729.858	27409.27
730.199	27417.63
730.541	27434.12
730.882	27322.26
731.224	27188.71
731.565	27272.09
731.906	27149.16
732.248	27168.14
732.589	27037.3
732.93	26863.74
733.271	26969.73
733.612	27057.64
733.953	27090.63
734.294	26804.31
734.635	26842.95
734.976	26877.53
735.317	26815.83
735.658	26821.48
735.999	26733.35
736.339	26601.6
736.68	26821.71
737.021	26605.22
737.361	26481.38
737.702	26658.78
738.042	26505.56
738.383	26506.01
738.723	26476.18
739.063	26449.52
739.404	26445.67
739.744	26405.68
740.084	26299.01
740.424	26365
740.764	26343.08
741.104	26428.5
741.444	26190.77
741.784	26176.76
742.124	26150.54
742.464	26138.11
742.804	26058.57
743.143	26068.06
743.483	26040.71
743.823	25919.59
744.162	25872.81
744.502	25988.51
744.841	25788.97
745.181	25918.91
745.52	25787.39
745.86	25849.76
746.199	25707.16
746.538	25868.97
746.877	25819.02
747.216	25761.85
747.556	25626.26
747.895	25688.41
748.234	25527.05
748.573	25477.79
748.911	25388.75
749.25	25519.15
749.589	25378.13
749.928	25432.14
750.267	25511.69
750.605	25377.91
750.944	25261.3
751.283	25128.87
751.621	25200.06
751.96	25210.23
752.298	25183.34
752.636	25171.58
752.975	25028.31
753.313	24941.31
753.651	25087.74
753.989	24974.3
754.327	24994.41
754.666	24889.56
755.004	24886.85
755.342	24865.6
755.679	24780.86
756.017	24646.17
756.355	24730.47
756.693	24582.45
757.031	24660.64
757.368	24599.85
757.706	24569.79
758.044	24508.78
758.381	24499.06
758.719	24302.91
759.056	24304.94
759.394	24283.92
759.731	24177.03
760.068	24128.9
760.405	24073.53
760.743	24043.7
761.08	24081.67
761.417	24009.35
761.754	23927.1
762.091	23816.37
762.428	23707.89
762.765	23628.12
763.102	23815.46
763.438	23493.21
763.775	23554.45
764.112	23523.27
764.449	23425.19
764.785	23401.23
765.122	23333.89
765.458	23238.98
765.795	23245.76
766.131	23100
766.467	23065.88
766.804	22950.63
767.14	22855.49
767.476	22825.66
767.812	22771.87
768.148	22834.02
768.485	22632.22
768.821	22482.84
769.157	22478.32
769.492	22447.14
769.828	22403.75
770.164	22176.18
770.5	22177.31
770.836	22271.32
771.171	22052.12
771.507	22052.34
771.842	21858
772.178	21922.86
772.513	21844.21
772.849	21604.22
773.184	21562.64
773.519	21579.59
773.855	21410.33
774.19	21361.97
774.525	21284.23
774.86	21401.97
775.195	21128.07
775.53	21116.78
775.865	20979.6
776.2	20882.21
776.535	20732.83
776.87	20779.61
777.205	20786.16
777.539	20617.35
777.874	20698.48
778.209	20431.82
778.543	20482.22
778.878	20405.38
779.212	20347.53
779.547	20130.36
779.881	20261.2
780.215	20114.77
780.55	20217.59
780.884	20063.24
781.218	19945.51
781.552	19906.64
781.886	19760.88
782.22	19581
782.554	19662.35
782.888	19457.16
783.222	19427.33
783.556	19311.85
783.889	19277.73
784.223	19150.73
784.557	19070.73
784.89	19156.15
785.224	19126.32
785.557	18877.51
785.891	18931.75
786.224	18822.6
786.558	18904.4
786.891	18687.01
787.224	18633.9
787.557	18578.31
787.891	18582.38
788.224	18495.15
788.557	18415.83
788.89	18387.58
789.223	18400.24
789.556	18220.58
789.888	18204.31
790.221	18151.66
790.554	17952.79
790.887	17921.38
791.219	17802.29
791.552	17872.79
791.884	17765.45
792.217	17675.74
792.549	17730.88
792.882	17628.51
793.214	17466.25
793.546	17453.82
793.879	17423.77
794.211	17301.28
794.543	17260.15
794.875	17243.43
795.207	17371.34
795.539	17160.04
795.871	17165.24
796.203	16995.08
796.535	16902.87
796.867	16886.6
797.198	16792.37
797.53	16857.68
797.862	16713.73
798.193	16746.95
798.525	16548.99
798.856	16727.51
799.188	16487.07
799.519	16409.78
799.85	16293.17
800.182	16360.52
800.513	16306.96
800.844	16111.94
801.175	16233.97
801.506	16186.06
801.837	16117.58
802.168	15998.94
802.499	15966.85
802.83	15873.98
803.161	15823.58
803.491	15894.31
803.822	15902.68
804.153	15707.2
804.483	15650.25
804.814	15586.75
805.145	15628.56
805.475	15556.24
805.805	15562.35
806.136	15517.83
806.466	15423.14
806.796	15525.28
807.126	15314.22
807.457	15269.47
807.787	15297.27
808.117	15173.2
808.447	15172.3
808.777	15230.83
809.107	15160.32
809.436	14982.47
809.766	15070.61
810.096	14999.2
810.426	14944.06
810.755	14990.83
811.085	14882.36
811.414	14838.97
811.744	14700.9
812.073	14734.34
812.403	14732.08
812.732	14723.05
813.061	14623.16
813.39	14599.66
813.719	14588.59
814.049	14583.39
814.378	14461.13
814.707	14438.31
815.036	14398.76
815.365	14413
815.693	14204.64
816.022	14255.26
816.351	14231.53
816.68	14112.89
817.008	14184.53
817.337	13986.12
817.665	14010.3
817.994	14083.29
818.322	13980.69
818.651	13908.38
818.979	13854.14
819.307	13969.39
819.636	13986.12
819.964	13841.26
820.292	13823.63
820.62	13861.6
820.948	13769.17
821.276	13851.2
821.604	13809.4
821.932	13868.6
822.259	13794.03
822.587	13735.27
822.915	13737.31
823.243	13837.42
823.57	13768.72
823.898	13689.4
824.225	13603.75
824.553	13744.54
824.88	13703.41
825.207	13687.14
825.535	13658.21
825.862	13704.09
826.189	13668.16
826.516	13785.67
826.843	13802.84
827.17	13679.23
827.497	13820.24
827.824	13728.04
828.151	13729.4
828.478	13731.43
828.805	13819.79
829.131	13694.82
829.458	13662.51
829.785	13579.57
830.111	13667.93
830.438	13697.99
830.764	13669.06
831.09	13665.9
831.417	13637.42
831.743	13659.34
832.069	13621.61
832.395	13672.45
832.722	13617.09
833.048	13608.72
833.374	13542.96
833.7	13591.78
834.026	13539.57
834.351	13568.95
834.677	13497.54
835.003	13542.29
835.329	13539.35
835.654	13506.58
835.98	13462.06
836.306	13468.16
836.631	13385
836.956	13391.33
837.282	13487.6
837.607	13323.08
837.932	13381.16
838.258	13259.35
838.583	13301.61
838.908	13302.29
839.233	13290.77
839.558	13210.54
839.883	13116.08
840.208	13205.12
840.533	13144.56
840.858	13133.93
841.182	13140.26
841.507	13109.75
841.832	13091.22
842.156	13068.4
842.481	13043.32
842.805	13037.21
843.13	12981.85
843.454	12995.86
843.778	12862.3
844.103	12821.4
844.427	12909.76
844.751	12874.05
845.075	12820.5
845.399	12802.64
845.723	12710.67
846.047	12628.41
846.371	12524.91
846.695	12555.19
847.019	12484.46
847.343	12461.18
847.666	12333.05
847.99	12359.94
848.313	12310.23
848.637	12194.3
848.96	12257.35
849.284	12143.68
849.607	12093.06
849.931	11998.37
850.254	11964.47
850.577	11942.1
850.9	11759.06
851.223	11925.38
851.546	11786.85
851.869	11591.38
852.192	11756.8
852.515	11608.1
852.838	11580.3
853.161	11550.7
853.483	11533.75
853.806	11447.65
854.129	11441.1
854.451	11470.25
854.774	11334.89
855.096	11292.85
855.419	11369.46
855.741	11294.89
856.063	11166.98
856.385	11168.11
856.708	11202.23
857.03	11121.78
857.352	11073.2
857.674	11081.11
857.996	11028.45
858.318	10970.15
858.64	10933.54
858.961	10982.13
859.283	10983.93
859.605	10893.77
859.926	10906.87
860.248	10777.84
860.57	10830.94
860.891	10805.63
861.212	10699.42
861.534	10644.28
861.855	10678.63
862.176	10649.03
862.498	10636.37
862.819	10665.52
863.14	10651.51
863.461	10604.51
863.782	10599.31
864.103	10565.87
864.424	10511.63
864.745	10525.19
865.065	10461.24
865.386	10410.39
865.707	10419.66
866.027	10475.25
866.348	10424.18
866.668	10380.56
866.989	10402.93
867.309	10343.95
867.63	10366.1
867.95	10334.46
868.27	10203.16
868.59	10325.42
868.91	10217.85
869.23	10204.97
869.55	10169.27
869.87	10240
870.19	10227.57
870.51	10246.55
870.83	10147.57
871.15	10182.37
871.469	10115.03
871.789	10195.25
872.109	10087.91
872.428	10116.16
872.748	10138.53
873.067	10130.17
873.386	10088.36
873.706	10084.75
874.025	9960.23
874.344	9935.6
874.663	9894.25
874.982	9920.69
875.301	9873.23
875.62	9860.8
875.939	9902.38
876.258	9831.87
876.577	9856.05
876.896	9877.97
877.214	9841.82
877.533	9830.97
877.852	9803.17
878.17	9820.12
878.489	9809.73
878.807	9789.16
879.125	9735.15
879.444	9762.95
879.762	9663.52
880.08	9725.89
880.398	9648.15
880.716	9578.77
881.034	9569.73
881.352	9619.9
881.67	9532.45
881.988	9550.53
882.306	9583.29
882.624	9562.95
882.941	9560.47
883.259	9483.18
883.577	9399.12
883.894	9444.09
884.212	9406.57
884.529	9419.91
884.846	9399.12
885.164	9358.67
885.481	9341.94
885.798	9318.89
886.115	9241.61
886.432	9263.08
886.75	9189.18
887.067	9240.93
887.383	9155.73
887.7	9234.6
888.017	9114.38
888.334	9164.55
888.651	9130.65
888.967	9124.32
889.284	9040.48
889.6	9053.82
889.917	9033.7
890.233	8976.53
890.55	8968.85
890.866	8927.27
891.182	8944.44
891.498	8857.44
891.815	8835.06
892.131	8819.47
892.447	8767.72
892.763	8733.37
893.079	8743.54
893.395	8751
893.71	8666.71
894.026	8710.77
894.342	8615.41
894.657	8583.77
894.973	8566.82
895.289	8543.09
895.604	8540.61
895.92	8503.55
896.235	8451.35
896.55	8396.43
896.865	8407.96
897.181	8332.93
897.496	8392.82
897.811	8311.69
898.126	8325.02
898.441	8311.24
898.756	8247.28
899.071	8183.33
899.386	8126.38
899.7	8120.73
900.015	8037.57
900.33	8046.61
900.644	8045.03
900.959	8018.36
901.273	7989.66
901.588	7928.42
901.902	7934.75
902.216	7943.11
902.531	7886.84
902.845	7847.75
903.159	7845.94
903.473	7863.11
903.787	7765.71
904.101	7764.13
904.415	7747.86
904.729	7660.63
905.042	7654.98
905.356	7626.96
905.67	7621.99
905.984	7557.36
906.297	7543.57
906.611	7495.66
906.924	7518.49
907.237	7497.25
907.551	7423.12
907.864	7439.39
908.177	7367.31
908.491	7387.19
908.804	7294.99
909.117	7351.49
909.43	7265.16
909.743	7235.11
910.056	7209.57
910.368	7165.5
910.681	7168.22
910.994	7161.21
911.307	7104.71
911.619	7031.27
911.932	7017.71
912.244	7030.82
912.557	6927.77
912.869	6928.45
913.181	6920.54
913.494	6900.65
913.806	6816.81
914.118	6822.46
914.43	6762.8
914.742	6735.46
915.054	6736.59
915.366	6725.74
915.678	6688.68
915.99	6677.15
916.302	6610.72
916.613	6584.28
916.925	6545.63
917.236	6582.02
917.548	6489.14
917.859	6502.24
918.171	6453.21
918.482	6421.79
918.794	6390.83
919.105	6404.39
919.416	6356.71
919.727	6375.02
920.038	6276.26
920.349	6268.58
920.66	6238.75
920.971	6231.52
921.282	6201.24
921.593	6139.32
921.903	6165.98
922.214	6109.03
922.525	6100.67
922.835	6036.95
923.146	6060.45
923.456	5992.43
923.767	6034.01
924.077	5984.07
924.387	5939.77
924.697	5881.24
925.008	5905.2
925.318	5881.7
925.628	5854.35
925.938	5789.95
926.248	5833.79
926.558	5735.26
926.867	5740.91
927.177	5739.78
927.487	5704.75
927.796	5669.27
928.106	5641.25
928.416	5595.6
928.725	5633.11
929.034	5541.82
929.344	5567.35
929.653	5563.74
929.962	5473.34
930.271	5470.63
930.581	5453.91
930.89	5411.2
931.199	5372.56
931.508	5447.81
931.817	5356.29
932.125	5345.44
932.434	5354.03
932.743	5314.03
933.051	5262.05
933.36	5244.2
933.669	5241.49
933.977	5200.13
934.286	5205.33
934.594	5138.44
934.902	5152.22
935.21	5067.48
935.519	5089.4
935.827	5057.31
936.135	5025.9
936.443	5001.49
936.751	4982.06
937.059	4982.28
937.367	4988.61
937.674	4943.64
937.982	4931.66
938.29	4934.6
938.597	4900.25
938.905	4883.3
939.213	4806.24
939.52	4779.58
939.827	4826.13
940.135	4751.33
940.442	4729.41
940.749	4774.83
941.056	4720.14
941.363	4677.66
941.67	4712.46
941.977	4652.8
942.284	4620.03
942.591	4560.15
942.898	4589.98
943.205	4582.97
943.511	4547.27
943.818	4540.49
944.125	4517.44
944.431	4505.46
944.738	4504.56
945.044	4447.84
945.35	4453.48
945.657	4406.03
945.963	4349.08
946.269	4372.58
946.575	4354.28
946.881	4352.02
947.187	4349.53
947.493	4275.64
947.799	4301.17
948.105	4227.28
948.41	4219.82
948.716	4258.69
949.022	4261.63
949.327	4153.83
949.633	4176.88
949.938	4117.22
950.244	4141.4
950.549	4116.54
950.854	4065.25
951.16	4060.95
951.465	4045.59
951.77	4059.82
952.075	4053.04
952.38	4015.53
952.685	4024.8
952.99	3947.74
953.294	3975.98
953.599	3976.89
953.904	3944.12
954.209	3899.83
954.513	3898.24
954.818	3905.48
955.122	3880.62
955.426	3842.88
955.731	3781.86
956.035	3806.72
956.339	3788.19
956.643	3817.8
956.948	3744.58
957.252	3742.77
957.556	3740.73
957.86	3711.36
958.163	3655.77
958.467	3722.2
958.771	3674.52
959.075	3664.13
959.378	3640.17
959.682	3618.25
959.985	3594.98
960.289	3579.38
960.592	3564.92
960.896	3562.43
961.199	3530.57
961.502	3521.31
961.805	3478.37
962.108	3482.89
962.411	3459.39
962.714	3459.39
963.017	3438.37
963.32	3472.04
963.623	3449.44
963.926	3433.17
964.228	3407.41
964.531	3361.76
964.833	3370.35
965.136	3351.59
965.438	3315.66
965.741	3304.36
966.043	3268.66
966.345	3276.79
966.648	3273.4
966.95	3280.86
967.252	3263.46
967.554	3240.86
967.856	3214.65
968.158	3199.96
968.46	3223.69
968.761	3178.26
969.063	3141.43
969.365	3155.89
969.666	3134.88
969.968	3128.77
970.269	3085.84
970.571	3071.15
970.872	3087.64
971.174	3079.96
971.475	3059.62
971.776	3012.84
972.077	2999.96
972.378	3016.23
972.679	3004.71
972.98	2980.98
973.281	2994.77
973.582	2953.41
973.883	2951.38
974.183	2894.66
974.484	2931.04
974.785	2926.07
975.085	2899.18
975.386	2917.93
975.686	2884.94
975.986	2836.8
976.287	2866.63
976.587	2842.68
976.887	2815.56
977.187	2789.8
977.487	2811.04
977.787	2776.69
978.087	2797.26
978.387	2696.92
978.687	2702.57
978.987	2719.74
979.286	2755
979.586	2698.95
979.885	2704.15
980.185	2684.72
980.484	2663.93
980.784	2648.56
981.083	2629.13
981.382	2638.84
981.682	2610.37
981.981	2629.8
982.28	2591.84
982.579	2585.06
982.878	2583.48
983.177	2552.29
983.475	2554.78
983.774	2534.89
984.073	2534.44
984.372	2523.14
984.67	2505.29
984.969	2512.07
985.267	2514.1
985.566	2509.35
985.864	2465.06
986.162	2429.58
986.461	2463.25
986.759	2420.77
987.057	2371.05
987.355	2388
987.653	2402.47
987.951	2423.93
988.249	2380.54
988.547	2350.72
988.844	2399.3
989.142	2374.44
989.44	2296.93
989.737	2321.79
990.035	2316.59
990.332	2319.08
990.63	2278.4
990.927	2260.55
991.224	2249.93
991.521	2287.89
991.819	2270.04
992.116	2260.1
992.413	2218.97
992.71	2189.59
993.006	2230.72
993.303	2197.27
993.6	2194.33
993.897	2175.35
994.193	2186.2
994.49	2148.01
994.787	2148.69
995.083	2136.94
995.379	2135.13
995.676	2147.78
995.972	2083.83
996.268	2092.64
996.565	2105.07
996.861	2071.17
997.157	2083.83
997.453	2058.07
997.749	2042.7
998.044	2052.64
998.34	2021.46
998.636	2007.67
998.932	1991.85
999.227	2010.61
999.523	1992.98
999.818	1983.04
1000.114	1953.44
1000.409	1939.88
1000.704	1927.22
1001	1914.57
1001.295	1930.61
1001.59	1882.25
1001.885	1899.2
1002.18	1902.59
1002.475	1883.38
1002.77	1890.84
1003.065	1898.3
1003.359	1865.98
1003.654	1849.03
1003.949	1819.88
1004.243	1824.85
1004.538	1786.44
1004.832	1818.98
1005.127	1760.9
1005.421	1778.07
1005.715	1789.6
1006.009	1745.53
1006.304	1754.57
1006.598	1753.67
1006.892	1744.18
1007.186	1692.65
1007.48	1721.81
1007.773	1717.51
1008.067	1667.8
1008.361	1667.12
1008.655	1666.21
1008.948	1692.2
1009.242	1647.46
1009.535	1641.13
1009.829	1646.1
1010.122	1632.09
1010.415	1628.02
1010.708	1628.25
1011.001	1613.56
1011.295	1575.37
1011.588	1599.55
1011.881	1583.28
1012.173	1585.31
1012.466	1545.99
1012.759	1549.61
1013.052	1560.68
1013.344	1539.21
1013.637	1513.9
1013.93	1498.76
1014.222	1535.14
1014.514	1468.7
1014.807	1516.16
1015.099	1509.61
1015.391	1464.64
1015.683	1461.25
1015.976	1445.43
1016.268	1447.46
1016.56	1435.26
1016.851	1430.29
1017.143	1420.12
1017.435	1401.36
1017.727	1394.36
1018.018	1402.04
1018.31	1357.52
1018.602	1370.63
1018.893	1367.69
1019.185	1371.76
1019.476	1329.27
1019.767	1341.25
1020.058	1329.05
1020.35	1289.73
1020.641	1321.82
1020.932	1307.8
1021.223	1310.74
1021.514	1280.46
1021.804	1289.27
1022.095	1283.62
1022.386	1232.33
1022.677	1270.29
1022.967	1264.19
1023.258	1241.14
1023.548	1228.03
1023.839	1232.78
1024.129	1220.35
1024.419	1219.22
1024.709	1209.28
1025	1195.04
1025.29	1164.08
1025.58	1171.54
1025.87	1157.07
1026.16	1158.43
1026.449	1149.39
1026.739	1155.27
1027.029	1147.81
1027.319	1140.58
1027.608	1111.43
1027.898	1110.07
1028.187	1112.1
1028.477	1117.08
1028.766	1115.04
1029.055	1087.25
1029.344	1111.2
1029.634	1073.91
1029.923	1083.4
1030.212	1055.83
1030.501	1046.12
1030.79	1052.22
1031.078	1028.04
1031.367	1067.36
1031.656	1031.2
1031.945	1030.52
1032.233	1034.82
1032.522	1013.8
1032.81	1030.3
1033.099	1014.03
1033.387	999.79
1033.675	987.59
1033.963	985.55
1034.251	973.12
1034.54	973.35
1034.828	969.51
1035.116	963.86
1035.403	941.26
1035.691	929.06
1035.979	943.52
1036.267	950.53
1036.554	940.13
1036.842	920.7
1037.129	929.06
1037.417	887.25
1037.704	890.19
1037.992	911.66
1038.279	900.81
1038.566	916.85
1038.853	916.85
1039.14	916.85
