Data from hue_190_FLMS001491_00066.txt Node
Date: Tue Feb 07 16:45:37 GMT 2017
User: dcchb
Spectrometer: FLMS00149
Trigger mode: 0
Integration Time (sec): 2.000000E-2
Scans to average: 10
Electric dark correction enabled: true
Nonlinearity correction enabled: false
Boxcar width: 0
XAxis mode: Wavelengths
Number of Pixels in Spectrum: 2048
>>>>>Begin Spectral Data<<<<<
341.393	-33.71
341.776	-33.71
342.16	-33.71
342.543	-57.89
342.927	-74.16
343.31	-81.4
343.693	-73.71
344.077	-54.5
344.46	-61.74
344.843	-52.7
345.226	-22.64
345.61	-33.04
345.993	6.74
346.376	-0.95
346.759	2.22
347.142	34.53
347.525	33.18
347.908	59.62
348.291	56
348.674	63.91
349.057	124.47
349.44	139.61
349.823	150.24
350.206	142.78
350.588	169.44
350.971	223.68
351.354	210.35
351.737	213.96
352.119	242.89
352.502	253.06
352.884	277.46
353.267	279.72
353.65	268.88
354.032	272.04
354.414	314.53
354.797	300.29
355.179	297.12
355.562	316.33
355.944	334.41
356.326	313.85
356.709	329.44
357.091	322.44
357.473	333.51
357.855	345.94
358.238	321.98
358.62	342.55
359.002	320.18
359.384	340.29
359.766	354.75
360.148	349.33
360.53	339.84
360.912	336.67
361.294	334.41
361.676	315.88
362.057	318.82
362.439	335.09
362.821	312.04
363.203	337.12
363.584	311.81
363.966	323.79
364.348	325.82
364.729	283.11
365.111	324.24
365.493	297.8
365.874	330.34
366.256	319.95
366.637	293.96
367.019	309.78
367.4	319.72
367.781	287.41
368.163	324.24
368.544	323.56
368.925	295.77
369.306	313.4
369.688	312.04
370.069	298.48
370.45	293.28
370.831	302.32
371.212	319.5
371.593	327.18
371.974	316.79
372.355	305.26
372.736	306.16
373.117	297.8
373.498	303
373.879	317.01
374.26	313.17
374.641	297.8
375.021	322.21
375.402	302.32
375.783	319.5
376.163	324.92
376.544	317.92
376.925	322.66
377.305	318.59
377.686	312.49
378.066	312.27
378.447	325.15
378.827	319.5
379.208	324.02
379.588	317.24
379.968	322.89
380.349	316.56
380.729	334.86
381.109	329.89
381.489	313.4
381.87	320.63
382.25	331.93
382.63	316.56
383.01	327.63
383.39	329.89
383.77	351.36
384.15	340.97
384.53	327.86
384.91	356.11
385.29	344.13
385.67	357.69
386.049	348.65
386.429	359.95
386.809	324.92
387.189	343.9
387.568	339.61
387.948	360.17
388.328	341.64
388.707	361.98
389.087	339.16
389.466	341.19
389.846	350
390.225	348.42
390.605	355.65
390.984	360.85
391.363	348.42
391.743	353.85
392.122	355.43
392.501	379.16
392.881	364.69
393.26	371.02
393.639	363.56
394.018	358.59
394.397	361.98
394.776	381.19
395.155	370.12
395.534	371.93
395.913	364.02
396.292	373.96
396.671	401.98
397.05	383.68
397.429	382.32
397.808	383
398.186	399.5
398.565	389.55
398.944	378.48
399.323	403.79
399.701	410.57
400.08	394.75
400.458	401.53
400.837	409.66
401.215	411.47
401.594	421.19
401.972	404.47
402.351	423.9
402.729	423.68
403.107	414.18
403.486	418.48
403.864	421.87
404.242	411.47
404.62	411.7
404.999	428.87
405.377	443.34
405.755	434.3
406.133	449.44
406.511	439.04
406.889	449.44
407.267	480.62
407.645	449.21
408.023	465.03
408.401	456.22
408.779	460.74
409.156	495.99
409.534	480.62
409.912	483.11
410.29	503.9
410.667	501.64
411.045	504.8
411.422	513.84
411.8	505.93
412.178	533.95
412.555	533.05
412.933	546.16
413.31	565.37
413.687	568.53
414.065	562.43
414.442	590.22
414.819	582.99
415.197	587.06
415.574	605.82
415.951	603.78
416.328	633.61
416.705	611.24
417.082	658.02
417.46	649.43
417.837	660.51
418.214	676.55
418.591	654.4
418.967	674.74
419.344	680.39
419.721	702.99
420.098	716.32
420.475	684.23
420.852	718.58
421.228	725.14
421.605	738.02
421.982	748.41
422.358	773.5
422.735	779.82
423.111	806.94
423.488	817.11
423.864	804
424.241	840.39
424.617	821.86
424.994	862.08
425.37	895.08
425.746	853.04
426.123	902.31
426.499	889.65
426.875	926.26
427.251	933.72
427.627	946.37
428.003	947.28
428.379	988.63
428.756	966.26
429.132	1017.33
429.507	995.19
429.883	1002.19
430.259	1010.78
430.635	1049.65
431.011	1048.07
431.387	1073.83
431.763	1115.86
432.138	1108.18
432.514	1114.28
432.89	1133.49
433.265	1175.07
433.641	1170.77
434.016	1196.99
434.392	1202.86
434.767	1234.95
435.143	1259.36
435.518	1303.88
435.894	1293.48
436.269	1336.87
436.644	1338.68
437.02	1365.12
437.395	1369.64
437.77	1425.91
438.145	1470.2
438.52	1457.09
438.895	1470.2
439.271	1508.62
439.646	1557.88
440.021	1549.3
440.395	1562.18
440.77	1566.92
441.145	1594.27
441.52	1645.34
441.895	1629.97
442.27	1655.51
442.645	1668.61
443.019	1714.04
443.394	1709.07
443.769	1738.22
444.143	1749.97
444.518	1776.18
444.892	1781.83
445.267	1809.63
445.641	1834.03
446.016	1816.18
446.39	1860.7
446.764	1828.16
447.139	1857.76
447.513	1892.56
447.887	1913.81
448.262	1917.87
448.636	1926.23
449.01	1936.4
449.384	2000.81
449.758	1986.12
450.132	2018.44
450.506	2026.57
450.88	2022.96
451.254	2058.89
451.628	2079.45
452.002	2082.39
452.376	2116.51
452.75	2161.71
453.123	2189.28
453.497	2183.63
453.871	2206.68
454.244	2241.03
454.618	2211.65
454.992	2309.28
455.365	2309.28
455.739	2347.92
456.112	2394.92
456.486	2406.9
456.859	2441.48
457.232	2486.45
457.606	2475.37
457.979	2503.39
458.352	2531.42
458.725	2584.52
459.099	2610.96
459.472	2635.82
459.845	2654.58
460.218	2720.34
460.591	2708.59
460.964	2683.95
461.337	2793.56
461.71	2839.21
462.083	2873.1
462.456	2882.14
462.829	2882.37
463.201	2979.54
463.574	2954.68
463.947	2999.65
464.32	3081.46
464.692	3069.03
465.065	3141.34
465.438	3177.73
465.81	3252.75
466.183	3259.31
466.555	3324.62
466.928	3347.21
467.3	3358.74
467.672	3429.25
468.045	3479.87
468.417	3492.07
468.789	3567.55
469.161	3590.15
469.534	3700.43
469.906	3708.11
470.278	3771.61
470.65	3806.64
471.022	3884.6
471.394	3927.09
471.766	3980.87
472.138	4001.66
472.51	4121.43
472.882	4165.05
473.253	4203.24
473.625	4298.38
473.997	4364.59
474.369	4409.56
474.74	4448.88
475.112	4531.59
475.484	4608.88
475.855	4700.85
476.227	4713.96
476.598	4872.37
476.97	4883.22
477.341	5013.84
477.713	5070.78
478.084	5069.43
478.455	5276.66
478.827	5252.47
479.198	5498.57
479.569	5453.15
479.94	5624.22
480.311	5712.12
480.682	5783.99
481.053	5944.21
481.424	6010.87
481.795	6044.54
482.166	6171.09
482.537	6275.5
482.908	6397.76
483.279	6418.77
483.65	6533.35
484.021	6681.36
484.391	6728.37
484.762	6825.77
485.133	6878.87
485.503	6981.92
485.874	7124.06
486.244	7166.1
486.615	7327.67
486.985	7369.03
487.356	7542.36
487.726	7603.37
488.097	7753.88
488.467	7785.97
488.837	7913.2
489.207	8015.79
489.578	8143.25
489.948	8248.33
490.318	8264.37
490.688	8422.79
491.058	8424.59
491.428	8549.11
491.798	8630.69
492.168	8810.57
492.538	8813.51
492.908	8928.31
493.278	9041.75
493.648	9076.56
494.017	9177.8
494.387	9187.51
494.757	9220.73
495.126	9326.94
495.496	9280.17
495.866	9402.87
496.235	9491.23
496.605	9641.51
496.974	9648.07
497.344	9747.5
497.713	9677.9
498.082	9747.5
498.452	9896.87
498.821	9871.79
499.19	9924.44
499.559	9980.94
499.928	10052.8
500.298	10055.51
500.667	10206.02
501.036	10161.05
501.405	10229.29
501.774	10219.58
502.143	10284.21
502.512	10307.94
502.88	10332.57
503.249	10387.71
503.618	10419.8
503.987	10399.46
504.356	10500.47
504.724	10502.28
505.093	10497.76
505.462	10526.91
505.83	10535.27
506.199	10684.65
506.567	10725.1
506.936	10721.26
507.304	10788.37
507.672	10811.65
508.041	10781.14
508.409	10849.16
508.777	10912.44
509.145	10950.63
509.514	10906.79
509.882	10948.6
510.25	10936.17
510.618	10966.22
510.986	10930.52
511.354	11052.55
511.722	11070.85
512.09	11075.6
512.458	11128.25
512.826	11123.28
513.193	11183.84
513.561	11201.02
513.929	11212.54
514.297	11221.36
514.664	11269.27
515.032	11222.26
515.4	11318.98
515.767	11304.52
516.135	11300.45
516.502	11168.93
516.869	11340.9
517.237	11356.72
517.604	11316.72
517.972	11334.57
518.339	11327.34
518.706	11380.9
519.073	11313.78
519.44	11405.76
519.808	11460.9
520.175	11304.75
520.542	11446.44
520.909	11470.16
521.276	11405.31
521.643	11462.03
522.009	11430.17
522.376	11470.16
522.743	11497.28
523.11	11531.41
523.477	11550.61
523.843	11555.13
524.21	11587.68
524.577	11600.33
524.943	11592.87
525.31	11513.78
525.676	11641.01
526.043	11597.62
526.409	11619.31
526.776	11559.2
527.142	11615.25
527.508	11622.7
527.874	11612.99
528.241	11595.81
528.607	11528.02
528.973	11604.62
529.339	11498.41
529.705	11519.65
530.071	11542.7
530.437	11574.79
530.803	11517.62
531.169	11485.08
531.535	11386.55
531.901	11377.96
532.267	11321.69
532.632	11334.57
532.998	11359.21
533.364	11356.95
533.73	11249.15
534.095	11332.54
534.461	11269.27
534.826	11196.73
535.192	11146.56
535.557	11177.06
535.923	11108.14
536.288	11120.34
536.653	11063.17
537.019	11025.66
537.384	11000.35
537.749	10942.04
538.114	10962.16
538.479	10861.82
538.845	10754.93
539.21	10613.46
539.575	10610.3
539.94	10633.12
540.305	10588.61
540.67	10508.83
541.034	10517.65
541.399	10457.76
541.764	10347.03
542.129	10340.7
542.494	10334.38
542.858	10305.45
543.223	10194.94
543.587	10255.73
543.952	10104.32
544.316	10124.21
544.681	9950.66
545.045	9996.53
545.41	10030.43
545.774	9955.63
546.138	9883.99
546.503	9787.27
546.867	9731
547.231	9735.29
547.595	9715.86
547.959	9664.79
548.324	9650.1
548.688	9612.81
549.052	9517.45
549.416	9527.39
549.779	9410.11
550.143	9381.86
550.507	9392.93
550.871	9327.85
551.235	9260.28
551.599	9307.51
551.962	9159.72
552.326	9138.7
552.689	9124.01
553.053	9006.73
553.417	9016.22
553.78	9078.36
554.143	8957.69
554.507	8926.5
554.87	8844.7
555.234	8889.44
555.597	8782.33
555.96	8778.48
556.323	8822.78
556.686	8706.4
557.05	8704.59
557.413	8682.67
557.776	8632.95
558.139	8676.57
558.502	8587.75
558.865	8530.58
559.228	8608.32
559.59	8521.99
559.953	8516.12
560.316	8527.87
560.679	8501.65
561.041	8492.84
561.404	8484.93
561.767	8485.84
562.129	8447.19
562.492	8428.21
562.854	8368.33
563.217	8394.09
563.579	8366.07
563.941	8421.43
564.304	8421.88
564.666	8359.29
565.028	8411.94
565.39	8311.83
565.753	8341.43
566.115	8370.58
566.477	8319.51
566.839	8333.75
567.201	8343.47
567.563	8359.51
567.925	8386.4
568.287	8359.74
568.648	8277.48
569.01	8316.12
569.372	8405.39
569.734	8302.79
570.095	8292.85
570.457	8390.7
570.819	8344.82
571.18	8308.89
571.542	8373.97
571.903	8331.94
572.265	8302.56
572.626	8308.67
572.987	8282.45
573.349	8295.78
573.71	8317.03
574.071	8265.05
574.432	8277.93
574.794	8328.55
575.155	8313.64
575.516	8245.16
575.877	8208.56
576.238	8292.85
576.599	8294.43
576.96	8359.96
577.32	8224.15
577.681	8314.54
578.042	8266.41
578.403	8250.59
578.763	8277.48
579.124	8274.54
579.485	8266.18
579.845	8258.72
580.206	8276.12
580.566	8265.05
580.927	8255.11
581.287	8276.58
581.648	8190.48
582.008	8251.94
582.368	8253.3
582.728	8243.36
583.089	8232.96
583.449	8220.31
583.809	8199.06
584.169	8198.39
584.529	8121.55
584.889	8205.17
585.249	8125.62
585.609	8206.3
585.969	8147.77
586.329	8133.98
586.688	8080.42
587.048	8104.38
587.408	8096.02
587.768	8078.39
588.127	8086.98
588.487	8062.57
588.846	8054.66
589.206	8062.8
589.565	7981.44
589.925	8035.23
590.284	7980.76
590.643	8021.22
591.003	8000.43
591.362	8021.67
591.721	8021.67
592.08	7955.45
592.44	7998.39
592.799	8033.64
593.158	7943.93
593.517	7945.06
593.876	7951.16
594.235	7959.07
594.593	7988.45
594.952	7924.04
595.311	7898.73
595.67	7896.25
596.029	7922.46
596.387	7957.49
596.746	7902.12
597.104	7912.52
597.463	7842.01
597.822	7864.38
598.18	7872.74
598.538	7811.05
598.897	7912.29
599.255	7853.31
599.613	7945.74
599.972	7860.99
600.33	7885.85
600.688	7844.27
601.046	7879.98
601.404	7865.74
601.762	7827.1
602.12	7917.04
602.478	7846.76
602.836	7790.71
603.194	7844.72
603.552	7880.65
603.91	7767.89
604.268	7847.21
604.625	7783.48
604.983	7800.66
605.341	7735.8
605.698	7769.24
606.056	7880.65
606.413	7752.97
606.771	7769.92
607.128	7813.31
607.485	7829.58
607.843	7769.7
608.2	7817.38
608.557	7771.05
608.914	7794.33
609.272	7811.73
609.629	7829.58
609.986	7784.39
610.343	7876.13
610.7	7902.12
611.057	7823.71
611.414	7866.19
611.771	7872.74
612.127	7932.4
612.484	7859.41
612.841	7917.04
613.198	7875
613.554	7860.54
613.911	7924.5
614.267	7879.3
614.624	7914.78
614.98	7850.82
615.337	7905.74
615.693	7890.82
616.05	7863.48
616.406	7946.42
616.762	7926.53
617.118	7856.02
617.475	7866.42
617.831	7915.91
618.187	7964.04
618.543	7941.44
618.899	7982.8
619.255	7942.12
619.611	7903.7
619.967	7889.92
620.323	7982.8
620.678	7901.9
621.034	7892.86
621.39	7885.85
621.746	7850.15
622.101	7999.75
622.457	7870.71
622.812	7935.34
623.168	7956.36
623.523	7910.03
623.879	7988.67
624.234	7929.01
624.589	7981.44
624.945	7993.42
625.3	7920.43
625.655	7937.83
626.01	7960.2
626.365	7980.09
626.72	7923.59
627.075	7943.25
627.43	7922.91
627.785	7882.69
628.14	7888.34
628.495	7957.94
628.85	7887.66
629.205	7872.74
629.559	7889.02
629.914	7820.77
630.269	7849.24
630.623	7847.89
630.978	7866.19
631.332	7881.56
631.687	7844.95
632.041	7806.76
632.396	7855.34
632.75	7835.68
633.104	7834.1
633.459	7762.92
633.813	7738.06
634.167	7774.89
634.521	7704.61
634.875	7782.8
635.229	7703.71
635.583	7680.21
635.937	7711.85
636.291	7678.85
636.645	7738.29
636.999	7699.64
637.352	7739.87
637.706	7632.98
638.06	7687.67
638.413	7657.84
638.767	7627.33
639.121	7661.68
639.474	7591.17
639.828	7620.1
640.181	7599.08
640.534	7601.57
640.888	7523.38
641.241	7566.31
641.594	7613.09
641.947	7615.8
642.301	7564.73
642.654	7538.52
643.007	7559.08
643.36	7584.16
643.713	7626.2
644.066	7535.35
644.419	7511.62
644.771	7474.79
645.124	7368.13
645.477	7366.32
645.83	7337.62
646.182	7308.69
646.535	7284.74
646.888	7257.17
647.24	7314.12
647.593	7278.18
647.945	7259.43
648.298	7280.44
648.65	7284.51
649.002	7221.01
649.355	7304.17
649.707	7231.86
650.059	7283.38
650.411	7391.18
650.763	7371.06
651.115	7433.66
651.467	7425.98
651.819	7451.06
652.171	7474.11
652.523	7381.68
652.875	7444.51
653.227	7376.94
653.578	7460.55
653.93	7418.97
654.282	7412.19
654.633	7444.06
654.985	7434.56
655.337	7460.1
655.688	7488.35
656.039	7441.12
656.391	7425.07
656.742	7458.97
657.094	7485.86
657.445	7492.19
657.796	7531.29
658.147	7475.92
658.498	7487.44
658.849	7488.12
659.2	7461.68
659.551	7464.39
659.902	7420.33
660.253	7489.25
660.604	7535.58
660.955	7515.47
661.306	7458.29
661.656	7495.35
662.007	7466.65
662.358	7550.49
662.708	7514.79
663.059	7489.25
663.409	7466.65
663.76	7508.46
664.11	7525.18
664.461	7516.82
664.811	7588.23
665.161	7571.74
665.511	7524.05
665.862	7567.89
666.212	7538.74
666.562	7571.74
666.912	7537.39
667.262	7522.7
667.612	7500.1
667.962	7531.74
668.312	7490.83
668.662	7595.24
669.011	7522.92
669.361	7558.85
669.711	7570.61
670.06	7449.93
670.41	7519.08
670.76	7477.95
671.109	7516.14
671.459	7524.05
671.808	7476.82
672.157	7585.52
672.507	7474.11
672.856	7486.09
673.205	7512.3
673.554	7494.22
673.904	7468.46
674.253	7517.95
674.602	7517.5
674.951	7417.62
675.3	7362.93
675.649	7418.07
675.998	7416.71
676.346	7421.68
676.695	7477.28
677.044	7371.97
677.393	7418.52
677.741	7374.23
678.09	7394.34
678.438	7408.8
678.787	7392.76
679.135	7421.01
679.484	7301.91
679.832	7352.53
680.181	7327.67
680.529	7310.05
680.877	7338.3
681.225	7257.62
681.573	7314.34
681.922	7239.54
682.27	7215.14
682.618	7198.86
682.966	7188.7
683.314	7248.81
683.661	7181.92
684.009	7162.48
684.357	7146.21
684.705	7199.54
685.053	7072.09
685.4	7138.08
685.748	7121.13
686.095	7085.42
686.443	7068.47
686.79	7071.64
687.138	7064.63
687.485	7031.86
687.832	7029.83
688.18	6978.08
688.527	7019.43
688.874	6960
689.221	6917.74
689.568	6935.37
689.915	6898.99
690.262	6897.86
690.609	6828.7
690.956	6787.58
691.303	6817.41
691.65	6809.04
691.997	6806.78
692.344	6748.93
692.69	6753.45
693.037	6755.26
693.383	6668.26
693.73	6670.52
694.077	6625.55
694.423	6599.56
694.769	6536.06
695.116	6595.26
695.462	6591.42
695.808	6535.38
696.155	6544.87
696.501	6515.04
696.847	6487.47
697.193	6413.12
697.539	6425.78
697.885	6397.76
698.231	6404.08
698.577	6339.23
698.923	6340.81
699.269	6293.13
699.614	6280.47
699.96	6257.87
700.306	6167.71
700.651	6154.15
700.997	6212.68
701.342	6152.11
701.688	6181.26
702.033	6115.73
702.379	6149.85
702.724	6081.83
703.069	6094.03
703.415	5999.8
703.76	5966.35
704.105	5978.33
704.45	6080.48
704.795	6017.88
705.14	5907.6
705.485	5914.38
705.83	5909.18
706.175	5872.35
706.52	5881.61
706.865	5823.99
707.209	5877.09
707.554	5825.79
707.899	5781.05
708.243	5837.09
708.588	5764.1
708.932	5726.81
709.277	5707.6
709.621	5698.34
709.966	5711.67
710.31	5757.32
710.654	5625.35
710.998	5667.38
711.342	5667.61
711.687	5616.76
712.031	5607.49
712.375	5569.75
712.719	5578.57
713.063	5575.86
713.407	5563.2
713.75	5566.14
714.094	5533.37
714.438	5513.94
714.782	5522.52
715.125	5476.88
715.469	5533.15
715.812	5496.31
716.156	5437.1
716.499	5478.91
716.843	5498.57
717.186	5427.16
717.53	5473.71
717.873	5431.45
718.216	5443.43
718.559	5390.32
718.902	5306.48
719.246	5393.04
719.589	5388.74
719.932	5361.17
720.275	5344.45
720.617	5368.63
720.96	5357.56
721.303	5372.02
721.646	5374.96
721.989	5357.78
722.331	5340.83
722.674	5318.46
723.016	5325.92
723.359	5374.96
723.701	5308.97
724.044	5269.2
724.386	5327.95
724.729	5260.16
725.071	5360.27
725.413	5333.6
725.755	5282.76
726.097	5247.73
726.439	5288.86
726.782	5238.24
727.124	5315.98
727.465	5297.22
727.807	5251.34
728.149	5288.41
728.491	5260.61
728.833	5336.99
729.175	5238.92
729.516	5190.33
729.858	5279.14
730.199	5251.12
730.541	5245.47
730.882	5259.03
731.224	5300.84
731.565	5222.42
731.906	5303.55
732.248	5278.24
732.589	5259.03
732.93	5221.97
733.271	5253.38
733.612	5303.55
733.953	5229.88
734.294	5278.01
734.635	5266.94
734.976	5313.72
735.317	5290.44
735.658	5331.12
735.999	5261.97
736.339	5278.91
736.68	5336.31
737.021	5328.63
737.361	5305.81
737.702	5359.59
738.042	5361.4
738.383	5315.52
738.723	5356.43
739.063	5302.64
739.404	5367.5
739.744	5363.21
740.084	5327.95
740.424	5371.57
740.764	5389.87
741.104	5402.3
741.444	5394.17
741.784	5391
742.124	5454.5
742.464	5444.79
742.804	5507.61
743.143	5515.52
743.483	5475.07
743.823	5523.43
744.162	5555.97
744.502	5630.54
744.841	5616.53
745.181	5683.42
745.52	5663.54
745.86	5731.78
746.199	5731.56
746.538	5772.24
746.877	5878
747.216	5878
747.556	5906.92
747.895	5921.84
748.234	5929.52
748.573	6061.72
748.911	6089.97
749.25	6146.24
749.589	6200.92
749.928	6287.93
750.267	6377.87
750.605	6455.16
750.944	6488.15
751.283	6508.49
751.621	6606.34
751.96	6711.87
752.298	6767.92
752.636	6846.56
752.975	6889.49
753.313	7034.57
753.651	7135.59
753.989	7283.83
754.327	7342.14
754.666	7458.97
755.004	7583.26
755.342	7725.63
755.679	7853.99
756.017	7900.77
756.355	8139.18
756.693	8187.31
757.031	8338.95
757.368	8494.88
757.706	8665.94
758.044	8770.35
758.381	8992.49
758.719	9131.24
759.056	9269.32
759.394	9387.06
759.731	9562.87
760.068	9663.43
760.405	9811
760.743	10009.41
761.08	10280.37
761.417	10394.26
761.754	10556.06
762.091	10772.56
762.428	10892.78
762.765	11051.42
763.102	11212.54
763.438	11415.25
763.775	11623.83
764.112	11735.69
764.449	11979.76
764.785	12070.83
765.122	12271.95
765.458	12385.17
765.795	12581.55
766.131	12818.6
766.467	12910.13
766.804	13032.16
767.14	13142.44
767.476	13363.45
767.812	13496.78
768.148	13692.48
768.485	13771.12
768.821	13850.44
769.157	13934.05
769.492	14206.82
769.828	14374.04
770.164	14414.27
770.5	14540.14
770.836	14768.16
771.171	14721.83
771.507	14916.18
771.842	14928.6
772.178	15122.5
772.513	15224.87
772.849	15386.45
773.184	15312.78
773.519	15568.81
773.855	15514.13
774.19	15622.37
774.525	15656.04
774.86	15796.38
775.195	15892.2
775.53	15929.26
775.865	15958.63
776.2	16008.58
776.535	16038.86
776.87	16115.47
777.205	16142.36
777.539	16228.68
777.874	16363.82
778.209	16279.98
778.543	16293.31
778.878	16327.44
779.212	16419.19
779.547	16464.61
779.881	16597.71
780.215	16505.06
780.55	16659.63
780.884	16587.32
781.218	16559.07
781.552	16584.61
781.886	16603.14
782.22	16557.26
782.554	16559.75
782.888	16512.52
783.222	16553.87
783.556	16567.21
783.889	16521.11
784.223	16577.37
784.557	16603.59
784.89	16684.04
785.224	16532.4
785.557	16497.6
785.891	16649.24
786.224	16545.06
786.558	16519.98
786.891	16623.02
787.224	16530.82
787.557	16515.46
787.891	16608.33
788.224	16580.99
788.557	16564.95
788.89	16536.25
789.223	16629.8
789.556	16449.02
789.888	16450.82
790.221	16508.9
790.554	16360.21
790.887	16442.01
791.219	16452.18
791.552	16341.45
791.884	16379.19
792.217	16282.02
792.549	16296.93
792.882	16198.4
793.214	16153.88
793.546	16212.64
793.879	16065.98
794.211	16018.29
794.543	16164.5
794.875	16128.57
795.207	16161.34
795.539	16101.91
795.871	16130.61
796.203	16017.16
796.535	15971.74
796.867	15887.45
797.198	15888.58
797.53	15900.56
797.862	15804.29
798.193	15805.64
798.525	15908.69
798.856	15765.87
799.188	15603.39
799.519	15573.79
799.85	15543.5
800.182	15574.01
800.513	15574.24
800.844	15437.74
801.175	15540.11
801.506	15625.99
801.837	15372.21
802.168	15403.85
802.499	15394.81
802.83	15309.39
803.161	15285.88
803.491	15308.26
803.822	15318.65
804.153	15174.02
804.483	15113.23
804.814	15075.27
805.145	15136.06
805.475	15168.82
805.805	15036.17
806.136	14995.04
806.466	14964.99
806.796	15064.65
807.126	14891.54
807.457	14868.95
807.787	14950.3
808.117	14835.5
808.447	14755.05
808.777	14831.21
809.107	14705.33
809.436	14689.29
809.766	14707.37
810.096	14659.69
810.426	14680.48
810.755	14586.69
811.085	14597.99
811.414	14652.23
811.744	14529.29
812.073	14502.18
812.403	14421.95
812.732	14372.24
813.061	14431.67
813.39	14358.22
813.719	14212.24
814.049	14318.9
814.378	14341.05
814.707	14313.25
815.036	14247.94
815.365	14198.68
815.693	14056.31
816.022	14059.7
816.351	14092.92
816.68	13929.08
817.008	14066.71
817.337	13922.98
817.665	13941.29
817.994	14060.83
818.322	13929.53
818.651	13857.67
818.979	13828.52
819.307	13903.09
819.636	13872.59
819.964	13833.72
820.292	13872.81
820.62	13838.01
820.948	13759.82
821.276	13878.46
821.604	13733.61
821.932	13808.41
822.259	13843.89
822.587	13837.56
822.915	13766.83
823.243	13808.86
823.57	13837.11
823.898	13812.48
824.225	13751.91
824.553	13708.75
824.88	13811.8
825.207	13893.15
825.535	13801.18
825.862	13852.47
826.189	13759.82
826.516	13865.36
826.843	13841.18
827.17	13889.31
827.497	13854.73
827.824	13827.84
828.151	13912.81
828.478	13822.42
828.805	13848.41
829.131	13876.65
829.458	13836.43
829.785	13805.02
830.111	13821.29
830.438	13907.84
830.764	13871.46
831.09	13816.32
831.417	13781.97
831.743	13785.58
832.069	13897.45
832.395	13785.81
832.722	13872.14
833.048	13775.19
833.374	13796.88
833.7	13651.35
834.026	13772.48
834.351	13815.64
834.677	13798.92
835.003	13711.69
835.329	13693.83
835.654	13685.02
835.98	13628.98
836.306	13628.75
836.631	13615.19
836.956	13632.37
837.282	13756.88
837.607	13613.84
837.932	13579.94
838.258	13625.59
838.583	13581.52
838.908	13443.9
839.233	13502.88
839.558	13537.23
839.883	13469.43
840.208	13294.52
840.533	13414.29
840.858	13390.79
841.182	13398.7
841.507	13333.84
841.832	13295.43
842.156	13253.39
842.481	13280.06
842.805	13247.29
843.13	13254.07
843.454	13176.33
843.778	13171.59
844.103	13073.51
844.427	13089.33
844.751	13126.17
845.075	13043.91
845.399	13020.18
845.723	12874.65
846.047	12947.64
846.371	12783.8
846.695	12869.45
847.019	12770.7
847.343	12684.14
847.666	12594.65
847.99	12605.05
848.313	12576.8
848.637	12489.35
848.96	12530.93
849.284	12428.11
849.607	12394.43
849.931	12300.2
850.254	12258.17
850.577	12221.56
850.9	12040.32
851.223	12086.42
851.546	12019.98
851.869	12046.65
852.192	12068.79
852.515	11868.8
852.838	11855.01
853.161	11888.68
853.483	11808.69
853.806	11783.15
854.129	11730.72
854.451	11669.26
854.774	11707.45
855.096	11568.47
855.419	11606.88
855.741	11544.74
856.063	11528.02
856.385	11496.38
856.708	11420.9
857.03	11363.27
857.352	11352.65
857.674	11335.25
857.996	11293.45
858.318	11278.53
858.64	11203.5
858.961	11258.19
859.283	11153.79
859.605	11122.38
859.926	11191.3
860.248	11055.94
860.57	11007.35
860.891	11083.73
861.212	11049.16
861.534	11009.84
861.855	11001.7
862.176	10948.6
862.498	10945.88
862.819	10925.55
863.14	10887.81
863.461	10831.31
863.782	10892.1
864.103	10846.68
864.424	10789.5
864.745	10786.11
865.065	10748.6
865.386	10708.6
865.707	10690.3
866.027	10727.59
866.348	10631.77
866.668	10599.45
866.989	10656.63
867.309	10571.88
867.63	10598.55
867.95	10568.95
868.27	10552.22
868.59	10544.31
868.91	10511.77
869.23	10487.37
869.55	10375.73
869.87	10582.28
870.19	10468.83
870.51	10529.4
870.83	10533.69
871.15	10386.8
871.469	10377.99
871.789	10362.62
872.109	10369.63
872.428	10324.43
872.748	10362.4
873.067	10319.23
873.386	10324.43
873.706	10314.94
874.025	10295.05
874.344	10197.66
874.663	10309.52
874.982	10233.59
875.301	10180.03
875.62	10217.32
875.939	10200.82
876.258	10219.8
876.577	10093.03
876.896	10106.13
877.214	10187.03
877.533	10069.07
877.852	10144.32
878.17	10060.71
878.489	10022.07
878.807	10111.78
879.125	9989.98
879.444	9973.48
879.762	10014.16
880.08	10043.54
880.398	9908.62
880.716	10014.38
881.034	9946.36
881.352	9899.81
881.67	9875.18
881.988	9953.82
882.306	9807.84
882.624	9790.21
882.941	9749.76
883.259	9706.6
883.577	9714.73
883.894	9744.33
884.212	9696.88
884.529	9717.89
884.846	9654.85
885.164	9588.86
885.481	9557.9
885.798	9583.21
886.115	9534.17
886.432	9537.33
886.75	9496.88
887.067	9476.77
887.383	9419.37
887.7	9535.07
888.017	9360.84
888.334	9434.74
888.651	9360.84
888.967	9285.14
889.284	9293.27
889.6	9289.88
889.917	9244.01
890.233	9284.91
890.55	9199.04
890.866	9218.02
891.182	9155.42
891.498	9146.16
891.815	9137.57
892.131	9109.1
892.447	9125.37
892.763	8961.98
893.079	9056.67
893.395	8914.07
893.71	8978.03
894.026	9005.6
894.342	8914.3
894.657	8841.76
894.973	8862.1
895.289	8865.04
895.604	8771.25
895.92	8713.85
896.235	8731.25
896.55	8677.47
896.865	8691.93
897.181	8705.27
897.496	8629.56
897.811	8529.9
898.126	8553.86
898.441	8527.87
898.756	8485.38
899.071	8456.23
899.386	8453.29
899.7	8316.58
900.015	8305.5
900.33	8266.86
900.644	8327.87
900.959	8286.07
901.273	8249.23
901.588	8230.7
901.902	8180.08
902.216	8194.32
902.531	8155
902.845	8086.75
903.159	8079.52
903.473	8022.35
903.787	7983.48
904.101	7970.37
904.415	7962.01
904.729	7922.91
905.042	7906.42
905.356	7797.49
905.67	7826.64
905.984	7763.6
906.297	7751.84
906.611	7747.55
906.924	7726.76
907.237	7704.61
907.551	7613.54
907.864	7589.59
908.177	7595.01
908.491	7582.81
908.804	7506.65
909.117	7452.42
909.43	7412.64
909.743	7396.83
910.056	7339.2
910.368	7381.46
910.681	7342.59
910.994	7294.68
911.307	7281.57
911.619	7207.23
911.932	7297.39
912.244	7132.2
912.557	7133.56
912.869	7072.09
913.181	7087.91
913.494	7075.25
913.806	6984.63
914.118	6989.15
914.43	6892.43
914.742	6958.87
915.054	6911.87
915.366	6886.33
915.678	6849.5
915.99	6825.54
916.302	6760.91
916.613	6780.57
916.925	6782.15
917.236	6736.28
917.548	6681.59
917.859	6693.57
918.171	6617.86
918.482	6631.65
918.794	6602.5
919.105	6628.48
919.416	6562.27
919.727	6535.83
920.038	6484.08
920.349	6458.77
920.66	6420.13
920.971	6440.47
921.282	6389.85
921.593	6349.85
921.903	6296.06
922.214	6299
922.525	6284.76
922.835	6253.13
923.146	6212.68
923.456	6192.79
923.767	6167.25
924.077	6117.76
924.387	6118.44
924.697	6136.52
925.008	6088.16
925.318	6063.08
925.628	6101.94
925.938	6015.17
926.248	5988.95
926.558	5946.47
926.867	5906.69
927.177	5887.94
927.487	5903.76
927.796	5865.11
928.106	5799.13
928.416	5767.04
928.725	5784.66
929.034	5803.42
929.344	5737.89
929.653	5740.6
929.962	5693.14
930.271	5680.71
930.581	5663.76
930.89	5586.93
931.199	5537.44
931.508	5536.31
931.817	5575.86
932.125	5546.93
932.434	5472.81
932.743	5484.56
933.051	5445.01
933.36	5451.79
933.669	5419.7
933.977	5408.63
934.286	5389.19
934.594	5395.75
934.902	5351.23
935.21	5294.73
935.519	5325.69
935.827	5262.19
936.135	5232.36
936.443	5250.89
936.751	5201.85
937.059	5187.62
937.367	5122.76
937.674	5190.56
937.982	5169.31
938.29	5084.34
938.597	5137.9
938.905	5063.55
939.213	5018.13
939.52	5046.83
939.827	5019.49
940.135	4963.44
940.442	4936.33
940.749	4920.51
941.056	4946.72
941.363	4885.93
941.67	4908.98
941.977	4822.66
942.284	4771.13
942.591	4812.71
942.898	4801.41
943.205	4792.6
943.511	4735.2
943.818	4781.53
944.125	4726.61
944.431	4692.04
944.738	4689.1
945.044	4632.83
945.35	4648.42
945.657	4591.7
945.963	4567.52
946.269	4559.39
946.575	4561.19
946.881	4527.97
947.187	4503.34
947.493	4482.33
947.799	4471.48
948.105	4465.83
948.41	4428.32
948.716	4465.38
949.022	4384.25
949.327	4388.32
949.633	4353.97
949.938	4349.22
950.244	4350.58
950.549	4288.88
950.854	4304.7
951.16	4247.53
951.465	4270.13
951.77	4229.9
952.075	4192.84
952.38	4187.87
952.685	4171.15
952.99	4161.43
953.294	4122.79
953.599	4133.18
953.904	4081.43
954.209	4091.6
954.513	4066.97
954.818	4062
955.122	4012.96
955.426	4054.54
955.731	4003.02
956.035	3974.99
956.339	3970.47
956.643	3980.87
956.948	3938.84
957.252	3870.36
957.556	3913.98
957.86	3864.94
958.163	3851.61
958.467	3857.03
958.771	3844.6
959.075	3828.33
959.378	3803.02
959.682	3827.2
959.985	3786.3
960.289	3747.88
960.592	3755.11
960.896	3766.41
961.199	3722.35
961.502	3699.52
961.805	3682.8
962.108	3611.16
962.411	3608.9
962.714	3592.41
963.017	3614.1
963.32	3610.94
963.623	3572.52
963.926	3556.02
964.228	3558.06
964.531	3528
964.833	3525.74
965.136	3519.64
965.438	3498.4
965.741	3500.43
966.043	3446.19
966.345	3428.12
966.648	3444.16
966.95	3454.56
967.252	3405.97
967.554	3375.46
967.856	3401.45
968.158	3363.71
968.46	3337.95
968.761	3321.68
969.063	3284.39
969.365	3280.1
969.666	3274.9
969.968	3262.7
970.269	3252.98
970.571	3248.23
970.872	3238.52
971.174	3218.4
971.475	3220.89
971.776	3181.12
972.077	3179.54
972.378	3151.74
972.679	3176.82
972.98	3144.28
973.281	3132.98
973.582	3078.29
973.883	3058.63
974.183	3088.92
974.484	3086.43
974.785	3029.48
975.085	3038.3
975.386	3040.33
975.686	2988.35
975.986	2979.09
976.287	3020.9
976.587	2989.03
976.887	2987.22
977.187	2929.82
977.487	2938.19
977.787	2927.79
978.087	2920.56
978.387	2896.38
978.687	2897.28
978.987	2841.24
979.286	2835.14
979.586	2887.34
979.885	2850.5
980.185	2811.41
980.484	2824.74
980.784	2778.64
981.083	2811.41
981.382	2772.77
981.682	2782.48
981.981	2723.73
982.28	2716.95
982.579	2718.76
982.878	2712.88
983.177	2685.54
983.475	2702.94
983.774	2689.6
984.073	2676.95
984.372	2674.24
984.67	2640.79
984.969	2613.22
985.267	2605.99
985.566	2624.52
985.864	2610.51
986.162	2580.91
986.461	2564.86
986.759	2549.5
987.057	2527.35
987.355	2516.73
987.653	2499.55
987.951	2528.03
988.249	2478.08
988.547	2460.23
988.844	2470.4
989.142	2446.67
989.44	2481.02
989.737	2468.14
990.035	2420.46
990.332	2404.87
990.63	2401.02
990.927	2389.95
991.224	2349.05
991.521	2360.8
991.819	2385.21
992.116	2371.65
992.413	2352.21
992.71	2335.26
993.006	2323.74
993.303	2361.7
993.6	2311.76
993.897	2286
994.193	2298.2
994.49	2266.11
994.787	2248.94
995.083	2266.34
995.379	2233.12
995.676	2229.05
995.972	2196.74
996.268	2210.29
996.565	2192.22
996.861	2183.86
997.157	2172.56
997.453	2170.75
997.749	2138.21
998.044	2145.66
998.34	2105.66
998.636	2110.41
998.932	2109.96
999.227	2091.2
999.523	2065.21
999.818	2048.04
1000.114	2046.68
1000.409	2029.28
1000.704	2042.84
1001	2003.75
1001.295	2028.6
1001.59	1948.38
1001.885	2008.72
1002.18	1993.8
1002.475	1957.65
1002.77	1953.8
1003.065	1955.16
1003.359	1966.91
1003.654	1939.79
1003.949	1898.21
1004.243	1907.48
1004.538	1931.21
1004.832	1913.35
1005.127	1867.93
1005.421	1871.77
1005.715	1850.98
1006.009	1866.35
1006.304	1848.27
1006.598	1796.07
1006.892	1792.45
1007.186	1787.93
1007.48	1794.03
1007.773	1788.84
1008.067	1770.98
1008.361	1751.1
1008.655	1739.35
1008.948	1769.85
1009.242	1746.8
1009.535	1721.95
1009.829	1686.69
1010.122	1682.85
1010.415	1695.05
1010.708	1691.21
1011.001	1656.19
1011.295	1665.9
1011.588	1658.22
1011.881	1664.09
1012.173	1645.34
1012.466	1634.72
1012.759	1649.86
1013.052	1639.24
1013.344	1613.47
1013.637	1598.11
1013.93	1560.59
1014.222	1579.8
1014.514	1553.82
1014.807	1555.85
1015.099	1542.06
1015.391	1550.65
1015.683	1578.22
1015.976	1523.99
1016.268	1504.32
1016.56	1487.83
1016.851	1516.75
1017.143	1503.87
1017.435	1445.57
1017.727	1471.11
1018.018	1470.88
1018.31	1462.07
1018.602	1424.1
1018.893	1423.42
1019.185	1443.54
1019.476	1377.55
1019.767	1383.65
1020.058	1380.26
1020.35	1363.76
1020.641	1375.29
1020.932	1368.28
1021.223	1356.31
1021.514	1353.14
1021.804	1314.5
1022.095	1351.79
1022.386	1335.29
1022.677	1316.99
1022.967	1285.12
1023.258	1283.77
1023.548	1333.48
1023.839	1286.7
1024.129	1281.51
1024.419	1255.29
1024.709	1271.34
1025	1245.8
1025.29	1215.07
1025.58	1248.96
1025.87	1230.43
1026.16	1229.98
1026.449	1206.48
1026.739	1189.98
1027.029	1186.82
1027.319	1180.94
1027.608	1166.93
1027.898	1193.37
1028.187	1158.57
1028.477	1120.61
1028.766	1144.79
1029.055	1134.39
1029.344	1124.9
1029.634	1130.55
1029.923	1109.08
1030.212	1102.75
1030.501	1136.88
1030.79	1093.49
1031.078	1064.11
1031.367	1107.05
1031.656	1057.33
1031.945	1068.4
1032.233	1061.85
1032.522	1033.38
1032.81	1053.72
1033.099	1057.56
1033.387	1045.35
1033.675	1039.48
1033.963	1031.12
1034.251	1017.33
1034.54	1025.92
1034.828	981.17
1035.116	986.6
1035.403	984.79
1035.691	984.34
1035.979	975.3
1036.267	971.91
1036.554	983.66
1036.842	949.31
1037.129	949.09
1037.417	951.35
1037.704	938.92
1037.992	931.68
1038.279	933.27
1038.566	916.32
1038.853	916.32
1039.14	916.32
