Data from hue_10_FLMS001491_81.txt Node
Date: Mon Feb 06 15:32:40 GMT 2017
User: dcchb
Spectrometer: FLMS00149
Trigger mode: 0
Integration Time (sec): 2.000000E-2
Scans to average: 10
Electric dark correction enabled: true
Nonlinearity correction enabled: false
Boxcar width: 0
XAxis mode: Wavelengths
Number of Pixels in Spectrum: 2048
>>>>>Begin Spectral Data<<<<<
341.393	-2.46
341.776	-2.46
342.16	-2.46
342.543	-62.79
342.927	-61.44
343.31	-87.65
343.693	-53.98
344.077	-65.05
344.46	-70.03
344.843	-42.23
345.226	-51.95
345.61	-25.28
345.993	-20.76
346.376	-1.55
346.759	-1.1
347.142	30.31
347.525	51.33
347.908	42.29
348.291	82.96
348.674	113.7
349.057	99.01
349.44	120.03
349.823	148.5
350.206	168.61
350.588	209.29
350.971	215.39
351.354	233.02
351.737	246.35
352.119	252.9
352.502	274.37
352.884	292.45
353.267	288.38
353.65	288.83
354.032	295.61
354.414	343.3
354.797	306.23
355.179	318.89
355.562	334.48
355.944	343.97
356.326	341.71
356.709	341.94
357.091	333.13
357.473	332
357.855	361.15
358.238	328.16
358.62	353.47
359.002	336.52
359.384	358.44
359.766	327.48
360.148	323.18
360.53	351.66
360.912	349.17
361.294	335.84
361.676	335.61
362.057	346.69
362.439	364.76
362.821	314.82
363.203	336.97
363.584	336.06
363.966	309.85
364.348	330.19
364.729	323.41
365.111	322.51
365.493	326.35
365.874	309.85
366.256	295.84
366.637	324.54
367.019	335.16
367.4	312.11
367.781	311.88
368.163	320.25
368.544	298.1
368.925	305.56
369.306	331.77
369.688	318.66
370.069	322.51
370.45	319.34
370.831	317.76
371.212	313.69
371.593	328.83
371.974	311.66
372.355	327.7
372.736	310.53
373.117	315.05
373.498	319.12
373.879	328.38
374.26	315.95
374.641	324.54
375.021	303.3
375.402	327.25
375.783	327.25
376.163	328.61
376.544	333.58
376.925	319.12
377.305	342.62
377.686	341.04
378.066	326.12
378.447	322.51
378.827	327.03
379.208	326.35
379.588	323.86
379.968	320.92
380.349	320.7
380.729	344.88
381.109	320.7
381.489	341.04
381.87	339
382.25	331.54
382.63	349.85
383.01	349.85
383.39	354.6
383.77	343.52
384.15	348.04
384.53	331.32
384.91	334.93
385.29	337.65
385.67	336.29
386.049	341.04
386.429	347.36
386.809	375.84
387.189	323.18
387.568	348.27
387.948	355.27
388.328	357.31
388.707	336.06
389.087	339.68
389.466	368.61
389.846	351.21
390.225	353.01
390.605	374.26
390.984	369.06
391.363	357.98
391.743	370.19
392.122	379.68
392.501	377.42
392.881	394.37
393.26	354.37
393.639	380.13
394.018	362.96
394.397	367.25
394.776	361.83
395.155	364.54
395.534	371.77
395.913	373.8
396.292	402.5
396.671	360.47
397.05	381.49
397.429	374.93
397.808	381.04
398.186	380.36
398.565	377.65
398.944	389.85
399.323	393.01
399.701	415.84
400.08	375.61
400.458	393.92
400.837	404.09
401.215	404.76
401.594	389.17
401.972	404.09
402.351	396.18
402.729	382.62
403.107	401.15
403.486	400.24
403.864	382.39
404.242	407.02
404.62	406.35
404.999	408.61
405.377	428.49
405.755	412.22
406.133	412.9
406.511	421.49
406.889	410.41
407.267	424.65
407.645	411.77
408.023	422.84
408.401	429.17
408.779	429.4
409.156	437.08
409.534	429.17
409.912	448.15
410.29	427.59
410.667	440.69
411.045	441.82
411.422	422.84
411.8	428.94
412.178	478.89
412.555	465.55
412.933	452.22
413.31	476.4
413.687	458.1
414.065	481.37
414.442	483.86
414.819	460.81
415.197	469.17
415.574	487.25
415.951	454.93
416.328	469.85
416.705	499.45
417.082	494.03
417.46	486.12
417.837	511.2
418.214	485.21
418.591	503.52
418.967	494.25
419.344	480.47
419.721	494.7
420.098	497.19
420.475	516.62
420.852	483.86
421.228	530.86
421.605	498.32
421.982	497.42
422.358	502.84
422.735	505.1
423.111	508.94
423.488	514.37
423.864	525.44
424.241	514.82
424.617	562.5
424.994	526.57
425.37	535.83
425.746	533.35
426.123	552.33
426.499	563.86
426.875	563.4
427.251	555.72
427.627	556.17
428.003	558.43
428.379	577.87
428.756	554.59
429.132	574.93
429.507	588.71
429.883	566.12
430.259	585.32
430.635	597.98
431.011	606.57
431.387	607.7
431.763	610.86
432.138	603.85
432.514	637.3
432.89	617.19
433.265	636.62
433.641	606.34
434.016	622.61
434.392	616.96
434.767	649.95
435.143	655.6
435.518	651.08
435.894	663.06
436.269	668.49
436.644	657.64
437.02	662.38
437.395	673.68
437.77	683.4
438.145	691.31
438.52	704.64
438.895	698.99
439.271	681.82
439.646	713.91
440.021	717.07
440.395	718.2
440.77	709.84
441.145	715.49
441.52	726.11
441.895	750.97
442.27	738.99
442.645	708.48
443.019	747.35
443.394	729.95
443.769	714.36
444.143	727.69
444.518	758.2
444.892	784.41
445.267	728.82
445.641	779.44
446.016	763.4
446.39	751.19
446.764	756.39
447.139	760.91
447.513	760.69
447.887	791.19
448.262	796.39
448.636	770.4
449.01	790.52
449.384	792.1
449.758	793.45
450.132	821.25
450.506	824.87
450.88	804.98
451.254	809.5
451.628	837.52
452.002	809.05
452.376	832.77
452.75	830.06
453.123	829.38
453.497	886.11
453.871	868.25
454.244	848.14
454.618	855.37
454.992	868.71
455.365	907.35
455.739	882.72
456.112	883.62
456.486	895.6
456.859	907.35
457.232	933.11
457.606	947.12
457.979	938.31
458.352	942.83
458.725	944.86
459.099	951.64
459.472	974.01
459.845	977.18
460.218	1023.28
460.591	1010.85
460.964	990.96
461.337	978.53
461.71	1018.76
462.083	1010.4
462.456	1047.01
462.829	1055.82
463.201	1054.46
463.574	1086.55
463.947	1089.04
464.32	1110.06
464.692	1101.02
465.065	1112.99
465.438	1126.55
465.81	1119.55
466.183	1160.9
466.555	1183.95
466.928	1139.89
467.3	1186.66
467.672	1197.28
468.045	1216.95
468.417	1229.15
468.789	1243.16
469.161	1241.35
469.534	1261.92
469.906	1263.5
470.278	1310.73
470.65	1309.15
471.022	1323.84
471.394	1307.34
471.766	1350.73
472.138	1392.76
472.51	1379.88
472.882	1430.95
473.253	1428.24
473.625	1479.99
473.997	1494.68
474.369	1546.2
474.74	1491.06
475.112	1536.26
475.484	1586.43
475.855	1556.82
476.227	1621.45
476.598	1649.25
476.97	1647.67
477.341	1705.29
477.713	1710.49
478.084	1751.85
478.455	1772.86
478.827	1798.63
479.198	1862.35
479.569	1853.76
479.94	1919.07
480.311	1945.97
480.682	2001.56
481.053	2008.34
481.424	2058.05
481.795	2095.57
482.166	2136.02
482.537	2184.83
482.908	2213.08
483.279	2237.26
483.65	2267.09
484.021	2291.27
484.391	2343.24
484.762	2384.6
485.133	2418.95
485.503	2431.38
485.874	2496.46
486.244	2519.96
486.615	2558.83
486.985	2595.67
487.356	2632.05
487.726	2669.79
488.097	2725.61
488.467	2747.98
488.837	2823
489.207	2857.58
489.578	2900.74
489.948	2955.43
490.318	2967.86
490.688	2976.45
491.058	3106.84
491.428	3067.97
491.798	3104.13
492.168	3165.14
492.538	3189.77
492.908	3244.69
493.278	3305.48
493.648	3333.73
494.017	3360.17
494.387	3390
494.757	3427.28
495.126	3474.97
495.496	3490.56
495.866	3516.09
496.235	3561.74
496.605	3576.21
496.974	3646.94
497.344	3698.46
497.713	3651.01
498.082	3727.84
498.452	3724.68
498.821	3727.61
499.19	3796.54
499.559	3815.3
499.928	3850.1
500.298	3861.62
500.667	3916.08
501.036	3893.26
501.405	3945.46
501.774	3954.95
502.143	3997.44
502.512	3970.09
502.88	4040.15
503.249	4039.7
503.618	4046.25
503.987	4098.23
504.356	4107.94
504.724	4095.51
505.093	4208.96
505.462	4128.06
505.83	4190.43
506.199	4259.8
506.567	4290.54
506.936	4276.3
507.304	4302.29
507.672	4300.71
508.041	4322.17
508.409	4397.65
508.777	4388.16
509.145	4441.27
509.514	4390.65
509.882	4444.21
510.25	4510.42
510.618	4471.1
510.986	4525.33
511.354	4542.96
511.722	4588.16
512.09	4583.18
512.458	4559.46
512.826	4637.65
513.193	4650.75
513.561	4663.18
513.929	4648.49
514.297	4720.58
514.664	4701.15
515.032	4738.43
515.4	4761.03
515.767	4778.43
516.135	4802.84
516.502	4754.25
516.869	4850.3
517.237	4870.18
517.604	4817.3
517.972	4857.75
518.339	4883.97
518.706	4903.4
519.073	4951.54
519.44	4900.24
519.808	4994.25
520.175	4968.94
520.542	5065.43
520.909	4988.6
521.276	5010.29
521.643	5050.97
522.009	5086
522.376	5121.02
522.743	5156.05
523.11	5169.16
523.477	5175.71
523.843	5259.1
524.21	5239.89
524.577	5305.65
524.943	5258.2
525.31	5347.23
525.676	5401.24
526.043	5397.63
526.409	5383.62
526.776	5439.66
527.142	5480.34
527.508	5506.32
527.874	5479.21
528.241	5511.97
528.607	5565.76
528.973	5646.21
529.339	5634.91
529.705	5619.77
530.071	5662.03
530.437	5687.56
530.803	5741.12
531.169	5786.54
531.535	5740.89
531.901	5754.45
532.267	5814.34
532.632	5859.54
532.998	5909.03
533.364	5879.87
533.73	5924.62
534.095	5972.98
534.461	5992.87
534.826	6002.13
535.192	6030.15
535.557	6099.08
535.923	6109.47
536.288	6089.36
536.653	6119.87
537.019	6134.33
537.384	6161.22
537.749	6181.33
538.114	6162.13
538.479	6259.52
538.845	6273.54
539.21	6246.87
539.575	6327.55
539.94	6307.88
540.305	6345.85
540.67	6379.75
541.034	6406.64
541.399	6433.31
541.764	6426.98
542.129	6492.74
542.494	6527.31
542.858	6531.61
543.223	6518.05
543.587	6582
543.952	6652.28
544.316	6660.19
544.681	6651.6
545.045	6667.42
545.41	6724.37
545.774	6720.3
546.138	6750.36
546.503	6817.25
546.867	6832.39
547.231	6853.86
547.595	6861.99
547.959	6896.12
548.324	6942.67
548.688	6984.03
549.052	7001.2
549.416	6992.61
549.779	6979.05
550.143	7040.52
550.507	7102.21
550.871	7132.72
551.235	7076
551.599	7103.57
551.962	7163.23
552.326	7170.24
552.689	7203.45
553.053	7224.02
553.417	7221.08
553.78	7268.09
554.143	7205.04
554.507	7319.38
554.87	7347.63
555.234	7429.89
555.597	7384.24
555.96	7436.22
556.323	7447.74
556.686	7483.67
557.05	7500.62
557.413	7510.57
557.776	7524.8
558.139	7542.43
558.502	7556.21
558.865	7583.11
559.228	7654.74
559.59	7602.99
559.953	7637.12
560.316	7741.07
560.679	7777
561.041	7797.56
561.404	7825.13
561.767	7863.78
562.129	7801.86
562.492	7938.58
562.854	7875.53
563.217	7929.54
563.579	7929.54
563.941	7970.89
564.304	7928.18
564.666	8063.55
565.028	8055.18
565.39	8091.11
565.753	8116.88
566.115	8185.8
566.477	8186.03
566.839	8186.03
567.201	8260.83
567.563	8253.6
567.925	8324.1
568.287	8306.7
568.648	8377.66
569.01	8386.25
569.372	8402.07
569.734	8353.71
570.095	8512.57
570.457	8548.96
570.819	8595.51
571.18	8604.32
571.542	8629.86
571.903	8607.26
572.265	8733.81
572.626	8804.99
572.987	8821.27
573.349	8860.13
573.71	8868.95
574.071	8974.71
574.432	8990.53
574.794	9097.19
575.155	9132.44
575.516	9167.47
575.877	9161.14
576.238	9296.28
576.599	9332.44
576.96	9414.24
577.32	9503.06
577.681	9545.54
578.042	9661.47
578.403	9723.16
578.763	9798.19
579.124	9936.94
579.485	10086.09
579.845	10109.59
580.206	10198.4
580.566	10277.5
580.927	10386.87
581.287	10611.05
581.648	10678.39
582.008	10831.61
582.368	10971.72
582.728	11101.21
583.089	11300.52
583.449	11348.66
583.809	11517.69
584.169	11731.47
584.529	11915.2
584.889	12137.56
585.249	12245.81
585.609	12388.18
585.969	12664.1
586.329	12806.92
586.688	12995.39
587.048	13178.21
587.408	13459.56
587.768	13715.83
588.127	13970.51
588.487	14102.03
588.846	14484.85
589.206	14590.83
589.565	14828.11
589.925	15140.87
590.284	15358.72
590.643	15675.77
591.003	16002.09
591.362	16273.95
591.721	16578.8
592.08	16815.63
592.44	17139.69
592.799	17492.68
593.158	17786.23
593.517	18000.23
593.876	18386.89
594.235	18628.46
594.593	18838.18
594.952	19185.74
595.311	19400.65
595.67	19860.3
596.029	20209.67
596.387	20411.02
596.746	20840.38
597.104	20977.78
597.463	21361.5
597.822	21600.59
598.18	21922.16
598.538	22223.85
598.897	22771.63
599.255	22808.47
599.613	23456.13
599.972	23562.35
600.33	23941.32
600.688	24036.91
601.046	24509.89
601.404	25060.16
601.762	25084.79
602.12	25380.83
602.478	25724.1
602.836	25892
603.194	26177.19
603.552	26549.16
603.91	26749.83
604.268	27094.68
604.625	27305.75
604.983	27757.26
605.341	27871.84
605.698	28231.6
606.056	28653.96
606.413	28687.18
606.771	29070
607.128	29347.51
607.485	29544.79
607.843	29784.33
608.2	30149.97
608.557	30435.84
608.914	30418.44
609.272	30882.15
609.629	31096.39
609.986	31539.54
610.343	31530.95
610.7	31988.79
611.057	31962.58
611.414	32199.63
611.771	32367.99
612.127	32709.22
612.484	32847.98
612.841	33153.96
613.198	33216.1
613.554	33528.86
613.911	33891.11
614.267	33964.33
614.624	34061.05
614.98	34242.97
615.337	34619.91
615.693	34669.63
616.05	34771.32
616.406	35291.98
616.762	35135.38
617.118	35321.59
617.475	35431.19
617.831	35839.31
618.187	35823.95
618.543	35988.01
618.899	36269.36
619.255	36375.34
619.611	36341.22
619.967	36791.83
620.323	36854.88
620.678	36713.64
621.034	36919.51
621.39	37011.71
621.746	37121.76
622.101	37667.96
622.457	37454.18
622.812	37621.86
623.168	37820.73
623.523	37864.12
623.879	38015.75
624.234	37832.71
624.589	38246.48
624.945	38195.41
625.3	38263.88
625.655	38413.71
626.01	38492.8
626.365	38663.87
626.72	38703.87
627.075	38671.55
627.43	38702.97
627.785	38716.75
628.14	38895.73
628.495	38778.22
628.85	39036.52
629.205	38828.84
629.559	39143.86
629.914	38987.48
630.269	39117.64
630.623	39124.65
630.978	39000.13
631.332	39232.44
631.687	39479.89
632.041	39262.05
632.396	39368.94
632.75	39235.38
633.104	39419.56
633.459	39033.13
633.813	39221.6
634.167	39276.74
634.521	39267.7
634.875	39422.49
635.229	39370.07
635.583	39159.9
635.937	39320.58
636.291	39333.46
636.645	39378.2
636.999	39235.15
637.352	39512.21
637.706	39171.65
638.06	39507.69
638.413	39326.23
638.767	39246.91
639.121	39358.99
639.474	39254.14
639.828	39219.11
640.181	39293.01
640.534	39390.18
640.888	39239
641.241	39172.78
641.594	39177.98
641.947	39266.34
642.301	39137.98
642.654	39286.9
643.007	39085.33
643.36	39247.58
643.713	39151.77
644.066	39193.57
644.419	39018.66
644.771	38896.63
645.124	38492.8
645.477	38567.15
645.83	38182.53
646.182	38068.86
646.535	38076.99
646.888	38140.04
647.24	37977.11
647.593	38062.08
647.945	38220.49
648.298	37956.09
648.65	37927.62
649.002	37852.59
649.355	37908.86
649.707	37884.91
650.059	37991.35
650.411	38516.98
650.763	38567.38
651.115	38904.09
651.467	38772.34
651.819	38723.3
652.171	38751.78
652.523	38599.92
652.875	38759.01
653.227	38541.39
653.578	38750.2
653.93	38580.26
654.282	38459.36
654.633	38355.63
654.985	38434.27
655.337	38615.96
655.688	38521.05
656.039	38740.03
656.391	38225.69
656.742	38375.06
657.094	38450.32
657.445	38650.54
657.796	38416.65
658.147	38281.73
658.498	38453.71
658.849	38498.68
659.2	38323.09
659.551	38327.61
659.902	38462.29
660.253	38281.28
660.604	38322.64
660.955	38376.19
661.306	38380.26
661.656	38250.55
662.007	38248.74
662.358	38158.12
662.708	38361.51
663.059	38204.9
663.409	38091.23
663.76	38304.78
664.11	38171.45
664.461	38211.9
664.811	38148.18
665.161	38163.54
665.511	38262.07
665.862	38187.5
666.212	38348.17
666.562	38340.94
666.912	38251.9
667.262	38123.32
667.612	38238.8
667.962	38201.74
668.312	38130.55
668.662	38357.66
669.011	38163.54
669.361	38142.08
669.711	38083.09
670.06	38026.37
670.41	38108.63
670.76	37975.53
671.109	38080.83
671.459	37967.62
671.808	37975.07
672.157	38101.63
672.507	37715.87
672.856	37869.09
673.205	37995.41
673.554	38049.65
673.904	37891.69
674.253	38045.36
674.602	37954.51
674.951	37349.33
675.3	37201.76
675.649	37787.96
675.998	37652.37
676.346	37815.53
676.695	37997.9
677.044	37566.72
677.393	37677.46
677.741	37741.18
678.09	37631.58
678.438	37575.09
678.787	37668.42
679.135	37608.08
679.484	37367.63
679.832	37410.12
680.181	37352.72
680.529	37352.49
680.877	37270.01
681.225	37239.95
681.573	37380.74
681.922	37267.97
682.27	37030.69
682.618	37235.21
682.966	36961.99
683.314	37107.08
683.661	37029.34
684.009	36840.19
684.357	36836.8
684.705	36762.68
685.053	36637.03
685.4	36754.77
685.748	36495.11
686.095	36482.91
686.443	36352.07
686.79	36302.8
687.138	36444.27
687.485	36295.35
687.832	36365.63
688.18	36244.72
688.527	36038.4
688.874	36066.2
689.221	35999.76
689.568	35882.7
689.915	35880.21
690.262	35804.28
690.609	35669.15
690.956	35603.61
691.303	35579.43
691.65	35297.86
691.997	35418.31
692.344	35215.83
692.69	35125.21
693.037	35240.01
693.383	34900.35
693.73	35082.95
694.077	34880.47
694.423	34935.38
694.769	34715.27
695.116	34596.86
695.462	34622.39
695.808	34457.65
696.155	34600.93
696.501	34306.24
696.847	34402.74
697.193	34098.34
697.539	34170.2
697.885	34107.83
698.231	33988.51
698.577	33905.13
698.923	33656.32
699.269	33828.52
699.614	33385.82
699.96	33501.75
700.306	33469.43
700.651	33352.6
700.997	33329.32
701.342	33263.11
701.688	33175.43
702.033	33080.97
702.379	33006.84
702.724	32973.4
703.069	32924.59
703.415	32537.48
703.76	32630.58
704.105	32633.97
704.45	32539.06
704.795	32397.82
705.14	32200.31
705.485	32200.09
705.83	32107.21
706.175	32174.78
706.52	32085.96
706.865	31882.58
707.209	31834.67
707.554	31729.36
707.899	31819.08
708.243	31645.52
708.588	31564.17
708.932	31366.66
709.277	31339.77
709.621	31283.95
709.966	31244.4
710.31	31298.64
710.654	30975.48
710.998	31090.06
711.342	31120.34
711.687	31003.96
712.031	30754.25
712.375	30711.09
712.719	30850.97
713.063	30718.32
713.407	30622.5
713.75	30596.96
714.094	30593.35
714.438	30424.54
714.782	30458.66
715.125	30282.17
715.469	30296.86
715.812	30217.31
716.156	30070.42
716.499	30238.78
716.843	30205.11
717.186	29989.3
717.53	30133.25
717.873	30133.02
718.216	30034.72
718.559	29850.77
718.902	29711.56
719.246	29690.1
719.589	29733.94
719.932	29463.89
720.275	29503.66
720.617	29459.37
720.96	29463.21
721.303	29462.3
721.646	29408.29
721.989	29139.15
722.331	29324
722.674	29044.46
723.016	29218.02
723.359	29100.28
723.701	29141.18
724.044	29010.11
724.386	28947.52
724.729	28874.52
725.071	28737.58
725.413	28911.13
725.755	28851.02
726.097	28545.27
726.439	28489.9
726.782	28632.27
727.124	28678.37
727.465	28455.33
727.807	28394.54
728.149	28404.48
728.491	28288.78
728.833	28388.21
729.175	28351.37
729.516	28289
729.858	28202.22
730.199	28152.51
730.541	28126.52
730.882	28066.63
731.224	28183.69
731.565	28033.64
731.906	28040.87
732.248	27964.49
732.589	27819.86
732.93	27802.46
733.271	27748.9
733.612	27729.24
733.953	27668.91
734.294	27617.38
734.635	27573.77
734.976	27648.79
735.317	27437.5
735.658	27468.68
735.999	27578.74
736.339	27428.01
736.68	27490.15
737.021	27388.46
737.361	27307.11
737.702	27393.21
738.042	27352.76
738.383	27276.15
738.723	27301.46
739.063	27201.35
739.404	27257.62
739.744	27123.83
740.084	27053.33
740.424	27054.91
740.764	27043.38
741.104	27056.27
741.444	26825.76
741.784	26880.23
742.124	26850.85
742.464	26760.23
742.804	26782.15
743.143	26832.54
743.483	26718.42
743.823	26565.66
744.162	26577.63
744.502	26707.12
744.841	26461.48
745.181	26488.15
745.52	26470.29
745.86	26536.96
746.199	26419.22
746.538	26412.44
746.877	26498.77
747.216	26495.6
747.556	26277.08
747.895	26308.26
748.234	26226.23
748.573	26293.35
748.911	26140.36
749.25	26085.67
749.589	26059.68
749.928	25978.1
750.267	26022.39
750.605	25941.27
750.944	25860.37
751.283	25859.69
751.621	25920.25
751.96	25721.39
752.298	25659.24
752.636	25725.91
752.975	25561.39
753.313	25405.91
753.651	25608.17
753.989	25579.92
754.327	25468.51
754.666	25357.1
755.004	25388.51
755.342	25328.4
755.679	25315.52
756.017	25102.65
756.355	25198.69
756.693	25027.62
757.031	25104.45
757.368	24921.86
757.706	25033.04
758.044	24859.94
758.381	24739.04
758.719	24765.48
759.056	24729.1
759.394	24661.3
759.731	24663.56
760.068	24573.39
760.405	24299.95
760.743	24366.17
761.08	24425.37
761.417	24306.73
761.754	24188.09
762.091	24189.9
762.428	24104.48
762.765	23870.59
763.102	23940.19
763.438	23865.39
763.775	23721.89
764.112	23758.5
764.449	23766.63
764.785	23657.03
765.122	23506.75
765.458	23528.9
765.795	23346.53
766.131	23387.44
766.467	23314.9
766.804	23308.34
767.14	23075.35
767.476	23066.31
767.812	22917.17
768.148	22996.49
768.485	22885.08
768.821	22723.05
769.157	22671.97
769.492	22662.03
769.828	22654.57
770.164	22352.21
770.5	22399.67
770.836	22386.78
771.171	22257.07
771.507	22212.33
771.842	21965.33
772.178	22023.63
772.513	21989.51
772.849	21905.89
773.184	21822.28
773.519	21745.9
773.855	21670.19
774.19	21624.54
774.525	21435.62
774.86	21369.41
775.195	21395.85
775.53	21275.18
775.865	21186.36
776.2	20978.69
776.535	20822.98
776.87	20999.48
777.205	20833.15
777.539	20773.95
777.874	20813.27
778.209	20592.26
778.543	20486.5
778.878	20479.26
779.212	20428.19
779.547	20239.72
779.881	20368.76
780.215	20121.31
780.55	20183.68
780.884	20022.55
781.218	20020.52
781.552	20063.91
781.886	19872.27
782.22	19773.75
782.554	19805.61
782.888	19583.69
783.222	19519.97
783.556	19443.58
783.889	19364.26
784.223	19244.04
784.557	19190.03
784.89	19185.74
785.224	19203.59
785.557	19025.52
785.891	18980.32
786.224	18868.23
786.558	18974.9
786.891	18706.88
787.224	18712.98
787.557	18649.48
787.891	18648.58
788.224	18618.3
788.557	18572.65
788.89	18501.69
789.223	18475.7
789.556	18357.06
789.888	18274.58
790.221	18233.9
790.554	18048.14
790.887	18146.9
791.219	18058.99
791.552	18031.42
791.884	17930.4
792.217	17856.73
792.549	17683.86
792.882	17622.62
793.214	17526.12
793.546	17568.38
793.879	17399.8
794.211	17407.93
794.543	17377.42
794.875	17299.91
795.207	17327.03
795.539	17228.73
795.871	17189.63
796.203	17172.91
796.535	17024.89
796.867	16963.65
797.198	16895.18
797.53	16769.3
797.862	16752.81
798.193	16858.12
798.525	16747.61
798.856	16711
799.188	16549.2
799.519	16470.33
799.85	16375.19
800.182	16352.14
800.513	16387.17
800.844	16246.61
801.175	16346.27
801.506	16277.79
801.837	16217.23
802.168	16099.49
802.499	16093.16
802.83	16012.71
803.161	15902.43
803.491	16010
803.822	16004.58
804.153	15840.97
804.483	15755.32
804.814	15675.32
805.145	15646.4
805.475	15652.95
805.805	15710.8
806.136	15688.88
806.466	15616.57
806.796	15529.79
807.126	15432.84
807.457	15408.89
807.787	15309.91
808.117	15271.27
808.447	15209.12
808.777	15309.91
809.107	15163.47
809.436	15162.57
809.766	15092.74
810.096	15041.67
810.426	14994.89
810.755	15015.68
811.085	14942.01
811.414	14914.44
811.744	14826.98
812.073	14817.04
812.403	14827.43
812.732	14649.36
813.061	14722.58
813.39	14597.16
813.719	14606.88
814.049	14704.95
814.378	14572.98
814.707	14476.26
815.036	14543.15
815.365	14405.3
815.693	14253.21
816.022	14362.14
816.351	14271.52
816.68	14203.95
817.008	14267.45
817.337	14016.61
817.665	14057.96
817.994	14074.01
818.322	14136.38
818.651	14045.31
818.979	14026.1
819.307	13984.97
819.636	13973.67
819.964	13887.57
820.292	13923.28
820.62	13911.3
820.948	13821.13
821.276	13890.74
821.604	13827.69
821.932	13880.79
822.259	13854.13
822.587	13795.37
822.915	13838.99
823.243	13792.89
823.57	13837.86
823.898	13825.65
824.225	13774.81
824.553	13795.37
824.88	13765.09
825.207	13794.02
825.535	13726.22
825.862	13839.21
826.189	13707.69
826.516	13845.54
826.843	13887.35
827.17	13857.07
827.497	13765.32
827.824	13822.94
828.151	13783.17
828.478	13737.97
828.805	13738.88
829.131	13683.28
829.458	13715.83
829.785	13547.47
830.111	13677.63
830.438	13837.63
830.764	13806.22
831.09	13773
831.417	13713.11
831.743	13740.23
832.069	13738.42
832.395	13662.27
832.722	13701.36
833.048	13609.16
833.374	13680.57
833.7	13573
834.026	13597.64
834.351	13650.06
834.677	13577.75
835.003	13658.2
835.329	13566.45
835.654	13547.02
835.98	13527.81
836.306	13527.81
836.631	13403.97
836.956	13513.57
837.282	13489.62
837.607	13424.08
837.932	13343.18
838.258	13454.14
838.583	13407.36
838.908	13322.62
839.233	13316.97
839.558	13256.4
839.883	13248.49
840.208	13279.68
840.533	13248.27
840.858	13274.71
841.182	13227.48
841.507	13214.37
841.832	13099.12
842.156	13062.74
842.481	13140.93
842.805	13048.72
843.13	12984.32
843.454	13019.12
843.778	12886.7
844.103	12904.77
844.427	12899.8
844.751	12921.5
845.075	12892.8
845.399	12790.88
845.723	12699.81
846.047	12785.91
846.371	12686.47
846.695	12612.13
847.019	12524.44
847.343	12497.55
847.666	12374.39
847.99	12364
848.313	12331.68
848.637	12296.65
848.96	12319.48
849.284	12258.01
849.607	12181.18
849.931	12137.79
850.254	12049.2
850.577	11923.1
850.9	11807.85
851.223	11842.43
851.546	11866.38
851.869	11708.19
852.192	11836.33
852.515	11681.98
852.838	11614.86
853.161	11609.44
853.483	11568.99
853.806	11569.44
854.129	11509.56
854.451	11442.44
854.774	11398.6
855.096	11385.49
855.419	11340.75
855.741	11350.69
856.063	11214.42
856.385	11244.48
856.708	11218.49
857.03	11147.76
857.352	11179.85
857.674	11122.9
857.996	11096.23
858.318	11023.24
858.64	11013.75
858.961	10959.06
859.283	10947.76
859.605	10886.97
859.926	10886.3
860.248	10888.78
860.57	10821.89
860.891	10805.39
861.212	10759.07
861.534	10683.14
861.855	10705.28
862.176	10705.51
862.498	10670.48
862.819	10689.46
863.14	10652.63
863.461	10658.28
863.782	10539.64
864.103	10547.32
864.424	10558.39
864.745	10542.8
865.065	10525.85
865.386	10428.45
865.707	10506.64
866.027	10489.92
866.348	10400.66
866.668	10434.78
866.989	10343.71
867.309	10327.67
867.63	10322.92
867.95	10363.15
868.27	10236.14
868.59	10290.38
868.91	10241.34
869.23	10262.58
869.55	10241.11
869.87	10203.6
870.19	10300.77
870.51	10223.94
870.83	10164.51
871.15	10087.9
871.469	10094.23
871.789	10103.27
872.109	10214.67
872.428	10082.7
872.748	10056.71
873.067	10041.57
873.386	10076.83
873.706	10035.47
874.025	10018.52
874.344	9944.4
874.663	9965.19
874.982	9963.16
875.301	9946.21
875.62	9935.59
875.939	9887
876.258	9903.27
876.577	9888.13
876.896	9872.09
877.214	9833.22
877.533	9843.84
877.852	9818.3
878.17	9834.35
878.489	9838.87
878.807	9811.97
879.125	9749.15
879.444	9771.3
879.762	9697.85
880.08	9724.07
880.398	9628.25
880.716	9689.27
881.034	9665.31
881.352	9622.37
881.67	9611.75
881.988	9583.73
882.306	9567.69
882.624	9581.92
882.941	9505.54
883.259	9436.62
883.577	9417.63
883.894	9467.35
884.212	9447.92
884.529	9387.35
884.846	9339.44
885.164	9363.62
885.481	9304.64
885.798	9413.57
886.115	9280.01
886.432	9287.69
886.75	9224.42
887.067	9254.7
887.383	9204.08
887.7	9225.1
888.017	9190.3
888.334	9125.21
888.651	9135.83
888.967	9167.92
889.284	9027.59
889.6	9077.3
889.917	8957.53
890.233	8978.32
890.55	8981.71
890.866	8961.83
891.182	8924.09
891.498	8892.9
891.815	8862.62
892.131	8775.16
892.447	8807.48
892.763	8762.28
893.079	8736.07
893.395	8706.92
893.71	8711.44
894.026	8702.17
894.342	8638.45
894.657	8645
894.973	8601.16
895.289	8588.5
895.604	8579.46
895.92	8489.52
896.235	8408.85
896.55	8437.55
896.865	8429.41
897.181	8420.15
897.496	8417.21
897.811	8278
898.126	8402.07
898.441	8322.3
898.756	8253.14
899.071	8228.74
899.386	8266.03
899.7	8141.74
900.015	8112.13
900.33	8136.99
900.644	8090.89
900.959	8099.25
901.273	8050.21
901.588	8028.29
901.902	7947.62
902.216	7956.66
902.531	7973.6
902.845	7905.81
903.159	7850.9
903.473	7875.08
903.787	7802.31
904.101	7767.96
904.415	7681.63
904.729	7684.8
905.042	7684.8
905.356	7683.89
905.67	7625.14
905.984	7609.09
906.297	7577.46
906.611	7554.41
906.924	7524.35
907.237	7513.28
907.551	7439.61
907.864	7404.81
908.177	7426.73
908.491	7442.77
908.804	7346.95
909.117	7287.07
909.43	7289.33
909.743	7267.41
910.056	7239.61
910.368	7177.24
910.681	7160.07
910.994	7167.07
911.307	7109.45
911.619	7100.41
911.932	7050.69
912.244	6997.81
912.557	6975.21
912.869	6999.39
913.181	6986.74
913.494	6923.46
913.806	6843.46
914.118	6859.06
914.43	6834.2
914.742	6785.16
915.054	6753.97
915.366	6696.35
915.678	6737.48
915.99	6703.13
916.302	6660.87
916.613	6619.06
916.925	6566.64
917.236	6599.18
917.548	6540.2
917.859	6525.73
918.171	6504.72
918.482	6471.27
918.794	6450.25
919.105	6402.57
919.416	6416.13
919.727	6337.26
920.038	6357.15
920.349	6286.19
920.66	6266.98
920.971	6288.45
921.282	6275.8
921.593	6200.09
921.903	6128
922.214	6181.56
922.525	6126.19
922.835	6107.66
923.146	6088.68
923.456	6075.35
923.767	6026.99
924.077	6000.1
924.387	5989.7
924.697	5901.57
925.008	5945.18
925.318	5919.65
925.628	5899.99
925.938	5839.87
926.248	5787.9
926.558	5850.27
926.867	5805.75
927.177	5753.78
927.487	5697.28
927.796	5678.52
928.106	5695.7
928.416	5656.83
928.725	5611.63
929.034	5638.52
929.344	5601.46
929.653	5591.29
929.962	5554.91
930.271	5539.54
930.581	5447.34
930.89	5501.35
931.199	5370.51
931.508	5403.95
931.817	5440.11
932.125	5374.8
932.434	5395.37
932.743	5352.2
933.051	5280.12
933.36	5305.2
933.669	5277.4
933.977	5253.45
934.286	5260.23
934.594	5156.28
934.902	5195.6
935.21	5170.29
935.519	5142.04
935.827	5130.06
936.135	5056.84
936.443	5066.11
936.751	5084.19
937.059	5118.09
937.367	5007.58
937.674	4978.65
937.982	4977.52
938.29	4946.79
938.597	4933.46
938.905	4895.94
939.213	4860.47
939.52	4812.78
939.827	4915.83
940.135	4810.52
940.442	4782.05
940.749	4782.28
941.056	4809.17
941.363	4716.29
941.67	4704.54
941.977	4662.05
942.284	4632.45
942.591	4662.5
942.898	4625.44
943.205	4613.24
943.511	4587.25
943.818	4544.77
944.125	4543.41
944.431	4504.09
944.738	4532.79
945.044	4446.69
945.35	4446.92
945.657	4459.8
945.963	4380.93
946.269	4400.82
946.575	4416.18
946.881	4439.91
947.187	4372.79
947.493	4308.84
947.799	4281.05
948.105	4308.84
948.41	4285.57
948.716	4236.08
949.022	4277.2
949.327	4223.65
949.633	4169.41
949.938	4218
950.244	4140.71
950.549	4131.67
950.854	4142.52
951.16	4116.98
951.465	4118.11
951.77	4060.49
952.075	4036.31
952.38	4034.05
952.685	4053.93
952.99	4044.22
953.294	4026.82
953.599	4004.67
953.904	3906.82
954.209	3912.92
954.513	3932.35
954.818	3907.04
955.122	3870.43
955.426	3880.38
955.731	3862.53
956.035	3835.86
956.339	3826.14
956.643	3847.61
956.948	3813.49
957.252	3801.28
957.556	3755.41
957.86	3772.36
958.163	3732.81
958.467	3708.63
958.771	3702.3
959.075	3729.2
959.378	3675.19
959.682	3682.42
959.985	3640.16
960.289	3612.59
960.592	3601.74
960.896	3555.64
961.199	3573.27
961.502	3574.85
961.805	3542.99
962.108	3531.69
962.411	3496.21
962.714	3477.68
963.017	3433.16
963.32	3470.67
963.623	3472.71
963.926	3416.44
964.228	3401.97
964.531	3445.36
964.833	3399.03
965.136	3371.92
965.438	3338.25
965.741	3363.56
966.043	3344.12
966.345	3337.79
966.648	3325.59
966.95	3292.37
967.252	3244.91
967.554	3261.41
967.856	3213.5
968.158	3224.12
968.46	3224.35
968.761	3209.89
969.063	3232.03
969.365	3179.83
969.666	3160.17
969.968	3154.97
970.269	3140.28
970.571	3110.91
970.872	3126.73
971.174	3090.79
971.475	3100.29
971.776	3044.69
972.077	3087.4
972.378	3051.47
972.679	3033.39
972.98	3021.42
973.281	3007.41
973.582	3014.41
973.883	2985.94
974.183	2988.88
974.484	2977.8
974.785	2954.53
975.085	2924.7
975.386	2945.94
975.686	2910.01
975.986	2913.62
976.287	2890.35
976.587	2850.35
976.887	2864.81
977.187	2878.14
977.487	2869.78
977.787	2796.56
978.087	2739.17
978.387	2807.41
978.687	2768.54
978.987	2773.74
979.286	2742.1
979.586	2731.71
979.885	2745.49
980.185	2716.34
980.484	2704.82
980.784	2705.95
981.083	2699.17
981.382	2645.61
981.682	2677.92
981.981	2614.87
982.28	2654.2
982.579	2621.65
982.878	2621.88
983.177	2574.42
983.475	2582.56
983.774	2584.82
984.073	2603.35
984.372	2522.45
984.67	2509.11
984.969	2532.39
985.267	2500.75
985.566	2494.2
985.864	2477.93
986.162	2494.65
986.461	2479.74
986.759	2490.36
987.057	2441.77
987.355	2450.36
987.653	2418.04
987.951	2438.38
988.249	2400.87
988.547	2429.57
988.844	2381.89
989.142	2375.33
989.44	2370.81
989.737	2348.22
990.035	2371.72
990.332	2319.97
990.63	2326.29
990.927	2310.93
991.224	2299.4
991.521	2291.49
991.819	2278.84
992.116	2288.33
992.413	2265.51
992.71	2259.63
993.006	2241.33
993.303	2248.78
993.6	2188.9
993.897	2207.43
994.193	2206.07
994.49	2205.39
994.787	2198.16
995.083	2147.09
995.379	2183.02
995.676	2140.76
995.972	2165.85
996.268	2148.9
996.565	2110.71
996.861	2092.85
997.157	2094.66
997.453	2055.79
997.749	2086.53
998.044	2056.92
998.34	2072.29
998.636	2073.87
998.932	2040.43
999.227	2042.69
999.523	2008.11
999.818	2024.83
1000.114	2008.79
1000.409	1971.95
1000.704	1982.57
1001	1954.55
1001.295	1956.36
1001.59	1967.66
1001.885	1973.99
1002.18	1940.32
1002.475	1885.4
1002.77	1888.11
1003.065	1901.22
1003.359	1881.33
1003.654	1909.13
1003.949	1857.38
1004.243	1853.09
1004.538	1844.73
1004.832	1835.69
1005.127	1840.88
1005.421	1822.58
1005.715	1827.1
1006.009	1812.18
1006.304	1758.85
1006.598	1795.69
1006.892	1776.7
1007.186	1725.86
1007.48	1747.78
1007.773	1711.4
1008.067	1724.28
1008.361	1701.23
1008.655	1717.27
1008.948	1686.76
1009.242	1657.84
1009.535	1664.39
1009.829	1675.46
1010.122	1649.93
1010.415	1649.7
1010.708	1637.73
1011.001	1623.26
1011.295	1629.82
1011.588	1625.3
1011.881	1579.2
1012.173	1600.89
1012.466	1605.18
1012.759	1586.88
1013.052	1583.49
1013.344	1573.55
1013.637	1548.46
1013.93	1548.46
1014.222	1545.52
1014.514	1523.38
1014.807	1549.82
1015.099	1514.56
1015.391	1500.55
1015.683	1503.27
1015.976	1514.11
1016.268	1503.27
1016.56	1473.21
1016.851	1454.23
1017.143	1448.8
1017.435	1452.65
1017.727	1430.05
1018.018	1420.33
1018.31	1413.1
1018.602	1446.77
1018.893	1390.5
1019.185	1427.79
1019.476	1383.27
1019.767	1369.94
1020.058	1379.88
1020.35	1338.98
1020.641	1354.57
1020.932	1326.32
1021.223	1319.32
1021.514	1337.17
1021.804	1323.61
1022.095	1336.04
1022.386	1297.17
1022.677	1303.95
1022.967	1281.12
1023.258	1272.99
1023.548	1272.54
1023.839	1274.8
1024.129	1262.14
1024.419	1240.22
1024.709	1212.88
1025	1232.99
1025.29	1213.56
1025.58	1196.61
1025.87	1191.18
1026.16	1217.85
1026.449	1185.99
1026.739	1160.22
1027.029	1175.14
1027.319	1181.69
1027.608	1154.57
1027.898	1157.29
1028.187	1170.62
1028.477	1131.75
1028.766	1097.63
1029.055	1123.39
1029.344	1123.39
1029.634	1096.27
1029.923	1126.1
1030.212	1122.71
1030.501	1093.33
1030.79	1076.84
1031.078	1048.59
1031.367	1059.21
1031.656	1062.6
1031.945	1054.46
1032.233	1051.53
1032.522	1040.23
1032.81	1016.72
1033.099	1013.11
1033.387	1007.69
1033.675	1001.81
1033.963	982.83
1034.251	1000.45
1034.54	987.8
1034.828	990.06
1035.116	995.26
1035.403	974.24
1035.691	973.34
1035.979	968.14
1036.267	949.16
1036.554	964.75
1036.842	954.81
1037.129	946.44
1037.417	945.99
1037.704	945.77
1037.992	936.27
1038.279	928.82
1038.566	960.45
1038.853	960.45
1039.14	960.45
