Data from hue_26_FLMS001491_00033.txt Node
Date: Tue Feb 07 17:13:54 GMT 2017
User: dcchb
Spectrometer: FLMS00149
Trigger mode: 0
Integration Time (sec): 2.000000E-2
Scans to average: 10
Electric dark correction enabled: true
Nonlinearity correction enabled: false
Boxcar width: 0
XAxis mode: Wavelengths
Number of Pixels in Spectrum: 2048
>>>>>Begin Spectral Data<<<<<
341.393	-1.89
341.776	-1.89
342.16	-1.89
342.543	-59.74
342.927	-67.43
343.31	-64.72
343.693	-87.99
344.077	-66.52
344.46	-42.57
344.843	-41.89
345.226	-58.84
345.61	-37.37
345.993	1.5
346.376	-3.25
346.759	6.24
347.142	36.98
347.525	25.68
347.908	39.01
348.291	79.01
348.674	103.87
349.057	110.87
349.44	133.02
349.823	145.9
350.206	165.11
350.588	215.28
350.971	210.98
351.354	242.62
351.737	231.77
352.119	253.69
352.502	263.86
352.884	286.01
353.267	301.83
353.65	274.71
354.032	293.47
354.414	305.44
354.797	344.76
355.179	334.14
355.562	321.94
355.944	321.26
356.326	332.34
356.709	335.27
357.091	320.36
357.473	360.13
357.855	354.03
358.238	348.83
358.62	328.49
359.002	354.26
359.384	342.51
359.766	329.62
360.148	335.5
360.53	342.73
360.912	331.66
361.294	343.41
361.676	332.79
362.057	335.73
362.439	341.38
362.821	343.86
363.203	322.62
363.584	330.3
363.966	321.94
364.348	349.74
364.729	313.13
365.111	327.36
365.493	311.32
365.874	307.48
366.256	321.49
366.637	330.75
367.019	328.49
367.4	315.16
367.781	327.59
368.163	326.46
368.544	328.72
368.925	318.78
369.306	332.34
369.688	324.2
370.069	331.21
370.45	323.07
370.831	311.09
371.212	305.22
371.593	311.77
371.974	332.34
372.355	308.83
372.736	329.4
373.117	339.79
373.498	305.44
373.879	314.03
374.26	325.1
374.641	340.25
375.021	323.52
375.402	328.72
375.783	319.45
376.163	312.68
376.544	326.91
376.925	331.66
377.305	327.82
377.686	345.67
378.066	345.67
378.447	312
378.827	340.02
379.208	332.56
379.588	341.83
379.968	351.09
380.349	323.97
380.729	332.11
381.109	350.64
381.489	317.87
381.87	348.61
382.25	338.89
382.63	347.7
383.01	370.53
383.39	347.93
383.77	332.11
384.15	365.56
384.53	351.09
384.91	365.56
385.29	357.42
385.67	343.64
386.049	360.36
386.429	351.54
386.809	366.01
387.189	341.38
387.568	388.61
387.948	345.67
388.328	368.95
388.707	349.28
389.087	363.07
389.466	384.09
389.846	351.32
390.225	380.7
390.605	364.65
390.984	357.87
391.363	390.19
391.743	390.87
392.122	373.01
392.501	382.28
392.881	382.73
393.26	373.24
393.639	394.93
394.018	378.89
394.397	377.53
394.776	366.91
395.155	403.29
395.534	403.97
395.913	367.36
396.292	383.18
396.671	406.68
397.05	389.51
397.429	387.48
397.808	395.61
398.186	401.94
398.565	407.14
398.944	411.66
399.323	383.41
399.701	405.78
400.08	406.23
400.458	420.92
400.837	400.58
401.215	409.85
401.594	391.54
401.972	412.56
402.351	430.41
402.729	423.18
403.107	417.53
403.486	412.11
403.864	418.21
404.242	439.68
404.62	435.38
404.999	422.5
405.377	415.27
405.755	441.26
406.133	434.03
406.511	429.51
406.889	432.22
407.267	439.45
407.645	445.55
408.023	444.65
408.401	449.17
408.779	432.9
409.156	449.39
409.534	471.32
409.912	470.86
410.29	443.07
410.667	462.95
411.045	474.93
411.422	473.12
411.8	460.69
412.178	471.32
412.555	457.76
412.933	482.39
413.31	497.76
413.687	456.4
414.065	498.89
414.442	480.58
414.819	495.5
415.197	502.5
415.574	506.57
415.951	514.48
416.328	526.23
416.705	490.98
417.082	476.74
417.46	487.81
417.837	522.39
418.214	510.18
418.591	519.68
418.967	523.07
419.344	530.97
419.721	519.9
420.098	532.33
420.475	545.89
420.852	530.97
421.228	544.99
421.605	532.1
421.982	548.6
422.358	562.84
422.735	539.11
423.111	542.05
423.488	555.38
423.864	561.93
424.241	577.98
424.617	554.25
424.994	574.14
425.37	579.11
425.746	563.52
426.123	586.34
426.499	571.2
426.875	580.46
427.251	604.87
427.627	596.96
428.003	604.42
428.379	612.1
428.756	604.19
429.132	617.98
429.507	616.4
429.883	611.2
430.259	609.62
430.635	627.92
431.011	613.01
431.387	631.09
431.763	660.01
432.138	663.63
432.514	653.68
432.89	668.6
433.265	674.25
433.641	662.27
434.016	669.95
434.392	679.22
434.767	693.91
435.143	679.9
435.518	705.89
435.894	702.27
436.269	722.16
436.644	714.47
437.02	708.6
437.395	719.44
437.77	724.64
438.145	732.33
438.52	739.1
438.895	746.34
439.271	724.87
439.646	751.76
440.021	758.31
440.395	762.38
440.77	761.48
441.145	784.08
441.52	787.47
441.895	774.13
442.27	758.77
442.645	783.17
443.019	804.41
443.394	777.75
443.769	809.39
444.143	787.92
444.518	840.35
444.892	801.7
445.267	826.11
445.641	804.87
446.016	812.78
446.39	831.76
446.764	840.8
447.139	837.86
447.513	829.5
447.887	840.57
448.262	841.7
448.636	850.06
449.01	858.42
449.384	868.14
449.758	869.72
450.132	897.97
450.506	883.06
450.88	909.04
451.254	878.08
451.628	888.93
452.002	933.22
452.376	906.78
452.75	924.41
453.123	922.83
453.497	944.3
453.871	936.61
454.244	937.97
454.618	987.69
454.992	972.77
455.365	996.73
455.739	987.91
456.112	1025.65
456.486	1006.67
456.859	1010.74
457.232	1052.32
457.606	1062.26
457.979	1055.03
458.352	1055.03
458.725	1069.27
459.099	1063.84
459.472	1094.12
459.845	1096.38
460.218	1122.82
460.591	1130.51
460.964	1118.3
461.337	1135.25
461.71	1157.4
462.083	1173.67
462.456	1201.01
462.829	1185.42
463.201	1194.91
463.574	1210.28
463.947	1207.34
464.32	1221.58
464.692	1261.8
465.065	1269.71
465.438	1268.58
465.81	1288.47
466.183	1274.01
466.555	1317.85
466.928	1322.59
467.3	1355.13
467.672	1338.86
468.045	1378.41
468.417	1386.77
468.789	1436.49
469.161	1436.04
469.534	1450.95
469.906	1436.94
470.278	1469.93
470.65	1521.01
471.022	1556.48
471.394	1582.25
471.766	1566.2
472.138	1581.12
472.51	1625.64
472.882	1667.67
473.253	1678.52
473.625	1715.58
473.997	1751.73
474.369	1761.45
474.74	1749.47
475.112	1794.9
475.484	1819.75
475.855	1860.88
476.227	1844.16
476.598	1942.01
476.97	1946.53
477.341	1971.61
477.713	2006.19
478.084	2065.85
478.455	2105.17
478.827	2130.48
479.198	2171.38
479.569	2190.37
479.94	2248.9
480.311	2280.76
480.682	2356.46
481.053	2426.74
481.424	2452.05
481.795	2482.56
482.166	2505.61
482.537	2586.74
482.908	2643.01
483.279	2645.04
483.65	2705.83
484.021	2776.11
484.391	2788.99
484.762	2854.76
485.133	2856.56
485.503	2940.4
485.874	2998.25
486.244	3028.54
486.615	3102.43
486.985	3194.86
487.356	3219.49
487.726	3257
488.097	3349.88
488.467	3354.4
488.837	3456.32
489.207	3464.46
489.578	3560.5
489.948	3602.53
490.318	3631.23
490.688	3632.81
491.058	3720.04
491.428	3787.61
491.798	3826.93
492.168	3936.76
492.538	3932.69
492.908	3994.16
493.278	4022.41
493.648	4067.6
494.017	4142.86
494.387	4182.63
494.757	4233.25
495.126	4294.04
495.496	4329.97
495.866	4366.81
496.235	4397.99
496.605	4431.21
496.974	4501.49
497.344	4552.79
497.713	4553.02
498.082	4564.54
498.452	4660.58
498.821	4677.76
499.19	4706.23
499.559	4743.29
499.928	4791.43
500.298	4853.8
500.667	4828.26
501.036	4829.62
501.405	4920.69
501.774	4912.55
502.143	4953.46
502.512	4994.81
502.88	5054.92
503.249	5052.21
503.618	5059.22
503.987	5127.24
504.356	5194.35
504.724	5211.53
505.093	5189.84
505.462	5235.26
505.83	5265.99
506.199	5293.11
506.567	5360
506.936	5372.88
507.304	5447.68
507.672	5470.51
508.041	5495.59
508.409	5505.53
508.777	5551.41
509.145	5582.82
509.514	5562.25
509.882	5603.16
510.25	5605.19
510.618	5663.5
510.986	5652.2
511.354	5749.14
511.722	5783.49
512.09	5794.57
512.458	5828.24
512.826	5876.37
513.193	5907.78
513.561	5887.9
513.929	5918.18
514.297	5995.46
514.664	5950.04
515.032	6015.8
515.4	6025.97
515.767	6018.97
516.135	6101.68
516.502	6058.51
516.869	6202.24
517.237	6169.24
517.604	6163.14
517.972	6209.7
518.339	6204.72
518.706	6270.03
519.073	6274.78
519.44	6273.87
519.808	6361.1
520.175	6361.78
520.542	6386.64
520.909	6420.76
521.276	6486.3
521.643	6523.59
522.009	6557.71
522.376	6577.82
522.743	6563.13
523.11	6661.89
523.477	6720.42
523.843	6766.07
524.21	6759.06
524.577	6850.81
524.943	6877.7
525.31	6873.63
525.676	6927.87
526.043	6943.24
526.409	6951.82
526.776	7019.17
527.142	7032.95
527.508	7093.97
527.874	7206.28
528.241	7137.58
528.607	7213.96
528.973	7291.93
529.339	7250.57
529.705	7363.34
530.071	7334.86
530.437	7397.46
530.803	7427.29
531.169	7481.07
531.535	7448.98
531.901	7481.75
532.267	7580.73
532.632	7579.6
532.998	7599.26
533.364	7701.63
533.73	7704.35
534.095	7789.09
534.461	7757.45
534.826	7841.97
535.192	7827.73
535.557	7906.37
535.923	7864.57
536.288	7910.89
536.653	7992.7
537.019	7912.7
537.384	8003.77
537.749	8052.36
538.114	8071.12
538.479	8114.05
538.845	8138.23
539.21	8145.01
539.575	8209.42
539.94	8201.96
540.305	8287.83
540.67	8270.43
541.034	8296.19
541.399	8387.27
541.764	8372.12
542.129	8467.94
542.494	8436.08
542.858	8461.84
543.223	8491.67
543.587	8567.6
543.952	8516.3
544.316	8560.59
544.681	8565.11
545.045	8696.41
545.41	8752.91
545.774	8752.23
546.138	8707.26
546.503	8731.44
546.867	8787.03
547.231	8839.23
547.595	8878.78
547.959	8982.73
548.324	8904.99
548.688	8942.5
549.052	9029.51
549.416	9049.17
549.779	9038.32
550.143	9046.46
550.507	9097.98
550.871	9142.95
551.235	9176.4
551.599	9259.33
551.962	9270.86
552.326	9274.93
552.689	9302.5
553.053	9336.84
553.417	9346.34
553.78	9406.22
554.143	9432.44
554.507	9443.51
554.87	9482.6
555.234	9547.23
555.597	9528.7
555.96	9539.1
556.323	9566.9
556.686	9590.62
557.05	9614.35
557.413	9633.11
557.776	9767.34
558.139	9706.1
558.502	9804.4
558.865	9875.59
559.228	9928.02
559.59	9984.74
559.953	9909.71
560.316	9987.9
560.679	10007.11
561.041	10020.89
561.404	10091.85
561.767	10158.52
562.129	10135.47
562.492	10225.64
562.854	10199.87
563.217	10209.36
563.579	10243.04
563.941	10357.16
564.304	10362.35
564.666	10351.73
565.028	10486.19
565.39	10432.41
565.753	10496.36
566.115	10507.21
566.477	10637.38
566.839	10642.12
567.201	10707.88
567.563	10709.69
567.925	10763.25
568.287	10817.03
568.648	10831.49
569.01	10890.48
569.372	10894.54
569.734	10830.82
570.095	11094.54
570.457	11098.38
570.819	11128.44
571.18	11156.01
571.542	11230.13
571.903	11205.04
572.265	11262.22
572.626	11311.03
572.987	11443
573.349	11370.92
573.71	11542.66
574.071	11568.2
574.432	11554.64
574.794	11644.58
575.155	11671.47
575.516	11712.6
575.877	11877.12
576.238	11862.43
576.599	11974.97
576.96	12026.49
577.32	12101.07
577.681	12181.52
578.042	12317.11
578.403	12422.19
578.763	12449.53
579.124	12523.88
579.485	12689.07
579.845	12787.15
580.206	12926.13
580.566	13053.58
580.927	13197.99
581.287	13313.24
581.648	13395.04
582.008	13585.55
582.368	13649.95
582.728	13910.28
583.089	13994.35
583.449	14117.74
583.809	14244.74
584.169	14508.23
584.529	14652.86
584.889	14967.43
585.249	14985.74
585.609	15208.1
585.969	15515.89
586.329	15655.32
586.688	15882.89
587.048	16208.98
587.408	16295.31
587.768	16596.99
588.127	16743.88
588.487	16912.69
588.846	17269.97
589.206	17460.93
589.565	17714.48
589.925	18168.25
590.284	18234.92
590.643	18468.58
591.003	18899.53
591.362	19194.89
591.721	19414.09
592.08	19603.02
592.44	19960.07
592.799	20215.43
593.158	20576.78
593.517	20879.59
593.876	21244.78
594.235	21398
594.593	21662.17
594.952	21977.87
595.311	22220.8
595.67	22604.52
596.029	23142.13
596.387	23453.76
596.746	23590.71
597.104	23810.14
597.463	24127.19
597.822	24447.41
598.18	24706.84
598.538	24991.57
598.897	25430.21
599.255	25479.92
599.613	26139.34
599.972	26188.38
600.33	26634.7
600.688	26762.15
601.046	27091.86
601.404	27551.51
601.762	27655.91
602.12	28217.93
602.478	28306.74
602.836	28637.81
603.194	28816.11
603.552	29156.66
603.91	29186.04
604.268	29658.34
604.625	29774.95
604.983	30222.85
605.341	30307.37
605.698	30842.27
606.056	31041.36
606.413	31184.41
606.771	31681.57
607.128	31821.68
607.485	32011.95
607.843	32317.94
608.2	32553.18
608.557	32818.49
608.914	32909.33
609.272	33378.7
609.629	33478.58
609.986	33748.41
610.343	33872.02
610.7	34247.38
611.057	34332.8
611.414	34593.13
611.771	34776.85
612.127	35121.48
612.484	35201.25
612.841	35573.22
613.198	35571.86
613.554	35694.57
613.911	36111.51
614.267	36190.83
614.624	36372.29
614.98	36599.86
615.337	36797.59
615.693	37008.21
616.05	37137.7
616.406	37502.88
616.762	37498.82
617.118	37514.18
617.475	37679.15
617.831	37944.45
618.187	38118.01
618.543	38294.5
618.899	38573.36
619.255	38559.13
619.611	38663.08
619.967	38760.48
620.323	39120.92
620.678	38970.64
621.034	39078.44
621.39	39262.84
621.746	39282.95
622.101	39708.02
622.457	39516.39
622.812	39835.93
623.168	39862.6
623.523	39974.01
623.879	40298.52
624.234	40244.05
624.589	40269.82
624.945	40369.48
625.3	40505.06
625.655	40515.01
626.01	40590.49
626.365	40671.16
626.72	40725.85
627.075	40739.18
627.43	40822.12
627.785	40710.71
628.14	41011.27
628.495	41135.33
628.85	41082
629.205	40957.03
629.559	41325.83
629.914	41173.07
630.269	41153.64
630.623	41209.45
630.978	41255.33
631.332	41397.47
631.687	41469.79
632.041	41404.48
632.396	41510.01
632.75	41211.94
633.104	41522.21
633.459	41327.87
633.813	41522.44
634.167	41517.24
634.521	41479.73
634.875	41545.49
635.229	41418.94
635.583	41350.47
635.937	41564.47
636.291	41396.79
636.645	41482.44
636.999	41370.58
637.352	41516.34
637.706	41290.35
638.06	41471.82
638.413	41439.96
638.767	41369.22
639.121	41438.15
639.474	41309.56
639.828	41484.47
640.181	41478.6
640.534	41403.8
640.888	41282.67
641.241	41240.86
641.594	41235.89
641.947	41469.11
642.301	41239.96
642.654	41399.96
643.007	41304.82
643.36	41361.09
643.713	41309.56
644.066	41492.16
644.419	41116.57
644.771	40946.18
645.124	40443.82
645.477	40670.48
645.83	40310.27
646.182	40237.05
646.535	40113.89
646.888	40262.59
647.24	39910.05
647.593	40347.78
647.945	40159.54
648.298	39977.85
648.65	40030.73
649.002	39895.36
649.355	40065.08
649.707	40028.92
650.059	40164.28
650.411	40730.6
650.763	40576.25
651.115	41094.43
651.467	41016.24
651.819	40954.54
652.171	40951.15
652.523	40802.46
652.875	40922.46
653.227	40648.79
653.578	41068.67
653.93	40895.79
654.282	40636.36
654.633	40597.04
654.985	40725.4
655.337	40809.01
655.688	40679.52
656.039	40930.82
656.391	40475.01
656.742	40564.95
657.094	40703.03
657.445	40757.71
657.796	40717.49
658.147	40614.21
658.498	40525.4
658.849	40738.73
659.2	40658.28
659.551	40512.75
659.902	40538.96
660.253	40560.66
660.604	40554.78
660.955	40403.82
661.306	40547.1
661.656	40515.01
662.007	40523.37
662.358	40515.23
662.708	40635.68
663.059	40599.98
663.409	40141.46
663.76	40508
664.11	40471.17
664.461	40480.43
664.811	40705.74
665.161	40428.91
665.511	40403.6
665.862	40468.68
666.212	40444.05
666.562	40513.2
666.912	40467.33
667.262	40435.91
667.612	40437.72
667.962	40531.28
668.312	40401.56
668.662	40580.54
669.011	40438.17
669.361	40527.21
669.711	40337.61
670.06	40289.7
670.41	40317.05
670.76	40194.34
671.109	40414.67
671.459	40352.53
671.808	40289.48
672.157	40288.12
672.507	40040.22
672.856	40112.98
673.205	40185.53
673.554	40245.41
673.904	40194.79
674.253	40318.63
674.602	40202.7
674.951	39709.15
675.3	39542.83
675.649	40175.36
675.998	40091.06
676.346	40152.53
676.695	40247.44
677.044	39973.55
677.393	40023.5
677.741	40161.35
678.09	39943.72
678.438	39712.77
678.787	39906.44
679.135	39802.94
679.484	39613.11
679.832	39809.94
680.181	39613.79
680.529	39602.72
680.877	39506.67
681.225	39446.56
681.573	39744.41
681.922	39327.47
682.27	39331.99
682.618	39369.05
682.966	39239.79
683.314	39328.82
683.661	39287.02
684.009	39175.38
684.357	39108.27
684.705	39042.5
685.053	39020.58
685.4	39017.42
685.748	38876.18
686.095	38896.29
686.443	38852.23
686.79	38592.57
687.138	38781.95
687.485	38678.45
687.832	38565.91
688.18	38568.84
688.527	38364.1
688.874	38314.39
689.221	38257.67
689.568	38119.82
689.915	38188.06
690.262	38047.5
690.609	37955.98
690.956	37841.18
691.303	37925.02
691.65	37673.73
691.997	37667.17
692.344	37461.08
692.69	37290.01
693.037	37477.8
693.383	37166.4
693.73	37119.84
694.077	37026.96
694.423	37120.52
694.769	36903.8
695.116	36802.34
695.462	36811.15
695.808	36714.2
696.155	36853.41
696.501	36439.86
696.847	36432.63
697.193	36350.37
697.539	36489.13
697.885	36016.6
698.231	36012.75
698.577	36165.07
698.923	35976.37
699.269	35849.59
699.614	35643.72
699.96	35574.35
700.306	35639.2
700.651	35612.54
700.997	35400.57
701.342	35344.75
701.688	35338.87
702.033	35158.09
702.379	35193.57
702.724	35050.75
703.069	35107.47
703.415	34763.07
703.76	34787.25
704.105	34795.16
704.45	34615.5
704.795	34512
705.14	34361.05
705.485	34363.98
705.83	34210.99
706.175	34128.28
706.52	34108.85
706.865	33930.32
707.209	33977.1
707.554	33914.73
707.899	33829.31
708.243	33886.48
708.588	33767.39
708.932	33384.12
709.277	33385.03
709.621	33560.39
709.966	33226.84
710.31	33256.22
710.654	33092.83
710.998	33165.82
711.342	33237.46
711.687	33021.42
712.031	32881.99
712.375	32908.88
712.719	32919.95
713.063	32759.51
713.407	32897.58
713.75	32615.1
714.094	32665.5
714.438	32480.87
714.782	32492.85
715.125	32361.32
715.469	32417.37
715.812	32227.99
716.156	32164.95
716.499	32182.57
716.843	32284.04
717.186	31895.57
717.53	32191.16
717.873	32140.54
718.216	31997.49
718.559	31836.82
718.902	31698.29
719.246	31709.82
719.589	31674.56
719.932	31515.92
720.275	31426.21
720.617	31428.24
720.96	31545.3
721.303	31437.51
721.646	31443.61
721.989	31236.61
722.331	31268.47
722.674	31231.18
723.016	31205.65
723.359	31151.19
723.701	31108.93
724.044	30917.75
724.386	30798.65
724.729	30963.17
725.071	30969.04
725.413	30936.28
725.755	30831.42
726.097	30692.89
726.439	30495.61
726.782	30614.48
727.124	30665.78
727.465	30541.71
727.807	30473.46
728.149	30377.42
728.491	30357.54
728.833	30264.88
729.175	30171.33
729.516	30207.93
729.858	30209.29
730.199	30072.34
730.541	30044.55
730.882	30104.21
731.224	30187.82
731.565	29965.68
731.906	29950.77
732.248	29966.36
732.589	29816.31
732.93	29654.5
733.271	29743.54
733.612	29803.88
733.953	29852.69
734.294	29513.26
734.635	29573.37
734.976	29761.84
735.317	29513.72
735.658	29469.42
735.999	29499.03
736.339	29370.22
736.68	29462.19
737.021	29346.94
737.361	29276.43
737.702	29354.17
738.042	29189.88
738.383	29159.6
738.723	29198.02
739.063	29138.36
739.404	29172.71
739.744	28998.47
740.084	29011.36
740.424	29006.84
740.764	28917.12
741.104	28956.22
741.444	28766.39
741.784	28859.95
742.124	28800.97
742.464	28840.74
742.804	28654.08
743.143	28581.31
743.483	28566.62
743.823	28507.41
744.162	28479.17
744.502	28470.81
744.841	28418.83
745.181	28565.49
745.52	28366.85
745.86	28352.84
746.199	28304.48
746.538	28322.33
746.877	28353.97
747.216	28255.67
747.556	28216.12
747.895	28202.11
748.234	28045.28
748.573	28173.19
748.911	28086.86
749.25	27988.56
749.589	27895
749.928	27970.48
750.267	27879.63
750.605	27820.2
750.944	27779.75
751.283	27633.31
751.621	27796.25
751.96	27579.76
752.298	27614.1
752.636	27614.1
752.975	27566.2
753.313	27384.51
753.651	27477.84
753.989	27284.4
754.327	27330.04
754.666	27062.25
755.004	27248.92
755.342	27293.66
755.679	27129.37
756.017	27041.46
756.355	27111.52
756.693	26847.8
757.031	26932.31
757.368	26693.22
757.706	26808.25
758.044	26733.9
758.381	26701.59
758.719	26586.33
759.056	26658.65
759.394	26500.24
759.731	26417.98
760.068	26398.77
760.405	26149.74
760.743	26090.53
761.08	26188.38
761.417	26015.28
761.754	26025.67
762.091	25997.2
762.428	25948.84
762.765	25812.34
763.102	25765.79
763.438	25610.09
763.775	25579.36
764.112	25474.95
764.449	25525.8
764.785	25451.68
765.122	25132.59
765.458	25124.68
765.795	25119.93
766.131	25160.84
766.467	25010.56
766.804	24883.1
767.14	24784.12
767.476	24753.61
767.812	24665.26
768.148	24744.8
768.485	24490.8
768.821	24370.12
769.157	24305.49
769.492	24378.48
769.828	24336.9
770.164	24101.88
770.5	23971.26
770.836	24004.93
771.171	23866.63
771.507	23840.87
771.842	23636.13
772.178	23734.66
772.513	23607.2
772.849	23512.74
773.184	23337.15
773.519	23314.33
773.855	23345.06
774.19	23229.59
774.525	23084.73
774.86	23176.48
775.195	23017.16
775.53	22900.1
775.865	22862.82
776.2	22730.62
776.535	22413.79
776.87	22449.72
777.205	22428.48
777.539	22349.38
777.874	22373.56
778.209	22195.26
778.543	22056.51
778.878	22018.55
779.212	21991.65
779.547	21801.83
779.881	21990.75
780.215	21753.02
780.55	21706.24
780.884	21501.72
781.218	21508.5
781.552	21442.06
781.886	21442.97
782.22	21261.73
782.554	21222.86
782.888	21052.7
783.222	20951.23
783.556	20795.75
783.889	20863.1
784.223	20731.57
784.557	20720.5
784.89	20699.71
785.224	20569.09
785.557	20479.83
785.891	20434.18
786.224	20326.39
786.558	20432.15
786.891	20152.38
787.224	20127.07
787.557	19975.89
787.891	20039.39
788.224	19906.74
788.557	19958.26
788.89	19804.37
789.223	19788.32
789.556	19657.25
789.888	19534.77
790.221	19591.04
790.554	19383.36
790.887	19441.66
791.219	19328.45
791.552	19380.65
791.884	19209.13
792.217	19183.82
792.549	19143.59
792.882	18947.89
793.214	18857.5
793.546	18890.72
793.879	18801.45
794.211	18662.25
794.543	18784.05
794.875	18698.41
795.207	18709.93
795.539	18619.76
795.871	18514.23
796.203	18361.01
796.535	18392.65
796.867	18266.1
797.198	18242.37
797.53	18183.62
797.862	18106.56
798.193	18101.59
798.525	18032.89
798.856	17989.05
799.188	17770.97
799.519	17773.01
799.85	17679.22
800.182	17660.02
800.513	17622.5
800.844	17533.24
801.175	17558.32
801.506	17520.36
801.837	17484.2
802.168	17367.14
802.499	17324.43
802.83	17264.77
803.161	17233.13
803.491	17139.8
803.822	17151.33
804.153	17052.12
804.483	17011.22
804.814	16939.81
805.145	16840.15
805.475	16963.31
805.805	16756.76
806.136	16756.08
806.466	16757.67
806.796	16802.19
807.126	16594.96
807.457	16557.9
807.787	16460.5
808.117	16465.92
808.447	16423.44
808.777	16465.47
809.107	16326.94
809.436	16293.72
809.766	16322.88
810.096	16241.07
810.426	16189.09
810.755	16130.79
811.085	16070
811.414	16054.41
811.744	15984.81
812.073	15860.29
812.403	15891.02
812.732	15808.77
813.061	15836.34
813.39	15703.01
813.719	15624.36
814.049	15779.61
814.378	15697.36
814.707	15618.94
815.036	15590.92
815.365	15463.69
815.693	15393.18
816.022	15358.61
816.351	15271.6
816.68	15310.25
817.008	15300.08
817.337	15237.03
817.665	15084.94
817.994	15152.96
818.322	15145.96
818.651	14987.54
818.979	14971.27
819.307	15151.16
819.636	15045.17
819.964	14889.24
820.292	15062.12
820.62	15003.36
820.948	14942.35
821.276	14984.61
821.604	14903.7
821.932	14935.12
822.259	14948
822.587	14938.73
822.915	14831.84
823.243	14835.68
823.57	14821.22
823.898	14866.19
824.225	14760.88
824.553	14903.25
824.88	14852.63
825.207	14898.28
825.535	14826.42
825.862	14866.19
826.189	14812.18
826.516	14931.27
826.843	14897.38
827.17	14804.72
827.497	14940.09
827.824	14790.26
828.151	14842.24
828.478	14769.92
828.805	14806.08
829.131	14762.01
829.458	14781.9
829.785	14681.79
830.111	14735.57
830.438	14794.33
830.764	14829.81
831.09	14805.4
831.417	14649.7
831.743	14794.78
832.069	14706.42
832.395	14714.1
832.722	14646.31
833.048	14651.73
833.374	14731.05
833.7	14627.33
834.026	14596.59
834.351	14619.42
834.677	14600.89
835.003	14672.07
835.329	14578.97
835.654	14527.67
835.98	14539.19
836.306	14538.97
836.631	14548.91
836.956	14486.77
837.282	14596.82
837.607	14443.15
837.932	14412.42
838.258	14382.14
838.583	14402.7
838.908	14314.79
839.233	14410.84
839.558	14370.38
839.883	14303.95
840.208	14229.6
840.533	14186.43
840.858	14167.68
841.182	14246.32
841.507	14089.04
841.832	14141.69
842.156	14039.32
842.481	14131.75
842.805	14047.91
843.13	13974.24
843.454	13984.41
843.778	13878.87
844.103	13868.03
844.427	13859.89
844.751	13860.79
845.075	13838.87
845.399	13742.38
845.723	13763.85
846.047	13779.89
846.371	13569.95
846.695	13604.3
847.019	13541.25
847.343	13398.43
847.666	13351.43
847.99	13315.05
848.313	13306.23
848.637	13195.73
848.96	13174.03
849.284	13172
849.607	13140.59
849.931	13017.2
850.254	12969.52
850.577	12932
850.9	12878.22
851.223	12747.15
851.546	12768.62
851.869	12645.91
852.192	12648.4
852.515	12632.8
852.838	12495.63
853.161	12567.95
853.483	12495.18
853.806	12306.48
854.129	12364.34
854.451	12331.57
854.774	12274.17
855.096	12227.62
855.419	12185.81
855.741	12192.36
856.063	12129.77
856.385	12064.68
856.708	12150.56
857.03	12061.07
857.352	11955.76
857.674	11921.64
857.996	11915.76
858.318	11883.44
858.64	11833.5
858.961	11766.84
859.283	11775.65
859.605	11706.05
859.926	11765.26
860.248	11634.86
860.57	11714.18
860.891	11668.53
861.212	11593.96
861.534	11567.52
861.855	11575.43
862.176	11548.76
862.498	11514.41
862.819	11547.63
863.14	11470.57
863.461	11447.3
863.782	11358.03
864.103	11446.39
864.424	11406.17
864.745	11379.73
865.065	11253.18
865.386	11372.27
865.707	11235.78
866.027	11231.94
866.348	11236
866.668	11266.96
866.989	11239.17
867.309	11080.53
867.63	11143.13
867.95	11198.26
868.27	11000.08
868.59	11076.01
868.91	11087.99
869.23	11064.03
869.55	10948.1
869.87	11038.5
870.19	11050.92
870.51	11106.74
870.83	11022.22
871.15	10990.59
871.469	10975.45
871.789	10949.68
872.109	10902
872.428	10867.88
872.748	10884.83
873.067	10854.32
873.386	10868.1
873.706	10859.29
874.025	10771.16
874.344	10727.77
874.663	10733.19
874.982	10743.81
875.301	10693.87
875.62	10632.18
875.939	10717.37
876.258	10660.2
876.577	10625.62
876.896	10606.87
877.214	10620.65
877.533	10581.78
877.852	10538.85
878.17	10590.15
878.489	10530.49
878.807	10542.69
879.125	10520.77
879.444	10526.64
879.762	10491.16
880.08	10480.32
880.398	10495.68
880.716	10464.95
881.034	10398.29
881.352	10347.89
881.67	10295.24
881.988	10383.15
882.306	10313.77
882.624	10304.5
882.941	10196.03
883.259	10168.01
883.577	10181.12
883.894	10174.34
884.212	10191.51
884.529	10091.85
884.846	10118.29
885.164	10099.76
885.481	10010.73
885.798	10096.6
886.115	9964.62
886.432	10002.14
886.75	9965.3
887.067	9904.06
887.383	9886.89
887.7	9855.93
888.017	9805.53
888.334	9897.06
888.651	9888.24
888.967	9829.49
889.284	9788.81
889.6	9769.38
889.917	9690.51
890.233	9741.81
890.55	9643.96
890.866	9672.43
891.182	9614.58
891.498	9605.31
891.815	9592.43
892.131	9551.75
892.447	9540.23
892.763	9494.35
893.079	9434.24
893.395	9415.71
893.71	9445.32
894.026	9345.66
894.342	9344.75
894.657	9335.26
894.973	9244.42
895.289	9278.54
895.604	9264.98
895.92	9216.4
896.235	9133.01
896.55	9113.35
896.865	9148.38
897.181	9079.9
897.496	9056.63
897.811	9046.46
898.126	9006.01
898.441	8970.75
898.756	8918.55
899.071	8849.4
899.386	8822.28
899.7	8849.4
900.015	8727.37
900.33	8714.94
900.644	8715.84
900.959	8759.91
901.273	8661.83
901.588	8617.32
901.902	8602.17
902.216	8543.65
902.531	8583.87
902.845	8501.84
903.159	8487.83
903.473	8421.61
903.787	8395.4
904.101	8311.34
904.415	8415.29
904.729	8275.18
905.042	8271.56
905.356	8298.45
905.67	8248.29
905.984	8229.53
906.297	8175.29
906.611	8158.34
906.924	8156.54
907.237	8115.63
907.551	8071.79
907.864	8053.94
908.177	8055.52
908.491	7964
908.804	7959.48
909.117	7873.83
909.43	7891.69
909.743	7782.31
910.056	7828.18
910.368	7774.17
910.681	7747.28
910.994	7726.04
911.307	7729.43
911.619	7601.98
911.932	7675.65
912.244	7591.81
912.557	7575.08
912.869	7565.82
913.181	7483.79
913.494	7437.01
913.806	7416.9
914.118	7407.18
914.43	7367.18
914.742	7312.27
915.054	7269.78
915.366	7245.15
915.678	7271.59
915.99	7252.61
916.302	7122.89
916.613	7199.73
916.925	7098.49
917.236	7121.08
917.548	7034.98
917.859	7104.36
918.171	7037.47
918.482	6933.29
918.794	6967.64
919.105	6945.95
919.416	6897.14
919.727	6895.55
920.038	6801.54
920.349	6776.46
920.66	6743.92
920.971	6745.27
921.282	6755.67
921.593	6682.45
921.903	6607.65
922.214	6676.8
922.525	6612.17
922.835	6564.26
923.146	6627.31
923.456	6485.62
923.767	6463.93
924.077	6491.5
924.387	6413.08
924.697	6439.97
925.008	6395.68
925.318	6408.79
925.628	6369.24
925.938	6325.4
926.248	6280.43
926.558	6231.39
926.867	6258.06
927.177	6174.22
927.487	6172.18
927.796	6096.7
928.106	6101
928.416	6139.41
928.725	6071.39
929.034	5997.27
929.344	6072.75
929.653	5982.58
929.962	5980.55
930.271	5923.38
930.581	5875.92
930.89	5924.05
931.199	5857.61
931.508	5850.61
931.817	5834.79
932.125	5804.73
932.434	5794.79
932.743	5764.51
933.051	5729.03
933.36	5678.41
933.669	5658.52
933.977	5655.81
934.286	5626.43
934.594	5594.8
934.902	5601.12
935.21	5489.71
935.519	5528.81
935.827	5564.74
936.135	5439.09
936.443	5469.83
936.751	5471.86
937.059	5398.42
937.367	5381.02
937.674	5358.42
937.982	5333.79
938.29	5351.19
938.597	5294.92
938.905	5240.46
939.213	5191.42
939.52	5195.03
939.827	5230.29
940.135	5193.23
940.442	5123.62
940.749	5151.87
941.056	5142.83
941.363	5051.99
941.67	5041.14
941.977	5010.63
942.284	5021.25
942.591	5006.56
942.898	4990.07
943.205	4926.11
943.511	4929.73
943.818	4918.2
944.125	4879.11
944.431	4874.36
944.738	4849.05
945.044	4813.35
945.35	4826.68
945.657	4748.49
945.963	4788.72
946.269	4715.72
946.575	4774.7
946.881	4703.97
947.187	4667.82
947.493	4668.49
947.799	4686.12
948.105	4581.72
948.41	4614.48
948.716	4630.08
949.022	4587.82
949.327	4513.92
949.633	4485.9
949.938	4480.02
950.244	4520.02
950.549	4437.76
950.854	4444.54
951.16	4446.58
951.465	4368.16
951.77	4423.53
952.075	4385.56
952.38	4388.73
952.685	4364.77
952.99	4346.69
953.294	4319.8
953.599	4266.24
953.904	4220.82
954.209	4233.02
954.513	4220.6
954.818	4212.46
955.122	4171.33
955.426	4140.82
955.731	4150.99
956.035	4158.68
956.339	4076.19
956.643	4073.71
956.948	4100.37
957.252	4040.71
957.556	4021.28
957.86	4017.21
958.163	4023.76
958.467	4019.02
958.771	3985.35
959.075	3954.39
959.378	3925.69
959.682	3916.2
959.985	3942.18
960.289	3908.97
960.592	3916.87
960.896	3889.98
961.199	3845.24
961.502	3826.03
961.805	3801.17
962.108	3765.47
962.411	3782.87
962.714	3781.51
963.017	3711
963.32	3728.63
963.623	3739.48
963.926	3707.61
964.228	3678.01
964.531	3647.73
964.833	3672.36
965.136	3592.14
965.438	3684.11
965.741	3609.99
966.043	3578.8
966.345	3592.14
966.648	3538.81
966.95	3562.31
967.252	3529.09
967.554	3483.89
967.856	3516.21
968.158	3414.06
968.46	3484.8
968.761	3433.27
969.063	3422.88
969.365	3415.19
969.666	3379.04
969.968	3374.74
970.269	3369.32
970.571	3367.74
970.872	3357.12
971.174	3329.55
971.475	3334.06
971.776	3329.55
972.077	3253.39
972.378	3286.61
972.679	3289.09
972.98	3210.9
973.281	3240.73
973.582	3191.92
973.883	3242.09
974.183	3179.72
974.484	3153.28
974.785	3157.12
975.085	3138.82
975.386	3166.16
975.686	3091.59
975.986	3112.15
976.287	3124.35
976.587	3085.71
976.887	3068.99
977.187	3068.76
977.487	3047.52
977.787	2989.22
978.087	3004.81
978.387	3037.12
978.687	2988.99
978.987	2954.87
979.286	2915.77
979.586	2974.75
979.885	2946.96
980.185	2885.26
980.484	2913.74
980.784	2873.06
981.083	2818.15
981.382	2883.91
981.682	2833.06
981.981	2820.86
982.28	2796.68
982.579	2804.81
982.878	2785.6
983.177	2765.94
983.475	2804.14
983.774	2751.48
984.073	2761.65
984.372	2721.43
984.67	2728.21
984.969	2735.21
985.267	2731.37
985.566	2678.94
985.864	2682.56
986.162	2675.78
986.461	2617.93
986.759	2649.11
987.057	2594.65
987.355	2596.23
987.653	2599.39
987.951	2600.52
988.249	2579.96
988.547	2596.91
988.844	2561.2
989.142	2585.84
989.44	2521.43
989.737	2491.15
990.035	2523.46
990.332	2518.95
990.63	2500.87
990.927	2496.12
991.224	2437.59
991.521	2457.93
991.819	2469
992.116	2422
992.413	2449.34
992.71	2409.34
993.006	2410.7
993.303	2421.55
993.6	2364.37
993.897	2408.44
994.193	2365.5
994.49	2346.07
994.787	2332.51
995.083	2287.09
995.379	2313.98
995.676	2315.33
995.972	2299.06
996.268	2277.82
996.565	2289.57
996.861	2303.81
997.157	2219.29
997.453	2217.03
997.749	2213.64
998.044	2193.3
998.34	2209.57
998.636	2186.3
998.932	2179.74
999.227	2175.68
999.523	2144.94
999.818	2151.05
1000.114	2151.95
1000.409	2133.64
1000.704	2098.39
1001	2082.35
1001.295	2065.85
1001.59	2090.93
1001.885	2059.97
1002.18	2054.55
1002.475	2045.74
1002.77	2026.98
1003.065	2032.86
1003.359	2018.17
1003.654	1966.64
1003.949	1969.35
1004.243	1970.71
1004.538	1949.47
1004.832	1979.3
1005.127	1925.97
1005.421	1928.9
1005.715	1951.05
1006.009	1943.59
1006.304	1923.25
1006.598	1887.55
1006.892	1861.56
1007.186	1871.73
1007.48	1889.58
1007.773	1864.72
1008.067	1844.61
1008.361	1871.73
1008.655	1841.67
1008.948	1814.1
1009.242	1784.73
1009.535	1800.55
1009.829	1777.04
1010.122	1793.99
1010.415	1789.47
1010.708	1781.11
1011.001	1749.93
1011.295	1711.06
1011.588	1716.03
1011.881	1714.45
1012.173	1718.97
1012.466	1713.77
1012.759	1679.19
1013.052	1680.55
1013.344	1690.04
1013.637	1636.93
1013.93	1648.91
1014.222	1642.81
1014.514	1633.77
1014.807	1597.84
1015.099	1596.71
1015.391	1609.59
1015.683	1605.97
1015.976	1597.16
1016.268	1581.34
1016.56	1559.87
1016.851	1518.75
1017.143	1528.01
1017.435	1531.4
1017.727	1505.64
1018.018	1514.9
1018.31	1525.07
1018.602	1517.39
1018.893	1479.65
1019.185	1513.1
1019.476	1476.94
1019.767	1487.56
1020.058	1450.05
1020.35	1439.43
1020.641	1421.57
1020.932	1425.87
1021.223	1427.22
1021.514	1407.34
1021.804	1400.78
1022.095	1395.13
1022.386	1358.98
1022.677	1359.65
1022.967	1351.74
1023.258	1331.63
1023.548	1358.98
1023.839	1344.51
1024.129	1335.47
1024.419	1342.7
1024.709	1320.56
1025	1308.81
1025.29	1308.36
1025.58	1295.02
1025.87	1272.42
1026.16	1251.63
1026.449	1277.85
1026.739	1270.84
1027.029	1250.96
1027.319	1255.25
1027.608	1226.55
1027.898	1210.96
1028.187	1202.37
1028.477	1188.13
1028.766	1193.1
1029.055	1200.34
1029.344	1165.99
1029.634	1186.1
1029.923	1159.88
1030.212	1181.35
1030.501	1151.75
1030.79	1138.42
1031.078	1105.42
1031.367	1123.05
1031.656	1138.87
1031.945	1100.68
1032.233	1092.54
1032.522	1116.5
1032.81	1098.19
1033.099	1097.06
1033.387	1083.05
1033.675	1062.49
1033.963	1063.39
1034.251	1072.2
1034.54	1052.99
1034.828	1020
1035.116	1010.74
1035.403	1029.72
1035.691	1034.92
1035.979	1003.05
1036.267	1007.12
1036.554	996.95
1036.842	984.75
1037.129	1008.48
1037.417	973
1037.704	986.78
1037.992	958.99
1038.279	972.32
1038.566	969.16
1038.853	969.16
1039.14	969.16
