Data from hue_180_FLMS001491_00056.txt Node
Date: Tue Feb 07 16:47:11 GMT 2017
User: dcchb
Spectrometer: FLMS00149
Trigger mode: 0
Integration Time (sec): 2.000000E-2
Scans to average: 10
Electric dark correction enabled: true
Nonlinearity correction enabled: false
Boxcar width: 0
XAxis mode: Wavelengths
Number of Pixels in Spectrum: 2048
>>>>>Begin Spectral Data<<<<<
341.393	4.48
341.776	4.48
342.16	4.48
342.543	-75.52
342.927	-67.84
343.31	-72.81
343.693	-76.42
344.077	-71.45
344.46	-63.09
344.843	-44.11
345.226	-76.65
345.61	-24
345.993	-22.41
346.376	-2.08
346.759	23.69
347.142	18.94
347.525	60.3
347.908	58.04
348.291	63.01
348.674	110.01
349.057	119.05
349.44	131.25
349.823	143.46
350.206	171.93
350.588	200.86
350.971	189.33
351.354	224.13
351.737	234.75
352.119	244.47
352.502	268.88
352.884	277.69
353.267	294.41
353.65	290.35
354.032	284.47
354.414	288.76
354.797	296.45
355.179	309.78
355.562	321.98
355.944	323.56
356.326	331.7
356.709	348.2
357.091	339.38
357.473	335.77
357.855	329.44
358.238	332.15
358.62	316.79
359.002	357.01
359.384	352.72
359.766	325.15
360.148	341.64
360.53	315.43
360.912	321.31
361.294	333.06
361.676	311.14
362.057	305.26
362.439	333.96
362.821	330.57
363.203	316.56
363.584	309.55
363.966	324.24
364.348	338.03
364.729	307.07
365.111	302.77
365.493	303.68
365.874	319.5
366.256	324.69
366.637	296.9
367.019	307.29
367.4	310.91
367.781	311.14
368.163	317.46
368.544	320.4
368.925	317.01
369.306	300.29
369.688	287.41
370.069	321.98
370.45	297.58
370.831	314.98
371.212	313.17
371.593	301.42
371.974	307.75
372.355	319.05
372.736	327.41
373.117	302.1
373.498	313.85
373.879	322.21
374.26	320.18
374.641	306.16
375.021	305.94
375.402	296.45
375.783	327.41
376.163	318.82
376.544	351.81
376.925	316.33
377.305	336.67
377.686	340.29
378.066	329.89
378.447	308.65
378.827	334.86
379.208	331.25
379.588	338.25
379.968	335.09
380.349	313.17
380.729	292.38
381.109	321.53
381.489	335.54
381.87	329.21
382.25	343.23
382.63	352.94
383.01	355.65
383.39	340.29
383.77	317.01
384.15	338.03
384.53	330.12
384.91	330.57
385.29	336.45
385.67	359.95
386.049	315.2
386.429	346.16
386.809	337.12
387.189	343.45
387.568	358.82
387.948	340.97
388.328	364.02
388.707	353.39
389.087	344.58
389.466	362.89
389.846	359.04
390.225	350
390.605	358.82
390.984	356.33
391.363	362.21
391.743	364.47
392.122	364.02
392.501	379.61
392.881	363.56
393.26	360.63
393.639	378.93
394.018	380.06
394.397	376.9
394.776	368.08
395.155	362.66
395.534	374.41
395.913	386.84
396.292	364.02
396.671	399.72
397.05	385.03
397.429	387.29
397.808	399.72
398.186	370.8
398.565	406.27
398.944	415.31
399.323	401.3
399.701	407.18
400.08	397.91
400.458	385.94
400.837	423.22
401.215	405.82
401.594	406.5
401.972	385.71
402.351	396.11
402.729	429.78
403.107	410.79
403.486	435.43
403.864	428.65
404.242	416.9
404.62	420.29
404.999	449.21
405.377	420.74
405.755	440.4
406.133	438.82
406.511	435.88
406.889	449.21
407.267	455.31
407.645	455.31
408.023	470.45
408.401	463
408.779	479.49
409.156	490.11
409.534	482.88
409.912	491.02
410.29	524.69
410.667	490.57
411.045	515.88
411.422	505.48
411.8	512.49
412.178	533.95
412.555	537.12
412.933	544.8
413.31	547.51
413.687	558.36
414.065	561.98
414.442	583.9
414.819	601.75
415.197	582.32
415.574	596.33
415.951	607.85
416.328	576.67
416.705	615.53
417.082	618.02
417.46	634.29
417.837	614.18
418.214	627.51
418.591	613.05
418.967	644.01
419.344	675.19
419.721	659.15
420.098	682.65
420.475	698.24
420.852	694.63
421.228	707.51
421.605	720.84
421.982	677.91
422.358	720.84
422.735	739.6
423.111	751.58
423.488	766.49
423.864	768.07
424.241	804.23
424.617	775.76
424.994	804.23
425.37	832.7
425.746	799.71
426.123	805.81
426.499	822.08
426.875	827.05
427.251	856.88
427.627	872.48
428.003	882.19
428.379	916.77
428.756	887.62
429.132	898.24
429.507	934.62
429.883	940.95
430.259	937.33
430.635	937.56
431.011	950.22
431.387	963.1
431.763	986.15
432.138	1028.63
432.514	997.67
432.89	1020.27
433.265	1026.82
433.641	1061.17
434.016	1050.78
434.392	1096.65
434.767	1100.27
435.143	1128.29
435.518	1141.62
435.894	1153.15
436.269	1159.7
436.644	1176.65
437.02	1218.68
437.395	1221.39
437.77	1229.08
438.145	1239.25
438.52	1266.14
438.895	1286.93
439.271	1275.18
439.646	1350.88
440.021	1351.11
440.395	1324.89
440.77	1356.53
441.145	1388.62
441.52	1409.64
441.895	1401.73
442.27	1444.21
442.645	1447.38
443.019	1450.09
443.394	1446.93
443.769	1476.75
444.143	1471.11
444.518	1544.55
444.892	1505.68
445.267	1538.45
445.641	1553.59
446.016	1531.22
446.39	1571.67
446.764	1591.33
447.139	1580.03
447.513	1579.35
447.887	1600.14
448.262	1616.19
448.636	1640.14
449.01	1662.96
449.384	1667.71
449.758	1691.44
450.132	1710.65
450.506	1719.69
450.88	1725.34
451.254	1733.25
451.628	1743.19
452.002	1806.01
452.376	1795.39
452.75	1803.75
453.123	1817.31
453.497	1856.63
453.871	1887.37
454.244	1902.51
454.618	1949.06
454.992	1958.55
455.365	1957.87
455.739	2021.6
456.112	2013.24
456.486	2042.84
456.859	2049.4
457.232	2111.99
457.606	2100.69
457.979	2121.26
458.352	2145.66
458.725	2175.72
459.099	2223.63
459.472	2239.9
459.845	2265.21
460.218	2292.1
460.591	2315.6
460.964	2317.18
461.337	2387.24
461.71	2443.96
462.083	2452.77
462.456	2467.01
462.829	2447.12
463.201	2547.46
463.574	2507.24
463.947	2608.02
464.32	2676.05
464.692	2643.96
465.065	2690.73
465.438	2732.32
465.81	2770.51
466.183	2775.48
466.555	2855.7
466.928	2917.4
467.3	2886.44
467.672	2952.42
468.045	3038.07
468.417	2997.62
468.789	3068.13
469.161	3148.35
469.534	3165.3
469.906	3233.32
470.278	3269.93
470.65	3321.68
471.022	3371.62
471.394	3416.59
471.766	3476.02
472.138	3528
472.51	3610.48
472.882	3663.82
473.253	3715.57
473.625	3726.64
473.997	3817.26
474.369	3867.65
474.74	3950.14
475.112	4039.63
475.484	4116.23
475.855	4175.67
476.227	4193.75
476.598	4322.1
476.97	4375.44
477.341	4494.3
477.713	4630.8
478.084	4587.63
478.455	4752.83
478.827	4816.1
479.198	4947.17
479.569	4966.38
479.94	5087.96
480.311	5154.17
480.682	5269.42
481.053	5416.54
481.424	5516.2
481.795	5568.62
482.166	5693.14
482.537	5776.75
482.908	5902.85
483.279	5949.18
483.65	6129.06
484.021	6209.51
484.391	6331.54
484.762	6319.11
485.133	6436.4
485.503	6573.34
485.874	6735.15
486.244	6780.57
486.615	6898.31
486.985	7022.15
487.356	7096.95
487.726	7223.5
488.097	7363.15
488.467	7427.11
488.837	7621.68
489.207	7733.54
489.578	7821.22
489.948	7953.65
490.318	8044.94
490.688	8126.07
491.058	8225.96
491.428	8390.92
491.798	8487.19
492.168	8628.21
492.538	8637.47
492.908	8763.34
493.278	8838.6
493.648	8897.35
494.017	8986.16
494.387	9085.59
494.757	9196.1
495.126	9224.57
495.496	9294.63
495.866	9340.5
496.235	9449.43
496.605	9597.67
496.974	9568.07
497.344	9646.94
497.713	9746.59
498.082	9783.43
498.452	9883.99
498.821	9963.76
499.19	9872.01
499.559	10066.81
499.928	10115.4
500.298	10207.15
500.667	10218.22
501.036	10279.46
501.405	10300.93
501.774	10308.84
502.143	10478.33
502.512	10455.95
502.88	10561.04
503.249	10525.56
503.618	10572.56
503.987	10703.63
504.356	10632.67
504.724	10678.32
505.093	10698.21
505.462	10746.79
505.83	10824.76
506.199	10906.11
506.567	11045.77
506.936	10948.6
507.304	11044.19
507.672	11118.54
508.041	11126.22
508.409	11138.42
508.777	11260.23
509.145	11243.05
509.514	11269.49
509.882	11316.95
510.25	11369.15
510.618	11350.62
510.986	11377.29
511.354	11391.07
511.722	11499.77
512.09	11511.29
512.458	11454.12
512.826	11612.31
513.193	11675.58
513.561	11522.59
513.929	11640.33
514.297	11670.61
514.664	11741.34
515.032	11742.02
515.4	11808.23
515.767	11799.42
516.135	11833.77
516.502	11750.38
516.869	11926.2
517.237	11883.71
517.604	11833.77
517.972	11882.81
518.339	11949.02
518.706	11897.27
519.073	11979.53
519.44	11907.22
519.808	12111.28
520.175	12011.17
520.542	12060.43
520.909	12054.78
521.276	12092.52
521.643	12093.88
522.009	12205.74
522.376	12187.66
522.743	12098.17
523.11	12212.97
523.477	12252.52
523.843	12244.83
524.21	12352.63
524.577	12411.83
524.943	12364.6
525.31	12368.67
525.676	12391.27
526.043	12363.93
526.409	12372.29
526.776	12448.22
527.142	12436.24
527.508	12372.74
527.874	12463.58
528.241	12446.64
528.607	12368.45
528.973	12504.94
529.339	12429.01
529.705	12430.37
530.071	12462.91
530.437	12426.07
530.803	12455.9
531.169	12441.21
531.535	12329.8
531.901	12329.8
532.267	12362.57
532.632	12325.28
532.998	12367.54
533.364	12292.74
533.73	12295.91
534.095	12358.28
534.461	12330.03
534.826	12232.4
535.192	12331.38
535.557	12254.55
535.923	12103.59
536.288	12124.84
536.653	12170.26
537.019	12045.06
537.384	11992.86
537.749	12023.14
538.114	11925.97
538.479	11908.12
538.845	11931.62
539.21	11819.76
539.575	11812.53
539.94	11742.93
540.305	11839.65
540.67	11781.34
541.034	11719.2
541.399	11727.78
541.764	11651.18
542.129	11603.95
542.494	11533.89
542.858	11509.03
543.223	11518.98
543.587	11436.04
543.952	11366.89
544.316	11350.17
544.681	11334.57
545.045	11320.56
545.41	11344.74
545.774	11215.26
546.138	11151.98
546.503	11176.84
546.867	11093.68
547.231	11145.88
547.595	11004.64
547.959	11051.64
548.324	10942.49
548.688	10919.9
549.052	10870.86
549.416	10853.23
549.779	10845.77
550.143	10753.12
550.507	10791.99
550.871	10737.98
551.235	10707.02
551.599	10742.05
551.962	10666.57
552.326	10655.27
552.689	10638.1
553.053	10475.39
553.417	10459.34
553.78	10483.3
554.143	10497.31
554.507	10434.26
554.87	10386.13
555.234	10402.17
555.597	10289.4
555.96	10328.27
556.323	10249.18
556.686	10315.39
557.05	10321.49
557.413	10314.49
557.776	10197.66
558.139	10267.48
558.502	10204.21
558.865	10192.46
559.228	10231.55
559.59	10140.93
559.953	10184.1
560.316	10189.75
560.679	10156.98
561.041	10225.68
561.404	10132.35
561.767	10144.55
562.129	10138.22
562.492	10237.65
562.854	10113.14
563.217	10060.48
563.579	10055.51
563.941	10195.85
564.304	10052.8
564.666	10183.87
565.028	10214.83
565.39	10057.77
565.753	10135.51
566.115	10084.89
566.477	10157.88
566.839	10058.68
567.201	10196.53
567.563	10083.76
567.925	10148.62
568.287	10149.52
568.648	10166.24
569.01	10169.63
569.372	10239.24
569.734	10151.78
570.095	10186.13
570.457	10191.78
570.819	10188.39
571.18	10186.81
571.542	10218.45
571.903	10213.93
572.265	10166.47
572.626	10202.63
572.987	10184.1
573.349	10151.56
573.71	10251.44
574.071	10192.46
574.432	10193.36
574.794	10244.21
575.155	10246.92
575.516	10236.07
575.877	10216.64
576.238	10212.12
576.599	10252.12
576.96	10220.93
577.32	10234.94
577.681	10250.08
578.042	10246.69
578.403	10224.32
578.763	10183.64
579.124	10173.93
579.485	10268.16
579.845	10226.36
580.206	10220.71
580.566	10188.62
580.927	10230.65
581.287	10210.76
581.648	10186.36
582.008	10262.96
582.368	10147.71
582.728	10282.17
583.089	10179.8
583.449	10170.76
583.809	10127.15
584.169	10155.62
584.529	10143.19
584.889	10256.64
585.249	10155.85
585.609	10100.26
585.969	10154.72
586.329	10088.05
586.688	10087.38
587.048	10105.45
587.408	10047.15
587.768	10051.9
588.127	10090.77
588.487	10060.71
588.846	10104.78
589.206	10061.61
589.565	9980.26
589.925	10059.13
590.284	10008.96
590.643	10039.92
591.003	10006.02
591.362	10019.13
591.721	9959.02
592.08	10032.01
592.44	10056.19
592.799	9978.23
593.158	9943.42
593.517	9963.09
593.876	9938.91
594.235	9897.55
594.593	9927.61
594.952	9988.85
595.311	9924.89
595.67	9863.88
596.029	9968.74
596.387	9963.99
596.746	9997.89
597.104	9895.97
597.463	9910.66
597.822	9856.42
598.18	9823.65
598.538	9913.82
598.897	9920.37
599.255	9767.61
599.613	9921.5
599.972	9900.49
600.33	9913.37
600.688	9858.46
601.046	9892.58
601.404	9890.32
601.762	9886.7
602.12	9846.7
602.478	9876.08
602.836	9869.3
603.194	9881.05
603.552	9855.97
603.91	9778.91
604.268	9808.29
604.625	9818.68
604.983	9837.44
605.341	9740.27
605.698	9869.53
606.056	9813.94
606.413	9795.86
606.771	9786.14
607.128	9843.77
607.485	9799.02
607.843	9816.65
608.2	9800.15
608.557	9881.96
608.914	9859.36
609.272	9848.74
609.629	9844.44
609.986	9917.66
610.343	9897.78
610.7	9977.32
611.057	9900.71
611.414	9883.77
611.771	9859.13
612.127	9912.01
612.484	9986.36
612.841	9939.36
613.198	9933.03
613.554	9918.11
613.911	9959.47
614.267	9903.43
614.624	9945.23
614.98	9939.13
615.337	9997.89
615.693	9980.94
616.05	9990.43
616.406	10060.48
616.762	10006.7
617.118	9983.65
617.475	9952.69
617.831	9962.18
618.187	10017.1
618.543	10045.8
618.899	10032.46
619.255	9965.8
619.611	10036.98
619.967	10064.33
620.323	10037.21
620.678	10046.02
621.034	10002.63
621.39	10012.35
621.746	10002.63
622.101	10153.14
622.457	10027.72
622.812	10062.07
623.168	10052.57
623.523	10090.54
623.879	10080.37
624.234	10080.82
624.589	10032.69
624.945	10079.24
625.3	10073.14
625.655	10037.89
626.01	10010.54
626.365	10072.46
626.72	9993.59
627.075	9980.94
627.43	10105.68
627.785	10006.25
628.14	10071.11
628.495	10028.62
628.85	10034.72
629.205	10000.6
629.559	10031.78
629.914	9997.89
630.269	9982.52
630.623	9966.02
630.978	9997.21
631.332	9974.84
631.687	9995.4
632.041	9894.16
632.396	9887.61
632.75	9942.52
633.104	9955.4
633.459	9812.35
633.813	9912.47
634.167	9897.32
634.521	9796.76
634.875	9898.23
635.229	9743.2
635.583	9725.8
635.937	9776.2
636.291	9739.59
636.645	9816.65
636.999	9731.68
637.352	9749.76
637.706	9792.92
638.06	9747.05
638.413	9751.79
638.767	9731.91
639.121	9742.53
639.474	9646.71
639.828	9637.67
640.181	9716.76
640.534	9660.72
640.888	9577.78
641.241	9538.92
641.594	9573.27
641.947	9655.52
642.301	9656.43
642.654	9580.04
643.007	9632.7
643.36	9612.36
643.713	9625.92
644.066	9587.95
644.419	9549.54
644.771	9456.66
645.124	9391.12
645.477	9419.6
645.83	9342.54
646.182	9298.47
646.535	9273.84
646.888	9292.37
647.24	9208.08
647.593	9253.27
647.945	9211.92
648.298	9208.76
648.65	9212.14
649.002	9242.43
649.355	9287.62
649.707	9293.72
650.059	9262.09
650.411	9361.52
650.763	9428.64
651.115	9484.23
651.467	9451.23
651.819	9431.57
652.171	9451.01
652.523	9388.86
652.875	9420.95
653.227	9359.49
653.578	9414.63
653.93	9419.37
654.282	9364.01
654.633	9373.72
654.985	9361.07
655.337	9422.76
655.688	9468.64
656.039	9432.25
656.391	9436.09
656.742	9411.01
657.094	9462.53
657.445	9529.42
657.796	9444.91
658.147	9452.14
658.498	9413.72
658.849	9475.64
659.2	9443.1
659.551	9445.81
659.902	9522.19
660.253	9468.18
660.604	9493.72
660.955	9454.4
661.306	9497.11
661.656	9473.38
662.007	9468.18
662.358	9421.86
662.708	9471.8
663.059	9492.59
663.409	9421.18
663.76	9470.67
664.11	9538.92
664.461	9512.25
664.811	9408.52
665.161	9496.88
665.511	9456.43
665.862	9494.85
666.212	9474.51
666.562	9476.77
666.912	9460.95
667.262	9516.09
667.612	9489.88
667.962	9451.23
668.312	9498.92
668.662	9540.05
669.011	9526.03
669.361	9418.47
669.711	9524.9
670.06	9544.79
670.41	9444.91
670.76	9511.57
671.109	9509.09
671.459	9467.51
671.808	9445.36
672.157	9441.74
672.507	9407.85
672.856	9449.2
673.205	9444.91
673.554	9482.65
673.904	9402.42
674.253	9387.73
674.602	9423.89
674.951	9285.59
675.3	9212.37
675.649	9373.5
675.998	9351.58
676.346	9325.36
676.695	9458.92
677.044	9305.02
677.393	9299.83
677.741	9295.76
678.09	9296.66
678.438	9262.76
678.787	9274.29
679.135	9319.03
679.484	9217.57
679.832	9238.58
680.181	9230.45
680.529	9255.53
680.877	9175.31
681.225	9198.59
681.573	9207.63
681.922	9170.11
682.27	9151.36
682.618	9059.38
682.966	9071.36
683.314	9054.41
683.661	9060.96
684.009	8980.51
684.357	9001.3
684.705	9007.18
685.053	9016.44
685.4	8966.95
685.748	8952.72
686.095	8934.86
686.443	8786.39
686.79	8869.55
687.138	8861.19
687.485	8880.63
687.832	8852.61
688.18	8797.47
688.527	8818.26
688.874	8755.21
689.221	8686.28
689.568	8710.01
689.915	8667.98
690.262	8707.53
690.609	8665.72
690.956	8562.22
691.303	8552.28
691.65	8491.03
691.997	8537.81
692.344	8523.58
692.69	8420.3
693.037	8501.88
693.383	8340.3
693.73	8381.88
694.077	8331.26
694.423	8291.27
694.769	8315.67
695.116	8330.36
695.462	8285.16
695.808	8192.28
696.155	8221.66
696.501	8153.19
696.847	8198.16
697.193	8055.57
697.539	8165.17
697.885	8047.66
698.231	8053.98
698.577	8006.07
698.923	8042.46
699.269	8024.38
699.614	7950.03
699.96	7902.35
700.306	7871.16
700.651	7872.52
700.997	7840.88
701.342	7797.27
701.688	7749.13
702.033	7742.8
702.379	7663.26
702.724	7621.9
703.069	7636.59
703.415	7575.35
703.76	7615.8
704.105	7606.99
704.45	7577.16
704.795	7490.61
705.14	7451.29
705.485	7379.65
705.83	7406.99
706.175	7440.67
706.52	7457.61
706.865	7369.93
707.209	7349.82
707.554	7378.29
707.899	7319.54
708.243	7303.95
708.588	7253.1
708.932	7209.94
709.277	7231.86
709.621	7189.37
709.966	7141.69
710.31	7154.8
710.654	7060.56
710.998	7102.37
711.342	7167
711.687	7076.16
712.031	7024.86
712.375	7003.62
712.719	7024.18
713.063	6999.55
713.407	7057.85
713.75	6969.94
714.094	6987.57
714.438	6917.74
714.782	6927.23
715.125	6920.68
715.469	6953.22
715.812	6898.99
716.156	6899.66
716.499	6881.36
716.843	6865.99
717.186	6836.84
717.53	6904.18
717.873	6851.98
718.216	6809.27
718.559	6850.4
718.902	6757.75
719.246	6748.03
719.589	6801.36
719.932	6762.04
720.275	6787.12
720.617	6732.89
720.96	6711.65
721.303	6738.76
721.646	6740.8
721.989	6731.08
722.331	6757.97
722.674	6656.51
723.016	6714.13
723.359	6715.04
723.701	6657.64
724.044	6653.79
724.386	6584.64
724.729	6624.42
725.071	6653.12
725.413	6636.17
725.755	6660.12
726.097	6572.89
726.439	6625.55
726.782	6593.91
727.124	6606.11
727.465	6585.77
727.807	6544.19
728.149	6502.61
728.491	6567.69
728.833	6603.63
729.175	6595.72
729.516	6571.08
729.858	6585.32
730.199	6596.17
730.541	6497.19
730.882	6523.18
731.224	6592.1
731.565	6537.41
731.906	6541.93
732.248	6574.02
732.589	6618.31
732.93	6569.28
733.271	6573.8
733.612	6618.77
733.953	6563.17
734.294	6621.03
734.635	6598.88
734.976	6609.5
735.317	6554.36
735.658	6606.79
735.999	6567.92
736.339	6580.8
736.68	6599.11
737.021	6594.81
737.361	6559.56
737.702	6640.69
738.042	6626
738.383	6589.84
738.723	6566.56
739.063	6578.77
739.404	6619.67
739.744	6655.6
740.084	6596.85
740.424	6664.87
740.764	6620.12
741.104	6726.56
741.444	6651.31
741.784	6664.42
742.124	6677.75
742.464	6729.05
742.804	6732.21
743.143	6786.45
743.483	6794.81
743.823	6784.19
744.162	6764.53
744.502	6805.43
744.841	6866.22
745.181	6921.36
745.52	6916.39
745.86	6999.55
746.199	7018.98
746.538	7037.74
746.877	7072.77
747.216	7103.05
747.556	7161.35
747.895	7221.46
748.234	7176.94
748.573	7276.6
748.911	7322.7
749.25	7366.54
749.589	7430.27
749.928	7526.99
750.267	7607.89
750.605	7647.44
750.944	7670.94
751.283	7751.17
751.621	7820.54
751.96	7900.09
752.298	7963.82
752.636	8104.15
752.975	8166.3
753.313	8231.61
753.651	8367.65
753.989	8426.63
754.327	8555.21
754.666	8600.41
755.004	8823.91
755.342	8869.33
755.679	8955.88
756.017	9094.41
756.355	9225.48
756.693	9401.52
757.031	9512.93
757.368	9613.26
757.706	9701.85
758.044	9880.15
758.381	10047.38
758.719	10130.31
759.056	10344.54
759.394	10513.58
759.731	10557.19
760.068	10723.07
760.405	10885.1
760.743	11048.48
761.08	11275.59
761.417	11406.66
761.754	11619.54
762.091	11759.65
762.428	11878.97
762.765	12005.97
763.102	12139.07
763.438	12347.43
763.775	12460.65
764.112	12723.69
764.449	12812.28
764.785	13025.6
765.122	13175.88
765.458	13165.04
765.795	13401.41
766.131	13581.07
766.467	13683.44
766.804	13869.2
767.14	13918.91
767.476	14147.16
767.812	14288.4
768.148	14399.58
768.485	14474.83
768.821	14508.5
769.157	14744.2
769.492	14807.25
769.828	15044.08
770.164	15040.01
770.5	15195.26
770.836	15343.96
771.171	15444.07
771.507	15480.45
771.842	15461.02
772.178	15656.04
772.513	15704.18
772.849	15856.94
773.184	15923.83
773.519	16037.28
773.855	16084.96
774.19	16143.26
774.525	16202.24
774.86	16311.39
775.195	16364.5
775.53	16364.05
775.865	16400.43
776.2	16424.84
776.535	16351.39
776.87	16531.73
777.205	16523.82
777.539	16566.08
777.874	16735.11
778.209	16595.91
778.543	16739.4
778.878	16711.38
779.212	16838.84
779.547	16817.59
779.881	16806.3
780.215	16823.92
780.55	16960.64
780.884	16878.61
781.218	16943.47
781.552	17030.7
781.886	16947.76
782.22	16981.21
782.554	16857.59
782.888	16898.5
783.222	16870.02
783.556	16842.23
783.889	16907.08
784.223	16886.52
784.557	16855.56
784.89	17037.7
785.224	16795
785.557	16901.43
785.891	16732.85
786.224	16815.11
786.558	16905.95
786.891	16682.91
787.224	16771.04
787.557	16669.8
787.891	16717.48
788.224	16757.03
788.557	16797.48
788.89	16768.33
789.223	16820.31
789.556	16629.35
789.888	16663.02
790.221	16574.89
790.554	16513.87
790.887	16656.24
791.219	16588.45
791.552	16424.16
791.884	16563.36
792.217	16459.19
792.549	16472.97
792.882	16339.64
793.214	16263.26
793.546	16431.39
793.879	16281.11
794.211	16246.08
794.543	16310.72
794.875	16237.5
795.207	16341
795.539	16240.43
795.871	16310.26
796.203	16062.13
796.535	16035.69
796.867	16082.7
797.198	16026.2
797.53	16011.74
797.862	15873.21
798.193	15953.44
798.525	15868.47
798.856	15812.2
799.188	15648.13
799.519	15698.98
799.85	15597.74
800.182	15640.68
800.513	15596.61
800.844	15482.49
801.175	15645.87
801.506	15600
801.837	15477.97
802.168	15460.12
802.499	15423.73
802.83	15431.64
803.161	15346.9
803.491	15413.79
803.822	15358.2
804.153	15271.65
804.483	15242.27
804.814	15186.9
805.145	15117.07
805.475	15077.08
805.805	15090.63
806.136	15113.68
806.466	15102.16
806.796	15132.67
807.126	14984.2
807.457	14873.92
807.787	14927.7
808.117	14829.4
808.447	14833.69
808.777	14874.82
809.107	14825.33
809.436	14814.94
809.766	14772.9
810.096	14743.3
810.426	14710.76
810.755	14653.13
811.085	14682.74
811.414	14639.8
811.744	14566.13
812.073	14573.59
812.403	14469.18
812.732	14426.47
813.061	14428.5
813.39	14442.29
813.719	14324.78
814.049	14459.69
814.378	14260.6
814.707	14245.01
815.036	14352.8
815.365	14256.98
815.693	14155.97
816.022	14053.37
816.351	14092.69
816.68	14020.15
817.008	14063.54
817.337	13931.12
817.665	13956.88
817.994	14035.75
818.322	13997.78
818.651	13854.51
818.979	13842.98
819.307	13939.7
819.636	13861.06
819.964	13838.24
820.292	13862.19
820.62	13860.16
820.948	13897.45
821.276	13808.86
821.604	13712.14
821.932	13768.41
822.259	13838.92
822.587	13771.35
822.915	13765.92
823.243	13800.05
823.57	13692.03
823.898	13822.19
824.225	13826.26
824.553	13724.12
824.88	13734.74
825.207	13808.63
825.535	13734.96
825.862	13897.22
826.189	13806.83
826.516	13792.36
826.843	13908.07
827.17	13829.42
827.497	13875.98
827.824	13823.32
828.151	13854.96
828.478	13835.53
828.805	13893.6
829.131	13777
829.458	13869.65
829.785	13804.34
830.111	13859.71
830.438	13899.71
830.764	13823.1
831.09	13837.56
831.417	13775.41
831.743	13835.07
832.069	13807.73
832.395	13761.86
832.722	13795.3
833.048	13741.29
833.374	13756.43
833.7	13730.22
834.026	13738.81
834.351	13720.27
834.677	13735.64
835.003	13762.99
835.329	13722.31
835.654	13615.64
835.98	13677.56
836.306	13683.44
836.631	13625.59
836.956	13734.51
837.282	13625.36
837.607	13598.47
837.932	13548.75
838.258	13560.28
838.583	13519.15
838.908	13481.41
839.233	13480.28
839.558	13360.51
839.883	13434.18
840.208	13350.12
840.533	13397.12
840.858	13327.06
841.182	13343.56
841.507	13333.39
841.832	13213.17
842.156	13292.49
842.481	13299.27
842.805	13188.99
843.13	13165.26
843.454	13196.45
843.778	13084.81
844.103	13137.69
844.427	13055.21
844.751	13042.78
845.075	12966.85
845.399	12964.14
845.723	12953.97
846.047	12909.45
846.371	12766.18
846.695	12830.81
847.019	12816.57
847.343	12672.17
847.666	12612.51
847.99	12534.32
848.313	12499.29
848.637	12435.79
848.96	12533.41
849.284	12471.95
849.607	12403.47
849.931	12274.21
850.254	12226.75
850.577	12135.91
850.9	12027.44
851.223	12087.32
851.546	12023.37
851.869	11934.11
852.192	11998.74
852.515	11852.08
852.838	11858.85
853.161	11802.59
853.483	11749.71
853.806	11661.8
854.129	11693.89
854.451	11724.4
854.774	11554.91
855.096	11504.51
855.419	11532.99
855.741	11481.69
856.063	11454.57
856.385	11507.23
856.708	11481.92
857.03	11405.08
857.352	11460.67
857.674	11387.68
857.996	11303.16
858.318	11250.51
858.64	11197.4
858.961	11241.92
859.283	11151.3
859.605	11089.84
859.926	11143.39
860.248	11054.13
860.57	11044.86
860.891	11068.14
861.212	10937.75
861.534	10934.81
861.855	10966.67
862.176	10913.57
862.498	10964.87
862.819	10921.7
863.14	10863.63
863.461	10834.93
863.782	10821.14
864.103	10833.35
864.424	10759.45
864.745	10754.25
865.065	10683.74
865.386	10704.31
865.707	10712.44
866.027	10650.3
866.348	10665.67
866.668	10648.27
866.989	10634.25
867.309	10524.43
867.63	10592.45
867.95	10579.34
868.27	10506.57
868.59	10544.09
868.91	10481.26
869.23	10548.61
869.55	10408.95
869.87	10460.93
870.19	10412.11
870.51	10446.46
870.83	10385.9
871.15	10324.21
871.469	10345.45
871.789	10387.48
872.109	10391.1
872.428	10227.03
872.748	10323.08
873.067	10277.2
873.386	10275.17
873.706	10266.35
874.025	10146.81
874.344	10192.91
874.663	10183.42
874.982	10160.82
875.301	10263.42
875.62	10172.35
875.939	10121.27
876.258	10082.86
876.577	10147.94
876.896	10049.86
877.214	10130.31
877.533	9994.72
877.852	10013.25
878.17	10028.39
878.489	10044.21
878.807	9987.72
879.125	9951.79
879.444	10006.47
879.762	9978.23
880.08	9927.38
880.398	9875.18
880.716	9952.46
881.034	9905.91
881.352	9889.42
881.67	9843.54
881.988	9847.38
882.306	9745.69
882.624	9766.71
882.941	9746.82
883.259	9695.3
883.577	9654.39
883.894	9711.79
884.212	9674.73
884.529	9678.8
884.846	9627.73
885.164	9615.3
885.481	9608.97
885.798	9579.59
886.115	9456.21
886.432	9556.54
886.75	9431.57
887.067	9451.46
887.383	9420.5
887.7	9404.46
888.017	9387.96
888.334	9421.4
888.651	9364.68
888.967	9381.18
889.284	9265.25
889.6	9262.99
889.917	9118.59
890.233	9195.87
890.55	9189.55
890.866	9214.86
891.182	9101.87
891.498	9105.71
891.815	9083.56
892.131	9057.12
892.447	9086.5
892.763	8996.11
893.079	9063.22
893.395	8942.1
893.71	8873.17
894.026	8887.18
894.342	8851.7
894.657	8757.24
894.973	8799.95
895.289	8751.37
895.604	8763.12
895.92	8712.95
896.235	8668.88
896.55	8704.81
896.865	8678.6
897.181	8619.17
897.496	8605.16
897.811	8627.53
898.126	8503.24
898.441	8467.76
898.756	8482.22
899.071	8397.93
899.386	8403.58
899.7	8343.47
900.015	8273.41
900.33	8289.68
900.644	8252.85
900.959	8264.83
901.273	8233.41
901.588	8172.17
901.902	8103.25
902.216	8087.43
902.531	8147.09
902.845	8069.58
903.159	7982.8
903.473	7978.05
903.787	7988.9
904.101	7879.98
904.415	7931.27
904.729	7828
905.042	7825.97
905.356	7791.39
905.67	7809.24
905.984	7806.31
906.297	7799.53
906.611	7685.63
906.924	7682.69
907.237	7681.11
907.551	7657.38
907.864	7566.31
908.177	7531.29
908.491	7518.18
908.804	7443.15
909.117	7480.44
909.43	7413.77
909.743	7378.97
910.056	7315.25
910.368	7345.3
910.681	7341.46
910.994	7281.8
911.307	7273.66
911.619	7148.24
911.932	7195.93
912.244	7157.06
912.557	7168.36
912.869	7100.11
913.181	7047.46
913.494	7072.09
913.806	7011.07
914.118	6963.84
914.43	6890.4
914.742	6959.55
915.054	6882.26
915.366	6892.88
915.678	6856.5
915.99	6806.78
916.302	6733.79
916.613	6682.27
916.925	6721.36
917.236	6710.52
917.548	6637.07
917.859	6756.84
918.171	6655.83
918.482	6577.64
918.794	6537.64
919.105	6563.85
919.416	6475.04
919.727	6494.25
920.038	6466.91
920.349	6400.69
920.66	6359.11
920.971	6341.94
921.282	6369.96
921.593	6341.49
921.903	6244.99
922.214	6323.18
922.525	6238.89
922.835	6208.16
923.146	6181.49
923.456	6194.37
923.767	6169.74
924.077	6189.4
924.387	6069.85
924.697	6060.59
925.008	6035.05
925.318	6001.38
925.628	5993.47
925.938	6040.7
926.248	5980.82
926.558	5890.42
926.867	5949.86
927.177	5920.93
927.487	5851.1
927.796	5795.74
928.106	5801.39
928.416	5798.68
928.725	5755.96
929.034	5754.61
929.344	5710.54
929.653	5720.26
929.962	5648.4
930.271	5648.85
930.581	5593.03
930.89	5566.14
931.199	5544.44
931.508	5544.44
931.817	5533.15
932.125	5551.22
932.434	5515.52
932.743	5437.78
933.051	5465.35
933.36	5445.69
933.669	5420.83
933.977	5378.57
934.286	5353.04
934.594	5333.6
934.902	5324.79
935.21	5276.2
935.519	5281.17
935.827	5232.59
936.135	5236.88
936.443	5221.97
936.751	5186.26
937.059	5166.15
937.367	5120.95
937.674	5117.56
937.982	5133.38
938.29	5106.04
938.597	5088.64
938.905	5010.9
939.213	5020.84
939.52	4957.57
939.827	5028.07
940.135	4914.86
940.442	4877.34
940.749	4864.91
941.056	4915.08
941.363	4863.56
941.67	4853.16
941.977	4801.64
942.284	4784.92
942.591	4779.04
942.898	4764.58
943.205	4765.48
943.511	4699.27
943.818	4712.83
944.125	4701.08
944.431	4672.83
944.738	4691.13
945.044	4632.6
945.35	4619.05
945.657	4594.19
945.963	4565.94
946.269	4519.16
946.575	4567.07
946.881	4479.16
947.187	4490.01
947.493	4442.78
947.799	4423.12
948.105	4419.95
948.41	4438.71
948.716	4396.68
949.022	4388.54
949.327	4429.22
949.633	4321.65
949.938	4361.42
950.244	4346.74
950.549	4282.1
950.854	4258.6
951.16	4249.11
951.465	4246.17
951.77	4165.05
952.075	4147.19
952.38	4178.6
952.685	4157.36
952.99	4161.66
953.294	4135.44
953.599	4089.34
953.904	4109.45
954.209	4012.96
954.513	4027.42
954.818	4007.08
955.122	4004.37
955.426	4013.19
955.731	3988.33
956.035	3968.21
956.339	3947.42
956.643	3947.42
956.948	3929.57
957.252	3914.2
957.556	3882.57
957.86	3876.47
958.163	3856.81
958.467	3818.61
958.771	3826.98
959.075	3816.58
959.378	3779.29
959.682	3805.96
959.985	3733.87
960.289	3746.53
960.592	3685.96
960.896	3730.03
961.199	3708.33
961.502	3675.12
961.805	3647.32
962.108	3658.84
962.411	3592.41
962.714	3608
963.017	3603.25
963.32	3626.75
963.623	3603.7
963.926	3556.7
964.228	3508.79
964.531	3466.31
964.833	3528.9
965.136	3447.78
965.438	3476.7
965.741	3457.95
966.043	3454.78
966.345	3378.63
966.648	3390.6
966.95	3418.4
967.252	3369.59
967.554	3357.84
967.856	3332.07
968.158	3349.93
968.46	3319.64
968.761	3293.2
969.063	3323.26
969.365	3291.17
969.666	3269.48
969.968	3247.78
970.269	3244.84
970.571	3228.8
970.872	3219.31
971.174	3187.67
971.475	3185.18
971.776	3195.81
972.077	3173.66
972.378	3143.83
972.679	3105.19
972.98	3115.81
973.281	3122.59
973.582	3117.39
973.883	3062.02
974.183	3086.66
974.484	3067.9
974.785	3048.24
975.085	3015.7
975.386	3032.65
975.686	3029.93
975.986	2990.16
976.287	2969.15
976.587	2961.69
976.887	2910.39
977.187	2918.75
977.487	2911.52
977.787	2913.55
978.087	2885.98
978.387	2883.5
978.687	2877.17
978.987	2858.41
979.286	2832.65
979.586	2809.83
979.885	2780
980.185	2803.5
980.484	2768.7
980.784	2796.95
981.083	2764.4
981.382	2748.59
981.682	2741.13
981.981	2740.22
982.28	2712.43
982.579	2727.8
982.878	2704.29
983.177	2693.22
983.475	2694.35
983.774	2657.29
984.073	2629.49
984.372	2623.17
984.67	2628.82
984.969	2606.44
985.267	2604.86
985.566	2583.39
985.864	2603.05
986.162	2575.26
986.461	2496.84
986.759	2547.01
987.057	2535.48
987.355	2496.39
987.653	2529.38
987.951	2490.51
988.249	2501.81
988.547	2495.03
988.844	2499.78
989.142	2471.08
989.44	2406
989.737	2444.41
990.035	2438.76
990.332	2409.39
990.63	2375.94
990.927	2387.92
991.224	2382.72
991.521	2366.9
991.819	2347.24
992.116	2344.53
992.413	2347.69
992.71	2334.59
993.006	2299.33
993.303	2319.9
993.6	2300.91
993.897	2265.66
994.193	2254.81
994.49	2270.41
994.787	2264.76
995.083	2234.02
995.379	2234.25
995.676	2211.88
995.972	2207.81
996.268	2199.45
996.565	2194.93
996.861	2171.43
997.157	2144.76
997.453	2158.32
997.749	2154.48
998.044	2116.06
998.34	2133.23
998.636	2100.02
998.932	2094.14
999.227	2101.15
999.523	2091.65
999.818	2089.62
1000.114	2057.98
1000.409	2040.81
1000.704	2039.23
1001	2049.4
1001.295	1988.61
1001.59	2015.72
1001.885	2021.15
1002.18	1987.7
1002.475	1980.47
1002.77	1927.14
1003.065	1943.18
1003.359	1935.05
1003.654	1933.92
1003.949	1888.72
1004.243	1888.95
1004.538	1881.26
1004.832	1897.99
1005.127	1879.46
1005.421	1876.29
1005.715	1886.01
1006.009	1868.16
1006.304	1827.71
1006.598	1840.59
1006.892	1815.28
1007.186	1806.24
1007.48	1803.3
1007.773	1761.04
1008.067	1752.68
1008.361	1752.45
1008.655	1761.72
1008.948	1749.97
1009.242	1724.21
1009.535	1751.55
1009.829	1718.1
1010.122	1670.42
1010.415	1673.36
1010.708	1715.17
1011.001	1672.91
1011.295	1674.26
1011.588	1646.92
1011.881	1645.11
1012.173	1639.46
1012.466	1639.24
1012.759	1622.29
1013.052	1615.96
1013.344	1586.81
1013.637	1596.53
1013.93	1577.09
1014.222	1554.27
1014.514	1556.3
1014.807	1550.88
1015.099	1545.45
1015.391	1519.47
1015.683	1516.53
1015.976	1507.94
1016.268	1485.79
1016.56	1521.73
1016.851	1493.7
1017.143	1505.23
1017.435	1489.86
1017.727	1479.69
1018.018	1456.64
1018.31	1444.67
1018.602	1458.9
1018.893	1401.05
1019.185	1462.74
1019.476	1429.98
1019.767	1390.66
1020.058	1389.75
1020.35	1372.58
1020.641	1359.47
1020.932	1368.51
1021.223	1342.3
1021.514	1333.93
1021.804	1338.91
1022.095	1347.27
1022.386	1318.34
1022.677	1305.46
1022.967	1300.04
1023.258	1283.77
1023.548	1271.34
1023.839	1294.61
1024.129	1274.95
1024.419	1267.49
1024.709	1253.26
1025	1232.47
1025.29	1209.87
1025.58	1231.11
1025.87	1208.06
1026.16	1213.94
1026.449	1193.82
1026.739	1189.53
1027.029	1209.87
1027.319	1172.36
1027.608	1158.35
1027.898	1186.14
1028.187	1165.35
1028.477	1158.8
1028.766	1174.39
1029.055	1145.24
1029.344	1132.81
1029.634	1134.17
1029.923	1102.98
1030.212	1114.05
1030.501	1108.4
1030.79	1116.54
1031.078	1101.62
1031.367	1101.4
1031.656	1103.43
1031.945	1077.9
1032.233	1069.76
1032.522	1039.03
1032.81	1038.8
1033.099	1048.07
1033.387	1040.83
1033.675	1042.42
1033.963	1034.51
1034.251	1023.89
1034.54	1008.07
1034.828	1005.58
1035.116	984.79
1035.403	970.55
1035.691	985.47
1035.979	989.31
1036.267	977.79
1036.554	979.59
1036.842	970.33
1037.129	957.67
1037.417	938.01
1037.704	928.97
1037.992	946.37
1038.279	917.22
1038.566	912.02
1038.853	912.02
1039.14	912.02
