Data from hue_180_FLMS001491_00030.txt Node
Date: Tue Feb 07 16:46:47 GMT 2017
User: dcchb
Spectrometer: FLMS00149
Trigger mode: 0
Integration Time (sec): 2.000000E-2
Scans to average: 10
Electric dark correction enabled: true
Nonlinearity correction enabled: false
Boxcar width: 0
XAxis mode: Wavelengths
Number of Pixels in Spectrum: 2048
>>>>>Begin Spectral Data<<<<<
341.393	-3.9
341.776	-3.9
342.16	-3.9
342.543	-72.37
342.927	-85.03
343.31	-75.99
343.693	-75.76
344.077	-62.43
344.46	-72.6
344.843	-47.96
345.226	-50.9
345.61	-20.17
345.993	-6.61
346.376	-16.1
346.759	-2.32
347.142	31.81
347.525	43.78
347.908	55.08
348.291	82.65
348.674	98.47
349.057	119.04
349.44	107.51
349.823	142.99
350.206	170.56
350.588	204.68
350.971	198.36
351.354	207.17
351.737	229.54
352.119	253.04
352.502	258.69
352.884	245.81
353.267	291.01
353.65	285.59
354.032	291.69
354.414	308.64
354.797	289.43
355.179	331.23
355.562	319.71
355.944	326.26
356.326	344.57
356.709	338.01
357.091	325.58
357.473	331.69
357.855	340.5
358.238	333.49
358.62	338.24
359.002	337.34
359.384	326.71
359.766	324.68
360.148	321.97
360.53	346.83
360.912	339.6
361.294	321.07
361.676	335.08
362.057	327.17
362.439	318.13
362.821	332.36
363.203	321.29
363.584	332.59
363.966	335.3
364.348	319.94
364.729	307.28
365.111	329.88
365.493	319.94
365.874	323.1
366.256	321.29
366.637	308.18
367.019	319.03
367.4	325.58
367.781	321.07
368.163	323.32
368.544	319.26
368.925	307.28
369.306	321.52
369.688	301.18
370.069	292.59
370.45	314.51
370.831	322.65
371.212	309.77
371.593	331.46
371.974	294.85
372.355	302.31
372.736	316.09
373.117	302.53
373.498	305.7
373.879	292.14
374.26	288.52
374.641	313.38
375.021	307.96
375.402	330.1
375.783	303.66
376.163	294.63
376.544	309.09
376.925	325.13
377.305	327.17
377.686	309.77
378.066	336.43
378.447	334.4
378.827	320.39
379.208	319.94
379.588	321.52
379.968	328.07
380.349	309.09
380.729	317.22
381.109	335.53
381.489	367.17
381.87	330.78
382.25	326.94
382.63	344.57
383.01	333.72
383.39	341.86
383.77	333.27
384.15	335.3
384.53	351.12
384.91	341.18
385.29	344.34
385.67	326.04
386.049	319.48
386.429	352.25
386.809	349.99
387.189	359.71
387.568	343.44
387.948	345.25
388.328	342.76
388.707	359.93
389.087	358.35
389.466	370.56
389.846	368.75
390.225	352.25
390.605	361.74
390.984	359.03
391.363	368.3
391.743	367.62
392.122	361.29
392.501	367.84
392.881	359.71
393.26	387.73
393.639	359.93
394.018	367.84
394.397	387.5
394.776	363.32
395.155	369.43
395.534	380.27
395.913	357.9
396.292	382.76
396.671	390.44
397.05	387.73
397.429	381.18
397.808	383.21
398.186	380.95
398.565	372.36
398.944	394.51
399.323	389.54
399.701	386.37
400.08	408.75
400.458	382.08
400.837	395.64
401.215	412.59
401.594	407.16
401.972	410.78
402.351	432.7
402.729	402.64
403.107	409.88
403.486	423.44
403.864	451.23
404.242	411.01
404.62	434.28
404.999	452.81
405.377	439.03
405.755	420.27
406.133	432.7
406.511	443.1
406.889	436.99
407.267	460.72
407.645	466.15
408.023	468.41
408.401	474.96
408.779	488.52
409.156	483.55
409.534	481.74
409.912	489.87
410.29	501.63
410.667	488.07
411.045	508.63
411.422	509.08
411.8	489.42
412.178	519.7
412.555	539.59
412.933	539.82
413.31	564
413.687	541.17
414.065	541.17
414.442	561.28
414.819	582.3
415.197	594.5
415.574	602.19
415.951	580.49
416.328	591.11
416.705	597.44
417.082	627.72
417.46	609.64
417.837	629.76
418.214	643.32
418.591	646.48
418.967	660.94
419.344	662.07
419.721	667.95
420.098	685.8
420.475	673.82
420.852	662.98
421.228	702.75
421.605	697.55
421.982	741.17
422.358	724.22
422.735	735.52
423.111	753.6
423.488	760.83
423.864	735.74
424.241	786.59
424.617	793.14
424.994	793.59
425.37	798.11
425.746	809.64
426.123	806.25
426.499	852.8
426.875	832.92
427.251	863.42
427.627	895.74
428.003	871.33
428.379	854.84
428.756	905.91
429.132	910.88
429.507	914.72
429.883	902.97
430.259	956.08
430.635	941.39
431.011	940.71
431.387	965.34
431.763	986.81
432.138	1006.47
432.514	1029.75
432.89	1028.17
433.265	1070.42
433.641	1057.54
434.016	1081.05
434.392	1094.38
434.767	1127.37
435.143	1129.86
435.518	1119.46
435.894	1170.31
436.269	1168.05
436.644	1178.44
437.02	1213.47
437.395	1227.48
437.77	1237.88
438.145	1240.59
438.52	1289.63
438.895	1296.41
439.271	1256.86
439.646	1326.46
440.021	1363.98
440.395	1371.66
440.77	1349.96
441.145	1374.82
441.52	1426.35
441.895	1443.97
442.27	1422.96
442.645	1464.54
443.019	1441.26
443.394	1470.87
443.769	1480.13
444.143	1513.35
444.518	1515.38
444.892	1503.63
445.267	1507.25
445.641	1575.04
446.016	1594.93
446.39	1538.66
446.764	1562.84
447.139	1591.77
447.513	1626.34
447.887	1600.35
448.262	1616.17
448.636	1606.91
449.01	1670.18
449.384	1659.33
449.758	1656.17
450.132	1732.55
450.506	1738.65
450.88	1731.88
451.254	1747.47
451.628	1771.42
452.002	1801.48
452.376	1823.62
452.75	1802.38
453.123	1828.37
453.497	1851.65
453.871	1862.27
454.244	1906.56
454.618	1920.8
454.992	1964.86
455.365	1956.73
455.739	1996.95
456.112	1991.08
456.486	2040.79
456.859	2066.56
457.232	2084.86
457.606	2090.74
457.979	2096.39
458.352	2129.83
458.725	2212.77
459.099	2146.33
459.472	2287.12
459.845	2243.95
460.218	2302.93
460.591	2339.32
460.964	2304.52
461.337	2350.62
461.71	2427.68
462.083	2453.66
462.456	2452.08
462.829	2489.14
463.201	2513.1
463.574	2532.08
463.947	2593.77
464.32	2632.87
464.692	2615.24
465.065	2641
465.438	2732.08
465.81	2777.72
466.183	2789.25
466.555	2860.43
466.928	2852.98
467.3	2861.34
467.672	2919.87
468.045	2970.49
468.417	3027.21
468.789	3052.07
469.161	3082.57
469.534	3154.66
469.906	3234.66
470.278	3215.45
470.65	3275.34
471.022	3397.59
471.394	3379.29
471.766	3455.45
472.138	3507.65
472.51	3601.88
472.882	3614.09
473.253	3674.88
473.625	3741.31
473.997	3796.45
474.369	3863.57
474.74	3907.86
475.112	4001.19
475.484	4054.53
475.855	4149.44
476.227	4179.95
476.598	4358.02
476.97	4327.97
477.341	4486.38
477.713	4577.68
478.084	4579.03
478.455	4738.58
478.827	4763.89
479.198	4875.75
479.569	4937.21
479.94	5057.44
480.311	5109.87
480.682	5206.59
481.053	5380.37
481.424	5475.28
481.795	5494.94
482.166	5608.84
482.537	5711.43
482.908	5836.63
483.279	5929.96
483.65	6085.21
484.021	6179.67
484.391	6274.13
484.762	6349.16
485.133	6431.64
485.503	6538.3
485.874	6659.43
486.244	6744.62
486.615	6870.05
486.985	6970.83
487.356	7112.07
487.726	7183.48
488.097	7333.54
488.467	7344.16
488.837	7499.63
489.207	7675.67
489.578	7781.89
489.948	7883.35
490.318	7978.94
490.688	8001.99
491.058	8142.33
491.428	8235.66
491.798	8331.7
492.168	8530.11
492.538	8529.44
492.908	8661.64
493.278	8750.9
493.648	8838.13
494.017	8952.93
494.387	8977.33
494.757	9046.71
495.126	9171.91
495.496	9208.97
495.866	9254.84
496.235	9291.45
496.605	9411.67
496.974	9530.09
497.344	9545.68
497.713	9600.6
498.082	9704.32
498.452	9716.52
498.821	9829.06
499.19	9862.06
499.559	9959.68
499.928	9999.23
500.298	10081.71
500.667	10187.92
501.036	10117.87
501.405	10253.69
501.774	10231.76
502.143	10298.43
502.512	10335.26
502.88	10354.02
503.249	10379.78
503.618	10394.7
503.987	10472.89
504.356	10487.8
504.724	10567.35
505.093	10674.24
505.462	10645.54
505.83	10670.62
506.199	10755.37
506.567	10872.2
506.936	10836.27
507.304	10915.59
507.672	10917.85
508.041	10965.98
508.409	10982.03
508.777	11142.02
509.145	11125.53
509.514	11133.21
509.882	11160.1
510.25	11160.78
510.618	11163.04
510.986	11205.52
511.354	11231.96
511.722	11314.45
512.09	11441.22
512.458	11307.89
512.826	11343.15
513.193	11441
513.561	11358.51
513.929	11390.38
514.297	11546.76
514.664	11602.35
515.032	11516.48
515.4	11556.7
515.767	11544.27
516.135	11680.31
516.502	11537.49
516.869	11703.36
517.237	11666.3
517.604	11589.24
517.972	11733.65
518.339	11684.83
518.706	11627.43
519.073	11633.54
519.44	11669.24
519.808	11706.53
520.175	11608.23
520.542	11851.16
520.909	11818.84
521.276	11794.89
521.643	11795.57
522.009	11835.56
522.376	11811.38
522.743	11838.28
523.11	11875.56
523.477	11970.93
523.843	12001.89
524.21	11942.68
524.577	11986.52
524.943	12019.74
525.31	11944.71
525.676	12110.36
526.043	12123.24
526.409	12019.74
526.776	12167.76
527.142	12129.79
527.508	12100.42
527.874	12044.15
528.241	12150.36
528.607	12077.37
528.973	12150.58
529.339	11974.09
529.705	12091.6
530.071	12085.28
530.437	11971.61
530.803	11998.27
531.169	12081.89
531.535	11920.76
531.901	11926.64
532.267	11978.84
532.632	11961.21
532.998	11898.84
533.364	11887.99
533.73	11833.08
534.095	11922.57
534.461	11825.85
534.826	11826.75
535.192	11836.92
535.557	11788.56
535.923	11697.26
536.288	11724.83
536.653	11651.84
537.019	11637.15
537.384	11495.01
537.749	11563.03
538.114	11562.13
538.479	11478.96
538.845	11476.25
539.21	11403.03
539.575	11330.27
539.94	11298.18
540.305	11317.39
540.67	11302.25
541.034	11250.72
541.399	11193.55
541.764	11202.36
542.129	11130.5
542.494	11048.24
542.858	11083.27
543.223	10975.02
543.587	10954.68
543.952	10890.5
544.316	10902.03
544.681	10820
545.045	10842.82
545.41	10836.27
545.774	10763.5
546.138	10711.3
546.503	10632.43
546.867	10561.7
547.231	10639.44
547.595	10519.21
547.959	10498.88
548.324	10503.17
548.688	10467.69
549.052	10399.9
549.416	10327.58
549.779	10317.19
550.143	10200.58
550.507	10288.49
550.871	10187.25
551.235	10156.29
551.599	10106.57
551.962	10146.57
552.326	10048.49
552.689	10074.48
553.053	9916.97
553.417	9920.59
553.78	10079.45
554.143	9864.32
554.507	9912.23
554.87	9808.5
555.234	9901.83
555.597	9744.32
555.96	9760.36
556.323	9765.11
556.686	9740.93
557.05	9747.26
557.413	9670.2
557.776	9614.38
558.139	9689.86
558.502	9596.53
558.865	9614.15
559.228	9600.82
559.59	9578
559.953	9542.07
560.316	9577.09
560.679	9499.13
561.041	9567.83
561.404	9564.66
561.767	9467.04
562.129	9533.7
562.492	9483.08
562.854	9467.72
563.217	9437.66
563.579	9455.06
563.941	9480.82
564.304	9471.78
564.666	9544.1
565.028	9526.25
565.39	9448.06
565.753	9495.51
566.115	9563.31
566.477	9524.89
566.839	9473.59
567.201	9520.82
567.563	9411.9
567.925	9515.63
568.287	9526.02
568.648	9453.71
569.01	9505.91
569.372	9543.65
569.734	9522.63
570.095	9440.15
570.457	9567.6
570.819	9467.27
571.18	9554.49
571.542	9511.78
571.903	9509.52
572.265	9534.16
572.626	9475.17
572.987	9539.13
573.349	9450.99
573.71	9476.76
574.071	9514.95
574.432	9519.47
574.794	9562.63
575.155	9584.55
575.516	9484.67
575.877	9524.44
576.238	9468.62
576.599	9524.66
576.96	9510.65
577.32	9514.5
577.681	9546.81
578.042	9517.89
578.403	9536.64
578.763	9513.82
579.124	9479.69
579.485	9566.7
579.845	9524.21
580.206	9528.05
580.566	9436.31
580.927	9476.3
581.287	9532.57
581.648	9397.66
582.008	9542.29
582.368	9465.01
582.728	9467.04
583.089	9340.94
583.449	9354.5
583.809	9422.97
584.169	9425.68
584.529	9399.02
584.889	9395.85
585.249	9349.75
585.609	9368.51
585.969	9359.47
586.329	9380.71
586.688	9359.47
587.048	9411.67
587.408	9300.49
587.768	9279.02
588.127	9270.43
588.487	9240.38
588.846	9257.78
589.206	9214.39
589.565	9178.46
589.925	9320.15
590.284	9249.42
590.643	9290.09
591.003	9253.03
591.362	9218.23
591.721	9257.55
592.08	9281.51
592.44	9214.62
592.799	9214.84
593.158	9198.12
593.517	9190.21
593.876	9174.39
594.235	9171.23
594.593	9129.87
594.952	9205.58
595.311	9140.95
595.67	9177.78
596.029	9105.69
596.387	9232.92
596.746	9175.07
597.104	9130.78
597.463	9096.88
597.822	9109.08
598.18	9143.66
598.538	9100.04
598.897	9163.54
599.255	9116.31
599.613	9137.56
599.972	9067.5
600.33	9177.33
600.688	8990.89
601.046	9077.22
601.404	9079.7
601.762	9116.54
602.12	9060.5
602.478	9085.35
602.836	9092.36
603.194	8989.76
603.552	9036.32
603.91	9046.26
604.268	9065.02
604.625	8998.35
604.983	9038.8
605.341	8970.78
605.698	9091.46
606.056	9097.11
606.413	9088.74
606.771	9040.61
607.128	9065.92
607.485	8986.6
607.843	9045.13
608.2	9078.8
608.557	9081.74
608.914	8989.54
609.272	9105.01
609.629	9100.5
609.986	9067.95
610.343	9098.01
610.7	9165.35
611.057	9117.9
611.414	9096.65
611.771	9115.41
612.127	9121.06
612.484	9194.05
612.841	9175.75
613.198	9085.81
613.554	9117.67
613.911	9158.35
614.267	9112.25
614.624	9095.75
614.98	9199.02
615.337	9198.12
615.693	9186.82
616.05	9159.48
616.406	9221.85
616.762	9177.33
617.118	9188.18
617.475	9182.07
617.831	9287.83
618.187	9204.22
618.543	9205.58
618.899	9232.7
619.255	9208.06
619.611	9232.24
619.967	9280.83
620.323	9237.67
620.678	9228.63
621.034	9175.97
621.39	9139.36
621.746	9179.36
622.101	9196.99
622.457	9213.71
622.812	9226.59
623.168	9210.32
623.523	9217.78
623.879	9235.41
624.234	9204.22
624.589	9241.51
624.945	9239.47
625.3	9190.89
625.655	9217.78
626.01	9199.25
626.365	9268.17
626.72	9190.44
627.075	9225.92
627.43	9219.36
627.785	9158.12
628.14	9189.31
628.495	9254.16
628.85	9166.03
629.205	9107.05
629.559	9150.66
629.914	9174.84
630.269	9173.94
630.623	9121.96
630.978	9129.19
631.332	9164.22
631.687	9170.32
632.041	9122.87
632.396	9176.65
632.75	9071.12
633.104	9056.88
633.459	8987.73
633.813	9065.24
634.167	9031.34
634.521	9044.23
634.875	9056.2
635.229	9099.59
635.583	8977.79
635.937	8965.81
636.291	8970.78
636.645	8925.36
636.999	8970.33
637.352	8930.1
637.706	8867.05
638.06	8965.36
638.413	8917.22
638.767	8972.14
639.121	8899.6
639.474	8869.09
639.828	8851.91
640.181	8890.11
640.534	8826.83
640.888	8798.13
641.241	8775.08
641.594	8752.03
641.947	8841.74
642.301	8815.3
642.654	8844.23
643.007	8753.39
643.36	8743.89
643.713	8805.81
644.066	8868.64
644.419	8805.36
644.771	8675.65
645.124	8611.47
645.477	8615.54
645.83	8564.92
646.182	8584.58
646.535	8475.65
646.888	8550.68
647.24	8485.14
647.593	8517.46
647.945	8520.17
648.298	8525.82
648.65	8515.65
649.002	8501.87
649.355	8504.58
649.707	8442.21
650.059	8566.27
650.411	8618.7
650.763	8553.84
651.115	8716.78
651.467	8696.89
651.819	8653.95
652.171	8732.14
652.523	8625.48
652.875	8639.04
653.227	8627.74
653.578	8718.58
653.93	8664.12
654.282	8659.15
654.633	8660.05
654.985	8703.67
655.337	8642.43
655.688	8725.14
656.039	8693.27
656.391	8646.27
656.742	8676.33
657.094	8680.62
657.445	8707.51
657.796	8712.03
658.147	8772.14
658.498	8730.79
658.849	8744.35
659.2	8690.56
659.551	8658.25
659.902	8752.48
660.253	8776.44
660.604	8785.93
660.955	8732.6
661.306	8816.66
661.656	8752.26
662.007	8748.64
662.358	8792.48
662.708	8773.05
663.059	8803.1
663.409	8659.83
663.76	8805.36
664.11	8773.95
664.461	8746.15
664.811	8789.99
665.161	8814.18
665.511	8799.49
665.862	8738.7
666.212	8800.16
666.562	8797.9
666.912	8743.67
667.262	8806.04
667.612	8772.37
667.962	8805.36
668.312	8754.97
668.662	8893.95
669.011	8788.64
669.361	8756.32
669.711	8747.28
670.06	8784.8
670.41	8740.28
670.76	8785.25
671.109	8765.36
671.459	8733.27
671.808	8719.26
672.157	8766.94
672.507	8721.3
672.856	8715.42
673.205	8725.82
673.554	8739.15
673.904	8749.32
674.253	8728.3
674.602	8714.52
674.951	8623.22
675.3	8637.46
675.649	8712.48
675.998	8684.23
676.346	8653.05
676.695	8663.9
677.044	8632.26
677.393	8663.67
677.741	8584.58
678.09	8591.36
678.438	8600.62
678.787	8636.33
679.135	8555.2
679.484	8550.91
679.832	8557.91
680.181	8509.1
680.529	8523.11
680.877	8558.14
681.225	8486.95
681.573	8515.2
681.922	8419.61
682.27	8408.76
682.618	8439.27
682.966	8367.86
683.314	8476.1
683.661	8366.96
684.009	8336.9
684.357	8330.57
684.705	8333.06
685.053	8320.63
685.4	8293.51
685.748	8306.17
686.095	8238.82
686.443	8261.42
686.79	8197.47
687.138	8218.71
687.485	8215.77
687.832	8180.29
688.18	8190.46
688.527	8105.04
688.874	8137.36
689.221	8078.83
689.568	8026.85
689.915	7979.62
690.262	8019.85
690.609	7980.3
690.956	7961.09
691.303	7946.63
691.65	7856.91
691.997	7877.93
692.344	7912.28
692.69	7844.03
693.037	7816.01
693.383	7691.94
693.73	7774.88
694.077	7674.09
694.423	7709.57
694.769	7633.19
695.116	7634.77
695.462	7576.02
695.808	7576.69
696.155	7541.67
696.501	7506.86
696.847	7472.97
697.193	7489.69
697.539	7465.74
697.885	7374.21
698.231	7380.31
698.577	7386.64
698.923	7291.73
699.269	7291.73
699.614	7248.79
699.96	7269.13
700.306	7251.73
700.651	7212.64
700.997	7140.09
701.342	7180.55
701.688	7199.08
702.033	7088.8
702.379	7071.85
702.724	7042.24
703.069	7073.66
703.415	6996.14
703.76	7021.45
704.105	6992.98
704.45	6924.96
704.795	6896.26
705.14	6886.32
705.485	6872.53
705.83	6870.95
706.175	6791.4
706.52	6787.56
706.865	6786.88
707.209	6795.02
707.554	6687.45
707.899	6704.85
708.243	6703.27
708.588	6657.85
708.932	6636.61
709.277	6640.45
709.621	6632.54
709.966	6574.23
710.31	6557.74
710.654	6509.6
710.998	6556.16
711.342	6522.48
711.687	6463.95
712.031	6498.76
712.375	6470.06
712.719	6429.38
713.063	6447.01
713.407	6486.78
713.75	6435.25
714.094	6434.35
714.438	6389.61
714.782	6390.96
715.125	6393
715.469	6374.92
715.812	6357.97
716.156	6309.83
716.499	6304.18
716.843	6356.61
717.186	6309.16
717.53	6341.25
717.873	6257.63
718.216	6287.91
718.559	6262.6
718.902	6221.47
719.246	6257.18
719.589	6186.22
719.932	6243.17
720.275	6203.17
720.617	6171.53
720.96	6172.21
721.303	6187.58
721.646	6169.5
721.989	6133.79
722.331	6200.68
722.674	6205.43
723.016	6192.78
723.359	6132.44
723.701	6146
724.044	6149.39
724.386	6107.58
724.729	6166.56
725.071	6153.68
725.413	6144.19
725.755	6111.65
726.097	6107.58
726.439	6092.66
726.782	6140.12
727.124	6137.41
727.465	6110.29
727.807	6081.14
728.149	6017.41
728.491	6073.68
728.833	6056.73
729.175	6061.25
729.516	6096.28
729.858	6069.16
730.199	6079.78
730.541	6079.33
730.882	6103.06
731.224	6071.65
731.565	6061.93
731.906	6083.63
732.248	6074.81
732.589	6078.88
732.93	6037.98
733.271	6038.65
733.612	6073.23
733.953	6102.16
734.294	6075.94
734.635	6077.75
734.976	6120.69
735.317	6103.29
735.658	6072.55
735.999	6106.68
736.339	6098.54
736.68	6115.26
737.021	6100.35
737.361	6102.83
737.702	6179.44
738.042	6135.38
738.383	6117.97
738.723	6182.61
739.063	6133.57
739.404	6180.8
739.744	6180.8
740.084	6134.47
740.424	6231.42
740.764	6165.43
741.104	6227.58
741.444	6199.33
741.784	6228.03
742.124	6212.44
742.464	6287.01
742.804	6286.33
743.143	6308.48
743.483	6384.63
743.823	6316.61
744.162	6386.67
744.502	6376.05
744.841	6389.83
745.181	6467.34
745.52	6454.01
745.86	6515.93
746.199	6531.07
746.538	6562.26
746.877	6642.71
747.216	6679.77
747.556	6722.7
747.895	6773.78
748.234	6791.86
748.573	6861.01
748.911	6905.75
749.25	6961.12
749.589	6995.92
749.928	7086.54
750.267	7171.96
750.605	7187.55
750.944	7254.22
751.283	7313.88
751.621	7420.54
751.96	7461.67
752.298	7610.36
752.636	7636.8
752.975	7769.23
753.313	7816.46
753.651	7924.03
753.989	8044.48
754.327	8225.26
754.666	8223.68
755.004	8357.46
755.342	8505.71
755.679	8639.49
756.017	8752.03
756.355	8882.65
756.693	9074.51
757.031	9208.29
757.368	9237.89
757.706	9462.75
758.044	9593.59
758.381	9763.08
758.719	9876.97
759.056	10034.48
759.394	10229.05
759.731	10295.04
760.068	10450.74
760.405	10609.38
760.743	10730.73
761.08	10937.96
761.417	11103.15
761.754	11289.59
762.091	11460.66
762.428	11600.54
762.765	11687.32
763.102	11906.3
763.438	12056.8
763.775	12233.07
764.112	12372.95
764.449	12638.71
764.785	12715.32
765.122	12803.9
765.458	12968.64
765.795	13154.63
766.131	13281.85
766.467	13449.08
766.804	13602.52
767.14	13669.87
767.476	13815.85
767.812	14013.13
768.148	14206.8
768.485	14223.07
768.821	14416.74
769.157	14538.32
769.492	14703.29
769.828	14812.66
770.164	14814.7
770.5	14953
770.836	15127.23
771.171	15105.08
771.507	15369.93
771.842	15329.71
772.178	15555.01
772.513	15573.32
772.849	15632.3
773.184	15667.55
773.519	15826.42
773.855	15893.99
774.19	15989.35
774.525	16064.15
774.86	16233.64
775.195	16243.13
775.53	16244.71
775.865	16291.27
776.2	16326.97
776.535	16338.5
776.87	16398.61
777.205	16433.64
777.539	16401.32
777.874	16609.22
778.209	16590.92
778.543	16631.82
778.878	16664.36
779.212	16698.94
779.547	16678.38
779.881	16821.42
780.215	16754.76
780.55	16863.45
780.884	16794.3
781.218	16950.68
781.552	17004.92
781.886	16838.14
782.22	16833.85
782.554	16833.4
782.888	16875.43
783.222	16870.91
783.556	16836.56
783.889	16796.34
784.223	16768.32
784.557	16874.75
784.89	16842.21
785.224	16752.72
785.557	16852.16
785.891	16754.98
786.224	16797.02
786.558	16820.97
786.891	16666.85
787.224	16742.1
787.557	16636.34
787.891	16609.68
788.224	16683.12
788.557	16642.22
788.89	16674.99
789.223	16743.68
789.556	16641.31
789.888	16607.87
790.221	16650.81
790.554	16458.49
790.887	16507.31
791.219	16498.27
791.552	16473.86
791.884	16462.79
792.217	16369.68
792.549	16400.87
792.882	16296.24
793.214	16352.73
793.546	16365.84
793.879	16269.57
794.211	16163.36
794.543	16261.66
794.875	16158.61
795.207	16208.78
795.539	16133.3
795.871	16203.13
796.203	16090.37
796.535	15950.94
796.867	16006.53
797.198	16056.92
797.53	16007.66
797.862	15889.24
798.193	15857.61
798.525	15836.36
798.856	15901.67
799.188	15787.55
799.519	15653.77
799.85	15654.22
800.182	15591.4
800.513	15537.61
800.844	15520.89
801.175	15673.88
801.506	15588.91
801.837	15486.54
802.168	15421.46
802.499	15430.05
802.83	15362.48
803.161	15325.19
803.491	15299.65
803.822	15276.38
804.153	15314.12
804.483	15248.13
804.814	15154.8
805.145	15157.96
805.475	15095.37
805.805	15086.33
806.136	15097.85
806.466	15048.81
806.796	15063.28
807.126	14796.84
807.457	14971.08
807.787	14870.29
808.117	14802.04
808.447	14887.69
808.777	14809.05
809.107	14748.71
809.436	14756.17
809.766	14684.76
810.096	14654.02
810.426	14645.66
810.755	14627.81
811.085	14642.27
811.414	14557.75
811.744	14477.53
812.073	14509.62
812.403	14519.79
812.732	14445.44
813.061	14384.2
813.39	14326.57
813.719	14355.95
814.049	14351.43
814.378	14321.15
814.707	14243.41
815.036	14384.88
815.365	14131.55
815.693	14094.94
816.022	14202.06
816.351	14084.32
816.68	14086.58
817.008	14044.09
817.337	14029.41
817.665	13939.46
817.994	13970.88
818.322	13977.66
818.651	13961.16
818.979	13781.28
819.307	13982.4
819.636	13837.09
819.964	13872.35
820.292	13890.65
820.62	13869.41
820.948	13855.62
821.276	13893.36
821.604	13851.56
821.932	13938.79
822.259	13831.22
822.587	13848.62
822.915	13824.21
823.243	13927.26
823.57	13886.58
823.898	13842.29
824.225	13755.51
824.553	13774.04
824.88	13769.52
825.207	13850.2
825.535	13769.52
825.862	13852.91
826.189	13773.14
826.516	13891.1
826.843	13887.49
827.17	13820.6
827.497	13863.76
827.824	13815.63
828.151	13856.08
828.478	13930.2
828.805	13979.69
829.131	13783.31
829.458	13841.39
829.785	13782.18
830.111	13870.77
830.438	13832.35
830.764	13814.95
831.09	13855.62
831.417	13765.23
831.743	13816.76
832.069	13824.44
832.395	13835.96
832.722	13817.21
833.048	13751.45
833.374	13854.49
833.7	13704.67
834.026	13699.02
834.351	13716.87
834.677	13731.11
835.003	13693.82
835.329	13747.38
835.654	13742.63
835.98	13634.16
836.306	13679.36
836.631	13656.53
836.956	13688.85
837.282	13685.46
837.607	13583.09
837.932	13543.54
838.258	13560.72
838.583	13577.44
838.908	13410.89
839.233	13419.03
839.558	13502.41
839.883	13320.5
840.208	13355.52
840.533	13366.15
840.858	13349.42
841.182	13368.86
841.507	13333.83
841.832	13280.5
842.156	13247.96
842.481	13314.85
842.805	13185.59
843.13	13186.26
843.454	13156.21
843.778	13088.86
844.103	13104.91
844.427	13071.24
844.751	13048.19
845.075	13050.45
845.399	12968.87
845.723	12884.12
846.047	12918.02
846.371	12807.29
846.695	12766.39
847.019	12744.69
847.343	12736.33
847.666	12595.77
847.99	12582.44
848.313	12584.47
848.637	12508.54
848.96	12536.11
849.284	12420.41
849.607	12313.97
849.931	12220.41
850.254	12236.91
850.577	12197.36
850.9	12103.35
851.223	12187.42
851.546	12064.49
851.869	11901.78
852.192	12053.41
852.515	11930.03
852.838	11834.43
853.161	11853.87
853.483	11829.24
853.806	11734.78
854.129	11752.85
854.451	11718.28
854.774	11657.04
855.096	11605.29
855.419	11567.32
855.741	11467.44
856.063	11473.09
856.385	11422.69
856.708	11431.96
857.03	11311.28
857.352	11362.58
857.674	11319.65
857.996	11306.99
858.318	11231.74
858.64	11208.46
858.961	11185.86
859.283	11196.49
859.605	11108.8
859.926	11098.18
860.248	11095.7
860.57	11067.9
860.891	11022.48
861.212	10986.32
861.534	10981.8
861.855	10958.98
862.176	10985.42
862.498	10929.6
862.819	10913.1
863.14	10865.19
863.461	10827
863.782	10733.67
864.103	10767.8
864.424	10765.54
864.745	10747.68
865.065	10740
865.386	10705.65
865.707	10689.61
866.027	10672.43
866.348	10645.31
866.668	10584.98
866.989	10590.63
867.309	10531.87
867.63	10543.85
867.95	10549.72
868.27	10480.35
868.59	10529.38
868.91	10472.89
869.23	10491.19
869.55	10381.14
869.87	10517.63
870.19	10450.97
870.51	10408.48
870.83	10471.76
871.15	10370.74
871.469	10329.84
871.789	10356.51
872.109	10380.69
872.428	10322.84
872.748	10348.6
873.067	10337.75
873.386	10288.03
873.706	10269.5
874.025	10225.44
874.344	10174.37
874.663	10268.83
874.982	10201.26
875.301	10211.88
875.62	10096.18
875.939	10154.48
876.258	10140.02
876.577	10118.77
876.896	10105.21
877.214	10033.8
877.533	10085.55
877.852	10006.01
878.17	10029.96
878.489	9995.39
878.807	10050.07
879.125	9961.49
879.444	9948.61
879.762	9879.91
880.08	9951.55
880.398	9868.84
880.716	9929.85
881.034	9896.63
881.352	9888.05
881.67	9808.5
881.988	9857.76
882.306	9752.23
882.624	9719.24
882.941	9682.85
883.259	9709.74
883.577	9699.8
883.894	9642.85
884.212	9661.38
884.529	9613.7
884.846	9639.46
885.164	9585.23
885.481	9567.15
885.798	9586.58
886.115	9495.74
886.432	9500.26
886.75	9474.04
887.067	9452.58
887.383	9470.43
887.7	9504.33
888.017	9409.87
888.334	9407.61
888.651	9345.23
888.967	9268.63
889.284	9226.37
889.6	9212.36
889.917	9244.67
890.233	9214.84
890.55	9172.36
890.866	9234.05
891.182	9158.8
891.498	9115.64
891.815	9106.6
892.131	9100.27
892.447	9031.8
892.763	8996.54
893.079	8939.14
893.395	8966.71
893.71	8982.08
894.026	8924.91
894.342	8893.49
894.657	8785.48
894.973	8713.39
895.289	8795.42
895.604	8788.19
895.92	8732.37
896.235	8658.47
896.55	8624.12
896.865	8611.02
897.181	8581.86
897.496	8639.72
897.811	8594.07
898.126	8548.19
898.441	8557.01
898.756	8443.79
899.071	8458.48
899.386	8431.81
899.7	8304.81
900.015	8313.85
900.33	8265.71
900.644	8220.52
900.959	8269.1
901.273	8202.44
901.588	8137.81
901.902	8112.5
902.216	8145.94
902.531	8074.08
902.845	8024.82
903.159	8067.75
903.473	7988.66
903.787	8002.44
904.101	7879.51
904.415	7882.67
904.729	7876.35
905.042	7840.64
905.356	7784.82
905.67	7799.51
905.984	7736.69
906.297	7713.86
906.611	7658.05
906.924	7662.34
907.237	7632.29
907.551	7599.29
907.864	7541.67
908.177	7479.29
908.491	7525.4
908.804	7506.19
909.117	7400.65
909.43	7352.74
909.743	7347.77
910.056	7344.16
910.368	7331.95
910.681	7279.3
910.994	7255.8
911.307	7196.59
911.619	7159.3
911.932	7197.27
912.244	7105.75
912.557	7189.13
912.869	7085.63
913.181	7072.53
913.494	6993.43
913.806	7007.22
914.118	6994.56
914.43	6959.53
914.742	6945.07
915.054	6905.98
915.366	6898.75
915.678	6851.74
915.99	6774.68
916.302	6750.73
916.613	6754.57
916.925	6737.17
917.236	6758.86
917.548	6663.72
917.859	6690.84
918.171	6630.73
918.482	6612.2
918.794	6519.55
919.105	6549.15
919.416	6501.69
919.727	6440.23
920.038	6468.47
920.349	6445.65
920.66	6411.53
920.971	6407.01
921.282	6353
921.593	6303.51
921.903	6252.66
922.214	6307.12
922.525	6248.37
922.835	6257.41
923.146	6202.27
923.456	6146.45
923.767	6126.11
924.077	6117.52
924.387	6121.14
924.697	6054.02
925.008	6030.07
925.318	6056.51
925.628	6004.08
925.938	5974.93
926.248	5958.2
926.558	5963.18
926.867	5925.21
927.177	5920.01
927.487	5844.76
927.796	5796.63
928.106	5821.03
928.416	5775.84
928.725	5766.57
929.034	5730.87
929.344	5724.31
929.653	5706.91
929.962	5659.23
930.271	5649.96
930.581	5606.12
930.89	5624.2
931.199	5598.21
931.508	5586.24
931.817	5600.7
932.125	5530.87
932.434	5531.1
932.743	5435.05
933.051	5426.69
933.36	5448.84
933.669	5416.07
933.977	5405.9
934.286	5311.67
934.594	5323.19
934.902	5325.68
935.21	5320.48
935.519	5339.46
935.827	5236.87
936.135	5229.86
936.443	5205.91
936.751	5182.63
937.059	5200.71
937.367	5157.1
937.674	5062.41
937.982	5067.38
938.29	5084.33
938.597	5080.71
938.905	4991.22
939.213	5041.39
939.52	4989.64
939.827	4922.75
940.135	4992.13
940.442	4922.98
940.749	4934.73
941.056	4901.51
941.363	4839.59
941.67	4808.86
941.977	4826.48
942.284	4746.26
942.591	4804.79
942.898	4754.17
943.205	4755.52
943.511	4702.87
943.818	4687.28
944.125	4682.98
944.431	4669.88
944.738	4681.18
945.044	4587.62
945.35	4536.77
945.657	4563.89
945.963	4585.81
946.269	4541.74
946.575	4508.3
946.881	4468.3
947.187	4464.91
947.493	4476.21
947.799	4402.09
948.105	4464.01
948.41	4421.52
948.716	4376.55
949.022	4352.37
949.327	4369.77
949.633	4346.27
949.938	4252.04
950.244	4320.73
950.549	4274.86
950.854	4223.11
951.16	4262.2
951.465	4232.6
951.77	4215.65
952.075	4198.7
952.38	4177.91
952.685	4180.4
952.99	4122.1
953.294	4128.87
953.599	4071.93
953.904	4094.53
954.209	4024.02
954.513	4005.26
954.818	3996.9
955.122	4007.75
955.426	4027.86
955.731	3995.54
956.035	3954.19
956.339	3939.95
956.643	3911.48
956.948	3867.86
957.252	3891.59
957.556	3893.4
957.86	3898.6
958.163	3904.47
958.467	3828.09
958.771	3831.71
959.075	3817.92
959.378	3751.94
959.682	3772.05
959.985	3740.41
960.289	3757.81
960.592	3701.77
960.896	3700.86
961.199	3704.25
961.502	3715.78
961.805	3668.77
962.108	3594.65
962.411	3591.49
962.714	3582.67
963.017	3607.98
963.32	3616.35
963.623	3523.24
963.926	3575.22
964.228	3545.84
964.531	3502.45
964.833	3493.18
965.136	3480.08
965.438	3440.98
965.741	3436.69
966.043	3462
966.345	3440.08
966.648	3419.06
966.95	3418.38
967.252	3337.26
967.554	3388.33
967.856	3363.47
968.158	3304.04
968.46	3294.09
968.761	3311.95
969.063	3322.12
969.365	3286.64
969.666	3281.21
969.968	3226.3
970.269	3254.55
970.571	3188.56
970.872	3212.74
971.174	3224.49
971.475	3211.16
971.776	3175.45
972.077	3139.07
972.378	3133.65
972.679	3136.36
972.98	3114.66
973.281	3092.52
973.582	3070.6
973.883	3112.63
974.183	3087.55
974.484	3048.45
974.785	3028.11
975.085	3058.39
975.386	2995.8
975.686	3007.1
975.986	2989.7
976.287	2996.7
976.587	2927.1
976.887	2920.32
977.187	2921.22
977.487	2950.6
977.787	2896.59
978.087	2905.4
978.387	2850.04
978.687	2860.21
978.987	2850.94
979.286	2850.94
979.586	2832.64
979.885	2813.65
980.185	2810.27
980.484	2799.42
980.784	2797.38
981.083	2778.4
981.382	2734.11
981.682	2775.01
981.981	2742.02
982.28	2731.17
982.579	2722.81
982.878	2679.87
983.177	2674.45
983.475	2643.94
983.774	2648.24
984.073	2650.5
984.372	2630.83
984.67	2645.52
984.969	2577.95
985.267	2610.95
985.566	2584.73
985.864	2556.03
986.162	2565.07
986.461	2544.06
986.759	2536.15
987.057	2483.49
987.355	2499.09
987.653	2498.41
987.951	2505.64
988.249	2501.12
988.547	2470.84
988.844	2479.43
989.142	2481.23
989.44	2431.97
989.737	2428.81
990.035	2426.55
990.332	2438.07
990.63	2402.37
990.927	2370.73
991.224	2363.5
991.521	2361.46
991.819	2337.74
992.116	2296.83
992.413	2304.52
992.71	2293.67
993.006	2274.46
993.303	2316.04
993.6	2289.15
993.897	2270.62
994.193	2249.38
994.49	2266.32
994.787	2252.09
995.083	2238.3
995.379	2180.45
995.676	2220.68
995.972	2192.2
996.268	2163.73
996.565	2199.89
996.861	2190.62
997.157	2179.77
997.453	2148.59
997.749	2157.85
998.044	2118.31
998.34	2123.05
998.636	2102.94
998.932	2066.56
999.227	2046.9
999.523	2087.57
999.818	2068.59
1000.114	2065.65
1000.409	2052.77
1000.704	2021.13
1001	2011.19
1001.295	2000.57
1001.59	2006.22
1001.885	2004.64
1002.18	1952.89
1002.475	1967.12
1002.77	1939.1
1003.065	1940.46
1003.359	1958.76
1003.654	1918.54
1003.949	1925.77
1004.243	1921.25
1004.538	1880.8
1004.832	1894.58
1005.127	1849.84
1005.421	1848.03
1005.715	1846.22
1006.009	1847.35
1006.304	1813.68
1006.598	1800.57
1006.892	1808.94
1007.186	1795.38
1007.48	1791.99
1007.773	1769.84
1008.067	1741.14
1008.361	1753.57
1008.655	1750.41
1008.948	1778.88
1009.242	1719.45
1009.535	1692.1
1009.829	1727.36
1010.122	1724.64
1010.415	1661.37
1010.708	1699.56
1011.001	1708.83
1011.295	1661.14
1011.588	1667.92
1011.881	1633.8
1012.173	1636.28
1012.466	1617.08
1012.759	1611.43
1013.052	1614.59
1013.344	1595.16
1013.637	1597.64
1013.93	1570.3
1014.222	1581.82
1014.514	1544.54
1014.807	1544.54
1015.099	1529.62
1015.391	1530.75
1015.683	1522.16
1015.976	1514.25
1016.268	1525.55
1016.56	1478.32
1016.851	1493.01
1017.143	1460.24
1017.435	1441.04
1017.727	1432.67
1018.018	1443.3
1018.31	1438.78
1018.602	1427.48
1018.893	1404.65
1019.185	1402.39
1019.476	1395.39
1019.767	1410.53
1020.058	1374.82
1020.35	1384.99
1020.641	1367.59
1020.932	1349.51
1021.223	1356.97
1021.514	1327.82
1021.804	1335.95
1022.095	1337.76
1022.386	1325.78
1022.677	1308.84
1022.967	1307.71
1023.258	1304.09
1023.548	1266.8
1023.839	1275.39
1024.129	1270.42
1024.419	1287.14
1024.709	1242.62
1025	1256.86
1025.29	1223.87
1025.58	1231.55
1025.87	1215.96
1026.16	1192.91
1026.449	1220.48
1026.739	1205.11
1027.029	1188.39
1027.319	1181.16
1027.608	1178.44
1027.898	1168.95
1028.187	1168.95
1028.477	1169.63
1028.766	1155.62
1029.055	1132.8
1029.344	1120.37
1029.634	1120.59
1029.923	1126.47
1030.212	1123.53
1030.501	1100.03
1030.79	1102.06
1031.078	1080.59
1031.367	1092.57
1031.656	1072.68
1031.945	1069.75
1032.233	1070.2
1032.522	1057.54
1032.81	1043.08
1033.099	1051.44
1033.387	1069.52
1033.675	1003.98
1033.963	1027.04
1034.251	1022.52
1034.54	1036.53
1034.828	1016.41
1035.116	984.32
1035.403	988.17
1035.691	966.47
1035.979	986.13
1036.267	971.44
1036.554	984.1
1036.842	949.98
1037.129	941.16
1037.417	948.39
1037.704	936.42
1037.992	934.38
1038.279	925.34
1038.566	897.1
1038.853	897.1
1039.14	897.1
