Data from hue_26_FLMS001491_00058.txt Node
Date: Tue Feb 07 17:14:13 GMT 2017
User: dcchb
Spectrometer: FLMS00149
Trigger mode: 0
Integration Time (sec): 2.000000E-2
Scans to average: 10
Electric dark correction enabled: true
Nonlinearity correction enabled: false
Boxcar width: 0
XAxis mode: Wavelengths
Number of Pixels in Spectrum: 2048
>>>>>Begin Spectral Data<<<<<
341.393	-4.55
341.776	-4.55
342.16	-4.55
342.543	-62.63
342.927	-64.66
343.31	-61.95
343.693	-81.16
344.077	-57.2
344.46	-79.8
344.843	-47.71
345.226	-49.29
345.61	-30.08
345.993	-26.47
346.376	-13.36
346.759	12.85
347.142	21.44
347.525	56.02
347.908	77.48
348.291	88.11
348.674	95.56
349.057	95.56
349.44	127.43
349.823	151.61
350.206	169.46
350.588	190.25
350.971	215.56
351.354	225.73
351.737	234.32
352.119	247.42
352.502	263.92
352.884	273.41
353.267	291.72
353.65	278.38
354.032	311.15
354.414	301.21
354.797	304.6
355.179	327.42
355.562	320.19
355.944	333.52
356.326	336.01
356.709	351.6
357.091	342.56
357.473	356.8
357.855	350.47
358.238	323.81
358.62	343.47
359.002	351.37
359.384	339.4
359.766	333.07
360.148	350.7
360.53	365.16
360.912	348.89
361.294	352.96
361.676	330.13
362.057	339.62
362.439	326.29
362.821	303.92
363.203	344.14
363.584	325.16
363.966	313.41
364.348	322.45
364.729	307.08
365.111	325.39
365.493	332.39
365.874	315.67
366.256	288.78
366.637	297.82
367.019	318.16
367.4	304.82
367.781	327.19
368.163	308.44
368.544	317.7
368.925	334.2
369.306	307.99
369.688	326.52
370.069	321.32
370.45	319.51
370.831	323.35
371.212	298.95
371.593	311.15
371.974	311.38
372.355	303.92
372.736	337.36
373.117	312.96
373.498	320.42
373.879	302.11
374.26	314.31
374.641	294.88
375.021	322.22
375.402	312.73
375.783	327.65
376.163	320.64
376.544	330.36
376.925	324.93
377.305	314.54
377.686	319.74
378.066	337.59
378.447	334.43
378.827	347.08
379.208	329.23
379.588	340.75
379.968	358.83
380.349	319.06
380.729	335.1
381.109	333.75
381.489	348.44
381.87	330.36
382.25	344.14
382.63	356.35
383.01	359.74
383.39	344.82
383.77	337.59
384.15	340.75
384.53	380.07
384.91	349.57
385.29	348.21
385.67	357.93
386.049	344.37
386.429	353.63
386.809	359.06
387.189	365.16
387.568	359.74
387.948	371.26
388.328	390.7
388.707	366.06
389.087	357.02
389.466	346.18
389.846	366.29
390.225	374.2
390.605	377.14
390.984	357.48
391.363	386.18
391.743	364.71
392.122	354.76
392.501	368.55
392.881	386.63
393.26	371.94
393.639	371.94
394.018	368.55
394.397	366.06
394.776	397.93
395.155	390.92
395.534	400.19
395.913	374.65
396.292	369.45
396.671	378.27
397.05	401.09
397.429	411.26
397.808	389.57
398.186	386.85
398.565	407.87
398.944	388.66
399.323	409.9
399.701	384.14
400.08	398.61
400.458	400.19
400.837	407.87
401.215	416.23
401.594	417.36
401.972	390.47
402.351	399.74
402.729	399.74
403.107	415.33
403.486	423.46
403.864	412.16
404.242	417.14
404.62	413.97
404.999	437.47
405.377	434.31
405.755	457.81
406.133	419.17
406.511	426.18
406.889	458.26
407.267	433.18
407.645	444.93
408.023	438.38
408.401	451.26
408.779	428.89
409.156	441.09
409.534	472.95
409.912	453.07
410.29	447.87
410.667	455.1
411.045	468.43
411.422	452.62
411.8	474.54
412.178	483.12
412.555	471.15
412.933	466.63
413.31	487.87
413.687	482.9
414.065	476.57
414.442	499.85
414.819	485.61
415.197	513.63
415.574	492.84
415.951	500.75
416.328	510.92
416.705	480.19
417.082	504.37
417.46	515.89
417.837	524.03
418.214	502.56
418.591	525.38
418.967	516.12
419.344	530.35
419.721	517.02
420.098	537.13
420.475	545.95
420.852	538.94
421.228	550.01
421.605	554.53
421.982	541.2
422.358	547.98
422.735	555.89
423.111	560.18
423.488	552.05
423.864	563.57
424.241	555.44
424.617	565.61
424.994	558.38
425.37	571.48
425.746	581.88
426.123	586.85
426.499	576
426.875	567.41
427.251	592.95
427.627	596.57
428.003	626.85
428.379	619.16
428.756	597.47
429.132	613.74
429.507	625.94
429.883	637.47
430.259	630.24
430.635	621.88
431.011	634.76
431.387	650.58
431.763	647.41
432.138	655.55
432.514	644.47
432.89	672.27
433.265	686.06
433.641	684.7
434.016	679.95
434.392	679.95
434.767	695.32
435.143	680.41
435.518	714.98
435.894	689.22
436.269	719.5
436.644	729.67
437.02	738.71
437.395	717.02
437.77	735.55
438.145	705.04
438.52	725.83
438.895	755.43
439.271	746.39
439.646	768.99
440.021	781.87
440.395	785.26
440.77	765.15
441.145	772.15
441.52	773.28
441.895	791.59
442.27	807.86
442.645	794.08
443.019	790.46
443.394	815.09
443.769	813.51
444.143	816.67
444.518	810.35
444.892	803.11
445.267	814.87
445.641	828.42
446.016	861.64
446.39	828.42
446.764	839.72
447.139	830.91
447.513	822.55
447.887	843.34
448.262	846.5
448.636	847.63
449.01	860.51
449.384	865.94
449.758	879.04
450.132	898.03
450.506	903.68
450.88	926.28
451.254	876.33
451.628	917.69
452.002	904.58
452.376	951.59
452.75	898.93
453.123	918.59
453.497	942.55
453.871	919.04
454.244	952.26
454.618	968.31
454.992	966.05
455.365	977.35
455.739	994.07
456.112	1002.66
456.486	1015.99
456.859	1026.39
457.232	1020.74
457.606	1027.52
457.979	990.23
458.352	1028.42
458.725	1053.05
459.099	1075.2
459.472	1088.53
459.845	1090.34
460.218	1123.78
460.591	1130.79
460.964	1132.6
461.337	1153.61
461.71	1183.9
462.083	1188.64
462.456	1182.77
462.829	1155.87
463.201	1193.39
463.574	1199.04
463.947	1215.98
464.32	1247.62
464.692	1248.75
465.065	1251.92
465.438	1288.3
465.81	1297.11
466.183	1318.58
466.555	1343.89
466.928	1349.99
467.3	1329.43
467.672	1346.6
468.045	1385.25
468.417	1392.93
468.789	1393.83
469.161	1430.89
469.534	1446.04
469.906	1486.94
470.278	1502.08
470.65	1506.82
471.022	1541.4
471.394	1555.19
471.766	1548.18
472.138	1565.81
472.51	1634.05
472.882	1643.09
473.253	1653.26
473.625	1705.92
473.997	1727.61
474.369	1730.55
474.74	1715.41
475.112	1792.24
475.484	1803.99
475.855	1862.3
476.227	1857.78
476.598	1913.59
476.97	1971.45
477.341	2032.69
477.713	2010.77
478.084	2028.62
478.455	2102.52
478.827	2118.33
479.198	2187.03
479.569	2166.24
479.94	2234.49
480.311	2260.93
480.682	2335.73
481.053	2393.36
481.424	2450.08
481.795	2438.55
482.166	2511.77
482.537	2543.86
482.908	2638.32
483.279	2634.25
483.65	2692.78
484.021	2730.07
484.391	2795.6
484.762	2810.75
485.133	2873.57
485.503	2875.6
485.874	2999.44
486.244	3014.58
486.615	3076.95
486.985	3145.88
487.356	3168.7
487.726	3197.4
488.097	3289.6
488.467	3292.09
488.837	3379.54
489.207	3424.06
489.578	3492.31
489.948	3525.75
490.318	3605.53
490.688	3639.65
491.058	3685.98
491.428	3731.63
491.798	3774.34
492.168	3862.7
492.538	3908.8
492.908	3941.34
493.278	3975.91
493.648	4041.22
494.017	4063.14
494.387	4151.05
494.757	4155.79
495.126	4189.47
495.496	4243.25
495.866	4261.55
496.235	4339.52
496.605	4382.91
496.974	4385.62
497.344	4450.48
497.713	4492.73
498.082	4547.65
498.452	4561.66
498.821	4588.55
499.19	4617.25
499.559	4663.13
499.928	4709.68
500.298	4715.55
500.667	4755.78
501.036	4802.11
501.405	4799.39
501.774	4852.05
502.143	4912.38
502.512	4893.4
502.88	4965.72
503.249	4934.98
503.618	5014.3
503.987	5036.45
504.356	5069.89
504.724	5121.42
505.093	5085.94
505.462	5100.85
505.83	5214.52
506.199	5233.28
506.567	5298.59
506.936	5259.72
507.304	5308.53
507.672	5342.66
508.041	5367.29
508.409	5418.13
508.777	5432.82
509.145	5471.47
509.514	5462.88
509.882	5522.31
510.25	5571.58
510.618	5580.16
510.986	5588.53
511.354	5612.25
511.722	5690.67
512.09	5705.58
512.458	5732.25
512.826	5697.22
513.193	5729.54
513.561	5795.53
513.929	5840.95
514.297	5854.51
514.664	5873.26
515.032	5906.48
515.4	5949.19
515.767	5994.84
516.135	5943.54
516.502	5981.28
516.869	6049.53
517.237	6072.58
517.604	6087.72
517.972	6163.65
518.339	6162.07
518.706	6131.34
519.073	6194.16
519.44	6242.29
519.808	6214.05
520.175	6262.18
520.542	6338.79
520.909	6365
521.276	6343.53
521.643	6390.09
522.009	6407.71
522.376	6379.92
522.743	6474.6
523.11	6560.93
523.477	6571.1
523.843	6651.32
524.21	6627.37
524.577	6689.29
524.943	6703.75
525.31	6742.39
525.676	6832.33
526.043	6829.17
526.409	6882.28
526.776	6873.92
527.142	6984.65
527.508	6961.14
527.874	7000.24
528.241	7030.75
528.607	7108.94
528.973	7104.64
529.339	7170.18
529.705	7179.9
530.071	7269.84
530.437	7274.36
530.803	7311.64
531.169	7316.62
531.535	7410.62
531.901	7326.56
532.267	7436.39
532.632	7460.11
532.998	7468.93
533.364	7623.73
533.73	7544.63
534.095	7583.05
534.461	7677.96
534.826	7669.15
535.192	7770.39
535.557	7787.34
535.923	7743.5
536.288	7810.61
536.653	7886.09
537.019	7863.04
537.384	7915.7
537.749	7915.47
538.114	7908.92
538.479	7976.71
538.845	7995.69
539.21	8001.12
539.575	8069.82
539.94	8045.64
540.305	8178.97
540.67	8148.46
541.034	8211.51
541.399	8223.03
541.764	8233.2
542.129	8287.21
542.494	8357.49
542.858	8367.21
543.223	8384.38
543.587	8417.15
543.952	8385.29
544.316	8462.35
544.681	8493.76
545.045	8555.68
545.41	8601.78
545.774	8615.11
546.138	8639.29
546.503	8662.57
546.867	8714.77
547.231	8738.5
547.595	8810.81
547.959	8795.22
548.324	8848.1
548.688	8898.49
549.052	8926.97
549.416	8908.66
549.779	8946.18
550.143	8942.11
550.507	9083.12
550.871	9008.55
551.235	9072.95
551.599	9084.7
551.962	9171.03
552.326	9098.04
552.689	9191.14
553.053	9155.21
553.417	9196.57
553.78	9338.48
554.143	9302.55
554.507	9337.13
554.87	9355.21
555.234	9496.67
555.597	9359.95
555.96	9439.05
556.323	9462.32
556.686	9463.45
557.05	9526.95
557.413	9585.93
557.776	9565.82
558.139	9667.97
558.502	9711.13
558.865	9740.51
559.228	9800.84
559.59	9765.59
559.953	9753.84
560.316	9875.42
560.679	9960.39
561.041	9849.88
561.404	9941.63
561.767	10039.71
562.129	9977.79
562.492	10051.91
562.854	10084
563.217	10163.32
563.579	10135.75
563.941	10193.6
564.304	10234.96
564.666	10253.49
565.028	10348.17
565.39	10407.38
565.753	10393.82
566.115	10489.87
566.477	10443.76
566.839	10527.6
567.201	10630.43
567.563	10565.57
567.925	10655.51
568.287	10640.37
568.648	10691.89
569.01	10741.38
569.372	10787.94
569.734	10759.91
570.095	10881.27
570.457	10882.62
570.819	10951.77
571.18	10986.8
571.542	11041.94
571.903	11105.22
572.265	11156.74
572.626	11257.53
572.987	11278.09
573.349	11263.4
573.71	11286.45
574.071	11410.75
574.432	11399.45
574.794	11516.73
575.155	11529.39
575.516	11573.9
575.877	11668.59
576.238	11773.9
576.599	11878.08
576.96	11862.03
577.32	11923.27
577.681	11999.66
578.042	12170.95
578.403	12235.58
578.763	12320.55
579.124	12388.8
579.485	12552.86
579.845	12756.7
580.206	12796.7
580.566	12900.65
580.927	12973.64
581.287	13240.08
581.648	13230.13
582.008	13461.31
582.368	13582.67
582.728	13813.85
583.089	13833.73
583.449	14085.7
583.809	14222.65
584.169	14478.91
584.529	14477.11
584.889	14783.99
585.249	14949.18
585.609	15078.67
585.969	15458.1
586.329	15532.44
586.688	15812.21
587.048	15917.97
587.408	16097.4
587.768	16325.19
588.127	16517.96
588.487	16834.78
588.846	17263.92
589.206	17272.96
589.565	17528.78
589.925	17961.31
590.284	18188.65
590.643	18382.77
591.003	18724.68
591.362	19043.76
591.721	19246.02
592.08	19565.56
592.44	19808.04
592.799	20067.47
593.158	20404.86
593.517	20641.46
593.876	20926.43
594.235	21264.05
594.593	21457.26
594.952	21843.92
595.311	22045.72
595.67	22481.41
596.029	22786.27
596.387	23159.59
596.746	23438.68
597.104	23695.17
597.463	23897.65
597.822	24366.56
598.18	24506.67
598.538	24815.59
598.897	25332.41
599.255	25288.12
599.613	25909.12
599.972	26086.07
600.33	26528.77
600.688	26692.15
601.046	26986.15
601.404	27408.74
601.762	27596.99
602.12	28016.18
602.478	28248.49
602.836	28480.8
603.194	28573.23
603.552	28937.74
603.91	29075.59
604.268	29517.39
604.625	29631.96
604.983	30101.1
605.341	30196.92
605.698	30605.95
606.056	30913.96
606.413	31082.77
606.771	31329.54
607.128	31684.79
607.485	31769.53
607.843	32048.39
608.2	32480.25
608.557	32552.34
608.914	32817.64
609.272	33155.48
609.629	33315.03
609.986	33709.14
610.343	33603.38
610.7	34172.63
611.057	34203.82
611.414	34509.57
611.771	34618.04
612.127	34932.16
612.484	35017.13
612.841	35383.67
613.198	35357.23
613.554	35665.7
613.911	35945.69
614.267	36124.45
614.624	36213.03
614.98	36493.48
615.337	36666.58
615.693	36972.56
616.05	36877.87
616.406	37365.54
616.762	37308.14
617.118	37356.96
617.475	37409.61
617.831	37774.8
618.187	37829.71
618.543	38090.72
618.899	38423.82
619.255	38328.68
619.611	38516.47
619.967	38680.08
620.323	38866.52
620.678	38883.24
621.034	38845.96
621.39	38936.58
621.746	38959.4
622.101	39556.45
622.457	39250.24
622.812	39548.08
623.168	39800.51
623.523	39800.51
623.879	39907.62
624.234	39812.71
624.589	40001.18
624.945	40216.99
625.3	40238.46
625.655	40294.96
626.01	40345.8
626.365	40368.4
626.72	40353.49
627.075	40551
627.43	40521.17
627.785	40667.6
628.14	40778.33
628.495	40844.1
628.85	40771.1
629.205	40731.78
629.559	41147.36
629.914	40839.8
630.269	40933.81
630.623	40909.63
630.978	40877.32
631.332	41153.24
631.687	41215.16
632.041	40974.94
632.396	41223.97
632.75	41148.72
633.104	41213.13
633.459	41044.09
633.813	41097.87
634.167	41181.71
634.521	41080.47
634.875	41344.2
635.229	41256.06
635.583	40932.91
635.937	41167.93
636.291	41202.05
636.645	41138.55
636.999	41083.86
637.352	41380.35
637.706	41119.57
638.06	41231.66
638.413	41095.16
638.767	41068.95
639.121	41240.02
639.474	40985.33
639.828	40936.97
640.181	41138.78
640.534	41118.21
640.888	41017.88
641.241	40929.74
641.594	40980.14
641.947	41104.43
642.301	41044.77
642.654	41048.61
643.007	41244.09
643.36	41016.29
643.713	40886.35
644.066	41242.28
644.419	40906.69
644.771	40641.39
645.124	40285.01
645.477	40196.65
645.83	39954.85
646.182	39694.52
646.535	39742.43
646.888	39944.68
647.24	39626.27
647.593	39927.28
647.945	39879.38
648.298	39643.9
648.65	39537.69
649.002	39505.37
649.355	39701.07
649.707	39663.56
650.059	39918.47
650.411	40208.63
650.763	40370.66
651.115	40806.81
651.467	40599.81
651.819	40712.35
652.171	40387.16
652.523	40528.4
652.875	40588.51
653.227	40341.28
653.578	40576.31
653.93	40477.55
654.282	40262.19
654.633	40194.17
654.985	40378.35
655.337	40435.29
655.688	40304.45
656.039	40574.5
656.391	40063.33
656.742	40351.45
657.094	40315.75
657.445	40505.57
657.796	40380.6
658.147	40349.42
658.498	40321.62
658.849	40258.8
659.2	40270.55
659.551	40193.04
659.902	40346.03
660.253	40262.19
660.604	40316.43
660.955	40092.93
661.306	40353.04
661.656	40176.09
662.007	40264.45
662.358	40237.56
662.708	40157.56
663.059	40220.16
663.409	39966.6
663.76	40210.21
664.11	40112.14
664.461	40278.91
664.811	40202.3
665.161	40316.2
665.511	40139.48
665.862	40047.73
666.212	40230.1
666.562	40265.13
666.912	40077.56
667.262	40096.09
667.612	40238.69
667.962	40184.23
668.312	40068.3
668.662	40279.36
669.011	40085.92
669.361	40021.52
669.711	40049.99
670.06	39977.23
670.41	40052.93
670.76	39901.52
671.109	40051.35
671.459	39954.63
671.808	39935.87
672.157	40062.42
672.507	39711.92
672.856	39881.41
673.205	39890.9
673.554	39911.46
673.904	39726.84
674.253	40094.06
674.602	39979.71
674.951	39443.91
675.3	39137.02
675.649	39829.66
675.998	39652.26
676.346	39652.49
676.695	39831.24
677.044	39549.21
677.393	39701.07
677.741	39798.7
678.09	39625.6
678.438	39516.22
678.787	39569.33
679.135	39590.8
679.484	39252.05
679.832	39433.96
680.181	39306.28
680.529	39469.67
680.877	39222.44
681.225	39269.9
681.573	39413.85
681.922	39189
682.27	39020.19
682.618	39022
682.966	38877.59
683.314	39006.18
683.661	38946.52
684.009	38727.09
684.357	38657.94
684.705	38657.71
685.053	38664.72
685.4	38577.71
685.748	38319.19
686.095	38460.66
686.443	38425.63
686.79	38289.81
687.138	38450.94
687.485	38339.75
687.832	38259.3
688.18	38296.82
688.527	38104.51
688.874	37983.15
689.221	37989.48
689.568	38038.52
689.915	37790.16
690.262	37693.67
690.609	37622.71
690.956	37519.66
691.303	37411.64
691.65	37336.17
691.997	37240.57
692.344	37139.56
692.69	37191.99
693.037	37165.1
693.383	36843.52
693.73	37010.52
694.077	36772.79
694.423	36693.02
694.769	36620.48
695.116	36529.86
695.462	36506.58
695.808	36318.79
696.155	36434.72
696.501	36182.75
696.847	36158.34
697.193	35837
697.539	36077.44
697.885	35743.66
698.231	35784.57
698.577	35684.01
698.923	35707.28
699.269	35321.3
699.614	35246.05
699.96	35242.21
700.306	35286.5
700.651	35109.33
700.997	34938.49
701.342	35013.74
701.688	34856.68
702.033	34845.84
702.379	34713.86
702.724	34586.63
703.069	34802.67
703.415	34362.46
703.76	34330.82
704.105	34378.73
704.45	34303.48
704.795	34059.19
705.14	34115.01
705.485	33986.42
705.83	33926.99
706.175	33810.61
706.52	33787.56
706.865	33615.13
707.209	33662.59
707.554	33589.37
707.899	33595.25
708.243	33446.32
708.588	33368.81
708.932	33098.76
709.277	33181.25
709.621	33215.6
709.966	33027.8
710.31	33087.01
710.654	32687.93
710.998	32790.52
711.342	32841.37
711.687	32785.32
712.031	32481.83
712.375	32572
712.719	32603.86
713.063	32400.93
713.407	32482.73
713.75	32213.36
714.094	32267.82
714.438	32087.04
714.782	32076.42
715.125	32025.34
715.469	32018.79
715.812	31935.86
716.156	31871.45
716.499	31797.1
716.843	31878.46
717.186	31549.2
717.53	31841.17
717.873	31692.7
718.216	31567.96
718.559	31586.26
718.902	31309.43
719.246	31454.06
719.589	31340.39
719.932	31261.75
720.275	31171.13
720.617	31113.5
720.96	31171.58
721.303	31154.18
721.646	30968.65
721.989	30861.53
722.331	30916.9
722.674	30887.3
723.016	30777.69
723.359	30839.16
723.701	30858.37
724.044	30781.54
724.386	30496.12
724.729	30635.32
725.071	30594.42
725.413	30566.63
725.755	30568.21
726.097	30281.89
726.439	30146.75
726.782	30207.77
727.124	30393.52
727.465	30140.2
727.807	30052.29
728.149	30146.3
728.491	30071.5
728.833	30200.31
729.175	30001.44
729.516	29957.83
729.858	29857.04
730.199	29817.72
730.541	29837.38
730.882	29839.87
731.224	29906.76
731.565	29711.73
731.906	29784.73
732.248	29711.73
732.589	29447.56
732.93	29452.98
733.271	29484.85
733.612	29526.88
733.953	29533.88
734.294	29262.48
734.635	29292.08
734.976	29359.65
735.317	29231.07
735.658	29258.19
735.999	29066.1
736.339	29088.92
736.68	29221.35
737.021	29081.69
737.361	29017.51
737.702	29026.1
738.042	28910.4
738.383	28958.53
738.723	28876.27
739.063	28812.1
739.404	28906.1
739.744	28796.05
740.084	28597.19
740.424	28776.84
740.764	28644.42
741.104	28765.77
741.444	28514.7
741.784	28527.81
742.124	28537.98
742.464	28476.96
742.804	28503.18
743.143	28338.89
743.483	28396.97
743.823	28172.79
744.162	28239.23
744.502	28272.67
744.841	28227.25
745.181	28280.58
745.52	28055.51
745.86	28161.94
746.199	28025.9
746.538	27989.74
746.877	28016.18
747.216	28057.09
747.556	27944.55
747.895	28102.51
748.234	27827.04
748.573	27783.87
748.911	27777.09
749.25	27702.07
749.589	27625.69
749.928	27629.98
750.267	27713.14
750.605	27515.18
750.944	27540.26
751.283	27402.42
751.621	27572.58
751.96	27326.03
752.298	27448.29
752.636	27394.96
752.975	27186.6
753.313	27214.62
753.651	27290.55
753.989	27163.1
754.327	27107.06
754.666	26998.81
755.004	27063.44
755.342	27064.8
755.679	26948.64
756.017	26885.59
756.355	26896.21
756.693	26755.88
757.031	26765.6
757.368	26736.44
757.706	26651.93
758.044	26561.53
758.381	26693.51
758.719	26576
759.056	26541.42
759.394	26349.79
759.731	26271.82
760.068	26152.28
760.405	26152.05
760.743	26096.23
761.08	26023.92
761.417	25883.81
761.754	25832.74
762.091	25742.57
762.428	25679.75
762.765	25579.41
763.102	25618.96
763.438	25565.4
763.775	25382.58
764.112	25383.71
764.449	25417.61
764.785	25271.17
765.122	25135.36
765.458	25066.88
765.795	24998.86
766.131	24972.65
766.467	24966.09
766.804	24696.27
767.14	24663.96
767.476	24760.68
767.812	24574.24
768.148	24557.07
768.485	24402.27
768.821	24342.38
769.157	24301.48
769.492	24276.85
769.828	24082.05
770.164	24029.17
770.5	23823.98
770.836	23824.2
771.171	23650.42
771.507	23811.32
771.842	23514.61
772.178	23513.03
772.513	23546.47
772.849	23351
773.184	23332.69
773.519	23332.01
773.855	23116.88
774.19	23074.17
774.525	23079.82
774.86	22986.49
775.195	22976.32
775.53	22788.98
775.865	22768.86
776.2	22569.55
776.535	22419.72
776.87	22429.21
777.205	22343.11
777.539	22213.17
777.874	22309.22
778.209	22136.34
778.543	22052.5
778.878	21953.97
779.212	21791.72
779.547	21703.58
779.881	21812.51
780.215	21702.68
780.55	21693.64
780.884	21448
781.218	21465.85
781.552	21459.07
781.886	21353.76
782.22	21313.31
782.554	21254.55
782.888	21001.91
783.222	20848.69
783.556	20832.64
783.889	20773.44
784.223	20619.09
784.557	20683.95
784.89	20664.51
785.224	20530.96
785.557	20345.2
785.891	20389.49
786.224	20295.71
786.558	20292.32
786.891	20042.16
787.224	19985.21
787.557	20032.67
787.891	19930.07
788.224	19909.5
788.557	19855.49
788.89	19843.29
789.223	19784.31
789.556	19644.2
789.888	19585.45
790.221	19496.86
790.554	19369.63
790.887	19272.23
791.219	19293.48
791.552	19161.28
791.884	19026.59
792.217	19093.48
792.549	18933.94
792.882	18825.24
793.214	18894.84
793.546	18836.09
793.879	18796.54
794.211	18639.93
794.543	18777.56
794.875	18591.57
795.207	18676.77
795.539	18555.42
795.871	18546.15
796.203	18266.38
796.535	18212.6
796.867	18184.35
797.198	18179.38
797.53	18240.62
797.862	18010.8
798.193	18022.77
798.525	17940.97
798.856	17862.33
799.188	17827.3
799.519	17772.61
799.85	17603.35
800.182	17720.64
800.513	17618.94
800.844	17446.29
801.175	17502.34
801.506	17578.94
801.837	17417.82
802.168	17345.5
802.499	17228.45
802.83	17240.65
803.161	17128.56
803.491	17185.28
803.822	17124.49
804.153	17027.32
804.483	16886.31
804.814	16869.81
805.145	16844.05
805.475	16865.07
805.805	16754.56
806.136	16763.82
806.466	16686.09
806.796	16661.68
807.126	16515.02
807.457	16529.93
807.787	16492.87
808.117	16342.14
808.447	16342.82
808.777	16368.35
809.107	16285.42
809.436	16217.62
809.766	16185.31
810.096	16102.37
810.426	16142.6
810.755	16126.55
811.085	16089.27
811.414	16120.45
811.744	15912.32
812.073	15882.94
812.403	15888.37
812.732	15828.48
813.061	15881.36
813.39	15657.87
813.719	15630.52
814.049	15776.73
814.378	15625.32
814.707	15502.84
815.036	15543.97
815.365	15518.66
815.693	15434.37
816.022	15290.42
816.351	15390.3
816.68	15182.17
817.008	15306.91
817.337	15107.15
817.665	15112.57
817.994	15168.16
818.322	15185.79
818.651	15056.07
818.979	15014.49
819.307	15043.19
819.636	14949.64
819.964	14903.53
820.292	14929.3
820.62	14938.56
820.948	14881.16
821.276	14942.4
821.604	14857.66
821.932	14893.59
822.259	14892.01
822.587	14860.37
822.915	14767.49
823.243	14841.84
823.57	14824.21
823.898	14819.7
824.225	14769.3
824.553	14777.44
824.88	14749.64
825.207	14840.03
825.535	14750.54
825.862	14796.64
826.189	14774.5
826.516	14904.44
826.843	14848.85
827.17	14745.8
827.497	14812.92
827.824	14828.96
828.151	14886.36
828.478	14838.23
828.805	14775.85
829.131	14769.3
829.458	14751.22
829.785	14755.06
830.111	14714.84
830.438	14816.98
830.764	14731.56
831.09	14765.69
831.417	14656.76
831.743	14790.54
832.069	14734.27
832.395	14703.31
832.722	14692.47
833.048	14718.45
833.374	14669.64
833.7	14607.95
834.026	14604.79
834.351	14632.81
834.677	14608.85
835.003	14621.73
835.329	14573.83
835.654	14545.8
835.98	14477.78
836.306	14493.38
836.631	14490.89
836.956	14562.53
837.282	14559.59
837.607	14478.24
837.932	14442.3
838.258	14449.76
838.583	14413.15
838.908	14245.02
839.233	14356.66
839.558	14355.98
839.883	14269.65
840.208	14252.03
840.533	14205.7
840.858	14168.86
841.182	14153.72
841.507	14132.48
841.832	14084.8
842.156	14039.38
842.481	13991.47
842.805	14012.71
843.13	13947.63
843.454	13918.02
843.778	13914.63
844.103	13858.59
844.427	13894.75
844.751	13760.29
845.075	13850.68
845.399	13694.75
845.723	13623.79
846.047	13655.66
846.371	13499.96
846.695	13475.78
847.019	13425.16
847.343	13371.37
847.666	13360.07
847.99	13231.94
848.313	13270.58
848.637	13148.78
848.96	13124.82
849.284	13213.86
849.607	13022.23
849.931	13032.4
850.254	12958.05
850.577	12900.42
850.9	12744.27
851.223	12752.86
851.546	12680.77
851.869	12656.81
852.192	12663.14
852.515	12495.01
852.838	12398.97
853.161	12494.56
853.483	12454.56
853.806	12394.22
854.129	12379.99
854.451	12356.71
854.774	12193.78
855.096	12230.16
855.419	12228.12
855.741	12123.95
856.063	12117.85
856.385	12050.73
856.708	12072.2
857.03	12128.92
857.352	12044.63
857.674	12024.06
857.996	11901.13
858.318	11872.88
858.64	11819.55
858.961	11772.32
859.283	11744.75
859.605	11764.41
859.926	11766.44
860.248	11658.65
860.57	11614.58
860.891	11603.73
861.212	11619.1
861.534	11555.37
861.855	11508.82
862.176	11506.11
862.498	11526.9
862.819	11509.73
863.14	11448.26
863.461	11367.36
863.782	11434.25
864.103	11345.66
864.424	11337.07
864.745	11299.11
865.065	11240.58
865.386	11269.05
865.707	11199.23
866.027	11253.24
866.348	11230.41
866.668	11196.29
866.989	11246
867.309	11063.64
867.63	11135.5
867.95	11061.6
868.27	11034.26
868.59	11073.8
868.91	11017.76
869.23	10990.19
869.55	10953.13
869.87	11055.73
870.19	10977.54
870.51	10986.58
870.83	10982.96
871.15	10931.89
871.469	10909.29
871.789	10952.23
872.109	10818.67
872.428	10853.92
872.748	10880.36
873.067	10829.74
873.386	10810.08
873.706	10805.56
874.025	10826.13
874.344	10733.02
874.663	10746.81
874.982	10703.19
875.301	10680.59
875.62	10683.08
875.939	10681.05
876.258	10623.87
876.577	10656.64
876.896	10611.44
877.214	10620.03
877.533	10585.23
877.852	10504.33
878.17	10598.34
878.489	10563.08
878.807	10542.29
879.125	10467.04
879.444	10400.15
879.762	10482.63
880.08	10468.85
880.398	10429.75
880.716	10396.99
881.034	10368.29
881.352	10405.12
881.67	10326.71
881.988	10387.72
882.306	10246.71
882.624	10264.33
882.941	10183.88
883.259	10179.14
883.577	10142.53
883.894	10169.42
884.212	10135.3
884.529	10118.8
884.846	10087.16
885.164	10087.16
885.481	10031.12
885.798	10037.9
886.115	9987.96
886.432	10025.47
886.75	9932.59
887.067	9973.72
887.383	9933.27
887.7	9886.72
888.017	9851.46
888.334	9866.38
888.651	9888.53
888.967	9797
889.284	9789.09
889.6	9764.46
889.917	9707.97
890.233	9660.28
890.55	9636.78
890.866	9611.7
891.182	9600.4
891.498	9604.24
891.815	9497.35
892.131	9523.34
892.447	9451.25
892.763	9444.47
893.079	9429.78
893.395	9399.5
893.71	9379.39
894.026	9323.57
894.342	9355.43
894.657	9280.18
894.973	9261.65
895.289	9260.52
895.604	9233.4
895.92	9195.21
896.235	9081.99
896.55	9105.72
896.865	9063.91
897.181	8968.1
897.496	9105.72
897.811	9082.9
898.126	8933.97
898.441	8931.49
898.756	8943.69
899.071	8811.94
899.386	8872.51
899.7	8832.06
900.015	8787.31
900.33	8792.96
900.644	8661.66
900.959	8736.24
901.273	8603.14
901.588	8635.68
901.902	8607.88
902.216	8533.76
902.531	8531.27
902.845	8493.53
903.159	8459.18
903.473	8419.64
903.787	8362.69
904.101	8375.12
904.415	8363.37
904.729	8364.27
905.042	8312.52
905.356	8241.56
905.67	8196.59
905.984	8194.78
906.297	8184.62
906.611	8143.26
906.924	8128.57
907.237	8068.23
907.551	8055.13
907.864	8035.24
908.177	8017.16
908.491	7938.29
908.804	7933.55
909.117	7826.21
909.43	7848.13
909.743	7821.46
910.056	7802.03
910.368	7784.85
910.681	7711.86
910.994	7686.32
911.307	7666.66
911.619	7550.06
911.932	7642.71
912.244	7576.72
912.557	7602.71
912.869	7526.1
913.181	7474.8
913.494	7474.8
913.806	7385.09
914.118	7301.47
914.43	7303.06
914.742	7338.54
915.054	7317.52
915.366	7283.4
915.678	7203.62
915.99	7205.66
916.302	7126.56
916.613	7158.43
916.925	7121.59
917.236	7108.71
917.548	7048.83
917.859	7076.62
918.171	6972.9
918.482	6949.62
918.794	6922.73
919.105	6912.11
919.416	6803.41
919.727	6857.42
920.038	6851.32
920.349	6724.54
920.66	6742.17
920.971	6829.62
921.282	6719.57
921.593	6692.45
921.903	6693.58
922.214	6615.84
922.525	6574.26
922.835	6570.65
923.146	6526.13
923.456	6508.05
923.767	6510.31
924.077	6449.52
924.387	6423.76
924.697	6382.63
925.008	6382.63
925.318	6312.12
925.628	6327.04
925.938	6318.45
926.248	6217.66
926.558	6227.15
926.867	6154.84
927.177	6171.56
927.487	6187.15
927.796	6098.12
928.106	6075.52
928.416	6122.97
928.725	6066.48
929.034	6031.45
929.344	6036.88
929.653	6031.68
929.962	5964.11
930.271	5936.09
930.581	5911.68
930.89	5907.16
931.199	5809.99
931.508	5852.02
931.817	5831
932.125	5787.62
932.434	5779.03
932.743	5674.17
933.051	5653.38
933.36	5689.09
933.669	5629.88
933.977	5588.75
934.286	5575.42
934.594	5580.39
934.902	5512.14
935.21	5495.19
935.519	5506.04
935.827	5466.95
936.135	5432.15
936.443	5374.07
936.751	5383.56
937.059	5417.91
937.367	5422.65
937.674	5353.73
937.982	5292.71
938.29	5303.11
938.597	5288.87
938.905	5231.92
939.213	5245.94
939.52	5149.44
939.827	5169.78
940.135	5162.55
940.442	5144.47
940.749	5129.55
941.056	5093.62
941.363	5057.92
941.67	5069.22
941.977	5058.37
942.284	5014.53
942.591	4986.28
942.898	4956.23
943.205	4953.74
943.511	4942.67
943.818	4940.41
944.125	4853.63
944.431	4834.87
944.738	4823.57
945.044	4852.27
945.35	4811.14
945.657	4742.45
945.963	4751.94
946.269	4738.83
946.575	4730.69
946.881	4676.46
947.187	4680.3
947.493	4615.22
947.799	4615.44
948.105	4605.95
948.41	4577.03
948.716	4599.85
949.022	4551.49
949.327	4582.45
949.633	4517.14
949.938	4501.1
950.244	4499.29
950.549	4461.55
950.854	4412.96
951.16	4365.96
951.465	4389.01
951.77	4319.63
952.075	4361.89
952.38	4337.94
952.685	4356.24
952.99	4327.77
953.294	4282.12
953.599	4242.8
953.904	4270.59
954.209	4238.5
954.513	4198.05
954.818	4191.05
955.122	4199.18
955.426	4163.03
955.731	4139.07
956.035	4147.43
956.339	4105.4
956.643	4102.46
956.948	4038.06
957.252	4075.12
957.556	4037.15
957.86	4025.85
958.163	4058.62
958.467	3951.51
958.771	3958.06
959.075	3988.79
959.378	3906.54
959.682	3904.5
959.985	3906.76
960.289	3912.86
960.592	3884.16
960.896	3859.31
961.199	3892.52
961.502	3821.57
961.805	3807.56
962.108	3793.32
962.411	3753.77
962.714	3731.4
963.017	3728.69
963.32	3725.3
963.623	3690.04
963.926	3706.77
964.228	3684.39
964.531	3654.34
964.833	3633.77
965.136	3601.68
965.438	3604.62
965.741	3568.24
966.043	3594.45
966.345	3536.15
966.648	3523.95
966.95	3557.17
967.252	3512.87
967.554	3488.02
967.856	3475.81
968.158	3443.5
968.46	3443.95
968.761	3414.12
969.063	3429.71
969.365	3383.84
969.666	3401.69
969.968	3349.71
970.269	3345.42
970.571	3366.21
970.872	3347.68
971.174	3266.55
971.475	3297.06
971.776	3304.97
972.077	3270.17
972.378	3304.07
972.679	3264.74
972.98	3217.06
973.281	3221.36
973.582	3197.63
973.883	3179.1
974.183	3184.07
974.484	3179.78
974.785	3115.37
975.085	3158.76
975.386	3143.84
975.686	3092.32
975.986	3122.83
976.287	3062.49
976.587	3000.8
976.887	3064.07
977.187	3055.71
977.487	3051.19
977.787	2979.78
978.087	3013.9
978.387	2969.39
978.687	2983.17
978.987	2987.92
979.286	2926.67
979.586	2921.93
979.885	2886.45
980.185	2885.32
980.484	2850.29
980.784	2872.66
981.083	2900.23
981.382	2883.74
981.682	2844.87
981.981	2856.85
982.28	2819.56
982.579	2785.44
982.878	2806
983.177	2808.94
983.475	2771.2
983.774	2747.7
984.073	2755.15
984.372	2729.84
984.67	2735.27
984.969	2698.43
985.267	2733.01
985.566	2712.22
985.864	2667.02
986.162	2632.22
986.461	2634.93
986.759	2652.56
987.057	2646.23
987.355	2641.71
987.653	2641.03
987.951	2559.68
988.249	2599.23
988.547	2576.85
988.844	2561.03
989.142	2573.46
989.44	2547.25
989.737	2541.83
990.035	2510.64
990.332	2467.03
990.63	2490.08
990.927	2451.43
991.224	2471.77
991.521	2452.34
991.819	2483.3
992.116	2441.72
992.413	2387.71
992.71	2384.77
993.006	2392
993.303	2383.86
993.6	2357.2
993.897	2413.24
994.193	2358.78
994.49	2356.97
994.787	2317.88
995.083	2344.09
995.379	2283.08
995.676	2284.43
995.972	2267.03
996.268	2283.75
996.565	2254.15
996.861	2220.93
997.157	2248.95
997.453	2237.88
997.749	2235.85
998.044	2193.81
998.34	2215.51
998.636	2172.12
998.932	2138.45
999.227	2168.28
999.523	2215.73
999.818	2144.55
1000.114	2142.51
1000.409	2160.14
1000.704	2131.89
1001	2144.1
1001.295	2101.39
1001.59	2073.59
1001.885	2042.86
1002.18	2032.69
1002.475	2040.6
1002.77	2030.2
1003.065	1988.85
1003.359	2002.4
1003.654	1976.19
1003.949	1990.2
1004.243	1981.61
1004.538	1942.75
1004.832	1983.2
1005.127	1966.25
1005.421	1905.46
1005.715	1928.51
1006.009	1927.6
1006.304	1935.74
1006.598	1907.04
1006.892	1888.06
1007.186	1851
1007.48	1882.41
1007.773	1831.11
1008.067	1851
1008.361	1821.62
1008.655	1838.34
1008.948	1795.4
1009.242	1805.8
1009.535	1832.01
1009.829	1808.29
1010.122	1758.57
1010.415	1766.48
1010.708	1789.53
1011.001	1765.58
1011.295	1749.53
1011.588	1732.58
1011.881	1726.48
1012.173	1706.82
1012.466	1691.68
1012.759	1661.17
1013.052	1665.46
1013.344	1673.15
1013.637	1638.35
1013.93	1654.62
1014.222	1657.1
1014.514	1630.89
1014.807	1637.89
1015.099	1590.21
1015.391	1600.16
1015.683	1612.81
1015.976	1568.97
1016.268	1599.48
1016.56	1548.41
1016.851	1555.41
1017.143	1524
1017.435	1519.93
1017.727	1510.89
1018.018	1499.37
1018.31	1483.32
1018.602	1467.96
1018.893	1458.46
1019.185	1474.74
1019.476	1462.98
1019.767	1469.99
1020.058	1491.01
1020.35	1438.35
1020.641	1414.62
1020.932	1415.98
1021.223	1388.64
1021.514	1373.27
1021.804	1367.39
1022.095	1360.39
1022.386	1375.98
1022.677	1334.63
1022.967	1354.51
1023.258	1335.3
1023.548	1319.49
1023.839	1323.1
1024.129	1305.7
1024.419	1321.97
1024.709	1334.4
1025	1324.46
1025.29	1276.77
1025.58	1265.7
1025.87	1267.51
1026.16	1257.34
1026.449	1260.73
1026.739	1251.46
1027.029	1242.88
1027.319	1220.5
1027.608	1225.93
1027.898	1227.51
1028.187	1194.52
1028.477	1213.05
1028.766	1181.64
1029.055	1160.17
1029.344	1155.42
1029.634	1159.04
1029.923	1127.63
1030.212	1155.65
1030.501	1185.03
1030.79	1130.79
1031.078	1159.04
1031.367	1123.56
1031.656	1113.39
1031.945	1090.79
1032.233	1096.67
1032.522	1065.93
1032.81	1084.01
1033.099	1083.33
1033.387	1090.34
1033.675	1058.25
1033.963	1052.15
1034.251	1021.64
1034.54	1057.12
1034.828	1041.3
1035.116	1025.03
1035.403	1008.08
1035.691	998.82
1035.979	1013.96
1036.267	1000.4
1036.554	1008.31
1036.842	1007.85
1037.129	975.54
1037.417	983.45
1037.704	975.09
1037.992	978.48
1038.279	963.34
1038.566	965.37
1038.853	965.37
1039.14	965.37
