Data from hue_10_FLMS001491_41.txt Node
Date: Mon Feb 06 15:31:57 GMT 2017
User: dcchb
Spectrometer: FLMS00149
Trigger mode: 0
Integration Time (sec): 2.000000E-2
Scans to average: 10
Electric dark correction enabled: true
Nonlinearity correction enabled: false
Boxcar width: 0
XAxis mode: Wavelengths
Number of Pixels in Spectrum: 2048
>>>>>Begin Spectral Data<<<<<
341.393	12.17
341.776	12.17
342.16	12.17
342.543	-65.56
342.927	-70.31
343.31	-83.87
343.693	-80.25
344.077	-71.66
344.46	-71.89
344.843	-43.42
345.226	-36.19
345.61	-33.25
345.993	-25.34
346.376	4.72
346.759	11.5
347.142	13.53
347.525	59.63
347.908	64.83
348.291	68.44
348.674	96.92
349.057	126.3
349.44	131.72
349.823	132.85
350.206	172.85
350.588	203.36
350.971	209.91
351.354	239.29
351.737	218.95
352.119	240.42
352.502	255.56
352.884	254.43
353.267	275.22
353.65	296.01
354.032	314.99
354.414	299.85
354.797	334.88
355.179	329.68
355.562	330.58
355.944	310.92
356.326	343.24
356.709	355.67
357.091	316.35
357.473	347.31
357.855	341.88
358.238	340.3
358.62	345.5
359.002	335.78
359.384	330.36
359.766	332.39
360.148	335.33
360.53	337.14
360.912	330.58
361.294	329.91
361.676	335.1
362.057	327.19
362.439	348.66
362.821	335.33
363.203	338.27
363.584	318.16
363.966	331.04
364.348	319.29
364.729	334.2
365.111	332.62
365.493	334.2
365.874	317.93
366.256	324.93
366.637	311.6
367.019	300.3
367.4	312.73
367.781	330.58
368.163	294.88
368.544	305.27
368.925	309.34
369.306	318.38
369.688	316.12
370.069	305.95
370.45	324.93
370.831	302.79
371.212	314.09
371.593	319.96
371.974	324.03
372.355	319.96
372.736	322.45
373.117	305.5
373.498	321.32
373.879	312.05
374.26	312.05
374.641	311.15
375.021	319.74
375.402	318.83
375.783	308.89
376.163	331.04
376.544	325.61
376.925	326.29
377.305	322.9
377.686	299.4
378.066	338.72
378.447	346.63
378.827	326.74
379.208	321.32
379.588	330.13
379.968	331.04
380.349	334.65
380.729	340.98
381.109	346.63
381.489	348.21
381.87	328.32
382.25	314.77
382.63	323.58
383.01	318.61
383.39	337.82
383.77	340.53
384.15	336.46
384.53	333.3
384.91	344.6
385.29	362.9
385.67	341.88
386.049	340.08
386.429	332.62
386.809	358.83
387.189	354.76
387.568	352.96
387.948	341.21
388.328	350.7
388.707	341.21
389.087	322
389.466	352.05
389.846	340.08
390.225	362.67
390.605	346.18
390.984	353.41
391.363	374.65
391.743	361.32
392.122	361.09
392.501	364.26
392.881	371.26
393.26	357.25
393.639	358.83
394.018	384.82
394.397	382.11
394.776	388.89
395.155	358.38
395.534	364.71
395.913	357.25
396.292	360.41
396.671	368.55
397.05	358.15
397.429	364.71
397.808	375.33
398.186	377.81
398.565	357.7
398.944	381.66
399.323	371.04
399.701	389.57
400.08	385.05
400.458	378.04
400.837	381.66
401.215	363.13
401.594	384.14
401.972	393.86
402.351	393.86
402.729	384.82
403.107	384.14
403.486	396.35
403.864	388.21
404.242	397.93
404.62	418.04
404.999	406.29
405.377	383.01
405.755	419.4
406.133	404.25
406.511	412.62
406.889	400.87
407.267	407.87
407.645	392.05
408.023	425.27
408.401	423.01
408.779	421.2
409.156	424.37
409.534	446.51
409.912	418.94
410.29	421.43
410.667	412.39
411.045	409.9
411.422	434.31
411.8	433.41
412.178	454.2
412.555	439.28
412.933	458.49
413.31	467.08
413.687	453.97
414.065	422.33
414.442	472.28
414.819	460.98
415.197	460.3
415.574	445.84
415.951	455.55
416.328	470.69
416.705	455.1
417.082	468.66
417.46	466.17
417.837	488.77
418.214	479.73
418.591	475.44
418.967	490.81
419.344	491.03
419.721	475.89
420.098	475.89
420.475	501.88
420.852	489.68
421.228	493.07
421.605	506.17
421.982	529.22
422.358	514.99
422.735	492.61
423.111	494.42
423.488	514.99
423.864	503.01
424.241	528.55
424.617	526.29
424.994	528.32
425.37	527.64
425.746	523.57
426.123	525.61
426.499	536.91
426.875	535.1
427.251	534.65
427.627	547.53
428.003	556.57
428.379	552.95
428.756	564.25
429.132	556.34
429.507	550.24
429.883	563.57
430.259	573.97
430.635	575.32
431.011	584.14
431.387	584.14
431.763	578.71
432.138	592.27
432.514	596.11
432.89	602.67
433.265	612.16
433.641	620.29
434.016	600.41
434.392	601.31
434.767	625.04
435.143	618.26
435.518	621.65
435.894	630.46
436.269	642.21
436.644	642.67
437.02	655.55
437.395	635.44
437.77	645.6
438.145	650.35
438.52	675.43
438.895	668.43
439.271	672.04
439.646	677.92
440.021	659.39
440.395	692.16
440.77	690.58
441.145	693.51
441.52	709.33
441.895	708.2
442.27	711.14
442.645	702.1
443.019	699.61
443.394	700.52
443.769	706.17
444.143	701.65
444.518	703.91
444.892	751.14
445.267	727.64
445.641	726.51
446.016	728.99
446.39	734.87
446.764	723.12
447.139	730.35
447.513	760.4
447.887	760.63
448.262	740.07
448.636	737.13
449.01	733.29
449.384	764.25
449.758	763.57
450.132	732.38
450.506	765.83
450.88	775.32
451.254	768.09
451.628	781.42
452.002	797.92
452.376	785.04
452.75	795.43
453.123	795.43
453.497	791.82
453.871	812.38
454.244	821.87
454.618	835.88
454.992	861.87
455.365	852.6
455.739	851.02
456.112	880.17
456.486	867.75
456.859	863.23
457.232	870.91
457.606	876.33
457.979	889.44
458.352	926.28
458.725	917.01
459.099	902.77
459.472	910.91
459.845	921.08
460.218	924.02
460.591	964.01
460.964	964.69
461.337	989.32
461.71	970.57
462.083	954.97
462.456	1003.79
462.829	964.47
463.201	996.56
463.574	1045.14
463.947	1003.79
464.32	1063.45
464.692	1043.11
465.065	1059.6
465.438	1078.81
465.81	1100.73
466.183	1114.74
466.555	1123.56
466.928	1146.83
467.3	1124.46
467.672	1129.21
468.045	1168.98
468.417	1136.89
468.789	1159.26
469.161	1185.03
469.534	1184.12
469.906	1204.01
470.278	1246.49
470.65	1245.81
471.022	1281.29
471.394	1301.86
471.766	1298.47
472.138	1326.26
472.51	1357
472.882	1356.77
473.253	1349.54
473.625	1374.62
473.997	1429.99
474.369	1418.47
474.74	1436.09
475.112	1481.74
475.484	1504.56
475.855	1519.93
476.227	1505.69
476.598	1574.17
476.97	1600.38
477.341	1608.07
477.713	1677.22
478.084	1653.49
478.455	1700.49
478.827	1734.16
479.198	1780.49
479.569	1783.43
479.94	1837.21
480.311	1881.96
480.682	1887.15
481.053	1933.71
481.424	1971.9
481.795	1998.34
482.166	2003.31
482.537	2043.76
482.908	2115.85
483.279	2108.39
483.65	2188.39
484.021	2239.91
484.391	2248.73
484.762	2304.32
485.133	2303.87
485.503	2384.99
485.874	2421.38
486.244	2413.47
486.615	2479
486.985	2509.51
487.356	2591.32
487.726	2619.11
488.097	2622.95
488.467	2632.67
488.837	2752.44
489.207	2845.55
489.578	2809.16
489.948	2860.69
490.318	2928.03
490.688	2882.38
491.058	2962.38
491.428	3025.43
491.798	3017.52
492.168	3059.78
492.538	3082.38
492.908	3155.14
493.278	3193.56
493.648	3245.99
494.017	3288.7
494.387	3294.8
494.757	3367.79
495.126	3369.6
495.496	3401.01
495.866	3416.61
496.235	3419.77
496.605	3481.46
496.974	3505.64
497.344	3574.12
497.713	3614.34
498.082	3614.79
498.452	3665.41
498.821	3678.29
499.19	3683.72
499.559	3695.69
499.928	3723.49
500.298	3733.21
500.667	3803.49
501.036	3820.44
501.405	3847.33
501.774	3822.47
502.143	3882.36
502.512	3899.3
502.88	3917.16
503.249	3888.91
503.618	3932.3
503.987	3973.43
504.356	3999.64
504.724	3998.28
505.093	3996.02
505.462	4041.9
505.83	4105.85
506.199	4092.07
506.567	4173.65
506.936	4165.74
507.304	4195.12
507.672	4236.47
508.041	4257.71
508.409	4261.1
508.777	4276.92
509.145	4315.34
509.514	4307.66
509.882	4285.73
510.25	4333.19
510.618	4370.25
510.986	4352.4
511.354	4429.23
511.722	4406.86
512.09	4442.79
512.458	4455.67
512.826	4502.23
513.193	4488.22
513.561	4473.98
513.929	4493.64
514.297	4561.21
514.664	4561.21
515.032	4594.2
515.4	4588.55
515.767	4632.84
516.135	4632.17
516.502	4618.38
516.869	4685.5
517.237	4684.59
517.604	4664.03
517.972	4693.63
518.339	4702.22
518.706	4749.23
519.073	4747.87
519.44	4765.04
519.808	4845.72
520.175	4810.47
520.542	4842.78
520.909	4875.55
521.276	4804.37
521.643	4878.49
522.009	4922.1
522.376	4930.46
522.743	4924.81
523.11	4953.06
523.477	5015.89
523.843	5036.68
524.21	5054.08
524.577	5058.14
524.943	5109.89
525.31	5049.1
525.676	5181.08
526.043	5137.69
526.409	5199.16
526.776	5190.8
527.142	5233.51
527.508	5277.8
527.874	5301.98
528.241	5303.34
528.607	5328.42
528.973	5383.56
529.339	5369.32
529.705	5452.71
530.071	5494.74
530.437	5497.91
530.803	5507.17
531.169	5544.68
531.535	5590.56
531.901	5600.73
532.267	5544.23
532.632	5621.97
532.998	5666.49
533.364	5697.22
533.73	5657.9
534.095	5715.53
534.461	5732.93
534.826	5745.81
535.192	5764.11
535.557	5835.52
535.923	5784.45
536.288	5858.35
536.653	5873.49
537.019	5889.99
537.384	5869.87
537.749	5939.48
538.114	5978.8
538.479	5913.94
538.845	5985.35
539.21	5960.94
539.575	6014.95
539.94	6036.2
540.305	6048.85
540.67	6081.17
541.034	6105.12
541.399	6158
541.764	6148.96
542.129	6222.63
542.494	6211.11
542.858	6258.34
543.223	6279.58
543.587	6297.89
543.952	6299.92
544.316	6332.46
544.681	6367.04
545.045	6364.1
545.41	6430.09
545.774	6410.42
546.138	6444.55
546.503	6425.11
546.867	6463.08
547.231	6520.03
547.595	6582.4
547.959	6574.26
548.324	6652.45
548.688	6614.04
549.052	6697.2
549.416	6713.47
549.779	6679.8
550.143	6712.79
550.507	6756.4
550.871	6804.54
551.235	6735.84
551.599	6838.89
551.962	6831.66
552.326	6856.06
552.689	6861.49
553.053	6828.04
553.417	6892.22
553.78	6936.96
554.143	6970.41
554.507	7014.7
554.87	6984.65
555.234	7077.07
555.597	7050.86
555.96	7071.2
556.323	7082.95
556.686	7124.08
557.05	7161.14
557.413	7109.16
557.776	7186.68
558.139	7221.93
558.502	7199.1
558.865	7238.43
559.228	7286.79
559.59	7316.84
559.953	7288.14
560.316	7370.85
560.679	7316.16
561.041	7404.3
561.404	7429.61
561.767	7481.13
562.129	7450.4
562.492	7529.94
562.854	7555.48
563.217	7521.36
563.579	7494.69
563.941	7619.66
564.304	7622.6
564.666	7704.85
565.028	7627.12
565.39	7692.2
565.753	7738.07
566.115	7805.42
566.477	7774.46
566.839	7818.07
567.201	7870.95
567.563	7851.06
567.925	7953.43
568.287	7931.29
568.648	7912.08
569.01	7979.2
569.372	8053.77
569.734	8021.23
570.095	8119.76
570.457	8133.77
570.819	8190.94
571.18	8208.34
571.542	8247.66
571.903	8290.6
572.265	8348.9
572.626	8390.03
572.987	8354.1
573.349	8374.21
573.71	8511.39
574.071	8516.36
574.432	8587.99
574.794	8707.31
575.155	8699.63
575.516	8730.14
575.877	8815.56
576.238	8793.86
576.599	8981.66
576.96	9043.12
577.32	9073.41
577.681	9112.5
578.042	9200.86
578.403	9334.19
578.763	9408.99
579.124	9523.11
579.485	9655.99
579.845	9717.23
580.206	9836.78
580.566	9952.03
580.927	10079.71
581.287	10143.21
581.648	10310.21
582.008	10412.13
582.368	10530.09
582.728	10750.42
583.089	10935.28
583.449	11129.17
583.809	11224.08
584.169	11386.34
584.529	11535.04
584.889	11881.69
585.249	11931.41
585.609	12059.32
585.969	12418.85
586.329	12635.35
586.688	12840.09
587.048	13072.85
587.408	13327.3
587.768	13523.91
588.127	13840.74
588.487	13983.11
588.846	14334.28
589.206	14520.95
589.565	14742.63
589.925	15145.34
590.284	15378.78
590.643	15692.89
591.003	15992.32
591.362	16334.91
591.721	16609.48
592.08	16863.94
592.44	17211.95
592.799	17496.23
593.158	17756.12
593.517	18089.67
593.876	18488.98
594.235	18738.91
594.593	19138.45
594.952	19422.51
595.311	19658.44
595.67	20049.84
596.029	20622.03
596.387	20904.51
596.746	21225.85
597.104	21438.28
597.463	21756.69
597.822	22283.23
598.18	22401.87
598.538	22804.34
598.897	23206.37
599.255	23339.02
599.613	23999.57
599.972	24202.73
600.33	24569.27
600.688	24937.85
601.046	25210.83
601.404	25585.51
601.762	25845.62
602.12	26296.23
602.478	26623.45
602.836	26924.91
603.194	27128.3
603.552	27453.26
603.91	27694.84
604.268	28061.38
604.625	28345.22
604.983	28670.63
605.341	28988.14
605.698	29314.91
606.056	29674.45
606.413	29847.55
606.771	30299.29
607.128	30463.35
607.485	30683.91
607.843	30927.97
608.2	31426.26
608.557	31743.09
608.914	31749.19
609.272	32357.99
609.629	32556.4
609.986	32858.77
610.343	33011.53
610.7	33507.57
611.057	33594.34
611.414	33758.41
611.771	34114.33
612.127	34332.18
612.484	34448.78
612.841	34691.71
613.198	34863.69
613.554	35109.56
613.911	35592.48
614.267	35585.02
614.624	35785.47
614.98	35995.86
615.337	36315.4
615.693	36449.86
616.05	36672.91
616.406	36869.96
616.762	36942.96
617.118	37114.93
617.475	37202.16
617.831	37502.04
618.187	37685.53
618.543	37835.81
618.899	38322.13
619.255	38333.43
619.611	38387.21
619.967	38649.35
620.323	38806.18
620.678	38766.86
621.034	38783.36
621.39	38951.04
621.746	39097.02
622.101	39672.83
622.457	39438.48
622.812	39504.47
623.168	39813.39
623.523	39818.81
623.879	40022.2
624.234	39762.77
624.589	40317.33
624.945	40231.46
625.3	40395.97
625.655	40370.21
626.01	40599.13
626.365	40756.64
626.72	40706.25
627.075	40685
627.43	40759.35
627.785	40906.24
628.14	41012.9
628.495	41043.19
628.85	40966.58
629.205	41017.2
629.559	41378.77
629.914	41184.2
630.269	41172.22
630.623	41370.64
630.978	41254.25
631.332	41460.58
631.687	41583.06
632.041	41463.51
632.396	41601.82
632.75	41420.58
633.104	41672.32
633.459	41391.2
633.813	41507.13
634.167	41481.14
634.521	41550.97
634.875	41561.59
635.229	41674.58
635.583	41532.89
635.937	41503.06
636.291	41430.07
636.645	41527.92
636.999	41461.48
637.352	41638.65
637.706	41348.04
638.06	41711.64
638.413	41577.41
638.767	41571.53
639.121	41600.46
639.474	41471.65
639.828	41438.2
640.181	41569.05
640.534	41662.15
640.888	41383.97
641.241	41373.12
641.594	41351.2
641.947	41637.07
642.301	41446.11
642.654	41552.78
643.007	41553.91
643.36	41429.62
643.713	41427.58
644.066	41587.35
644.419	41295.84
644.771	41077.08
645.124	40754.15
645.477	40752.57
645.83	40570.2
646.182	40242.98
646.535	40357.33
646.888	40339.48
647.24	40111.69
647.593	40244.11
647.945	40295.86
648.298	40081.63
648.65	40035.76
649.002	40197.78
649.355	40161.85
649.707	40119.82
650.059	40299.03
650.411	40784.66
650.763	40741.27
651.115	41173.58
651.467	40982.17
651.819	41005.22
652.171	40902.17
652.523	41033.92
652.875	41019.91
653.227	40879.12
653.578	41044.32
653.93	40868.28
654.282	40936.75
654.633	40828.28
654.985	40809.75
655.337	40845.9
655.688	40882.96
656.039	41021.27
656.391	40482.3
656.742	40689.75
657.094	40742.86
657.445	40919.35
657.796	40691.11
658.147	40596.19
658.498	40715.06
658.849	40707.38
659.2	40774.27
659.551	40616.98
659.902	40764.55
660.253	40733.36
660.604	40692.69
660.955	40433.94
661.306	40692.46
661.656	40672.35
662.007	40571.11
662.358	40654.95
662.708	40726.58
663.059	40658.11
663.409	40353.94
663.76	40753.48
664.11	40486.14
664.461	40657.43
664.811	40744.44
665.161	40612.46
665.511	40621.5
665.862	40580.6
666.212	40606.14
666.562	40659.92
666.912	40621.5
667.262	40545.12
667.612	40689.52
667.962	40541.28
668.312	40469.42
668.662	40597.32
669.011	40453.15
669.361	40386.93
669.711	40441.39
670.06	40462.41
670.41	40288.4
670.76	40314.39
671.109	40522.97
671.459	40510.09
671.808	40375.86
672.157	40363.66
672.507	40262.64
672.856	40147.62
673.205	40334.73
673.554	40406.14
673.904	40215.64
674.253	40356.65
674.602	40185.13
674.951	39765.03
675.3	39611.59
675.649	40184.68
675.998	40203.21
676.346	40184.45
676.695	40250.44
677.044	39873.27
677.393	40122.08
677.741	40084.34
678.09	40079.6
678.438	39906.49
678.787	40014.51
679.135	39963.67
679.484	39690.45
679.832	39852.48
680.181	39635.54
680.529	39882.09
680.877	39719.38
681.225	39753.95
681.573	39968.64
681.922	39560.97
682.27	39488.88
682.618	39406.17
682.966	39511.7
683.314	39464.02
683.661	39233.29
684.009	39274.87
684.357	39235.55
684.705	39214.53
685.053	39179.73
685.4	39125.27
685.748	38911.94
686.095	38869.68
686.443	38698.16
686.79	38623.59
687.138	38871.04
687.485	38722.12
687.832	38581.78
688.18	38480.09
688.527	38363.71
688.874	38427.21
689.221	38359.19
689.568	38274.67
689.915	38111.06
690.262	38149.48
690.609	38095.92
690.956	38007.33
691.303	37892.76
691.65	37727.12
691.997	37851.63
692.344	37450.29
692.69	37508.59
693.037	37488.93
693.383	37080.13
693.73	37408.03
694.077	37170.29
694.423	37066.34
694.769	36938.89
695.116	36919.9
695.462	36920.13
695.808	36608.95
696.155	36934.37
696.501	36451.22
696.847	36557.2
697.193	36258.68
697.539	36359.69
697.885	36129.87
698.231	36157.21
698.577	36058.68
698.923	36026.82
699.269	35981.62
699.614	35717.45
699.96	35782.31
700.306	35640.62
700.651	35427.29
700.997	35330.34
701.342	35417.35
701.688	35377.8
702.033	35152.04
702.379	35151.36
702.724	34910.92
703.069	35104.13
703.415	34641.55
703.76	34769.45
704.105	34778.27
704.45	34591.6
704.795	34388.45
705.14	34238.17
705.485	34380.99
705.83	34188.45
706.175	34179.19
706.52	34086.53
706.865	34007.21
707.209	33837.05
707.554	33828.01
707.899	33941.23
708.243	33780.1
708.588	33660.78
708.932	33512.54
709.277	33421.47
709.621	33440
709.966	33183.28
710.31	33299.66
710.654	33191.19
710.998	33190.29
711.342	33126.11
711.687	32941.7
712.031	32855.15
712.375	32820.13
712.719	32769.05
713.063	32667.81
713.407	32896.28
713.75	32702.39
714.094	32650.41
714.438	32451.32
714.782	32544.88
715.125	32347.82
715.469	32432.34
715.812	32135.4
716.156	32013.37
716.499	32099.92
716.843	32160.03
717.186	31909.19
717.53	32007.72
717.873	31972.01
718.216	32011.79
718.559	31809.76
718.902	31622.87
719.246	31687.05
719.589	31637.56
719.932	31412.25
720.275	31466.04
720.617	31513.72
720.96	31478.01
721.303	31334.29
721.646	31345.14
721.989	31172.94
722.331	31263.33
722.674	31242.99
723.016	31378.81
723.359	31085.48
723.701	31101.75
724.044	30776.11
724.386	30805.49
724.729	30836.68
725.071	30749.67
725.413	30749.67
725.755	30581.99
726.097	30531.82
726.439	30499.06
726.782	30468.78
727.124	30598.72
727.465	30328.44
727.807	30371.38
728.149	30436.46
728.491	30245.05
728.833	30231.95
729.175	30104.72
729.516	30103.36
729.858	30104.72
730.199	30087.54
730.541	30057.94
730.882	29990.6
731.224	30143.36
731.565	29873.54
731.906	29870.37
732.248	29809.36
732.589	29676.48
732.93	29538.63
733.271	29671.51
733.612	29621.57
733.953	29761.9
734.294	29494.34
734.635	29429.48
734.976	29573.43
735.317	29500.66
735.658	29354
735.999	29316.26
736.339	29329.37
736.68	29413.21
737.021	29313.55
737.361	29152.2
737.702	29270.39
738.042	29188.81
738.383	29084.4
738.723	28970.96
739.063	29013.22
739.404	28989.72
739.744	28841.02
740.084	28770.97
740.424	28836.95
740.764	28674.25
741.104	28828.14
741.444	28718.54
741.784	28637.18
742.124	28653.46
742.464	28573.01
742.804	28574.36
743.143	28513.8
743.483	28435.61
743.823	28374.59
744.162	28331.66
744.502	28286.46
744.841	28469.51
745.181	28461.82
745.52	28182.96
745.86	28282.39
746.199	28104.54
746.538	28217.08
746.877	28165.11
747.216	28197.65
747.556	28095.28
747.895	28017.54
748.234	28067.71
748.573	27980.7
748.911	28010.31
749.25	27993.13
749.589	27784.55
749.928	27693.93
750.267	27794.27
750.605	27696.19
750.944	27706.59
751.283	27593.14
751.621	27647.83
751.96	27367.61
752.298	27432.7
752.636	27421.4
752.975	27381.17
753.313	27232.48
753.651	27380.04
753.989	27232.7
754.327	27208.75
754.666	27039.94
755.004	27088.53
755.342	27007.17
755.679	27012.14
756.017	26759.49
756.355	26889.43
756.693	26693.73
757.031	26886.72
757.368	26632.72
757.706	26661.64
758.044	26581.42
758.381	26619.16
758.719	26503
759.056	26413.97
759.394	26418.03
759.731	26195.67
760.068	26206.06
760.405	26009.91
760.743	26070.02
761.08	26109.57
761.417	25853.76
761.754	25835.22
762.091	25879.52
762.428	25697.15
762.765	25551.62
763.102	25661.22
763.438	25520.88
763.775	25414.9
764.112	25410.83
764.449	25446.99
764.785	25333.77
765.122	25194.56
765.458	25087.22
765.795	24936.94
766.131	24943.27
766.467	24934.01
766.804	24783.27
767.14	24596.61
767.476	24722.71
767.812	24549.16
768.148	24678.87
768.485	24559.33
768.821	24226.23
769.157	24335.6
769.492	24216.96
769.828	24240.69
770.164	24002.5
770.5	23924.54
770.836	23942.17
771.171	23735.39
771.507	23840.93
771.842	23585.34
772.178	23569.97
772.513	23447.04
772.849	23453.14
773.184	23292.69
773.519	23225.35
773.855	23181.06
774.19	23095.18
774.525	23068.97
774.86	23151.91
775.195	23050.44
775.53	22850.67
775.865	22729.32
776.2	22539.04
776.535	22462.66
776.87	22481.19
777.205	22383.34
777.539	22296.11
777.874	22289.78
778.209	22163.46
778.543	22131.59
778.878	21887.08
779.212	21889.57
779.547	21858.15
779.881	21803.69
780.215	21643.24
780.55	21636.01
780.884	21454.77
781.218	21522.8
781.552	21428.79
781.886	21452.29
782.22	21268.57
782.554	21235.8
782.888	20989.48
783.222	21005.3
783.556	20892.08
783.889	20775.02
784.223	20625.19
784.557	20686.89
784.89	20731.63
785.224	20540.9
785.557	20498.42
785.891	20343.17
786.224	20311.98
786.558	20282.15
786.891	20157.41
787.224	19962.84
787.557	19903.4
787.891	19972.78
788.224	19898.88
788.557	19838.55
788.89	19843.97
789.223	19766.68
789.556	19595.39
789.888	19554.49
790.221	19629.96
790.554	19342.29
790.887	19405.56
791.219	19202.63
791.552	19245.34
791.884	19100.26
792.217	19180.26
792.549	19033.14
792.882	18836.76
793.214	18841.06
793.546	18856.88
793.879	18717.22
794.211	18580.95
794.543	18719.48
794.875	18491.91
795.207	18587.96
795.539	18516.55
795.871	18607.84
796.203	18289.43
796.535	18270.68
796.867	18204.92
797.198	18085.37
797.53	18029.33
797.862	18033.62
798.193	17932.61
798.525	17924.02
798.856	17920.4
799.188	17745.49
799.519	17660.07
799.85	17554.31
800.182	17630.47
800.513	17633.41
800.844	17437.48
801.175	17495.56
801.506	17526.74
801.837	17375.11
802.168	17360.87
802.499	17231.61
802.83	17155.45
803.161	17193.64
803.491	17117.71
803.822	17057.38
804.153	16956.36
804.483	16842.01
804.814	16898.28
805.145	16887.89
805.475	16773.09
805.805	16755.92
806.136	16735.35
806.466	16711.17
806.796	16570.16
807.126	16463.49
807.457	16357.96
807.787	16459.43
808.117	16366.1
808.447	16354.8
808.777	16402.03
809.107	16331.07
809.436	16257.4
809.766	16200.9
810.096	16044.97
810.426	16170.62
810.755	16113.67
811.085	16122.71
811.414	15964.07
811.744	15933.79
812.073	15849.27
812.403	15850.4
812.732	15713.46
813.061	15731.76
813.39	15624.42
813.719	15651.76
814.049	15680.69
814.378	15598.21
814.707	15580.13
815.036	15551.88
815.365	15424.2
815.693	15370.19
816.022	15393.24
816.351	15195.05
816.68	15159.8
817.008	15219.23
817.337	15048.39
817.665	15045.68
817.994	15149.63
818.322	15033.93
818.651	14942.18
818.979	14918.22
819.307	14983.31
819.636	15016.53
819.964	14835.29
820.292	14962.52
820.62	14939.92
820.948	14793.26
821.276	14872.12
821.604	14768.17
821.932	14924.78
822.259	14838.68
822.587	14774.05
822.915	14807.72
823.243	14807.49
823.57	14800.26
823.898	14827.15
824.225	14749.64
824.553	14744.89
824.88	14810.43
825.207	14797.1
825.535	14820.6
825.862	14794.39
826.189	14693.6
826.516	14821.05
826.843	14820.82
827.17	14742.63
827.497	14780.37
827.824	14801.84
828.151	14754.61
828.478	14742.86
828.805	14788.96
829.131	14750.54
829.458	14695.86
829.785	14675.07
830.111	14625.8
830.438	14753.26
830.764	14672.35
831.09	14769.07
831.417	14660.6
831.743	14661.28
832.069	14694.05
832.395	14542.19
832.722	14663.09
833.048	14542.87
833.374	14645.24
833.7	14529.53
834.026	14625.12
834.351	14555.97
834.677	14547.61
835.003	14609.53
835.329	14569.53
835.654	14497.9
835.98	14508.06
836.306	14487.95
836.631	14419.25
836.956	14440.5
837.282	14460.38
837.607	14364.57
837.932	14307.62
838.258	14261.97
838.583	14256.09
838.908	14179.49
839.233	14262.42
839.558	14202.31
839.883	14159.37
840.208	14170.45
840.533	14183.78
840.858	14062.88
841.182	14167.06
841.507	14107.17
841.832	13968.19
842.156	13994.18
842.481	13990.34
842.805	13939.72
843.13	13946.72
843.454	13831.02
843.778	13845.26
844.103	13798.03
844.427	13802.77
844.751	13859.72
845.075	13736.33
845.399	13658.6
845.723	13645.94
846.047	13575.66
846.371	13528.88
846.695	13526.17
847.019	13433.74
847.343	13315.33
847.666	13283.01
847.99	13218.61
848.313	13251.15
848.637	13084.83
848.96	13059.06
849.284	13111.94
849.607	12939.29
849.931	12980.2
850.254	12847.77
850.577	12842.57
850.9	12749.24
851.223	12671.05
851.546	12590.38
851.869	12618.62
852.192	12551.05
852.515	12566.65
852.838	12478.51
853.161	12443.94
853.483	12337.95
853.806	12314.45
854.129	12252.98
854.451	12269.03
854.774	12227.67
855.096	12085.3
855.419	12081.69
855.741	12131.63
856.063	12036.04
856.385	11989.04
856.708	11947
857.03	11977.96
857.352	11948.58
857.674	11927.57
857.996	11805.54
858.318	11816.38
858.64	11778.42
858.961	11700.68
859.283	11733.45
859.605	11673.79
859.926	11640.12
860.248	11608.03
860.57	11525.32
860.891	11582.72
861.212	11496.62
861.534	11538.2
861.855	11455.26
862.176	11446.68
862.498	11516.51
862.819	11491.2
863.14	11437.19
863.461	11313.35
863.782	11316.28
864.103	11321.26
864.424	11273.35
864.745	11325.55
865.065	11257.53
865.386	11234.03
865.707	11192.67
866.027	11124.88
866.348	11182.5
866.668	11163.07
866.989	11192.22
867.309	11036.52
867.63	11090.75
867.95	11068.38
868.27	11004.88
868.59	11005.33
868.91	10975.73
869.23	10998.1
869.55	10880.36
869.87	10957.88
870.19	10921.04
870.51	10929.4
870.83	10913.36
871.15	10793.81
871.469	10860.7
871.789	10917.65
872.109	10832
872.428	10765.11
872.748	10787.26
873.067	10796.07
873.386	10800.37
873.706	10752.68
874.025	10731.67
874.344	10666.13
874.663	10671.1
874.982	10629.07
875.301	10700.48
875.62	10621.84
875.939	10596.53
876.258	10566.7
876.577	10552.01
876.896	10524.44
877.214	10487.38
877.533	10542.97
877.852	10470.2
878.17	10553.82
878.489	10511.56
878.807	10442.64
879.125	10476.98
879.444	10438.12
879.762	10342.75
880.08	10422.75
880.398	10343.43
880.716	10383.43
881.034	10303.88
881.352	10318.12
881.67	10266.37
881.988	10326.71
882.306	10252.58
882.624	10234.5
882.941	10216.88
883.259	10134.17
883.577	10135.3
883.894	10086.49
884.212	10081.97
884.529	10046.94
884.846	10034.28
885.164	10082.64
885.481	10059.37
885.798	9974.62
886.115	9905.93
886.432	9948.64
886.75	9902.76
887.067	9899.15
887.383	9862.31
887.7	9871.58
888.017	9830
888.334	9773.95
888.651	9768.53
888.967	9670.68
889.284	9693.5
889.6	9645.37
889.917	9632.49
890.233	9660.51
890.55	9606.05
890.866	9625.03
891.182	9542.77
891.498	9529.21
891.815	9470.46
892.131	9426.62
892.447	9424.36
892.763	9426.84
893.079	9351.82
893.395	9350.46
893.71	9326.05
894.026	9345.49
894.342	9279.95
894.657	9235.66
894.973	9158.83
895.289	9192.95
895.604	9206.28
895.92	9127.42
896.235	9040.41
896.55	9039.28
896.865	9032.05
897.181	8979.85
897.496	9083.35
897.811	8940.3
898.126	8929
898.441	8818.04
898.756	8870.02
899.071	8799.06
899.386	8804.03
899.7	8791.15
900.015	8628.45
900.33	8603.59
900.644	8624.6
900.959	8647.2
901.273	8570.82
901.588	8549.58
901.902	8597.03
902.216	8476.59
902.531	8516.58
902.845	8516.81
903.159	8387.55
903.473	8402.46
903.787	8376.47
904.101	8343.93
904.415	8335.12
904.729	8261.22
905.042	8252.41
905.356	8130.15
905.67	8230.72
905.984	8196.37
906.297	8154.11
906.611	8119.98
906.924	8009.25
907.237	8018.74
907.551	8035.47
907.864	7932.87
908.177	7940.55
908.491	7962.02
908.804	7863.04
909.117	7802.7
909.43	7816.49
909.743	7767
910.056	7745.98
910.368	7664.4
910.681	7627.34
910.994	7672.09
911.307	7603.61
911.619	7529.94
911.932	7537.4
912.244	7497.63
912.557	7488.14
912.869	7468.93
913.181	7378.99
913.494	7400.23
913.806	7319.33
914.118	7300.57
914.43	7268.26
914.742	7316.16
915.054	7205.88
915.366	7150.52
915.678	7154.13
915.99	7170.18
916.302	7059
916.613	7066
916.925	7091.76
917.236	7064.64
917.548	7044.08
917.859	6986
918.171	6929.96
918.482	6880.69
918.794	6916.63
919.105	6919.11
919.416	6811.54
919.727	6778.1
920.038	6794.37
920.349	6711.21
920.66	6685.67
920.971	6709.4
921.282	6682.06
921.593	6601.15
921.903	6580.14
922.214	6637.09
922.525	6570.19
922.835	6462.85
923.146	6486.13
923.456	6442.97
923.767	6423.31
924.077	6452.23
924.387	6341.05
924.697	6339.92
925.008	6325.46
925.318	6297.21
925.628	6325.68
925.938	6242.29
926.248	6210.2
926.558	6153.03
926.867	6176.31
927.177	6138.34
927.487	6095.18
927.796	6109.42
928.106	6068.06
928.416	6037.55
928.725	6025.35
929.034	5961.4
929.344	6001.17
929.653	5932.02
929.962	5908.29
930.271	5871.46
930.581	5862.42
930.89	5834.17
931.199	5826.26
931.508	5758.01
931.817	5786.49
932.125	5769.09
932.434	5753.04
932.743	5675.08
933.051	5621.52
933.36	5665.59
933.669	5598.24
933.977	5554.85
934.286	5551.69
934.594	5532.26
934.902	5469.21
935.21	5449.32
935.519	5501.97
935.827	5469.43
936.135	5468.75
936.443	5413.16
936.751	5363.9
937.059	5411.13
937.367	5302.66
937.674	5337.01
937.982	5272.83
938.29	5273.28
938.597	5264.01
938.905	5177.69
939.213	5214.98
939.52	5168.65
939.827	5184.47
940.135	5138.37
940.442	5122.77
940.749	5085.04
941.056	5089.78
941.363	5045.04
941.67	5067.41
941.977	4989.67
942.284	4988.54
942.591	4953.51
942.898	4937.02
943.205	4942.21
943.511	4906.96
943.818	4899.73
944.125	4839.62
944.431	4831.03
944.738	4771.6
945.044	4789.22
945.35	4774.08
945.657	4750.58
945.963	4747.19
946.269	4695.22
946.575	4723.69
946.881	4669.23
947.187	4679.62
947.493	4588.1
947.799	4641.21
948.105	4598.49
948.41	4542.9
948.716	4595.56
949.022	4493.64
949.327	4537.48
949.633	4484.37
949.938	4473.07
950.244	4457.03
950.549	4454.09
950.854	4389.23
951.16	4375.22
951.465	4352.4
951.77	4372.29
952.075	4347.2
952.38	4311.72
952.685	4314.21
952.99	4303.14
953.294	4264.72
953.599	4228.11
953.904	4217.71
954.209	4203.48
954.513	4199.41
954.818	4173.42
955.122	4144.27
955.426	4144.72
955.731	4098.62
956.035	4099.52
956.339	4080.54
956.643	4045.52
956.948	4019.08
957.252	4018.17
957.556	4026.98
957.86	4002.35
958.163	3990.6
958.467	3980.43
958.771	3972.97
959.075	3924.16
959.378	3918.51
959.682	3896.37
959.985	3860.44
960.289	3848.46
960.592	3840.1
960.896	3826.76
961.199	3815.01
961.502	3757.39
961.805	3754.22
962.108	3756.94
962.411	3802.81
962.714	3742.47
963.017	3718.97
963.32	3708.35
963.623	3689.59
963.926	3668.8
964.228	3669.25
964.531	3623.61
964.833	3619.54
965.136	3585.19
965.438	3552.19
965.741	3567.56
966.043	3561.23
966.345	3539.77
966.648	3484.4
966.95	3514.23
967.252	3479.65
967.554	3464.74
967.856	3462.25
968.158	3450.95
968.46	3444.85
968.761	3389.71
969.063	3391.97
969.365	3382.26
969.666	3358.3
969.968	3352.88
970.269	3337.96
970.571	3326.21
970.872	3328.25
971.174	3285.08
971.475	3309.94
971.776	3311.3
972.077	3245.76
972.378	3247.57
972.679	3194.69
972.98	3273.56
973.281	3244.41
973.582	3192.88
973.883	3180.68
974.183	3196.72
974.484	3131.87
974.785	3128.93
975.085	3125.09
975.386	3089.61
975.686	3077.4
975.986	3093.22
976.287	3065.65
976.587	3059.33
976.887	3041.02
977.187	3008.93
977.487	2999.67
977.787	2987.24
978.087	3016.62
978.387	2940.01
978.687	2964.64
978.987	2919.44
979.286	2914.47
979.586	2927.8
979.885	2887.35
980.185	2848.94
980.484	2877.18
980.784	2844.19
981.083	2867.47
981.382	2840.58
981.682	2814.36
981.981	2784.53
982.28	2838.09
982.579	2782.27
982.878	2803.74
983.177	2753.12
983.475	2790.86
983.774	2766
984.073	2736.4
984.372	2700.69
984.67	2689.84
984.969	2682.16
985.267	2664.53
985.566	2660.92
985.864	2686.91
986.162	2664.76
986.461	2640.13
986.759	2636.06
987.057	2584.54
987.355	2602.39
987.653	2589.51
987.951	2552.9
988.249	2565.1
988.547	2539.57
988.844	2538.66
989.142	2532.56
989.44	2517.87
989.737	2501.83
990.035	2496.86
990.332	2454.14
990.63	2467.48
990.927	2457.76
991.224	2447.82
991.521	2425.44
991.819	2427.25
992.116	2415.05
992.413	2389.97
992.71	2400.36
993.006	2392.45
993.303	2382.28
993.6	2373.69
993.897	2351.55
994.193	2331.44
994.49	2354.49
994.787	2335.73
995.083	2300.02
995.379	2295.05
995.676	2283.53
995.972	2257.77
996.268	2241.72
996.565	2228.84
996.861	2274.04
997.157	2223.42
997.453	2206.47
997.749	2192.68
998.044	2179.12
998.34	2184.32
998.636	2147.26
998.932	2166.69
999.227	2132.35
999.523	2131.22
999.818	2118.56
1000.114	2090.54
1000.409	2094.83
1000.704	2082.63
1001	2078.11
1001.295	2057.54
1001.59	2060.48
1001.885	2048.73
1002.18	2054.16
1002.475	2003.99
1002.77	2026.36
1003.065	1984.78
1003.359	1981.61
1003.654	1967.83
1003.949	2012.57
1004.243	1992.01
1004.538	1950.88
1004.832	1969.86
1005.127	1932.58
1005.421	1905.46
1005.715	1912.01
1006.009	1864.33
1006.304	1890.54
1006.598	1894.61
1006.892	1855.74
1007.186	1892.8
1007.48	1856.19
1007.773	1857.55
1008.067	1830.21
1008.361	1815.74
1008.655	1836.31
1008.948	1823.43
1009.242	1828.17
1009.535	1795.18
1009.829	1752.69
1010.122	1759.02
1010.415	1750.43
1010.708	1742.52
1011.001	1710.66
1011.295	1738.68
1011.588	1684.45
1011.881	1684
1012.173	1695.97
1012.466	1657.56
1012.759	1667.5
1013.052	1683.09
1013.344	1659.36
1013.637	1634.05
1013.93	1626.37
1014.222	1642.64
1014.514	1608.52
1014.807	1598.12
1015.099	1619.14
1015.391	1565.35
1015.683	1570.1
1015.976	1602.42
1016.268	1544.34
1016.56	1539.14
1016.851	1551.34
1017.143	1548.41
1017.435	1518.35
1017.727	1531
1018.018	1505.02
1018.31	1471.35
1018.602	1486.49
1018.893	1448.97
1019.185	1489.2
1019.476	1458.01
1019.767	1468.18
1020.058	1414.4
1020.35	1416.88
1020.641	1446.94
1020.932	1402.87
1021.223	1415.98
1021.514	1387.73
1021.804	1383.44
1022.095	1381.86
1022.386	1342.08
1022.677	1317.45
1022.967	1337.34
1023.258	1338.92
1023.548	1326.72
1023.839	1324.91
1024.129	1297.34
1024.419	1309.09
1024.709	1267.06
1025	1298.92
1025.29	1280.62
1025.58	1261.86
1025.87	1252.59
1026.16	1261.41
1026.449	1243.33
1026.739	1235.87
1027.029	1239.49
1027.319	1231.13
1027.608	1215.53
1027.898	1210.56
1028.187	1208.3
1028.477	1210.79
1028.766	1188.42
1029.055	1185.7
1029.344	1157.91
1029.634	1186.61
1029.923	1147.51
1030.212	1162.43
1030.501	1113.39
1030.79	1128.3
1031.078	1131.02
1031.367	1105.03
1031.656	1118.36
1031.945	1104.58
1032.233	1094.63
1032.522	1115.87
1032.81	1065.48
1033.099	1084.46
1033.387	1071.13
1033.675	1048.31
1033.963	1035.2
1034.251	1059.15
1034.54	1029.1
1034.828	1034.52
1035.116	1027.97
1035.403	1022.54
1035.691	1049.66
1035.979	1004.92
1036.267	985.71
1036.554	1006.27
1036.842	1001.75
1037.129	1002.88
1037.417	989.78
1037.704	985.26
1037.992	973.73
1038.279	963.11
1038.566	936.67
1038.853	936.67
1039.14	936.67
