Data from hue_28_FLMS001491_00029.txt Node
Date: Tue Feb 07 17:17:04 GMT 2017
User: dcchb
Spectrometer: FLMS00149
Trigger mode: 0
Integration Time (sec): 2.000000E-2
Scans to average: 10
Electric dark correction enabled: true
Nonlinearity correction enabled: false
Boxcar width: 0
XAxis mode: Wavelengths
Number of Pixels in Spectrum: 2048
>>>>>Begin Spectral Data<<<<<
341.393	-37.24
341.776	-37.24
342.16	-37.24
342.543	-65.04
342.927	-60.97
343.31	-64.59
343.693	-69.33
344.077	-65.04
344.46	-71.14
344.843	-63.68
345.226	-55.55
345.61	-31.37
345.993	-19.84
346.376	-13.52
346.759	14.51
347.142	35.97
347.525	45.24
347.908	48.18
348.291	85.01
348.674	96.09
349.057	129.08
349.44	124.33
349.823	121.17
350.206	171.11
350.588	189.19
350.971	224.22
351.354	235.74
351.737	242.3
352.119	240.94
352.502	245.23
352.884	274.39
353.267	279.36
353.65	287.27
354.032	331.11
354.414	287.27
354.797	311.22
355.179	322.29
355.562	312.8
355.944	326.59
356.326	340.37
356.709	336.76
357.091	326.36
357.473	315.74
357.855	324.33
358.238	351.67
358.62	358.68
359.002	336.76
359.384	357.77
359.766	336.08
360.148	316.42
360.53	341.95
360.912	329.75
361.294	341.05
361.676	343.31
362.057	330.66
362.439	332.24
362.821	325.46
363.203	361.84
363.584	328.62
363.966	325.91
364.348	326.14
364.729	331.11
365.111	300.37
365.493	316.42
365.874	304.22
366.256	313.25
366.637	302.63
367.019	330.66
367.4	329.07
367.781	288.85
368.163	290.88
368.544	313.93
368.925	315.74
369.306	329.3
369.688	320.49
370.069	332.46
370.45	315.74
370.831	332.24
371.212	299.24
371.593	308.51
371.974	314.84
372.355	329.75
372.736	334.72
373.117	322.29
373.498	305.57
373.879	305.12
374.26	324.55
374.641	320.03
375.021	308.28
375.402	309.64
375.783	328.85
376.163	321.39
376.544	312.12
376.925	330.88
377.305	330.43
377.686	324.33
378.066	334.95
378.447	351.9
378.827	332.01
379.208	323.42
379.588	320.03
379.968	327.94
380.349	326.81
380.729	306.02
381.109	337.43
381.489	329.53
381.87	338.11
382.25	353.93
382.63	340.15
383.01	347.83
383.39	347.83
383.77	345.12
384.15	353.93
384.53	352.8
384.91	329.98
385.29	344.89
385.67	365.46
386.049	350.99
386.429	338.34
386.809	367.49
387.189	338.34
387.568	370.2
387.948	367.49
388.328	365
388.707	361.16
389.087	384.89
389.466	371.78
389.846	362.74
390.225	368.62
390.605	351.67
390.984	362.52
391.363	371.11
391.743	388.28
392.122	359.58
392.501	371.11
392.881	388.51
393.26	372.01
393.639	400.26
394.018	380.37
394.397	390.09
394.776	384.21
395.155	403.2
395.534	375.85
395.913	383.31
396.292	399.35
396.671	378.56
397.05	414.27
397.429	380.6
397.808	377.66
398.186	399.58
398.565	401.16
398.944	407.26
399.323	381.05
399.701	398.68
400.08	395.29
400.458	422.63
400.837	422.86
401.215	411.33
401.594	394.16
401.972	405.46
402.351	394.38
402.729	415.17
403.107	413.59
403.486	419.47
403.864	419.92
404.242	425.12
404.62	440.26
404.999	419.24
405.377	429.41
405.755	428.51
406.133	437.77
406.511	440.71
406.889	437.54
407.267	445.68
407.645	470.76
408.023	418.56
408.401	460.14
408.779	466.7
409.156	462.4
409.534	443.87
409.912	479.8
410.29	455.17
410.667	453.82
411.045	452.01
411.422	471.22
411.8	492.68
412.178	485.45
412.555	506.24
412.933	489.3
413.31	485.45
413.687	503.08
414.065	508.28
414.442	507.37
414.819	515.06
415.197	513.25
415.574	496.3
415.951	517.09
416.328	515.96
416.705	518.22
417.082	501.05
417.46	524.55
417.837	516.86
418.214	532.23
418.591	528.16
418.967	528.62
419.344	564.1
419.721	556.86
420.098	545.79
420.475	540.82
420.852	546.92
421.228	556.86
421.605	551.67
421.982	554.83
422.358	560.25
422.735	560.48
423.111	583.08
423.488	573.36
423.864	594.38
424.241	585.34
424.617	583.76
424.994	588.5
425.37	554.15
425.746	577.88
426.123	594.6
426.499	586.02
426.875	595.51
427.251	589.18
427.627	616.52
428.003	623.75
428.379	633.92
428.756	632.79
429.132	645.68
429.507	640.48
429.883	633.92
430.259	665.79
430.635	672.12
431.011	666.69
431.387	664.88
431.763	679.57
432.138	664.21
432.514	675.05
432.89	689.97
433.265	713.02
433.641	686.35
434.016	701.27
434.392	708.27
434.767	711.44
435.143	748.27
435.518	734.71
435.894	708.27
436.269	736.29
436.644	742.85
437.02	763.19
437.395	782.39
437.77	780.13
438.145	758.89
438.52	778.78
438.895	742.85
439.271	769.74
439.646	797.08
440.021	808.61
440.395	801.38
440.77	823.07
441.145	833.24
441.52	821.94
441.895	816.52
442.27	817.42
442.645	827.59
443.019	819.46
443.394	846.35
443.769	841.15
444.143	859.45
444.518	878.21
444.892	871.21
445.267	872.79
445.641	891.09
446.016	882.28
446.39	884.99
446.764	900.13
447.139	894.03
447.513	892
447.887	897.65
448.262	871.43
448.636	898.32
449.01	917.08
449.384	927.02
449.758	943.29
450.132	931.09
450.506	931.77
450.88	932.9
451.254	956.4
451.628	967.47
452.002	976.97
452.376	960.02
452.75	1001.15
453.123	1006.12
453.497	970.41
453.871	971.77
454.244	990.75
454.618	1008.6
454.992	1020.81
455.365	1019.9
455.739	1059.45
456.112	1083.4
456.486	1099
456.859	1088.6
457.232	1106.68
457.606	1102.16
457.979	1125.44
458.352	1110.3
458.725	1155.27
459.099	1127.02
459.472	1163.63
459.845	1179.45
460.218	1195.49
460.591	1211.54
460.964	1224.87
461.337	1219.45
461.71	1260.35
462.083	1253.12
462.456	1253.12
462.829	1255.6
463.201	1287.24
463.574	1296.73
463.947	1296.73
464.32	1344.19
464.692	1373.34
465.065	1353.68
465.438	1410.63
465.81	1393.68
466.183	1399.78
466.555	1465.99
466.928	1444.98
467.3	1456.73
467.672	1487.23
468.045	1485.2
468.417	1536.27
468.789	1517.52
469.161	1534.47
469.534	1574.01
469.906	1574.46
470.278	1627.57
470.65	1643.39
471.022	1651.52
471.394	1711.64
471.766	1711.64
472.138	1739.43
472.51	1782.82
472.882	1807
473.253	1793.22
473.625	1861.01
473.997	1894
474.369	1889.94
474.74	1953.89
475.112	1974.23
475.484	2007.45
475.855	2019.65
476.227	2065.3
476.598	2126.31
476.97	2139.42
477.341	2200.89
477.713	2230.49
478.084	2282.24
478.455	2287.67
478.827	2338.96
479.198	2418.51
479.569	2442.69
479.94	2482.01
480.311	2480.88
480.682	2605.62
481.053	2646.07
481.424	2655.57
481.795	2704.83
482.166	2789.12
482.537	2819.63
482.908	2923.81
483.279	2932.85
483.65	2941.66
484.021	3050.81
484.391	3095.1
484.762	3118.38
485.133	3169.9
485.503	3239.96
485.874	3349.56
486.244	3385.94
486.615	3460.97
486.985	3437.01
487.356	3560.63
487.726	3542.77
488.097	3678.14
488.467	3719.94
488.837	3781.64
489.207	3869.09
489.578	3892.37
489.948	3947.96
490.318	4018.02
490.688	4063.44
491.058	4140.05
491.428	4239.25
491.798	4248.29
492.168	4346.37
492.538	4355.41
492.908	4443.09
493.278	4479.47
493.648	4479.92
494.017	4601.05
494.387	4620.71
494.757	4697.09
495.126	4765.57
495.496	4761.95
495.866	4786.13
496.235	4858.67
496.605	4903.87
496.974	5004.66
497.344	4977.54
497.713	5085.56
498.082	5084.88
498.452	5165.1
498.821	5185.44
499.19	5207.36
499.559	5255.5
499.928	5298.21
500.298	5320.58
500.667	5368.71
501.036	5401.26
501.405	5486
501.774	5433.57
502.143	5523.06
502.512	5614.81
502.88	5639.22
503.249	5639.89
503.618	5646.9
503.987	5691.42
504.356	5760.57
504.724	5759.21
505.093	5799.66
505.462	5839.21
505.83	5913.33
506.199	5876.5
506.567	6005.08
506.936	5951.3
507.304	6037.62
507.672	6048.92
508.041	6055.02
508.409	6066.32
508.777	6138.19
509.145	6179.09
509.514	6254.57
509.882	6229.94
510.25	6247.11
510.618	6295.7
510.986	6297.05
511.354	6343.83
511.722	6445.3
512.09	6444.62
512.458	6471.06
512.826	6508.8
513.193	6518.29
513.561	6543.83
513.929	6606.65
514.297	6648.68
514.664	6690.71
515.032	6741.79
515.4	6758.28
515.767	6800.54
516.135	6797.15
516.502	6787.21
516.869	6852.29
517.237	6929.58
517.604	6860.43
517.972	6928
518.339	6951.72
518.706	6970.03
519.073	6997.82
519.44	7061.33
519.808	7165.28
520.175	7093.19
520.542	7198.5
520.909	7236.46
521.276	7219.51
521.643	7293.64
522.009	7294.31
522.376	7356.23
522.743	7386.74
523.11	7510.58
523.477	7505.38
523.843	7520.97
524.21	7627.86
524.577	7601.88
524.943	7693.85
525.31	7702.21
525.676	7823.79
526.043	7815.43
526.409	7805.26
526.776	7919.83
527.142	7981.3
527.508	7965.48
527.874	8093.16
528.241	8074.63
528.607	8121.41
528.973	8142.65
529.339	8120.05
529.705	8272.82
530.071	8311.01
530.437	8313.95
530.803	8356.21
531.169	8413.38
531.535	8400.95
531.901	8472.81
532.267	8531.34
532.632	8561.17
532.998	8596.88
533.364	8675.07
533.73	8616.54
534.095	8671.23
534.461	8772.47
534.826	8746.93
535.192	8817.21
535.557	8868.06
535.923	8893.82
536.288	8900.15
536.653	8988.51
537.019	8918.68
537.384	8950.77
537.749	9065.34
538.114	9111.22
538.479	9122.29
538.845	9125.68
539.21	9128.84
539.575	9225.11
539.94	9229.4
540.305	9217.65
540.67	9288.84
541.034	9376.97
541.399	9394.37
541.764	9398.21
542.129	9428.04
542.494	9543.75
542.858	9594.82
543.223	9480.25
543.587	9700.58
543.952	9598.66
544.316	9685.21
544.681	9683.4
545.045	9759.11
545.41	9834.13
545.774	9762.72
546.138	9835.49
546.503	9880.01
546.867	9862.83
547.231	9968.82
547.595	10005.2
547.959	10119.55
548.324	10099.21
548.688	10048.37
549.052	10115.48
549.416	10120.23
549.779	10138.31
550.143	10172.2
550.507	10269.6
550.871	10313.67
551.235	10252.88
551.599	10354.35
551.962	10402.48
552.326	10411.52
552.689	10506.21
553.053	10424.4
553.417	10537.17
553.78	10717.5
554.143	10556.37
554.507	10567
554.87	10701.68
555.234	10713.66
555.597	10771.51
555.96	10749.82
556.323	10871.17
556.686	10800.21
557.05	10836.14
557.413	10915.46
557.776	10872.3
558.139	10945.29
558.502	10977.83
558.865	11092.41
559.228	11099.41
559.59	11100.32
559.953	11110.26
560.316	11252.4
560.679	11241.55
561.041	11287.43
561.404	11338.73
561.767	11418.05
562.129	11338.28
562.492	11420.99
562.854	11479.74
563.217	11492.4
563.579	11472.28
563.941	11570.81
564.304	11697.81
564.666	11625.5
565.028	11733.29
565.39	11796.12
565.753	11802.67
566.115	11846.96
566.477	11948.43
566.839	11871.59
567.201	11987.3
567.563	12037.92
567.925	12070.23
568.287	12150.68
568.648	12133.06
569.01	12213.28
569.372	12333.96
569.734	12239.27
570.095	12359.49
570.457	12497.11
570.819	12523.1
571.18	12515.19
571.542	12514.06
571.903	12567.4
572.265	12613.04
572.626	12663.44
572.987	12733.27
573.349	12824.11
573.71	12869.08
574.071	12971.45
574.432	13058.91
574.794	13196.53
575.155	13195.63
575.516	13171.45
575.877	13300.48
576.238	13412.57
576.599	13470.42
576.96	13432.46
577.32	13620.48
577.681	13678.1
578.042	13825.22
578.403	13906.8
578.763	14027.92
579.124	14078.77
579.485	14300.68
579.845	14386.78
580.206	14482.37
580.566	14562.82
580.927	14736.15
581.287	14856.37
581.648	14976.15
582.008	15160.1
582.368	15264.27
582.728	15488.45
583.089	15598.05
583.449	15800.53
583.809	16069.9
584.169	16118.71
584.529	16332.72
584.889	16626.27
585.249	16740.17
585.609	16883.67
585.969	17174.05
586.329	17385.8
586.688	17649.97
587.048	17891.78
587.408	18095.84
587.768	18295.38
588.127	18444.08
588.487	18741.02
588.846	19193.89
589.206	19210.84
589.565	19417.84
589.925	19895.79
590.284	19988.67
590.643	20481.76
591.003	20690.35
591.362	21119.04
591.721	21161.52
592.08	21594.28
592.44	21856.19
592.799	22042.63
593.158	22329.17
593.517	22714.25
593.876	23037.4
594.235	23269.49
594.593	23659.08
594.952	23895.69
595.311	24163.7
595.67	24490.02
596.029	24932.04
596.387	25190.79
596.746	25568.41
597.104	25654.96
597.463	25826.71
597.822	26382.85
598.18	26564.54
598.538	26870.52
598.897	27210.85
599.255	27455.82
599.613	28112.98
599.972	28128.79
600.33	28450.14
600.688	28725.61
601.046	29124.02
601.404	29341.19
601.762	29547.06
602.12	30144.33
602.478	30268.63
602.836	30496.19
603.194	30637.43
603.552	31039.23
603.91	31046.68
604.268	31579.78
604.625	31767.12
604.983	32130.72
605.341	32154
605.698	32615.91
606.056	32890.48
606.413	32959.18
606.771	33449.78
607.128	33667.18
607.485	33811.81
607.843	33960.51
608.2	34383.09
608.557	34587.16
608.914	34779.47
609.272	35069.4
609.629	35397.08
609.986	35684.08
610.343	35625.55
610.7	36148.92
611.057	36117.74
611.414	36411.06
611.771	36511.4
612.127	36891.5
612.484	37050.82
612.841	37358.16
613.198	37235.22
613.554	37518.83
613.911	37857.8
614.267	38003.11
614.624	38157.01
614.98	38378.69
615.337	38653.49
615.693	38725.58
616.05	38855.74
616.406	39300.7
616.762	39308.16
617.118	39472
617.475	39574.37
617.831	39809.62
618.187	39894.59
618.543	39991.31
618.899	40184.75
619.255	40388.81
619.611	40444.85
619.967	40601.23
620.323	40731.63
620.678	40775.02
621.034	40853.66
621.39	40919.19
621.746	41049.36
622.101	41460.42
622.457	41265.62
622.812	41403.25
623.168	41530.48
623.523	41721.66
623.879	41879.17
624.234	41605.5
624.589	41840.98
624.945	41978.6
625.3	42077.13
625.655	42088.88
626.01	42269.44
626.365	42342.88
626.72	42350.34
627.075	42370.91
627.43	42533.61
627.785	42391.7
628.14	42626.27
628.495	42615.87
628.85	42573.39
629.205	42449.77
629.559	42763.44
629.914	42667.85
630.269	42896.99
630.623	42668.98
630.978	42867.39
631.332	42998.46
631.687	43209.53
632.041	42933.38
632.396	43144.44
632.75	43043.66
633.104	43054.28
633.459	42901.97
633.813	42923.21
634.167	42979.03
634.521	42904.22
634.875	43125.69
635.229	43088.4
635.583	42851.8
635.937	42914.39
636.291	42936.99
636.645	42965.01
636.999	42828.29
637.352	43057.89
637.706	42799.14
638.06	43023.09
638.413	42828.07
638.767	42851.8
639.121	42964.79
639.474	42725.47
639.828	42857.45
640.181	43029.19
640.534	42917.11
640.888	42822.87
641.241	42733.38
641.594	42862.64
641.947	43039.81
642.301	42725.02
642.654	42918.46
643.007	42914.85
643.36	42887.73
643.713	42815.19
644.066	42894.51
644.419	42727.51
644.771	42492.03
645.124	42155.77
645.477	42092.72
645.83	41871.71
646.182	41601.66
646.535	41682.56
646.888	41660.64
647.24	41458.16
647.593	41739.06
647.945	41547.42
648.298	41518.27
648.65	41605.28
649.002	41322.35
649.355	41559.18
649.707	41494.77
650.059	41670.36
650.411	42022.44
650.763	42149.89
651.115	42544.23
651.467	42386.27
651.819	42456.1
652.171	42284.58
652.523	42350.34
652.875	42305.82
653.227	42137.69
653.578	42445.03
653.93	42306.95
654.282	42212.72
654.633	42077.35
654.985	42209.1
655.337	42261.3
655.688	42139.95
656.039	42390.57
656.391	42049.33
656.742	42135.21
657.094	42074.42
657.445	42257.91
657.796	42120.74
658.147	42138.37
658.498	42099.27
658.849	42147.18
659.2	42114.87
659.551	42026.51
659.902	42164.36
660.253	42024.7
660.604	42153.06
660.955	41878.94
661.306	42068.99
661.656	42012.95
662.007	42000.07
662.358	42059.5
662.708	42019.28
663.059	41938.83
663.409	41739.51
663.76	42103.34
664.11	41992.84
664.461	42003.01
664.811	41944.25
665.161	42075.32
665.511	41950.8
665.862	41924.36
666.212	42041.2
666.562	42025.15
666.912	41802.11
667.262	41889.79
667.612	41795.78
667.962	41961.42
668.312	41954.42
668.662	42059.05
669.011	41846.85
669.361	41853.63
669.711	41990.12
670.06	41965.72
670.41	41778.6
670.76	41876
671.109	41803.01
671.459	41660.19
671.808	41645.5
672.157	41869.45
672.507	41460.87
672.856	41660.87
673.205	41557.82
673.554	41758.72
673.904	41604.82
674.253	41794.65
674.602	41648.21
674.951	41054.1
675.3	40800.33
675.649	41453.42
675.998	41445.05
676.346	41361.67
676.695	41656.35
677.044	41199.64
677.393	41336.81
677.741	41522.34
678.09	41324.38
678.438	41203.93
678.787	41398.05
679.135	41252.97
679.484	41006.2
679.832	41239.86
680.181	41011.62
680.529	41212.74
680.877	41023.14
681.225	41073.99
681.573	41198.73
681.922	40901.79
682.27	40894.33
682.618	41013.65
682.966	40809.14
683.314	41007.55
683.661	40827.67
684.009	40666.77
684.357	40737.28
684.705	40464.29
685.053	40483.27
685.4	40432.88
685.748	40237.4
686.095	40203.96
686.443	40084.19
686.79	39973
687.138	40010.29
687.485	40053
687.832	39827.47
688.18	40007.35
688.527	39673.12
688.874	39904.3
689.221	39611.43
689.568	39624.31
689.915	39431.77
690.262	39423.19
690.609	39382.74
690.956	39180.93
691.303	39023.2
691.65	39001.28
691.997	39113.36
692.344	38855.74
692.69	38906.82
693.037	38846.03
693.383	38446.26
693.73	38636.54
694.077	38374.17
694.423	38538.01
694.769	38387.28
695.116	38252.82
695.462	38212.6
695.808	38154.97
696.155	38078.59
696.501	37973.51
696.847	37776.45
697.193	37658.49
697.539	37724.25
697.885	37350.02
698.231	37313.86
698.577	37268.44
698.923	37330.81
699.269	37077.26
699.614	37039.52
699.96	36972.18
700.306	36978.73
700.651	36745.74
700.997	36611.28
701.342	36491.06
701.688	36599.08
702.033	36595.01
702.379	36377.39
702.724	36336.71
703.069	36485.18
703.415	36077.96
703.76	36199.77
704.105	36187.34
704.45	36050.62
704.795	35762.72
705.14	35657.41
705.485	35605.43
705.83	35395.27
706.175	35495.15
706.52	35346.46
706.865	35213.13
707.209	35381.71
707.554	35188.72
707.899	35284.76
708.243	34914.6
708.588	34957.77
708.932	34868.05
709.277	34897.66
709.621	34775.85
709.966	34555.07
710.31	34658.57
710.654	34400.72
710.998	34424.45
711.342	34473.03
711.687	34330.67
712.031	34042.54
712.375	34034.63
712.719	34142.42
713.063	33965.93
713.407	34197.79
713.75	33871.02
714.094	33842.99
714.438	33745.82
714.782	33741.75
715.125	33548.31
715.469	33739.27
715.812	33592.83
716.156	33355.32
716.499	33376.57
716.843	33520.97
717.186	33235.78
717.53	33414.76
717.873	33252.28
718.216	33156.01
718.559	33029.46
718.902	32918.05
719.246	32990.14
719.589	32850.93
719.932	32601.45
720.275	32723.7
720.617	32791.95
720.96	32630.82
721.303	32548.34
721.646	32628.11
721.989	32301.79
722.331	32502.01
722.674	32384.5
723.016	32394.67
723.359	32233.32
723.701	32348.34
724.044	32084.62
724.386	32016.15
724.729	32244.17
725.071	32115.81
725.413	31988.81
725.755	31981.57
726.097	31982.93
726.439	31756.04
726.782	31696.61
727.124	31795.59
727.465	31703.62
727.807	31668.36
728.149	31607.8
728.491	31447.58
728.833	31563.28
729.175	31471.31
729.516	31369.84
729.858	31433.79
730.199	31438.99
730.541	31358.31
730.882	31283.74
731.224	31287.58
731.565	31076.06
731.906	31192.89
732.248	31224.08
732.589	30935.5
732.93	30793.81
733.271	30912
733.612	31003.29
733.953	30938.66
734.294	30813.24
734.635	30657.77
734.976	30758.33
735.317	30547.49
735.658	30596.3
735.999	30580.03
736.339	30503.2
736.68	30579.8
737.021	30481.73
737.361	30361.28
737.702	30487.83
738.042	30429.07
738.383	30381.84
738.723	30463.2
739.063	30252.81
739.404	30367.83
739.744	30122.19
740.084	30159.48
740.424	30149.98
740.764	30112.24
741.104	30207.84
741.444	29969.88
741.784	29760.16
742.124	29911.57
742.464	29812.37
742.804	29801.97
743.143	29668.19
743.483	29674.29
743.823	29555.65
744.162	29475.43
744.502	29622.31
744.841	29500.96
745.181	29511.58
745.52	29464.13
745.86	29466.84
746.199	29328.99
746.538	29351.36
746.877	29338.25
747.216	29344.36
747.556	29294.64
747.895	29293.51
748.234	29065.27
748.573	29133.51
748.911	29050.58
749.25	29104.59
749.589	28908.66
749.928	29085.38
750.267	29058.71
750.605	28902.33
750.944	28947.98
751.283	28800.87
751.621	28883.35
751.96	28717.71
752.298	28629.12
752.636	28650.36
752.975	28536.92
753.313	28443.14
753.651	28647.65
753.989	28335.57
754.327	28387.54
754.666	28266.64
755.004	28296.7
755.342	28299.19
755.679	28215.35
756.017	27999.31
756.355	28159.3
756.693	27990.04
757.031	28139.42
757.368	27792.53
757.706	27776.49
758.044	27791.63
758.381	27783.49
758.719	27716.83
759.056	27731.06
759.394	27522.93
759.731	27415.14
760.068	27448.81
760.405	27291.75
760.743	27287.01
761.08	27291.3
761.417	27083.62
761.754	27063.06
762.091	26909.39
762.428	26872.33
762.765	26814.25
763.102	26868.04
763.438	26724.09
763.775	26659.68
764.112	26531.77
764.449	26493.58
764.785	26366.81
765.122	26308.96
765.458	26132.69
765.795	26185.79
766.131	26139.24
766.467	26129.3
766.804	26019.7
767.14	25826.26
767.476	25701.51
767.812	25619.71
768.148	25656.32
768.485	25488.19
768.821	25313.73
769.157	25353.5
769.492	25271.92
769.828	25207.52
770.164	25003.68
770.5	24911.03
770.836	24926.17
771.171	24779.28
771.507	24827.19
771.842	24600.75
772.178	24645.5
772.513	24596.68
772.849	24466.29
773.184	24409.34
773.519	24311.72
773.855	24214.09
774.19	24200.99
774.525	24147.2
774.86	23991.28
775.195	23984.72
775.53	23857.72
775.865	23840.55
776.2	23509.71
776.535	23500.67
776.87	23518.52
777.205	23392.65
777.539	23318.98
777.874	23275.36
778.209	23104.97
778.543	22969.38
778.878	22964.41
779.212	22861.59
779.547	22712.89
779.881	22752.66
780.215	22555.83
780.55	22615.94
780.884	22474.03
781.218	22455.27
781.552	22397.87
781.886	22269.51
782.22	22255.05
782.554	22099.35
782.888	21866.59
783.222	21794.27
783.556	21765.12
783.889	21730.77
784.223	21567.84
784.557	21439.25
784.89	21518.35
785.224	21413.94
785.557	21316.09
785.891	21245.59
786.224	21182.08
786.558	21111.8
786.891	20958.14
787.224	20919.72
787.557	20800.4
787.891	20786.39
788.224	20759.27
788.557	20757.01
788.89	20585.26
789.223	20613.74
789.556	20486.51
789.888	20425.27
790.221	20352.95
790.554	20172.62
790.887	20174.43
791.219	20100.76
791.552	19997.48
791.884	19997.03
792.217	19866.86
792.549	19800.2
792.882	19697.15
793.214	19672.29
793.546	19653.08
793.879	19551.39
794.211	19381.91
794.543	19517.72
794.875	19363.83
795.207	19464.16
795.539	19315.92
795.871	19320.44
796.203	19159.09
796.535	19089.03
796.867	19032.31
797.198	18983.27
797.53	18889.72
797.862	18807.68
798.193	18874.8
798.525	18642.04
798.856	18701.47
799.188	18547.35
799.519	18536.5
799.85	18492.66
800.182	18434.81
800.513	18374.7
800.844	18289.73
801.175	18298.32
801.506	18265.78
801.837	18088.61
802.168	18240.69
802.499	18093.8
802.83	17926.35
803.161	17901.27
803.491	17899.46
803.822	17952.34
804.153	17815.17
804.483	17610.65
804.814	17707.37
805.145	17536.08
805.475	17612.01
805.805	17492.24
806.136	17501.73
806.466	17481.62
806.796	17458.11
807.126	17308.29
807.457	17248.18
807.787	17292.47
808.117	17171.79
808.447	17101.29
808.777	17109.87
809.107	17018.13
809.436	16994.85
809.766	16965.47
810.096	16844.57
810.426	16890.22
810.755	16814.29
811.085	16794.18
811.414	16730.9
811.744	16540.4
812.073	16670.11
812.403	16527.07
812.732	16499.72
813.061	16567.52
813.39	16390.8
813.719	16443.9
814.049	16499.04
814.378	16324.81
814.707	16309.67
815.036	16270.8
815.365	16198.26
815.693	16053.18
816.022	16132.27
816.351	16021.54
816.68	15914.2
817.008	15931.83
817.337	15866.07
817.665	15843.24
817.994	15904.71
818.322	15812.51
818.651	15692.74
818.979	15625.17
819.307	15754.2
819.636	15649.57
819.964	15563.7
820.292	15622
820.62	15603.25
820.948	15606.41
821.276	15564.83
821.604	15535.68
821.932	15663.13
822.259	15525.74
822.587	15567.77
822.915	15480.77
823.243	15450.03
823.57	15415.46
823.898	15491.61
824.225	15387.21
824.553	15453.42
824.88	15467.88
825.207	15432.63
825.535	15450.03
825.862	15399.19
826.189	15369.58
826.516	15393.31
826.843	15520.09
827.17	15474.66
827.497	15426.53
827.824	15477.6
828.151	15487.54
828.478	15393.99
828.805	15552.18
829.131	15451.84
829.458	15417.94
829.785	15383.82
830.111	15339.75
830.438	15367.77
830.764	15316.02
831.09	15430.37
831.417	15304.72
831.743	15381.11
832.069	15377.72
832.395	15279.19
832.722	15333.88
833.048	15274.89
833.374	15239.87
833.7	15213.65
834.026	15285.52
834.351	15289.58
834.677	15182.47
835.003	15295.69
835.329	15158.97
835.654	15240.09
835.98	15130.27
836.306	15203.03
836.631	15098.18
836.956	15103.37
837.282	15115.8
837.607	14995.13
837.932	15048.91
838.258	15012.08
838.583	14978.63
838.908	14929.59
839.233	14914
839.558	14899.99
839.883	14839.43
840.208	14820.9
840.533	14725.76
840.858	14714.01
841.182	14763.95
841.507	14742.03
841.832	14718.98
842.156	14776.15
842.481	14652.99
842.805	14645.53
843.13	14590.17
843.454	14578.19
843.778	14555.82
844.103	14427.69
844.427	14385.88
844.751	14410.74
845.075	14470.62
845.399	14349.95
845.723	14229.27
846.047	14240.8
846.371	14160.35
846.695	14197.41
847.019	13993.35
847.343	14022.05
847.666	13915.61
847.99	13906.12
848.313	13881.03
848.637	13761.71
848.96	13710.19
849.284	13723.75
849.607	13603.98
849.931	13557.65
850.254	13438.79
850.577	13383.19
850.9	13347.49
851.223	13290.54
851.546	13276.98
851.869	13108.17
852.192	13171.9
852.515	13007.61
852.838	13042.41
853.161	13069.98
853.483	12951.11
853.806	12934.84
854.129	12840.38
854.451	12796.77
854.774	12794.73
855.096	12699.14
855.419	12717.67
855.741	12748.18
856.063	12622.54
856.385	12592.93
856.708	12573.95
857.03	12497.34
857.352	12572.82
857.674	12472.93
857.996	12450.56
858.318	12338.93
858.64	12314.52
858.961	12341.86
859.283	12306.16
859.605	12266.61
859.926	12232.49
860.248	12165.6
860.57	12192.49
860.891	12097.58
861.212	12168.99
861.534	11969.9
861.855	12029.78
862.176	11973.96
862.498	12049.67
862.819	12031.59
863.14	11893.51
863.461	11887.87
863.782	11875.89
864.103	11885.15
864.424	11808.09
864.745	11829.34
865.065	11805.83
865.386	11766.06
865.707	11720.86
866.027	11726.74
866.348	11709.56
866.668	11731.03
866.989	11680.41
867.309	11552.06
867.63	11612.17
867.95	11539.63
868.27	11487.65
868.59	11533.3
868.91	11531.26
869.23	11531.04
869.55	11400.42
869.87	11572.39
870.19	11439.06
870.51	11467.99
870.83	11480.87
871.15	11397.26
871.469	11384.15
871.789	11415.56
872.109	11302.34
872.428	11279.52
872.748	11242.46
873.067	11335.56
873.386	11293.08
873.706	11153.2
874.025	11174.89
874.344	11079.98
874.663	11145.29
874.982	11147.32
875.301	11153.65
875.62	11094.44
875.939	11056.93
876.258	11058.06
876.577	11074.33
876.896	11013.31
877.214	10975.12
877.533	11037.49
877.852	10921.34
878.17	11044.27
878.489	11001.34
878.807	10937.16
879.125	10896.25
879.444	10947.1
879.762	10885.86
880.08	10817.39
880.398	10809.48
880.716	10816.48
881.034	10820.55
881.352	10799.31
881.67	10701.23
881.988	10739.42
882.306	10690.61
882.624	10677.28
882.941	10677.5
883.259	10616.26
883.577	10599.54
883.894	10576.94
884.212	10555.25
884.529	10563.83
884.846	10454
885.164	10501.69
885.481	10454.68
885.798	10526.09
886.115	10360.45
886.432	10398.19
886.75	10327.45
887.067	10322.03
887.383	10278.19
887.7	10322.03
888.017	10187.12
888.334	10285.42
888.651	10252.65
888.967	10228.02
889.284	10187.35
889.6	10135.6
889.917	10095.37
890.233	10109.16
890.55	10038.42
890.866	10063.51
891.182	10039.33
891.498	9907.8
891.815	9954.36
892.131	9882.72
892.447	9928.37
892.763	9816.73
893.079	9837.52
893.395	9812.44
893.71	9773.8
894.026	9756.4
894.342	9682.05
894.657	9634.37
894.973	9589.39
895.289	9690.86
895.604	9581.26
895.92	9572.22
896.235	9511.43
896.55	9468.04
896.865	9518.89
897.181	9445.9
897.496	9444.09
897.811	9352.56
898.126	9358.89
898.441	9295.39
898.756	9289.74
899.071	9255.84
899.386	9252.23
899.7	9102.63
900.015	9161.16
900.33	9090.88
900.644	9050.43
900.959	9070.99
901.273	9056.08
901.588	8939.47
901.902	8933.59
902.216	8847.72
902.531	8903.76
902.845	8795.97
903.159	8778.34
903.473	8741.51
903.787	8696.08
904.101	8678.91
904.415	8697.44
904.729	8646.37
905.042	8633.94
905.356	8576.77
905.67	8595.75
905.984	8544.68
906.297	8553.49
906.611	8494.51
906.924	8399.82
907.237	8430.33
907.551	8359.14
907.864	8327.51
908.177	8317.79
908.491	8251.58
908.804	8283.44
909.117	8221.97
909.43	8173.16
909.743	8134.52
910.056	8114.63
910.368	8076.44
910.681	8075.54
910.994	8052.03
911.307	8003.45
911.619	7906.05
911.932	7950.12
912.244	7813.85
912.557	7810.68
912.869	7804.58
913.181	7780.63
913.494	7777.24
913.806	7735.43
914.118	7692.5
914.43	7637.81
914.742	7594.19
915.054	7510.13
915.366	7608.2
915.678	7535.21
915.99	7510.58
916.302	7412.28
916.613	7460.19
916.925	7377.02
917.236	7390.36
917.548	7290.7
917.859	7320.08
918.171	7268.55
918.482	7216.8
918.794	7193.07
919.105	7225.16
919.416	7177.93
919.727	7064.94
920.038	7092.74
920.349	7055.45
920.66	7033.76
920.971	7023.36
921.282	6961.67
921.593	6943.14
921.903	6889.8
922.214	6902.01
922.525	6842.35
922.835	6839.41
923.146	6789.02
923.456	6788.79
923.767	6748.34
924.077	6732.97
924.387	6644.16
924.697	6651.84
925.008	6601
925.318	6553.09
925.628	6589.93
925.938	6559.19
926.248	6466.09
926.558	6484.84
926.867	6405.52
927.177	6443.04
927.487	6369.82
927.796	6353.32
928.106	6403.49
928.416	6306.77
928.725	6312.64
929.034	6282.14
929.344	6259.99
929.653	6234
929.962	6156.04
930.271	6100.67
930.581	6130.95
930.89	6111.29
931.199	6050.28
931.508	6044.18
931.817	6027.23
932.125	6041.01
932.434	5968.92
932.743	5947.46
933.051	5948.81
933.36	5895.48
933.669	5860.91
933.977	5840.57
934.286	5886.44
934.594	5796.95
934.902	5779.78
935.21	5775.26
935.519	5731.64
935.827	5702.94
936.135	5701.59
936.443	5685.99
936.751	5592.44
937.059	5588.6
937.367	5587.92
937.674	5538.65
937.982	5582.27
938.29	5520.12
938.597	5477.19
938.905	5456.17
939.213	5430.41
939.52	5387.02
939.827	5441.93
940.135	5364.87
940.442	5320.13
940.749	5344.53
941.056	5320.35
941.363	5239.68
941.67	5221.6
941.977	5248.94
942.284	5169.17
942.591	5200.13
942.898	5108.38
943.205	5171.66
943.511	5117.65
943.818	5097.08
944.125	5106.57
944.431	5093.02
944.738	5073.13
945.044	4994.94
945.35	5020.25
945.657	4881.5
945.963	4918.33
946.269	4914.72
946.575	4931.44
946.881	4875.17
947.187	4853.47
947.493	4828.84
947.799	4822.51
948.105	4777.54
948.41	4800.59
948.716	4752.69
949.022	4729.18
949.327	4747.04
949.633	4695.29
949.938	4643.08
950.244	4712.23
950.549	4645.57
950.854	4609.86
951.16	4573.93
951.465	4567.38
951.77	4551.56
952.075	4557.44
952.38	4472.47
952.685	4529.19
952.99	4403.09
953.294	4493.94
953.599	4395.86
953.904	4384.11
954.209	4361.28
954.513	4379.14
954.818	4341.4
955.122	4360.15
955.426	4301.4
955.731	4294.39
956.035	4307.27
956.339	4293.49
956.643	4241.74
956.948	4255.98
957.252	4200.84
957.556	4192.02
957.86	4167.39
958.163	4149.76
958.467	4169.2
958.771	4120.16
959.075	4137.11
959.378	4102.53
959.682	4113.83
959.985	4059.6
960.289	4003.33
960.592	4000.16
960.896	3990.9
961.199	3973.05
961.502	3977.34
961.805	3957.9
962.108	3939.6
962.411	3921.52
962.714	3888.53
963.017	3878.36
963.32	3867.06
963.623	3837.68
963.926	3838.81
964.228	3836.1
964.531	3799.94
964.833	3805.82
965.136	3750.45
965.438	3761.75
965.741	3713.17
966.043	3739.15
966.345	3683.34
966.648	3629.78
966.95	3686.27
967.252	3637.01
967.554	3633.62
967.856	3627.74
968.158	3580.97
968.46	3611.92
968.761	3533.28
969.063	3569.21
969.365	3541.19
969.666	3527.63
969.968	3484.7
970.269	3450.8
970.571	3472.49
970.872	3442.66
971.174	3461.65
971.475	3431.14
971.776	3429.56
972.077	3365.38
972.378	3391.37
972.679	3375.09
972.98	3378.94
973.281	3357.24
973.582	3309.56
973.883	3317.92
974.183	3312.95
974.484	3283.57
974.785	3235.44
975.085	3266.62
975.386	3223.69
975.686	3257.58
975.986	3229.34
976.287	3208.09
976.587	3186.63
976.887	3140.98
977.187	3188.43
977.487	3149.11
977.787	3133.75
978.087	3116.34
978.387	3087.64
978.687	3074.54
978.987	3107.08
979.286	3029.57
979.586	3066.85
979.885	3053.52
980.185	3026.18
980.484	2980.53
980.784	2993.64
981.083	3021.43
981.382	2967.2
981.682	2936.91
981.981	2910.7
982.28	2952.06
982.579	2906.63
982.878	2917.03
983.177	2904.6
983.475	2869.57
983.774	2877.25
984.073	2857.59
984.372	2815.56
984.67	2823.92
984.969	2771.27
985.267	2781.21
985.566	2808.1
985.864	2827.54
986.162	2729.69
986.461	2727.2
986.759	2722.23
987.057	2700.31
987.355	2715.45
987.653	2686.07
987.951	2699.63
988.249	2668.45
988.547	2651.5
988.844	2680.65
989.142	2658.28
989.44	2647.88
989.737	2602.23
990.035	2614.89
990.332	2622.12
990.63	2584.16
990.927	2574.44
991.224	2536.7
991.521	2574.21
991.819	2533.08
992.116	2556.13
992.413	2532.86
992.71	2499.19
993.006	2457.15
993.303	2475.23
993.6	2454.44
993.897	2472.97
994.193	2435.91
994.49	2428
994.787	2400.66
995.083	2413.99
995.379	2393.88
995.676	2381
995.972	2392.52
996.268	2351.17
996.565	2328.79
996.861	2311.62
997.157	2298.51
997.453	2337.61
997.749	2286.76
998.044	2292.64
998.34	2266.2
998.636	2278.63
998.932	2277.95
999.227	2221.68
999.523	2227.1
999.818	2185.3
1000.114	2225.29
1000.409	2207.67
1000.704	2151.17
1001	2180.32
1001.295	2161.12
1001.59	2170.83
1001.885	2143.71
1002.18	2111.63
1002.475	2136.48
1002.77	2122.02
1003.065	2070.95
1003.359	2068.91
1003.654	2074.11
1003.949	2075.47
1004.243	2078.41
1004.538	2035.92
1004.832	2023.72
1005.127	2030.5
1005.421	2023.49
1005.715	2018.97
1006.009	1994.79
1006.304	1971.74
1006.598	1912.53
1006.892	1941.01
1007.186	1935.36
1007.48	1928.58
1007.773	1908.92
1008.067	1918.18
1008.361	1860.56
1008.655	1868.47
1008.948	1837.51
1009.242	1894
1009.535	1840.22
1009.829	1844.06
1010.122	1823.05
1010.415	1818.98
1010.708	1816.27
1011.001	1812.88
1011.295	1818.75
1011.588	1795.02
1011.881	1769.94
1012.173	1776.27
1012.466	1728.58
1012.759	1722.48
1013.052	1756.38
1013.344	1716.38
1013.637	1694.01
1013.93	1706.66
1014.222	1691.52
1014.514	1722.26
1014.807	1670.05
1015.099	1618.08
1015.391	1637.06
1015.683	1615.59
1015.976	1646.1
1016.268	1613.11
1016.56	1616.05
1016.851	1588.93
1017.143	1604.07
1017.435	1579.66
1017.727	1569.72
1018.018	1557.74
1018.31	1573.11
1018.602	1540.57
1018.893	1533.34
1019.185	1520.23
1019.476	1555.48
1019.767	1504.41
1020.058	1495.82
1020.35	1470.96
1020.641	1479.1
1020.932	1468.03
1021.223	1464.64
1021.514	1397.07
1021.804	1433.23
1022.095	1410.17
1022.386	1406.33
1022.677	1409.04
1022.967	1402.72
1023.258	1372.66
1023.548	1371.98
1023.839	1386.22
1024.129	1365.43
1024.419	1333.79
1024.709	1336.5
1025	1349.16
1025.29	1326.79
1025.58	1345.77
1025.87	1284.75
1026.16	1279.33
1026.449	1291.53
1026.739	1289.73
1027.029	1275.26
1027.319	1280.46
1027.608	1269.84
1027.898	1249.73
1028.187	1244.53
1028.477	1238.88
1028.766	1225.77
1029.055	1224.87
1029.344	1186
1029.634	1226.22
1029.923	1210.63
1030.212	1184.64
1030.501	1187.13
1030.79	1156.62
1031.078	1187.13
1031.367	1169.5
1031.656	1128.6
1031.945	1128.15
1032.233	1149.84
1032.522	1117.08
1032.81	1137.41
1033.099	1118.43
1033.387	1113.91
1033.675	1107.81
1033.963	1093.57
1034.251	1082.5
1034.54	1086.12
1034.828	1067.13
1035.116	1056.06
1035.403	1063.97
1035.691	1027.13
1035.979	1036.63
1036.267	1049.05
1036.554	1036.63
1036.842	1049.05
1037.129	1017.87
1037.417	998.43
1037.704	986.01
1037.992	988.72
1038.279	1005.21
1038.566	965.89
1038.853	965.89
1039.14	965.89
