Data from hue_30_FLMS001491_66.txt Node
Date: Mon Feb 06 15:05:46 GMT 2017
User: dcchb
Spectrometer: FLMS00149
Trigger mode: 0
Integration Time (sec): 2.000000E-2
Scans to average: 10
Electric dark correction enabled: true
Nonlinearity correction enabled: false
Boxcar width: 0
XAxis mode: Wavelengths
Number of Pixels in Spectrum: 2048
>>>>>Begin Spectral Data<<<<<
341.393	-12.74
341.776	-12.74
342.16	-12.74
342.543	-50.48
342.927	-57.94
343.31	-76.24
343.693	-73.76
344.077	-80.76
344.46	-60.42
344.843	-29.69
345.226	-46.64
345.61	-39.63
345.993	-22.46
346.376	1.05
346.759	17.77
347.142	27.26
347.525	40.82
347.908	57.09
348.291	77.2
348.674	102.51
349.057	105.9
349.44	116.3
349.823	147.71
350.206	168.95
350.588	215.73
350.971	201.04
351.354	244.2
351.737	248.95
352.119	262.06
352.502	259.34
352.884	284.88
353.267	297.76
353.65	302.73
354.032	302.96
354.414	319.68
354.797	308.61
355.179	316.52
355.562	318.32
355.944	333.69
356.326	340.92
356.709	325.78
357.091	335.73
357.473	345.44
357.855	346.57
358.238	330.53
358.62	358.32
359.002	346.8
359.384	352.67
359.766	330.75
360.148	356.97
360.53	339.12
360.912	344.76
361.294	346.57
361.676	331.43
362.057	334.6
362.439	354.48
362.821	309.96
363.203	339.12
363.584	327.82
363.966	328.72
364.348	328.04
364.729	321.49
365.111	324.88
365.493	330.3
365.874	333.24
366.256	335.05
366.637	337.53
367.019	328.04
367.4	343.41
367.781	330.08
368.163	318.32
368.544	314.48
368.925	329.17
369.306	314.71
369.688	320.58
370.069	306.12
370.45	305.9
370.831	309.06
371.212	322.62
371.593	327.82
371.974	307.93
372.355	305.44
372.736	322.17
373.117	326.01
373.498	315.39
373.879	321.04
374.26	327.82
374.641	328.95
375.021	340.92
375.402	303.64
375.783	324.88
376.163	328.49
376.544	333.01
376.925	332.34
377.305	316.07
377.686	336.86
378.066	355.16
378.447	337.76
378.827	342.96
379.208	357.87
379.588	358.78
379.968	337.08
380.349	336.63
380.729	331.88
381.109	314.94
381.489	335.5
381.87	362.17
382.25	347.48
382.63	336.4
383.01	341.38
383.39	355.84
383.77	349.28
384.15	361.26
384.53	350.19
384.91	358.55
385.29	365.56
385.67	345.67
386.049	366.46
386.429	365.56
386.809	389.74
387.189	347.02
387.568	377.53
387.948	368.27
388.328	364.43
388.707	398.32
389.087	369.62
389.466	378.44
389.846	378.66
390.225	354.93
390.605	365.33
390.984	395.61
391.363	391.54
391.743	389.96
392.122	377.76
392.501	367.59
392.881	394.03
393.26	360.58
393.639	394.93
394.018	394.26
394.397	362.84
394.776	384.76
395.155	380.92
395.534	390.19
395.913	380.47
396.292	389.51
396.671	388.15
397.05	408.72
397.429	403.75
397.808	409.62
398.186	405.33
398.565	386.35
398.944	380.24
399.323	413.01
399.701	409.62
400.08	399
400.458	425.67
400.837	407.81
401.215	414.59
401.594	410.98
401.972	418.89
402.351	424.76
402.729	386.12
403.107	421.15
403.486	415.72
403.864	428.83
404.242	428.83
404.62	447.59
404.999	422.95
405.377	414.82
405.755	439.23
406.133	419.79
406.511	453.69
406.889	438.77
407.267	448.04
407.645	440.36
408.023	459.56
408.401	469.51
408.779	471.09
409.156	458.89
409.534	449.17
409.912	456.4
410.29	456.85
410.667	462.73
411.045	477.42
411.422	478.77
411.8	465.67
412.178	477.64
412.555	477.42
412.933	474.93
413.31	490.07
413.687	502.27
414.065	497.08
414.442	484.2
414.819	480.58
415.197	514.48
415.574	526
415.951	507.47
416.328	505.89
416.705	514.7
417.082	514.03
417.46	521.03
417.837	524.42
418.214	503.86
418.591	561.71
418.967	523.97
419.344	544.53
419.721	547.7
420.098	541.82
420.475	560.35
420.852	541.6
421.228	555.38
421.605	532.78
421.982	552.44
422.358	561.48
422.735	556.96
423.111	570.52
423.488	549.05
423.864	565.78
424.241	570.75
424.617	570.52
424.994	579.56
425.37	601.48
425.746	585.66
426.123	604.65
426.499	579.34
426.875	610.75
427.251	592.67
427.627	604.87
428.003	613.46
428.379	600.13
428.756	624.76
429.132	611.42
429.507	638.32
429.883	628.83
430.259	637.41
430.635	643.06
431.011	656.17
431.387	655.94
431.763	681.93
432.138	647.58
432.514	676.96
432.89	689.16
433.265	690.52
433.641	701.59
434.016	701.82
434.392	719.44
434.767	707.47
435.143	723.06
435.518	705.43
435.894	722.16
436.269	723.29
436.644	742.49
437.02	742.27
437.395	728.48
437.77	765.09
438.145	758.09
438.52	737.97
438.895	749.27
439.271	767.8
439.646	790.63
440.021	783.85
440.395	769.39
440.77	788.6
441.145	769.84
441.52	806
441.895	801.25
442.27	815.49
442.645	802.38
443.019	830.85
443.394	831.76
443.769	830.85
444.143	830.63
444.518	845.09
444.892	833.57
445.267	848.25
445.641	857.29
446.016	839.89
446.39	840.35
446.764	849.84
447.139	852.55
447.513	859.1
447.887	879.89
448.262	878.99
448.636	863.62
449.01	904.75
449.384	887.8
449.758	903.62
450.132	916.28
450.506	920.79
450.88	921.25
451.254	904.3
451.628	928.93
452.002	931.64
452.376	972.09
452.75	955.37
453.123	965.09
453.497	992.66
453.871	988.14
454.244	998.08
454.618	987.46
454.992	1021.36
455.365	999.44
455.739	1011.87
456.112	1024.07
456.486	1054.8
456.859	1027.01
457.232	1061.36
457.606	1075.14
457.979	1085.99
458.352	1116.27
458.725	1115.14
459.099	1105.65
459.472	1127.57
459.845	1135.93
460.218	1139.55
460.591	1155.82
460.964	1166.44
461.337	1184.74
461.71	1191.3
462.083	1207.12
462.456	1221.8
462.829	1194.46
463.201	1238.75
463.574	1266.55
463.947	1263.84
464.32	1297.73
464.692	1299.32
465.065	1293.89
465.438	1334.57
465.81	1348.81
466.183	1353.55
466.555	1363.04
466.928	1374.34
467.3	1405.98
467.672	1421.12
468.045	1450.5
468.417	1475.81
468.789	1468.35
469.161	1490.5
469.534	1497.05
469.906	1521.68
470.278	1532.76
470.65	1572.98
471.022	1624.05
471.394	1633.09
471.766	1634.9
472.138	1662.7
472.51	1669.93
472.882	1752.64
473.253	1741.79
473.625	1754.9
473.997	1816.82
474.369	1820.66
474.74	1858.62
475.112	1902.24
475.484	1933.65
475.855	1955.12
476.227	1962.8
476.598	2035.12
476.97	2094.32
477.341	2092.52
477.713	2142.01
478.084	2150.14
478.455	2216.81
478.827	2260.42
479.198	2340.64
479.569	2349.01
479.94	2406.41
480.311	2452.28
480.682	2510.58
481.053	2567.98
481.424	2649.56
481.795	2675.78
482.166	2734.08
482.537	2737.92
482.908	2813.4
483.279	2844.81
483.65	2912.16
484.021	2986.05
484.391	3045.94
484.762	3072.83
485.133	3130
485.503	3210.45
485.874	3253.62
486.244	3335.42
486.615	3397.11
486.985	3459.49
487.356	3528.41
487.726	3596.2
488.097	3683.21
488.467	3693.15
488.837	3823.09
489.207	3860.15
489.578	3934.73
489.948	3971.34
490.318	4007.04
490.688	4081.16
491.058	4192.35
491.428	4235.96
491.798	4306.69
492.168	4351.21
492.538	4414.49
492.908	4508.27
493.278	4593.69
493.648	4603.41
494.017	4698.77
494.387	4746.91
494.757	4812.22
495.126	4894.25
495.496	4876.4
495.866	4921.37
496.235	5012.89
496.605	5069.61
496.974	5143.51
497.344	5172.21
497.713	5173.11
498.082	5281.36
498.452	5358.19
498.821	5359.55
499.19	5383.5
499.559	5450.62
499.928	5515.48
500.298	5555.93
500.667	5637.96
501.036	5657.39
501.405	5662.59
501.774	5747.79
502.143	5837.05
502.512	5801.57
502.88	5848.12
503.249	5893.55
503.618	5962.7
503.987	5996.14
504.356	6012.86
504.724	6102.81
505.093	6158.4
505.462	6117.72
505.83	6168.57
506.199	6256.7
506.567	6371.27
506.936	6341.44
507.304	6368.34
507.672	6406.98
508.041	6436.13
508.409	6514.55
508.777	6523.13
509.145	6605.17
509.514	6625.96
509.882	6653.98
510.25	6676.35
510.618	6667.31
510.986	6790.47
511.354	6818.94
511.722	6798.83
512.09	6938.94
512.458	6916.12
512.826	6992.95
513.193	6989.34
513.561	7011.03
513.929	7089.9
514.297	7148.2
514.664	7119.5
515.032	7167.64
515.4	7206.73
515.767	7231.59
516.135	7317.24
516.502	7204.25
516.869	7381.64
517.237	7392.94
517.604	7364.24
517.972	7442.43
518.339	7513.39
518.706	7452.83
519.073	7506.38
519.44	7630.45
519.808	7642.43
520.175	7690.11
520.542	7748.19
520.909	7737.56
521.276	7720.84
521.643	7899.59
522.009	7885.81
522.376	7948.18
522.743	7955.64
523.11	8041.96
523.477	8098.69
523.843	8155.41
524.21	8207.84
524.577	8206.71
524.943	8268.4
525.31	8327.83
525.676	8315.4
526.043	8374.84
526.409	8432.69
526.776	8518.79
527.142	8556.07
527.508	8567.6
527.874	8705.68
528.241	8709.74
528.607	8727.82
528.973	8767.14
529.339	8806.24
529.705	8867.7
530.071	8911.55
530.437	8961.71
530.803	8952.67
531.169	9086.23
531.535	9090.98
531.901	9129.84
532.267	9188.6
532.632	9229.73
532.998	9256.4
533.364	9332.1
533.73	9339.78
534.095	9366.45
534.461	9451.64
534.826	9459.78
535.192	9489.16
535.557	9617.29
535.923	9567.57
536.288	9559.66
536.653	9666.55
537.019	9679.43
537.384	9684.63
537.749	9781.35
538.114	9842.82
538.479	9764.4
538.845	9883.27
539.21	9885.76
539.575	9962.37
539.94	10007.56
540.305	10038.97
540.67	9966.43
541.034	10116.49
541.399	10098.63
541.764	10111.74
542.129	10238.74
542.494	10298.85
542.858	10335.91
543.223	10301.11
543.587	10382.47
543.952	10353.54
544.316	10473.54
544.681	10402.13
545.045	10512.18
545.41	10628.79
545.774	10591.5
546.138	10596.25
546.503	10673.08
546.867	10699.75
547.231	10789.46
547.595	10807.54
547.959	10863.13
548.324	10855
548.688	10926.41
549.052	10992.85
549.416	10986.97
549.779	11003.02
550.143	10956.92
550.507	11050.25
550.871	11128.89
551.235	11203.91
551.599	11244.14
551.962	11250.92
552.326	11384.02
552.689	11335.66
553.053	11379.73
553.417	11345.61
553.78	11488.2
554.143	11450.24
554.507	11427.19
554.87	11504.25
555.234	11615.43
555.597	11563
555.96	11641.64
556.323	11661.76
556.686	11694.3
557.05	11825.82
557.413	11806.84
557.776	11837.8
558.139	11865.37
558.502	11857
558.865	11949.43
559.228	11959.37
559.59	12045.02
559.953	12079.82
560.316	12156.43
560.679	12138.81
561.041	12280.5
561.404	12270.55
561.767	12400.49
562.129	12349.2
562.492	12497.67
562.854	12459.25
563.217	12438.46
563.579	12579.02
563.941	12579.7
564.304	12660.37
564.666	12686.14
565.028	12725.46
565.39	12719.81
565.753	12856.53
566.115	12845.68
566.477	12861.72
566.839	12963.87
567.201	12952.12
567.563	13044.32
567.925	13064.88
568.287	13143.75
568.648	13204.54
569.01	13248.61
569.372	13308.94
569.734	13247.25
570.095	13337.19
570.457	13532.21
570.819	13495.38
571.18	13551.65
571.542	13611.53
571.903	13614.02
572.265	13718.65
572.626	13753.9
572.987	13875.71
573.349	13900.57
573.71	14024.63
574.071	13986.67
574.432	14110.5
574.794	14299.2
575.155	14258.07
575.516	14293.1
575.877	14385.07
576.238	14531.74
576.599	14634.11
576.96	14735.8
577.32	14754.78
577.681	14823.03
578.042	15030.71
578.403	15106.18
578.763	15204.71
579.124	15260.08
579.485	15473.86
579.845	15665.49
580.206	15735.09
580.566	15842.89
580.927	15930.57
581.287	16149.1
581.648	16191.81
582.008	16461.86
582.368	16478.58
582.728	16822.98
583.089	16914.27
583.449	17077.66
583.809	17297.31
584.169	17502.73
584.529	17676.29
584.889	17918.77
585.249	18082.15
585.609	18154.24
585.969	18452.31
586.329	18695.47
586.688	18838.29
587.048	19110.37
587.408	19371.16
587.768	19545.62
588.127	19815.67
588.487	19984.93
588.846	20421.07
589.206	20430.34
589.565	20705.13
589.925	21174.95
590.284	21252.01
590.643	21553.7
591.003	21887.93
591.362	22124.98
591.721	22448.14
592.08	22608.36
592.44	22991.4
592.799	23228.91
593.158	23518.17
593.517	23826.18
593.876	24143.46
594.235	24380.97
594.593	24594.97
594.952	24944.57
595.311	25111.35
595.67	25419.13
596.029	25878.1
596.387	26214.59
596.746	26389.96
597.104	26681.93
597.463	26819.1
597.822	27260.89
598.18	27340.89
598.538	27638.96
598.897	28055.22
599.255	28151.94
599.613	28871.25
599.972	28864.02
600.33	29229.2
600.688	29275.53
601.046	29715.52
601.404	30131.33
601.762	30216.52
602.12	30562.95
602.478	30774.02
602.836	30982.6
603.194	31070.51
603.552	31449.48
603.91	31592.3
604.268	32055.8
604.625	31903.94
604.983	32335.79
605.341	32434.77
605.698	32771.71
606.056	33035.66
606.413	33327.17
606.771	33521.75
607.128	33744.11
607.485	33801.06
607.843	34020.26
608.2	34404.89
608.557	34611.43
608.914	34506.35
609.272	35044.19
609.629	35330.74
609.986	35545.87
610.343	35471.3
610.7	35927.78
611.057	36083.71
611.414	36209.13
611.771	36365.29
612.127	36476.92
612.484	36612.29
612.841	36866.52
613.198	36935.89
613.554	37093.86
613.911	37513.05
614.267	37523.9
614.624	37601.19
614.98	37812.71
615.337	38020.61
615.693	38151.91
616.05	38273.94
616.406	38535.17
616.762	38592.35
617.118	38676.86
617.475	38740.59
617.831	39052.67
618.187	39129.96
618.543	39087.48
618.899	39461.7
619.255	39567.24
619.611	39711.64
619.967	39837.74
620.323	39982.82
620.678	39879.77
621.034	39904.4
621.39	39957.28
621.746	40033.66
622.101	40510.71
622.457	40268.23
622.812	40465.52
623.168	40603.37
623.523	40663.25
623.879	40676.81
624.234	40694.89
624.589	40893.76
624.945	40873.42
625.3	40921.78
625.655	40951.61
626.01	41168.55
626.365	41263.46
626.72	41219.4
627.075	41350.69
627.43	41226.18
627.785	41342.78
628.14	41438.83
628.495	41538.03
628.85	41599.73
629.205	41526.51
629.559	41728.99
629.914	41619.16
630.269	41553.4
630.623	41412.61
630.978	41478.37
631.332	41710.23
631.687	41748.87
632.041	41574.87
632.396	41787.07
632.75	41571.48
633.104	41770.34
633.459	41666.39
633.813	41611.25
634.167	41888.76
634.521	41834.3
634.875	41740.96
635.229	41788.2
635.583	41558.37
635.937	41515.43
636.291	41485.15
636.645	41696.9
636.999	41526.73
637.352	41714.98
637.706	41413.29
638.06	41666.16
638.413	41618.48
638.767	41522.44
639.121	41593.17
639.474	41405.61
639.828	41442.44
640.181	41384.82
640.534	41712.72
640.888	41394.08
641.241	41246.97
641.594	41369
641.947	41572.38
642.301	41459.16
642.654	41356.79
643.007	41458.71
643.36	41464.59
643.713	41271.82
644.066	41320.86
644.419	41385.95
644.771	40984.37
645.124	40764.04
645.477	40532.18
645.83	40365.86
646.182	40189.14
646.535	40157.5
646.888	40198.63
647.24	39975.59
647.593	40168.58
647.945	40171.29
648.298	39977.17
648.65	39971.52
649.002	39946.21
649.355	39976.72
649.707	39879.54
650.059	40165.64
650.411	40620.99
650.763	40699.86
651.115	40874.09
651.467	40821.21
651.819	40907.54
652.171	40833.42
652.523	40839.29
652.875	40762.01
653.227	40558.17
653.578	40887.88
653.93	40761.1
654.282	40647.66
654.633	40501.68
654.985	40582.8
655.337	40589.13
655.688	40660.09
656.039	40743.7
656.391	40428.91
656.742	40470.49
657.094	40519.3
657.445	40611.73
657.796	40518.62
658.147	40512.75
658.498	40477.27
658.849	40564.27
659.2	40421.23
659.551	40444.95
659.902	40573.99
660.253	40487.66
660.604	40329.48
660.955	40270.27
661.306	40453.54
661.656	40421.68
662.007	40343.49
662.358	40360.44
662.708	40331.96
663.059	40301.68
663.409	40130.84
663.76	40329.93
664.11	40232.98
664.461	40335.58
664.811	40387.1
665.161	40374.45
665.511	40271.85
665.862	40322.02
666.212	40439.98
666.562	40373.77
666.912	40265.98
667.262	40275.47
667.612	40119.99
667.962	40299.65
668.312	40233.43
668.662	40379.19
669.011	40312.08
669.361	40276.6
669.711	40223.72
670.06	40154.11
670.41	40029.6
670.76	40079.31
671.109	40240.89
671.459	40106.88
671.808	40104.85
672.157	40216.94
672.507	39861.92
672.856	39824.18
673.205	40022.14
673.554	40095.36
673.904	39887.45
674.253	40183.72
674.602	39978.3
674.951	39364.08
675.3	39159.56
675.649	39941.46
675.998	39893.78
676.346	39778.76
676.695	40028.69
677.044	39701.47
677.393	39828.7
677.741	39875.02
678.09	39785.08
678.438	39738.53
678.787	39854.01
679.135	39696.72
679.484	39418.99
679.832	39651.08
680.181	39375.83
680.529	39609.04
680.877	39456.73
681.225	39357.98
681.573	39446.79
681.922	39350.74
682.27	39218.09
682.618	39129.51
682.966	39117.3
683.314	39202.05
683.661	38960.47
684.009	38867.82
684.357	38797.31
684.705	38770.87
685.053	38789.4
685.4	38660.82
685.748	38592.57
686.095	38528.62
686.443	38446.81
686.79	38281.85
687.138	38466.93
687.485	38313.71
687.832	38333.6
688.18	38237.55
688.527	38156.88
688.874	38109.2
689.221	38128.4
689.568	37885.02
689.915	37852.03
690.262	37899.26
690.609	37899.03
690.956	37670.34
691.303	37541.75
691.65	37488.87
691.997	37500.4
692.344	37284.36
692.69	37217.02
693.037	37228.54
693.383	36977.47
693.73	37077.13
694.077	36891.6
694.423	36704.94
694.769	36742.45
695.116	36560.31
695.462	36530.48
695.808	36346.98
696.155	36461.56
696.501	36143.6
696.847	36132.75
697.193	35934.79
697.539	35931.85
697.885	35765.08
698.231	35666.1
698.577	35736.6
698.923	35752.87
699.269	35527.57
699.614	35413
699.96	35229.72
700.306	35353.56
700.651	35205.77
700.997	35093.91
701.342	35035.83
701.688	34849.17
702.033	34869.73
702.379	34921.48
702.724	34751.77
703.069	34807.81
703.415	34337.77
703.76	34535.05
704.105	34563.75
704.45	34398.78
704.795	34138.23
705.14	34111.11
705.485	34069.98
705.83	33859.36
706.175	33979.36
706.52	33781.4
706.865	33702.98
707.209	33671.57
707.554	33562.42
707.899	33684.68
708.243	33439.49
708.588	33357.23
708.932	33269.32
709.277	33259.38
709.621	33191.13
709.966	32937.13
710.31	33025.49
710.654	32715.21
710.998	32841.09
711.342	32842.44
711.687	32617.14
712.031	32559.74
712.375	32439.51
712.719	32561.32
713.063	32478.61
713.407	32544.37
713.75	32325.84
714.094	32315.45
714.438	32196.81
714.782	32157.49
715.125	32059.64
715.469	32096.7
715.812	32011.73
716.156	31784.62
716.499	31846.08
716.843	31855.35
717.186	31658.29
717.53	31815.35
717.873	31861.22
718.216	31675.69
718.559	31562.48
718.902	31287.45
719.246	31429.37
719.589	31274.57
719.932	31256.95
720.275	31228.47
720.617	31188.25
720.96	31125.65
721.303	31000.91
721.646	31078.19
721.989	30793.46
722.331	31020.57
722.674	30981.02
723.016	30826.68
723.359	30866
723.701	30763.4
724.044	30740.35
724.386	30424.65
724.729	30612.44
725.071	30533.58
725.413	30494.25
725.755	30413.13
726.097	30362.05
726.439	30232.79
726.782	30345.56
727.124	30435.05
727.465	30085.9
727.807	30118.9
728.149	30102.85
728.491	30005.45
728.833	30014.49
729.175	30059.69
729.516	29888.17
729.858	29873.48
730.199	29827.61
730.541	29708.06
730.882	29625.12
731.224	29778.12
731.565	29566.82
731.906	29615.41
732.248	29609.31
732.589	29399.82
732.93	29416.77
733.271	29333.16
733.612	29325.7
733.953	29323.89
734.294	29261.97
734.635	29193.72
734.976	29405.02
735.317	29097.46
735.658	29137.45
735.999	29099.49
736.339	29065.14
736.68	29159.37
737.021	28870.12
737.361	28915.99
737.702	28995.31
738.042	28969.55
738.383	28890.91
738.723	28927.52
739.063	28711.48
739.404	28791.02
739.744	28671.25
740.084	28730.01
740.424	28607.52
740.764	28559.84
741.104	28709.44
741.444	28473.29
741.784	28399.17
742.124	28393.97
742.464	28459.28
742.804	28401.65
743.143	28294.76
743.483	28243.92
743.823	28165.95
744.162	28142.45
744.502	28190.81
744.841	28095.22
745.181	28167.99
745.52	28130.02
745.86	28039.4
746.199	27945.17
746.538	27964.6
746.877	27979.97
747.216	28030.59
747.556	27900.88
747.895	27921.21
748.234	27790.82
748.573	27685.06
748.911	27655.91
749.25	27672.41
749.589	27569.59
749.928	27622.47
750.267	27504.73
750.605	27541.79
750.944	27258.41
751.283	27347.9
751.621	27481
751.96	27228.58
752.298	27222.7
752.636	27340.67
752.975	27117.39
753.313	26973.67
753.651	27121.24
753.989	27037.62
754.327	26918.53
754.666	26797.63
755.004	26887.12
755.342	26767.35
755.679	26779.78
756.017	26594.92
756.355	26601.48
756.693	26568.48
757.031	26553.34
757.368	26494.36
757.706	26360.13
758.044	26375.27
758.381	26334.59
758.719	26116.06
759.056	26205.78
759.394	26151.32
759.731	25959.68
760.068	25988.84
760.405	25938.44
760.743	25874.26
761.08	25768.28
761.417	25647.15
761.754	25647.83
762.091	25681.73
762.428	25495.52
762.765	25361.96
763.102	25481.73
763.438	25338.91
763.775	25289.42
764.112	25227.27
764.449	25256.43
764.785	25167.84
765.122	24870.45
765.458	24940.95
765.795	24773.5
766.131	24758.81
766.467	24691.92
766.804	24628.42
767.14	24523.34
767.476	24444.7
767.812	24408.09
768.148	24395.88
768.485	24302.78
768.821	24091.03
769.157	24013.07
769.492	24032.73
769.828	23981.21
770.164	23820.31
770.5	23682.91
770.836	23752.96
771.171	23522.46
771.507	23651.95
771.842	23503.48
772.178	23426.87
772.513	23299.64
772.849	23277.27
773.184	23188.46
773.519	23130.38
773.855	22967.67
774.19	22858.75
774.525	22789.6
774.86	22762.03
775.195	22774.46
775.53	22588.47
775.865	22507.12
776.2	22387.58
776.535	22308.71
776.87	22235.71
777.205	22065.1
777.539	22115.94
777.874	22131.08
778.209	21906.91
778.543	21897.87
778.878	21742.17
779.212	21675.05
779.547	21627.37
779.881	21659.01
780.215	21439.35
780.55	21531.55
780.884	21315.06
781.218	21323.42
781.552	21265.34
781.886	21195.97
782.22	20988.97
782.554	20929.08
782.888	20721.4
783.222	20744
783.556	20744.45
783.889	20602.54
784.223	20396.22
784.557	20400.73
784.89	20559.83
785.224	20280.96
785.557	20233.73
785.891	20090.69
786.224	20032.38
786.558	20136.56
786.891	19908.54
787.224	19908.77
787.557	19913.06
787.891	19818.38
788.224	19694.99
788.557	19685.27
788.89	19572.96
789.223	19478.73
789.556	19452.29
789.888	19383.59
790.221	19246.64
790.554	19245.28
790.887	19241.9
791.219	19022.47
791.552	19062.01
791.884	18986.99
792.217	18893.43
792.549	18805.97
792.882	18725.3
793.214	18599.88
793.546	18701.57
793.879	18571.86
794.211	18437.17
794.543	18415.7
794.875	18484.85
795.207	18448.24
795.539	18390.62
795.871	18410.05
796.203	18088.25
796.535	18008.93
796.867	18055.03
797.198	17974.81
797.53	18017.07
797.862	17934.13
798.193	17861.59
798.525	17779.11
798.856	17725.55
799.188	17573.01
799.519	17486.01
799.85	17467.93
800.182	17478.1
800.513	17411.43
800.844	17204.21
801.175	17344.54
801.506	17274.72
801.837	17175.96
802.168	17167.83
802.499	17035.4
802.83	17076.08
803.161	16959.47
803.491	16968.96
803.822	16961.73
804.153	16837.44
804.483	16652.81
804.814	16718.35
805.145	16634.96
805.475	16756.54
805.805	16607.84
806.136	16515.64
806.466	16578.46
806.796	16444.23
807.126	16454.4
807.457	16345.47
807.787	16282.65
808.117	16221.41
808.447	16192.48
808.777	16207.4
809.107	16178.02
809.436	16117.68
809.766	16145.03
810.096	15974.86
810.426	15956.78
810.755	15888.54
811.085	15883.11
811.414	15901.19
811.744	15691.71
812.073	15697.13
812.403	15788.65
812.732	15599.05
813.061	15629.33
813.39	15590.24
813.719	15412.17
814.049	15554.53
814.378	15428.21
814.707	15459.85
815.036	15320.64
815.365	15406.97
815.693	15198.16
816.022	15159.74
816.351	15138.27
816.68	15086.52
817.008	15127.43
817.337	15033.19
817.665	14914.1
817.994	14987.54
818.322	15053.76
818.651	14750.94
818.979	14905.29
819.307	14906.19
819.636	14814.67
819.964	14647.44
820.292	14771.28
820.62	14807.44
820.948	14663.48
821.276	14678.85
821.604	14745.74
821.932	14704.61
822.259	14643.15
822.587	14646.99
822.915	14644.73
823.243	14691.73
823.57	14633.2
823.898	14616.71
824.225	14614.22
824.553	14526.54
824.88	14562.7
825.207	14576.71
825.535	14536.93
825.862	14649.25
826.189	14574.67
826.516	14640.89
826.843	14721.56
827.17	14643.15
827.497	14737.61
827.824	14601.34
828.151	14677.5
828.478	14592.53
828.805	14631.39
829.131	14550.27
829.458	14541.23
829.785	14535.58
830.111	14553.2
830.438	14630.94
830.764	14532.87
831.09	14596.82
831.417	14461.46
831.743	14536.71
832.069	14544.17
832.395	14430.04
832.722	14580.1
833.048	14417.62
833.374	14475.92
833.7	14439.99
834.026	14499.2
834.351	14434.79
834.677	14412.87
835.003	14416.94
835.329	14436.82
835.654	14362.25
835.98	14376.49
836.306	14357.96
836.631	14315.92
836.956	14294
837.282	14302.36
837.607	14264.85
837.932	14215.81
838.258	14196.6
838.583	14189.15
838.908	14082.26
839.233	14156.38
839.558	14112.54
839.883	14091.07
840.208	14053.56
840.533	14042.03
840.858	13988.02
841.182	13984.18
841.507	13997.97
841.832	13908.93
842.156	13917.06
842.481	13855.37
842.805	13816.28
843.13	13830.51
843.454	13715.71
843.778	13728.82
844.103	13722.94
844.427	13665.32
844.751	13630.52
845.075	13602.04
845.399	13560.91
845.723	13527.7
846.047	13537.64
846.371	13417.64
846.695	13343.29
847.019	13278.21
847.343	13229.4
847.666	13146.91
847.99	13091.32
848.313	13079.35
848.637	12995.28
848.96	12965.22
849.284	12967.26
849.607	12894.94
849.931	12885.68
850.254	12742.18
850.577	12715.29
850.9	12602.52
851.223	12567.95
851.546	12585.35
851.869	12404.56
852.192	12590.32
852.515	12360.04
852.838	12348.07
853.161	12304.68
853.483	12327.95
853.806	12179.71
854.129	12251.57
854.451	12112.14
854.774	12140.61
855.096	12045.25
855.419	12006.15
855.741	12022.65
856.063	11913.95
856.385	11945.14
856.708	11889.09
857.03	11796.89
857.352	11812.71
857.674	11757.8
857.996	11710.79
858.318	11665.15
858.64	11724.8
858.961	11669.44
859.283	11626.28
859.605	11469.44
859.926	11598.93
860.248	11542.89
860.57	11448.43
860.891	11469.9
861.212	11407.07
861.534	11355.1
861.855	11383.12
862.176	11361.88
862.498	11378.15
862.819	11311.48
863.14	11261.09
863.461	11199.85
863.782	11210.47
864.103	11234.65
864.424	11170.92
864.745	11198.72
865.065	11071.26
865.386	11145.38
865.707	11089.12
866.027	11029.68
866.348	11065.61
866.668	11033.52
866.989	10988.33
867.309	10942
867.63	10961.89
867.95	10954.66
868.27	10844.38
868.59	10911.27
868.91	10868.1
869.23	10855.9
869.55	10809.35
869.87	10847.99
870.19	10826.07
870.51	10778.39
870.83	10827.65
871.15	10717.83
871.469	10737.94
871.789	10805.28
872.109	10753.53
872.428	10689.8
872.748	10702.91
873.067	10656.13
873.386	10573.2
873.706	10669.69
874.025	10578.62
874.344	10528.45
874.663	10574.1
874.982	10570.03
875.301	10517.83
875.62	10514.22
875.939	10442.13
876.258	10485.97
876.577	10430.83
876.896	10462.01
877.214	10417.49
877.533	10441.22
877.852	10363.71
878.17	10374.78
878.489	10372.98
878.807	10389.25
879.125	10344.73
879.444	10356.25
879.762	10275.8
880.08	10289.36
880.398	10225.86
880.716	10165.98
881.034	10209.36
881.352	10218.63
881.67	10177.27
881.988	10204.17
882.306	10147.9
882.624	10194
882.941	10124.17
883.259	10062.93
883.577	10024.51
883.894	10043.72
884.212	9968.01
884.529	9968.24
884.846	9954
885.164	9949.94
885.481	9862.03
885.798	9940.44
886.115	9829.71
886.432	9835.81
886.75	9835.36
887.067	9773.67
887.383	9754.24
887.7	9739.55
888.017	9692.54
888.334	9749.49
888.651	9716.95
888.967	9682.37
889.284	9629.04
889.6	9561.47
889.917	9537.07
890.233	9586.33
890.55	9513.11
890.866	9424.98
891.182	9462.49
891.498	9435.15
891.815	9433.79
892.131	9329.61
892.447	9331.87
892.763	9311.99
893.079	9326.9
893.395	9316.51
893.71	9231.76
894.026	9217.07
894.342	9223.63
894.657	9161.48
894.973	9078.09
895.289	9137.3
895.604	9183.63
895.92	9028.38
896.235	9016.18
896.55	8981.15
896.865	8916.74
897.181	8899.57
897.496	8932.79
897.811	8868.61
898.126	8851.89
898.441	8830.42
898.756	8832.23
899.071	8684.66
899.386	8714.71
899.7	8614.38
900.015	8638.56
900.33	8614.6
900.644	8580.48
900.959	8549.52
901.273	8556.07
901.588	8495.96
901.902	8417.77
902.216	8400.37
902.531	8377.32
902.845	8376.87
903.159	8336.19
903.473	8248.06
903.787	8237.66
904.101	8238.12
904.415	8197.44
904.729	8190.43
905.042	8100.04
905.356	8136.2
905.67	8100.49
905.984	8065.01
906.297	8057.78
906.611	7984.11
906.924	7992.25
907.237	7912.02
907.551	7874.74
907.864	7892.36
908.177	7810.78
908.491	7848.07
908.804	7672.93
909.117	7734.85
909.43	7664.35
909.743	7639.94
910.056	7686.27
910.368	7622.09
910.681	7580.51
910.994	7515.42
911.307	7518.59
911.619	7458.25
911.932	7488.53
912.244	7469.55
912.557	7418.25
912.869	7390
913.181	7306.84
913.494	7378.7
913.806	7285.37
914.118	7230.01
914.43	7242.89
914.742	7211.7
915.054	7175.55
915.366	7119.05
915.678	7124.25
915.99	7051.71
916.302	7079.96
916.613	7043.57
916.925	6990.01
917.236	6982.33
917.548	6949.79
917.859	6961.77
918.171	6844.71
918.482	6870.24
918.794	6833.63
919.105	6765.84
919.416	6748.21
919.727	6766.97
920.038	6702.34
920.349	6709.34
920.66	6651.49
920.971	6613.75
921.282	6631.15
921.593	6526.52
921.903	6497.82
922.214	6527.88
922.525	6479.74
922.835	6465.06
923.146	6435.9
923.456	6429.12
923.767	6431.84
924.077	6411.27
924.387	6301.22
924.697	6307.09
925.008	6269.13
925.318	6184.84
925.628	6247.89
925.938	6200.43
926.248	6144.61
926.558	6140.32
926.867	6165.63
927.177	6071.39
927.487	6058.51
927.796	6013.09
928.106	6002.7
928.416	5969.93
928.725	6011.06
929.034	5891.29
929.344	5936.48
929.653	5944.62
929.962	5833.43
930.271	5851.74
930.581	5843.38
930.89	5784.17
931.199	5703.49
931.508	5765.41
931.817	5680.22
932.125	5696.49
932.434	5676.38
932.743	5639.77
933.051	5587.79
933.36	5585.08
933.669	5610.84
933.977	5554.8
934.286	5514.57
934.594	5486.78
934.902	5483.39
935.21	5466.66
935.519	5404.52
935.827	5411.3
936.135	5439.09
936.443	5448.13
936.751	5303.05
937.059	5358.87
937.367	5277.29
937.674	5285.88
937.982	5209.95
938.29	5230.06
938.597	5200.91
938.905	5188.03
939.213	5187.8
939.52	5071.87
939.827	5156.39
940.135	5068.93
940.442	5055.38
940.749	5042.27
941.056	5062.61
941.363	4961.14
941.67	4960.46
941.977	4959.11
942.284	4917.53
942.591	4900.13
942.898	4893.57
943.205	4930.41
943.511	4824.2
943.818	4803.86
944.125	4755.27
944.431	4724.54
944.738	4783.07
945.044	4689.96
945.35	4721.82
945.657	4691.77
945.963	4670.98
946.269	4659.23
946.575	4685.22
946.881	4602.51
947.187	4635.73
947.493	4567.03
947.799	4588.95
948.105	4513.24
948.41	4536.52
948.716	4536.52
949.022	4468.05
949.327	4467.59
949.633	4414.49
949.938	4414.71
950.244	4446.58
950.549	4398.9
950.854	4337.43
951.16	4332.91
951.465	4331.78
951.77	4297.66
952.075	4325.45
952.38	4249.97
952.685	4277.09
952.99	4238.9
953.294	4234.38
953.599	4200.48
953.904	4151.9
954.209	4186.47
954.513	4162.29
954.818	4122.52
955.122	4118.23
955.426	4097.66
955.731	4089.53
956.035	4080.71
956.339	4059.24
956.643	4077.32
956.948	4009.3
957.252	3987.61
957.556	3967.04
957.86	3983.99
958.163	3958.68
958.467	3943.99
958.771	3907.16
959.075	3927.27
959.378	3927.5
959.682	3885.01
959.985	3856.09
960.289	3840.27
960.592	3774.28
960.896	3836.42
961.199	3768.86
961.502	3798.46
961.805	3751.46
962.108	3722.53
962.411	3738.8
962.714	3702.19
963.017	3662.42
963.32	3703.55
963.623	3661.97
963.926	3659.93
964.228	3611.8
964.531	3609.54
964.833	3575.19
965.136	3591.01
965.438	3546.71
965.741	3558.24
966.043	3522.08
966.345	3511.91
966.648	3459.71
966.95	3503.78
967.252	3474.85
967.554	3448.86
967.856	3429.2
968.158	3428.53
968.46	3447.28
968.761	3414.97
969.063	3365.48
969.365	3362.31
969.666	3323.9
969.968	3320.73
970.269	3341.97
970.571	3334.52
970.872	3269.66
971.174	3246.61
971.475	3258.13
971.776	3262.43
972.077	3226.27
972.378	3255.42
972.679	3245.03
972.98	3214.97
973.281	3188.76
973.582	3209.77
973.883	3167.97
974.183	3157.12
974.484	3174.3
974.785	3113.96
975.085	3098.14
975.386	3102.21
975.686	3052.49
975.986	3035.09
976.287	3036.67
976.587	3025.15
976.887	3022.89
977.187	3005.49
977.487	3035.09
977.787	2953.74
978.087	2940.63
978.387	2936.56
978.687	2931.59
978.987	2912.16
979.286	2913.74
979.586	2889.1
979.885	2894.75
980.185	2887.3
980.484	2833.97
980.784	2800.52
981.083	2835.55
981.382	2840.97
981.682	2786.28
981.981	2777.24
982.28	2787.41
982.579	2786.73
982.878	2772.5
983.177	2737.92
983.475	2743.12
983.774	2744.02
984.073	2719.62
984.372	2691.6
984.67	2658.83
984.969	2672.61
985.267	2654.99
985.566	2627.87
985.864	2645.72
986.162	2650.02
986.461	2600.98
986.759	2573.86
987.057	2573.18
987.355	2581.54
987.653	2573.86
987.951	2593.75
988.249	2543.58
988.547	2539.74
988.844	2521.88
989.142	2494.99
989.44	2493.41
989.737	2479.4
990.035	2488.44
990.332	2461.55
990.63	2475.33
990.927	2430.36
991.224	2417.93
991.521	2411.83
991.819	2393.75
992.116	2376.35
992.413	2374.99
992.71	2377.03
993.006	2350.14
993.303	2362.11
993.6	2345.39
993.897	2334.54
994.193	2316.92
994.49	2308.1
994.787	2298.84
995.083	2269.23
995.379	2260.87
995.676	2261.55
995.972	2252.51
996.268	2262.68
996.565	2235.79
996.861	2227.65
997.157	2202.12
997.453	2227.65
997.749	2205.06
998.044	2165.73
998.34	2132.51
998.636	2178.62
998.932	2128.67
999.227	2107.2
999.523	2126.64
999.818	2074.89
1000.114	2107.2
1000.409	2100.65
1000.704	2086.41
1001	2062.23
1001.295	2019.98
1001.59	2040.99
1001.885	2056.36
1002.18	2012.52
1002.475	2018.62
1002.77	2009.13
1003.065	1976.13
1003.359	1984.27
1003.654	1957.15
1003.949	1958.96
1004.243	1932.75
1004.538	1949.69
1004.832	1910.83
1005.127	1945.17
1005.421	1882.58
1005.715	1897.49
1006.009	1916.02
1006.304	1876.25
1006.598	1874.44
1006.892	1873.76
1007.186	1848.45
1007.48	1821.79
1007.773	1823.6
1008.067	1788.79
1008.361	1813.88
1008.655	1805.52
1008.948	1812.3
1009.242	1753.54
1009.535	1788.79
1009.829	1728.46
1010.122	1744.28
1010.415	1750.15
1010.708	1750.15
1011.001	1701.57
1011.295	1698.4
1011.588	1698.85
1011.881	1701.11
1012.173	1686.2
1012.466	1650.95
1012.759	1652.08
1013.052	1658.4
1013.344	1631.96
1013.637	1629.25
1013.93	1612.53
1014.222	1621.34
1014.514	1603.26
1014.807	1625.18
1015.099	1563.49
1015.391	1602.81
1015.683	1583.6
1015.976	1552.19
1016.268	1555.13
1016.56	1559.65
1016.851	1526.2
1017.143	1545.41
1017.435	1517.16
1017.727	1498.18
1018.018	1491.85
1018.31	1471.74
1018.602	1485.3
1018.893	1481.23
1019.185	1482.36
1019.476	1429.93
1019.767	1440.1
1020.058	1434.45
1020.35	1429.03
1020.641	1414.57
1020.932	1389.26
1021.223	1393.1
1021.514	1375.92
1021.804	1346.55
1022.095	1330.73
1022.386	1356.04
1022.677	1339.99
1022.967	1354.23
1023.258	1302.93
1023.548	1330.5
1023.839	1320.78
1024.129	1313.1
1024.419	1292.99
1024.709	1298.41
1025	1302.03
1025.29	1274.01
1025.58	1269.03
1025.87	1265.87
1026.16	1241.24
1026.449	1243.5
1026.739	1237.17
1027.029	1247.79
1027.319	1221.8
1027.608	1209.83
1027.898	1176.38
1028.187	1218.41
1028.477	1211.86
1028.766	1187
1029.055	1175.48
1029.344	1165.31
1029.634	1142.48
1029.923	1152.65
1030.212	1153.11
1030.501	1126.67
1030.79	1125.99
1031.078	1111.75
1031.367	1103.16
1031.656	1102.94
1031.945	1081.24
1032.233	1092.54
1032.522	1067.91
1032.81	1067.91
1033.099	1075.14
1033.387	1067.01
1033.675	1060.45
1033.963	1057.97
1034.251	1052.32
1034.54	1050.28
1034.828	1031.75
1035.116	1029.94
1035.403	993.56
1035.691	1003.5
1035.979	1006.44
1036.267	1003.28
1036.554	985.43
1036.842	994.92
1037.129	978.65
1037.417	959.44
1037.704	970.51
1037.992	972.32
1038.279	953.56
1038.566	927.8
1038.853	927.8
1039.14	927.8
