Data from hue_50_FLMS001491_4.txt Node
Date: Mon Feb 06 15:09:29 GMT 2017
User: dcchb
Spectrometer: FLMS00149
Trigger mode: 0
Integration Time (sec): 2.000000E-2
Scans to average: 10
Electric dark correction enabled: true
Nonlinearity correction enabled: false
Boxcar width: 0
XAxis mode: Wavelengths
Number of Pixels in Spectrum: 2048
>>>>>Begin Spectral Data<<<<<
341.393	-29.15
341.776	-29.15
342.16	-29.15
342.543	-63.5
342.927	-66.21
343.31	-57.63
343.693	-70.73
344.077	-66.21
344.46	-75.48
344.843	-43.16
345.226	-56.95
345.61	-31.86
345.993	-19.43
346.376	-19.21
346.759	10.85
347.142	25.31
347.525	35.71
347.908	42.94
348.291	82.71
348.674	108.02
349.057	135.14
349.44	150.96
349.823	135.36
350.206	156.38
350.588	196.61
350.971	208.13
351.354	226.21
351.737	239.54
352.119	256.04
352.502	256.49
352.884	272.08
353.267	311.18
353.65	307.79
354.032	302.82
354.414	307.34
354.797	308.24
355.179	312.31
355.562	317.05
355.944	310.95
356.326	319.31
356.709	338.75
357.091	351.4
357.473	345.98
357.855	331.97
358.238	344.4
358.62	329.26
359.002	336.94
359.384	333.78
359.766	340.78
360.148	339.2
360.53	345.08
360.912	349.14
361.294	338.3
361.676	338.75
362.057	342.14
362.439	319.77
362.821	319.09
363.203	328.8
363.584	315.25
363.966	348.01
364.348	325.64
364.729	342.14
365.111	333.78
365.493	311.4
365.874	317.96
366.256	314.34
366.637	321.8
367.019	317.05
367.4	319.77
367.781	309.6
368.163	310.5
368.544	302.14
368.925	304.4
369.306	319.99
369.688	316.6
370.069	304.85
370.45	310.05
370.831	298.07
371.212	314.57
371.593	314.12
371.974	310.27
372.355	313.44
372.736	319.77
373.117	341.23
373.498	307.34
373.879	320.44
374.26	299.2
374.641	311.18
375.021	314.79
375.402	301.24
375.783	314.79
376.163	321.57
376.544	325.42
376.925	332.42
377.305	313.21
377.686	326.55
378.066	319.77
378.447	307.11
378.827	323.83
379.208	311.63
379.588	348.01
379.968	324.29
380.349	333.78
380.729	324.51
381.109	352.08
381.489	330.84
381.87	333.1
382.25	329.93
382.63	341.91
383.01	342.59
383.39	337.62
383.77	330.84
384.15	319.31
384.53	354.57
384.91	339.88
385.29	343.72
385.67	346.66
386.049	343.04
386.429	343.72
386.809	325.87
387.189	320.22
387.568	361.35
387.948	328.13
388.328	339.65
388.707	348.24
389.087	336.49
389.466	335.81
389.846	362.93
390.225	347.79
390.605	354.11
390.984	342.59
391.363	372.65
391.743	344.17
392.122	367
392.501	361.12
392.881	362.02
393.26	349.6
393.639	366.32
394.018	362.93
394.397	368.58
394.776	359.09
395.155	358.18
395.534	367
395.913	356.83
396.292	392.98
396.671	371.74
397.05	378.07
397.429	358.41
397.808	372.42
398.186	387.79
398.565	367.67
398.944	368.8
399.323	388.92
399.701	388.92
400.08	369.93
400.458	368.58
400.837	380.55
401.215	377.84
401.594	381.91
401.972	373.32
402.351	384.4
402.729	378.07
403.107	375.36
403.486	391.4
403.864	398.63
404.242	394.79
404.62	405.64
404.999	385.98
405.377	406.99
405.755	422.59
406.133	428.01
406.511	398.63
406.889	397.28
407.267	416.03
407.645	395.02
408.023	417.84
408.401	407.22
408.779	410.61
409.156	404.96
409.534	401.8
409.912	433.89
410.29	424.62
410.667	414.45
411.045	423.94
411.422	427.56
411.8	424.85
412.178	412.19
412.555	440.89
412.933	415.36
413.31	436.37
413.687	429.59
414.065	470.5
414.442	443.15
414.819	460.1
415.197	471.63
415.574	455.58
415.951	461.23
416.328	456.03
416.705	467.33
417.082	466.43
417.46	479.99
417.837	474.79
418.214	485.86
418.591	482.25
418.967	484.28
419.344	470.72
419.721	471.4
420.098	476.15
420.475	476.6
420.852	469.14
421.228	474.34
421.605	489.03
421.982	490.61
422.358	497.84
422.735	493.77
423.111	513.88
423.488	503.94
423.864	518.4
424.241	529.25
424.617	512.08
424.994	542.13
425.37	549.14
425.746	525.86
426.123	535.13
426.499	531.74
426.875	538.06
427.251	522.25
427.627	524.28
428.003	533.55
428.379	547.1
428.756	534.9
429.132	581.45
429.507	534.9
429.883	551.4
430.259	569.02
430.635	552.98
431.011	563.6
431.387	562.7
431.763	577.16
432.138	570.83
432.514	579.65
432.89	592.75
433.265	565.86
433.641	612.64
434.016	586.65
434.392	605.18
434.767	610.61
435.143	612.19
435.518	618.74
435.894	622.81
436.269	653.32
436.644	614
437.02	618.74
437.395	639.31
437.77	642.02
438.145	638.63
438.52	649.47
438.895	670.49
439.271	630.72
439.646	689.93
440.021	667.1
440.395	656.03
440.77	680.21
441.145	670.72
441.52	679.08
441.895	678.63
442.27	671.62
442.645	696.7
443.019	707.33
443.394	691.51
443.769	695.8
444.143	706.2
444.518	719.76
444.892	713.65
445.267	710.72
445.641	726.99
446.016	722.47
446.39	719.76
446.764	718.63
447.139	727.89
447.513	730.38
447.887	743.94
448.262	761.11
448.636	745.52
449.01	736.25
449.384	750.94
449.758	751.39
450.132	750.26
450.506	757.72
450.88	779.87
451.254	775.57
451.628	810.15
452.002	802.01
452.376	802.69
452.75	804.05
453.123	797.27
453.497	814.22
453.871	809.24
454.244	856.93
454.618	821.45
454.992	852.86
455.365	861.22
455.739	880.88
456.112	861.67
456.486	879.52
456.859	907.55
457.232	891.5
457.606	905.29
457.979	890.6
458.352	919.07
458.725	909.13
459.099	933.53
459.472	963.36
459.845	948
460.218	947.55
460.591	999.07
460.964	993.87
461.337	997.94
461.71	1051.27
462.083	1023.25
462.456	1010.82
462.829	1015.34
463.201	1058.5
463.574	1038.16
463.947	1081.1
464.32	1076.13
464.692	1110.93
465.065	1122
465.438	1138.73
465.81	1141.44
466.183	1140.76
466.555	1177.14
466.928	1189.57
467.3	1181.21
467.672	1211.49
468.045	1246.29
468.417	1260.76
468.789	1236.8
469.161	1285.84
469.534	1317.03
469.906	1358.16
470.278	1347.08
470.65	1394.77
471.022	1400.19
471.394	1402.67
471.766	1446.74
472.138	1452.62
472.51	1516.12
472.882	1526.97
473.253	1573.74
473.625	1604.03
473.997	1666.85
474.369	1662.33
474.74	1689.67
475.112	1732.38
475.484	1740.52
475.855	1791.37
476.227	1825.49
476.598	1939.16
476.97	1935.09
477.341	2016.67
477.713	2078.59
478.084	2060.06
478.455	2166.27
478.827	2225.7
479.198	2255.08
479.569	2316.1
479.94	2366.72
480.311	2461.18
480.682	2506.37
481.053	2589.76
481.424	2642.42
481.795	2733.94
482.166	2803.54
482.537	2854.39
482.908	2992.01
483.279	3056.42
483.65	3134.15
484.021	3200.14
484.391	3307.26
484.762	3410.53
485.133	3488.04
485.503	3568.04
485.874	3667.7
486.244	3714.7
486.615	3878.54
486.985	3951.99
487.356	4068.59
487.726	4192.88
488.097	4300.23
488.467	4379.77
488.837	4566.43
489.207	4678.75
489.578	4764.85
489.948	4923.71
490.318	4995.8
490.688	5106.08
491.058	5218.17
491.428	5330.48
491.798	5449.57
492.168	5643.24
492.538	5682.34
492.908	5875.55
493.278	6008.66
493.648	6082.78
494.017	6223.79
494.387	6323.9
494.757	6451.58
495.126	6602.99
495.496	6702.42
495.866	6863.1
496.235	6953.04
496.605	7099.02
496.974	7160.49
497.344	7348.51
497.713	7458.56
498.082	7564.55
498.452	7667.59
498.821	7806.57
499.19	7916.63
499.559	8062.16
499.928	8155.49
500.298	8294.02
500.667	8410.63
501.036	8455.82
501.405	8647
501.774	8748.92
502.143	8839.09
502.512	8957.05
502.88	9075.69
503.249	9134.9
503.618	9264.39
503.987	9338.06
504.356	9458.28
504.724	9608.33
505.093	9703.02
505.462	9822.34
505.83	9897.59
506.199	10019.4
506.567	10127.87
506.936	10178.04
507.304	10352.95
507.672	10474.53
508.041	10574.86
508.409	10685.59
508.777	10799.04
509.145	10875.65
509.514	10973.04
509.882	11098.01
510.25	11167.39
510.618	11265.47
510.986	11396.08
511.354	11554.05
511.722	11658.68
512.09	11780.48
512.458	11815.28
512.826	11897.31
513.193	12005.56
513.561	12103.18
513.929	12124.2
514.297	12329.85
514.664	12466.79
515.032	12509.05
515.4	12604.19
515.767	12718.54
516.135	12810.28
516.502	12842.37
516.869	13037.17
517.237	13123.27
517.604	13149.71
517.972	13302.25
518.339	13334.34
518.706	13409.59
519.073	13548.12
519.44	13511.51
519.808	13753.08
520.175	13798.06
520.542	13978.62
520.909	14052.74
521.276	14083.47
521.643	14247.08
522.009	14317.14
522.376	14482.78
522.743	14626.51
523.11	14749.89
523.477	14818.82
523.843	15011.81
524.21	15044.58
524.577	15276.66
524.943	15292.03
525.31	15335.64
525.676	15541.96
526.043	15671.9
526.409	15651.34
526.776	15886.36
527.142	15978.56
527.508	16090.65
527.874	16103.76
528.241	16288.61
528.607	16308.27
528.973	16508.27
529.339	16533.8
529.705	16625.33
530.071	16732.44
530.437	16921.59
530.803	17008.82
531.169	17082.94
531.535	17049.04
531.901	17138.98
532.267	17274.8
532.632	17398.19
532.998	17427.11
533.364	17540.56
533.73	17569.48
534.095	17829.59
534.461	17769.02
534.826	17948.68
535.192	18015.35
535.557	18122.69
535.923	18137.6
536.288	18243.81
536.653	18192.97
537.019	18279.97
537.384	18303.7
537.749	18395.45
538.114	18527.2
538.479	18555.67
538.845	18628.21
539.21	18651.26
539.575	18777.13
539.94	18835.89
540.305	18976.68
540.67	18938.71
541.034	19006.05
541.399	19112.49
541.764	19117.92
542.129	19239.27
542.494	19310.23
542.858	19389.09
543.223	19442.43
543.587	19548.86
543.952	19563.1
544.316	19636.09
544.681	19707.05
545.045	19803.1
545.41	19908.63
545.774	19907.5
546.138	19950.44
546.503	20013.49
546.867	19972.58
547.231	20171.22
547.595	20253.25
547.959	20342.06
548.324	20333.7
548.688	20399.46
549.052	20541.83
549.416	20551.32
549.779	20552.23
550.143	20588.61
550.507	20788.61
550.871	20721.49
551.235	20802.62
551.599	21046.45
551.962	20882.84
552.326	21147.01
552.689	21201.02
553.053	21028.37
553.417	21294.13
553.78	21426.78
554.143	21368.25
554.507	21518.3
554.87	21628.13
555.234	21813.21
555.597	21696.6
555.96	21885.98
556.323	21785.19
556.686	21997.16
557.05	22071.96
557.413	22085.75
557.776	22267.21
558.139	22371.39
558.502	22412.74
558.865	22455.45
559.228	22595.56
559.59	22601.44
559.953	22679.86
560.316	22999.85
560.679	23038.72
561.041	23000.75
561.404	23242.78
561.767	23349.44
562.129	23327.07
562.492	23544.47
562.854	23467.41
563.217	23571.81
563.579	23590.34
563.941	23760.28
564.304	23895.64
564.666	24069.2
565.028	23996.21
565.39	24124.34
565.753	24296.76
566.115	24277.33
566.477	24342.41
566.839	24456.76
567.201	24663.08
567.563	24649.75
567.925	24727.94
568.287	24915.05
568.648	24938.55
569.01	25140.36
569.372	25259.45
569.734	25223.74
570.095	25445.43
570.457	25482.72
570.819	25591.87
571.18	25595.26
571.542	25922.48
571.903	25933.56
572.265	25887.23
572.626	25870.96
572.987	26032.08
573.349	26112.99
573.71	26312.98
574.071	26282.47
574.432	26453.54
574.794	26558.62
575.155	26685.85
575.516	26562.69
575.877	26751.61
576.238	26954.77
576.599	26982.57
576.96	27020.76
577.32	27045.39
577.681	27275.89
578.042	27341.88
578.403	27477.47
578.763	27399.05
579.124	27496.68
579.485	27677.69
579.845	27856.67
580.206	27916.33
580.566	27892.37
580.927	27913.16
581.287	28265.02
581.648	28077.23
582.008	28455.97
582.368	28377.56
582.728	28504.56
583.089	28509.53
583.449	28556.54
583.809	28836.53
584.169	28931.44
584.529	28850.54
584.889	29113.81
585.249	29060.03
585.609	29179.12
585.969	29312.68
586.329	29372.56
586.688	29544.53
587.048	29571.2
587.408	29553.8
587.768	29741.14
588.127	29830.63
588.487	29719.22
588.846	30219.09
589.206	29988.36
589.565	30136.83
589.925	30388.13
590.284	30307.68
590.643	30579.99
591.003	30620.66
591.362	30913.31
591.721	30777.95
592.08	30951.05
592.44	31106.07
592.799	31211.38
593.158	31280.08
593.517	31296.13
593.876	31301.55
594.235	31575.67
594.593	31479.4
594.952	31792.84
595.311	31823.57
595.67	31874.64
596.029	32285.48
596.387	32214.52
596.746	32334.52
597.104	32227.18
597.463	32255.2
597.822	32591.01
598.18	32357.57
598.538	32630.1
598.897	32645.92
599.255	32626.26
599.613	32998.68
599.972	32918.23
600.33	33092.01
600.688	33037.1
601.046	33159.58
601.404	33460.36
601.762	33300.37
602.12	33500.36
602.478	33626.69
602.836	33529.29
603.194	33563.41
603.552	33602.73
603.91	33715.05
604.268	33870.52
604.625	33855.38
604.983	34094.7
605.341	34002.5
605.698	34251.75
606.056	34352.54
606.413	34359.32
606.771	34475.93
607.128	34579.43
607.485	34385.54
607.843	34494.46
608.2	34729.48
608.557	34934.45
608.914	34816.03
609.272	35154.56
609.629	35124.05
609.986	35158.17
610.343	35214.67
610.7	35468.9
611.057	35433.64
611.414	35479.52
611.771	35462.8
612.127	35830.47
612.484	35595.67
612.841	35890.81
613.198	35742.11
613.554	35824.37
613.911	36154.08
614.267	36054.65
614.624	36124.47
614.98	36184.59
615.337	36472.04
615.693	36341.42
616.05	36204.92
616.406	36684.69
616.762	36453.73
617.118	36596.1
617.475	36578.93
617.831	36644.69
618.187	36726.49
618.543	36759.49
618.899	36973.04
619.255	36840.39
619.611	36950.89
619.967	37141.4
620.323	37272.92
620.678	37165.35
621.034	37105.92
621.39	37121.96
621.746	37058.91
622.101	37620.25
622.457	37153.6
622.812	37352.24
623.168	37462.07
623.523	37511.1
623.879	37568.5
624.234	37490.54
624.589	37644.66
624.945	37641.04
625.3	37634.94
625.655	37632.91
626.01	37673.59
626.365	37713.81
626.72	37676.3
627.075	37716.75
627.43	37731.44
627.785	37562.4
628.14	37782.28
628.495	37767.59
628.85	37718.33
629.205	37672.91
629.559	37914.03
629.914	37719.46
630.269	37901.6
630.623	37705.45
630.978	37657.09
631.332	37807.59
631.687	37862.96
632.041	37653.93
632.396	37792.45
632.75	37647.82
633.104	37774.83
633.459	37559.92
633.813	37652.57
634.167	37554.72
634.521	37609.63
634.875	37763.53
635.229	37647.15
635.583	37403.08
635.937	37496.64
636.291	37507.94
636.645	37299.58
636.999	37376.87
637.352	37452.8
637.706	37393.37
638.06	37413.48
638.413	37493.25
638.767	37180.27
639.121	37449.64
639.474	37189.98
639.828	37330.32
640.181	37326.93
640.534	37299.58
640.888	37232.92
641.241	37111.34
641.594	37233.82
641.947	37222.3
642.301	37218.23
642.654	37179.59
643.007	37172.81
643.36	37036.54
643.713	36963.1
644.066	37236.31
644.419	36948.86
644.771	36665.48
645.124	36473.39
645.477	36384.13
645.83	36166.96
646.182	35971.03
646.535	35850.36
646.888	35961.77
647.24	35737.59
647.593	36041.31
647.945	35745.95
648.298	35681.77
648.65	35635.67
649.002	35668.44
649.355	35811.49
649.707	35723.81
650.059	35843.58
650.411	36182.78
650.763	36337.58
651.115	36749.54
651.467	36479.27
651.819	36401.3
652.171	36338.25
652.523	36409.44
652.875	36396.11
653.227	36281.08
653.578	36551.58
653.93	36415.31
654.282	36260.97
654.633	36263.68
654.985	36283.34
655.337	36240.4
655.688	36214.19
656.039	36485.37
656.391	36098.03
656.742	36205.15
657.094	36211.25
657.445	36310.23
657.796	36084.02
658.147	36071.82
658.498	36044.48
658.849	36118.82
659.2	36145.26
659.551	36101.88
659.902	36361.3
660.253	36112.95
660.604	36088.54
660.955	36038.83
661.306	36103.91
661.656	36039.28
662.007	36098.03
662.358	35948.21
662.708	36033.63
663.059	36020.75
663.409	35797.02
663.76	36041.31
664.11	36006.06
664.461	36123.12
664.811	35979.62
665.161	36117.92
665.511	35963.57
665.862	36157.24
666.212	36002.44
666.562	36047.64
666.912	35928.55
667.262	35841.54
667.612	35841.77
667.962	35813.75
668.312	35909.11
668.662	36098.03
669.011	35817.59
669.361	35683.81
669.711	35759.29
670.06	35795.22
670.41	35602.23
670.76	35574.88
671.109	35803.35
671.459	35624.6
671.808	35716.58
672.157	35657.37
672.507	35435
672.856	35617.14
673.205	35639.51
673.554	35583.02
673.904	35622.11
674.253	35698.27
674.602	35573.08
674.951	34971.06
675.3	34858.74
675.649	35401.33
675.998	35485.62
676.346	35534.21
676.695	35490.59
677.044	35326.53
677.393	35411.95
677.741	35462.57
678.09	35329.24
678.438	35347.09
678.787	35310.94
679.135	35260.09
679.484	35031.4
679.832	35454.21
680.181	35015.12
680.529	35190.26
680.877	35072.98
681.225	35021.45
681.573	35322.69
681.922	34906.43
682.27	34744.17
682.618	34810.38
682.966	34816.26
683.314	34830.04
683.661	34709.6
684.009	34531.97
684.357	34524.29
684.705	34381.24
685.053	34494.46
685.4	34577.85
685.748	34492.43
686.095	34385.08
686.443	34207.01
686.79	34093.79
687.138	34231.42
687.485	34225.31
687.832	34073.91
688.18	34147.8
688.527	33947.13
688.874	33890.41
689.221	33826.23
689.568	33834.59
689.915	33703.97
690.262	33795.72
690.609	33630.3
690.956	33366.13
691.303	33549.63
691.65	33291.55
691.997	33262.4
692.344	33095.17
692.69	33152.35
693.037	33082.97
693.383	32840.04
693.73	32837.33
694.077	32698.8
694.423	32766.82
694.769	32658.8
695.116	32608.41
695.462	32392.59
695.808	32430.56
696.155	32523.44
696.501	32236.21
696.847	32058.82
697.193	31951.48
697.539	32110.34
697.885	31904.7
698.231	31841.2
698.577	31744.25
698.923	31618.15
699.269	31626.74
699.614	31491.6
699.96	31602.78
700.306	31426.29
700.651	31228.78
700.997	31294.54
701.342	31188.56
701.688	31200.76
702.033	31001.44
702.379	31018.62
702.724	30902.46
703.069	31001.9
703.415	30671.06
703.76	30563.49
704.105	30622.7
704.45	30582.7
704.795	30387.45
705.14	30303.84
705.485	30359.2
705.83	30093.9
706.175	30217.28
706.52	30027.01
706.865	29992.88
707.209	29980
707.554	29852.55
707.899	29919.21
708.243	29815.26
708.588	29640.58
708.932	29521.26
709.277	29496.4
709.621	29538.66
709.966	29332.34
710.31	29302.51
710.654	29199.01
710.998	29186.8
711.342	29267.71
711.687	29010.54
712.031	28970.99
712.375	28929.41
712.719	28939.8
713.063	28904.1
713.407	29032.01
713.75	28760.83
714.094	28799.92
714.438	28660.94
714.782	28716.76
715.125	28534.62
715.469	28528.29
715.812	28453.04
716.156	28224.57
716.499	28258.24
716.843	28290.78
717.186	28066.15
717.53	28239.03
717.873	28271.57
718.216	28015.99
718.559	28011.24
718.902	27858.02
719.246	28001.3
719.589	27906.61
719.932	27728.08
720.275	27764.69
720.617	27722.43
720.96	27609.44
721.303	27676.79
721.646	27578.94
721.989	27325.61
722.331	27472.27
722.674	27428.21
723.016	27437.02
723.359	27507.53
723.701	27357.25
724.044	27171.71
724.386	27102.34
724.729	27149.57
725.071	27151.83
725.413	27070.93
725.755	27152.96
726.097	27031.83
726.439	26780.99
726.782	26874.77
727.124	26963.36
727.465	26719.3
727.807	26670.03
728.149	26708.45
728.491	26722.01
728.833	26606.76
729.175	26688.56
729.516	26422.58
729.858	26571.96
730.199	26456.71
730.541	26491.05
730.882	26462.36
731.224	26543.26
731.565	26348.91
731.906	26258.74
732.248	26434.11
732.589	26213.77
732.93	26047.22
733.271	26141.23
733.612	26059.88
733.953	26239.76
734.294	25991.63
734.635	25966.77
734.976	26072.53
735.317	25862.6
735.658	25913.67
735.999	25842.26
736.339	25683.62
736.68	25920.9
737.021	25837.06
737.361	25584.64
737.702	25851.75
738.042	25639.1
738.383	25651.3
738.723	25596.16
739.063	25435.72
739.404	25555.49
739.744	25450.18
740.084	25395.26
740.424	25482.49
740.764	25347.81
741.104	25398.65
741.444	25337.86
741.784	25276.4
742.124	25235.72
742.464	25224.42
742.804	25096.74
743.143	25062.84
743.483	25116.18
743.823	24998.44
744.162	24895.84
744.502	25022.17
744.841	24884.09
745.181	25031.88
745.52	24794.6
745.86	24894.71
746.199	24732.46
746.538	24697.88
746.877	24825.79
747.216	24747.6
747.556	24681.84
747.895	24797.99
748.234	24524.55
748.573	24511.45
748.911	24467.83
749.25	24463.31
749.589	24313.94
749.928	24392.35
750.267	24386.7
750.605	24268.74
750.944	24260.15
751.283	24185.13
751.621	24301.73
751.96	24110.33
752.298	24201.17
752.636	24114.39
752.975	23922.99
753.313	23798.24
753.651	23932.48
753.989	23851.35
754.327	23712.37
754.666	23584.92
755.004	23664.46
755.342	23700.17
755.679	23670.79
756.017	23513.73
756.355	23578.59
756.693	23573.62
757.031	23476.22
757.368	23316.68
757.706	23293.4
758.044	23233.51
758.381	23172.72
758.719	23057.25
759.056	23019.28
759.394	23022.22
759.731	22915.1
760.068	22864.94
760.405	22789.01
760.743	22763.7
761.08	22857.7
761.417	22683.25
761.754	22599.86
762.091	22508.11
762.428	22376.36
762.765	22292.07
763.102	22386.98
763.438	22241.68
763.775	22159.64
764.112	22223.37
764.449	22145.63
764.785	21955.58
765.122	21888.92
765.458	21782.7
765.795	21763.04
766.131	21728.69
766.467	21671.97
766.804	21634.91
767.14	21334.13
767.476	21430.4
767.812	21358.76
768.148	21386.78
768.485	21259.78
768.821	21168.03
769.157	21088.71
769.492	21071.99
769.828	21051.42
770.164	20881.48
770.5	20830.86
770.836	20863.41
771.171	20600.36
771.507	20695.28
771.842	20563.08
772.178	20515.62
772.513	20471.1
772.849	20369.41
773.184	20323.76
773.519	20271.11
773.855	20178.23
774.19	20154.95
774.525	19996.08
774.86	20020.26
775.195	19947.72
775.53	19867.05
775.865	19760.84
776.2	19634.51
776.535	19529.43
776.87	19558.36
777.205	19447.85
777.539	19393.84
777.874	19425.48
778.209	19210.12
778.543	19135.99
778.878	19000.4
779.212	19051.7
779.547	18968.09
779.881	18986.39
780.215	18856.45
780.55	18907.53
780.884	18701.88
781.218	18634.31
781.552	18626.4
781.886	18542.34
782.22	18446.52
782.554	18432.06
782.888	18243.59
783.222	18246.07
783.556	18111.39
783.889	18049.02
784.223	17907.55
784.557	17978.06
784.89	17996.59
785.224	17843.37
785.557	17687.44
785.891	17736.93
786.224	17589.14
786.558	17712.08
786.891	17472.08
787.224	17457.85
787.557	17346.21
787.891	17301.92
788.224	17284.07
788.557	17301.69
788.89	17282.48
789.223	17180.34
789.556	17022.83
789.888	16954.81
790.221	16934.47
790.554	16814.93
790.887	16906.67
791.219	16804.53
791.552	16710.75
791.884	16665.55
792.217	16545.78
792.549	16505.1
792.882	16395.28
793.214	16285.67
793.546	16373.35
793.879	16230.53
794.211	16146.69
794.543	16216.07
794.875	16157.32
795.207	16139.24
795.539	16052.46
795.871	16028.05
796.203	15828.06
796.535	15784.9
796.867	15784.67
797.198	15687.95
797.53	15729.08
797.862	15589.87
798.193	15676.88
798.525	15476.2
798.856	15516.43
799.188	15384.91
799.519	15267.4
799.85	15296.55
800.182	15270.78
800.513	15219.03
800.844	15045.48
801.175	15268.3
801.506	15154.4
801.837	15116.21
802.168	15038.02
802.499	14990.79
802.83	14924.58
803.161	14815.66
803.491	14788.31
803.822	14898.37
804.153	14736.34
804.483	14663.34
804.814	14659.5
805.145	14632.61
805.475	14556.91
805.805	14486.4
806.136	14531.14
806.466	14417.93
806.796	14503.35
807.126	14257.25
807.457	14353.52
807.787	14356.91
808.117	14329.57
808.447	14161.44
808.777	14235.78
809.107	14144.71
809.436	14137.48
809.766	14078.5
810.096	13975
810.426	13968.22
810.755	13959.63
811.085	13932.97
811.414	13890.26
811.744	13821.56
812.073	13749.69
812.403	13755.12
812.732	13652.07
813.061	13691.17
813.39	13587.44
813.719	13539.08
814.049	13598.74
814.378	13515.8
814.707	13524.16
815.036	13506.31
815.365	13370.27
815.693	13308.35
816.022	13318.29
816.351	13208.01
816.68	13221.57
817.008	13235.13
817.337	13106.1
817.665	13153.1
817.994	13115.81
818.322	13166.89
818.651	12956.95
818.979	13022.48
819.307	13104.74
819.636	12982.03
819.964	12938.64
820.292	13013.9
820.62	12951.3
820.948	12894.35
821.276	12955.14
821.604	12835.37
821.932	12915.59
822.259	12829.49
822.587	12861.81
822.915	12803.28
823.243	12826.56
823.57	12890.28
823.898	12820.68
824.225	12801.7
824.553	12758.99
824.88	12847.12
825.207	12760.12
825.535	12730.51
825.862	12853.67
826.189	12782.49
826.516	12833.11
826.843	12881.92
827.17	12834.92
827.497	12877.63
827.824	12785.88
828.151	12918.76
828.478	12763.73
828.805	12880.57
829.131	12809.83
829.458	12731.19
829.785	12757.63
830.111	12703.39
830.438	12762.6
830.764	12792.21
831.09	12828.59
831.417	12773.22
831.743	12824.97
832.069	12754.01
832.395	12652.55
832.722	12839.21
833.048	12755.82
833.374	12711.08
833.7	12679.21
834.026	12660.46
834.351	12649.38
834.677	12660.46
835.003	12743.17
835.329	12653.68
835.654	12619.1
835.98	12568.71
836.306	12654.36
836.631	12534.59
836.956	12629.05
837.282	12539.33
837.607	12492.78
837.932	12453.91
838.258	12495.72
838.583	12392.89
838.908	12331.88
839.233	12398.54
839.558	12390.86
839.883	12274.48
840.208	12293.24
840.533	12331.43
840.858	12260.24
841.182	12231.77
841.507	12277.19
841.832	12110.42
842.156	12229.51
842.481	12048.5
842.805	12121.72
843.13	12073.58
843.454	12024.09
843.778	11999.01
844.103	11977.99
844.427	12026.35
844.751	11949.06
845.075	11916.97
845.399	11852.34
845.723	11838.11
846.047	11857.99
846.371	11707.49
846.695	11671.11
847.019	11628.85
847.343	11609.41
847.666	11590.66
847.99	11519.7
848.313	11465.69
848.637	11424.56
848.96	11442.41
849.284	11405.58
849.607	11317.89
849.931	11205.81
850.254	11142.53
850.577	11100.05
850.9	11070.44
851.223	11051.46
851.546	11028.18
851.869	10921.29
852.192	11029.99
852.515	10849.66
852.838	10781.19
853.161	10776.67
853.483	10750.9
853.806	10725.14
854.129	10726.27
854.451	10631.36
854.774	10605.14
855.096	10582.77
855.419	10568.54
855.741	10515.88
856.063	10498.03
856.385	10437.92
856.708	10378.71
857.03	10402.44
857.352	10408.09
857.674	10313.18
857.996	10365.83
858.318	10261.88
858.64	10315.43
858.961	10209.22
859.283	10127.64
859.605	10236.34
859.926	10190.24
860.248	10068.44
860.57	10066.18
860.891	10007.19
861.212	10026.86
861.534	9983.47
861.855	10043.13
862.176	9969
862.498	9944.37
862.819	9936.01
863.14	9911.6
863.461	9949.34
863.782	9860.08
864.103	9860.53
864.424	9845.39
864.745	9859.4
865.065	9847.2
865.386	9716.35
865.707	9811.04
866.027	9799.97
866.348	9700.31
866.668	9721.55
866.989	9704.38
867.309	9565.17
867.63	9601.56
867.95	9595.91
868.27	9549.81
868.59	9618.96
868.91	9578.96
869.23	9591.84
869.55	9526.53
869.87	9548
870.19	9500.99
870.51	9480.65
870.83	9483.82
871.15	9495.12
871.469	9527.66
871.789	9474.55
872.109	9441.11
872.428	9388.68
872.748	9411.96
873.067	9400.88
873.386	9363.82
873.706	9421.9
874.025	9381.45
874.344	9281.34
874.663	9357.95
874.982	9250.6
875.301	9283.15
875.62	9175.8
875.939	9138.29
876.258	9240.66
876.577	9151.85
876.896	9208.35
877.214	9159.76
877.533	9151.85
877.852	9153.88
878.17	9226.65
878.489	9169.25
878.807	9089.48
879.125	9145.52
879.444	9067.33
879.762	9018.07
880.08	9134
880.398	8963.15
880.716	8971.29
881.034	8974
881.352	9002.7
881.67	9022.59
881.988	8934.45
882.306	8940.1
882.624	8874.57
882.941	8844.06
883.259	8801.35
883.577	8815.36
883.894	8790.05
884.212	8755.25
884.529	8752.09
884.846	8708.02
885.164	8753.44
885.481	8715.7
885.798	8742.37
886.115	8603.62
886.432	8642.48
886.75	8564.97
887.067	8593.67
887.383	8607.68
887.7	8582.83
888.017	8532.43
888.334	8558.87
888.651	8513.67
888.967	8450.85
889.284	8490.17
889.6	8416.05
889.917	8341.25
890.233	8440.68
890.55	8315.94
890.866	8383.96
891.182	8301.48
891.498	8290.18
891.815	8307.58
892.131	8196.17
892.447	8211.76
892.763	8189.39
893.079	8116.4
893.395	8149.16
893.71	8125.44
894.026	8086.79
894.342	8046.57
894.657	8032.33
894.973	8065.32
895.289	8019.9
895.604	8010.41
895.92	7889.51
896.235	7938.55
896.55	7915.05
896.865	7899.45
897.181	7846.57
897.496	7863.75
897.811	7806.8
898.126	7789.4
898.441	7715.28
898.756	7742.85
899.071	7718.44
899.386	7663.08
899.7	7533.81
900.015	7552.8
900.33	7519.35
900.644	7502.18
900.959	7528.39
901.273	7508.73
901.588	7494.72
901.902	7399.13
902.216	7404.33
902.531	7411.78
902.845	7369.07
903.159	7345.57
903.473	7285.91
903.787	7209.08
904.101	7188.51
904.415	7258.57
904.729	7239.36
905.042	7140.15
905.356	7116.2
905.67	7098.12
905.984	7101.06
906.297	7075.97
906.611	7054.73
906.924	6963.43
907.237	6950.55
907.551	6979.48
907.864	6951
908.177	6921.4
908.491	6881.63
908.804	6828.07
909.117	6803.21
909.43	6765.02
909.743	6702.65
910.056	6758.92
910.368	6732.03
910.681	6697
910.994	6671.01
911.307	6642.54
911.619	6592.6
911.932	6565.03
912.244	6546.04
912.557	6533.61
912.869	6484.35
913.181	6447.06
913.494	6422.66
913.806	6368.19
914.118	6347.86
914.43	6327.07
914.742	6331.13
915.054	6292.26
915.366	6294.52
915.678	6230.57
915.99	6241.19
916.302	6154.19
916.613	6120.97
916.925	6117.58
917.236	6132.04
917.548	6122.78
917.859	6050.01
918.171	6033.51
918.482	6037.13
918.794	5958.71
919.105	6009.33
919.416	5962.78
919.727	5936.57
920.038	5893.4
920.349	5811.82
920.66	5794.42
920.971	5824.48
921.282	5810.02
921.593	5746.97
921.903	5718.95
922.214	5736.57
922.525	5705.61
922.835	5672.39
923.146	5625.61
923.456	5633.75
923.767	5622
924.077	5579.29
924.387	5577.03
924.697	5535.22
925.008	5520.08
925.318	5522.57
925.628	5522.34
925.938	5477.82
926.248	5421.33
926.558	5382.68
926.867	5373.42
927.177	5390.37
927.487	5335.9
927.796	5340.88
928.106	5321.22
928.416	5266.53
928.725	5290.71
929.034	5225.17
929.344	5265.4
929.653	5192.41
929.962	5150.15
930.271	5113.31
930.581	5091.84
930.89	5111.73
931.199	5119.87
931.508	5093.43
931.817	5058.17
932.125	5052.52
932.434	4999.19
932.743	4965.75
933.051	4936.59
933.36	4964.16
933.669	4885.97
933.977	4858.18
934.286	4885.3
934.594	4857.95
934.902	4827.22
935.21	4809.37
935.519	4780.21
935.827	4796.26
936.135	4729.82
936.443	4702.25
936.751	4655.92
937.059	4686.88
937.367	4664.74
937.674	4620.67
937.982	4652.08
938.29	4629.48
938.597	4600.56
938.905	4552.87
939.213	4542.71
939.52	4537.28
939.827	4575.25
940.135	4503.38
940.442	4474.46
940.749	4445.08
941.056	4435.14
941.363	4410.96
941.67	4410.73
941.977	4350.85
942.284	4316.5
942.591	4348.81
942.898	4323.28
943.205	4337.97
943.511	4282.83
943.818	4282.15
944.125	4216.16
944.431	4231.98
944.738	4228.82
945.044	4184.97
945.35	4164.41
945.657	4109.72
945.963	4147.46
946.269	4080.12
946.575	4121.02
946.881	4087.35
947.187	4087.35
947.493	4061.14
947.799	4012.78
948.105	4009.84
948.41	4016.39
948.716	4034.24
949.022	3955.38
949.327	3944.08
949.633	3905.66
949.938	3882.38
950.244	3940.46
950.549	3836.51
950.854	3865.21
951.16	3835.83
951.465	3806.23
951.77	3800.8
952.075	3824.08
952.38	3759.45
952.685	3757.87
952.99	3714.7
953.294	3749.28
953.599	3687.81
953.904	3653.92
954.209	3638.77
954.513	3694.14
954.818	3661.82
955.122	3640.81
955.426	3580.02
955.731	3629.28
956.035	3588.83
956.339	3568.72
956.643	3579.57
956.948	3524.2
957.252	3571.66
957.556	3549.96
957.86	3538.89
958.163	3516.07
958.467	3494.6
958.771	3478.1
959.075	3462.06
959.378	3446.92
959.682	3466.35
959.985	3394.26
960.289	3401.72
960.592	3353.13
960.896	3352.23
961.199	3312.23
961.502	3305.22
961.805	3319.69
962.108	3284.43
962.411	3284.21
962.714	3262.51
963.017	3272.46
963.32	3257.09
963.623	3275.62
963.926	3241.95
964.228	3211.67
964.531	3167.83
964.833	3201.95
965.136	3170.09
965.438	3170.54
965.741	3133.93
966.043	3118.56
966.345	3101.61
966.648	3056.87
966.95	3094.38
967.252	3030.88
967.554	3053.71
967.856	3037.43
968.158	3034.27
968.46	3024.78
968.761	3015.51
969.063	3025.91
969.365	2979.81
969.666	2976.19
969.968	2949.3
970.269	2947.04
970.571	2982.07
970.872	2920.15
971.174	2886.7
971.475	2890.32
971.776	2872.01
972.077	2886.93
972.378	2843.32
972.679	2848.96
972.98	2863.65
973.281	2795.86
973.582	2771.45
973.883	2789.53
974.183	2754.96
974.484	2740.94
974.785	2736.65
975.085	2773.49
975.386	2737.56
975.686	2734.84
975.986	2713.6
976.287	2693.49
976.587	2699.14
976.887	2658.91
977.187	2686.71
977.487	2641.74
977.787	2667.5
978.087	2577.33
978.387	2599.71
978.687	2606.94
978.987	2557.45
979.286	2559.71
979.586	2573.94
979.885	2565.13
980.185	2533.72
980.484	2515.41
980.784	2540.5
981.083	2515.19
981.382	2484.23
981.682	2502.31
981.981	2457.34
982.28	2469.77
982.579	2458.24
982.878	2455.98
983.177	2435.42
983.475	2406.04
983.774	2411.91
984.073	2397.45
984.372	2368.53
984.67	2396.55
984.969	2380.73
985.267	2364.91
985.566	2365.81
985.864	2349.77
986.162	2330.56
986.461	2324.23
986.759	2328.98
987.057	2333.5
987.355	2275.19
987.653	2284.91
987.951	2270.45
988.249	2255.76
988.547	2284.01
988.844	2253.27
989.142	2262.09
989.44	2223.9
989.737	2167.85
990.035	2182.99
990.332	2205.59
990.63	2174.18
990.927	2164.24
991.224	2158.36
991.521	2170.56
991.819	2170.56
992.116	2165.14
992.413	2117.46
992.71	2076.1
993.006	2098.25
993.303	2072.04
993.6	2083.56
993.897	2121.53
994.193	2089.89
994.49	2053.28
994.787	2068.42
995.083	2048.08
995.379	1988.87
995.676	2015.99
995.972	1994.3
996.268	1989.78
996.565	1987.07
996.861	1979.16
997.157	1963.11
997.453	1962.89
997.749	1952.94
998.044	1942.32
998.34	1931.93
998.636	1921.08
998.932	1896.45
999.227	1922.89
999.523	1893.96
999.818	1871.14
1000.114	1898.26
1000.409	1876.56
1000.704	1832.72
1001	1851.02
1001.295	1829.56
1001.59	1841.76
1001.885	1833.17
1002.18	1824.81
1002.475	1783.68
1002.77	1799.05
1003.065	1773.74
1003.359	1757.69
1003.654	1780.52
1003.949	1729.22
1004.243	1753.85
1004.538	1736.68
1004.832	1736.45
1005.127	1759.05
1005.421	1722.89
1005.715	1691.93
1006.009	1689.22
1006.304	1673.85
1006.598	1681.31
1006.892	1703.91
1007.186	1652.16
1007.48	1655.55
1007.773	1634.08
1008.067	1611.48
1008.361	1594.08
1008.655	1614.87
1008.948	1617.13
1009.242	1603.57
1009.535	1576.68
1009.829	1562.44
1010.122	1562.67
1010.415	1533.52
1010.708	1538.04
1011.001	1526.06
1011.295	1526.51
1011.588	1515.44
1011.881	1526.29
1012.173	1521.32
1012.466	1504.59
1012.759	1476.57
1013.052	1491.49
1013.344	1484.25
1013.637	1465.95
1013.93	1462.33
1014.222	1453.97
1014.514	1465.05
1014.807	1446.97
1015.099	1420.53
1015.391	1421.43
1015.683	1430.7
1015.976	1406.06
1016.268	1397.7
1016.56	1383.01
1016.851	1384.82
1017.143	1377.82
1017.435	1366.52
1017.727	1362.22
1018.018	1337.14
1018.31	1331.94
1018.602	1323.36
1018.893	1315.45
1019.185	1308.67
1019.476	1288.33
1019.767	1300.53
1020.058	1284.49
1020.35	1272.73
1020.641	1283.36
1020.932	1284.71
1021.223	1239.52
1021.514	1255.33
1021.804	1242
1022.095	1233.19
1022.386	1212.85
1022.677	1232.96
1022.967	1193.64
1023.258	1190.7
1023.548	1193.87
1023.839	1172.4
1024.129	1191.61
1024.419	1165.85
1024.709	1137.6
1025	1194.77
1025.29	1151.83
1025.58	1141.66
1025.87	1124.49
1026.16	1127.43
1026.449	1113.19
1026.739	1138.95
1027.029	1135.56
1027.319	1105.51
1027.608	1073.87
1027.898	1084.49
1028.187	1080.65
1028.477	1083.59
1028.766	1066.86
1029.055	1053.31
1029.344	1063.02
1029.634	1039.75
1029.923	1071.16
1030.212	1031.61
1030.501	1041.55
1030.79	1030.26
1031.078	1025.74
1031.367	990.48
1031.656	995
1031.945	997.71
1032.233	1010.59
1032.522	980.54
1032.81	955.68
1033.099	980.09
1033.387	945.29
1033.675	954.78
1033.963	957.94
1034.251	949.81
1034.54	957.94
1034.828	928.34
1035.116	920.43
1035.403	923.82
1035.691	933.76
1035.979	918.17
1036.267	913.87
1036.554	921.56
1036.842	913.65
1037.129	872.75
1037.417	876.59
1037.704	881.56
1037.992	872.07
1038.279	873.42
1038.566	856.47
1038.853	856.47
1039.14	856.47
