Data from hue_24_FLMS001491_00009.txt Node
Date: Tue Feb 07 17:11:40 GMT 2017
User: dcchb
Spectrometer: FLMS00149
Trigger mode: 0
Integration Time (sec): 2.000000E-2
Scans to average: 10
Electric dark correction enabled: true
Nonlinearity correction enabled: false
Boxcar width: 0
XAxis mode: Wavelengths
Number of Pixels in Spectrum: 2048
>>>>>Begin Spectral Data<<<<<
341.393	-16.12
341.776	-16.12
342.16	-16.12
342.543	-49.33
342.927	-51.59
343.31	-61.76
343.693	-68.32
344.077	-54.31
344.46	-66.28
344.843	-40.3
345.226	-56.34
345.61	-24.7
345.993	-16.12
346.376	-5.49
346.759	-8.21
347.142	20.72
347.525	49.42
347.908	57.1
348.291	72.47
348.674	88.74
349.057	113.37
349.44	136.65
349.823	149.08
350.206	163.54
350.588	214.84
350.971	210.32
351.354	214.16
351.737	249.64
352.119	248.96
352.502	276.53
352.884	263.43
353.267	295.97
353.65	299.36
354.032	296.87
354.414	307.49
354.797	321.95
355.179	305.23
355.562	331.45
355.944	335.51
356.326	347.26
356.709	331.9
357.091	333.93
357.473	342.29
357.855	344.78
358.238	345.91
358.62	339.36
359.002	359.69
359.384	335.06
359.766	341.16
360.148	359.69
360.53	373.48
360.912	334.84
361.294	333.25
361.676	341.16
362.057	336.42
362.439	330.77
362.821	375.74
363.203	327.15
363.584	328.73
363.966	331.67
364.348	328.06
364.729	343.42
365.111	321.28
365.493	338.23
365.874	331.67
366.256	324.21
366.637	325.57
367.019	343.65
367.4	307.27
367.781	317.66
368.163	317.66
368.544	337.55
368.925	308.17
369.306	306.36
369.688	318.34
370.069	316.53
370.45	331.9
370.831	303.42
371.212	310.66
371.593	312.92
371.974	316.08
372.355	317.44
372.736	324.89
373.117	312.46
373.498	291
373.879	324.67
374.26	294.61
374.641	307.94
375.021	327.6
375.402	339.13
375.783	326.47
376.163	328.28
376.544	305.23
376.925	333.93
377.305	331.67
377.686	316.31
378.066	337.32
378.447	350.88
378.827	336.87
379.208	332.12
379.588	327.6
379.968	333.03
380.349	324.44
380.729	358.79
381.109	339.58
381.489	332.58
381.87	336.42
382.25	354.04
382.63	342.29
383.01	356.3
383.39	335.51
383.77	353.59
384.15	349.75
384.53	346.81
384.91	344.33
385.29	358.11
385.67	337.77
386.049	368.51
386.429	359.02
386.809	377.55
387.189	352.24
387.568	360.82
387.948	359.47
388.328	372.12
388.707	374.61
389.087	387.72
389.466	367.6
389.846	377.32
390.225	359.47
390.605	372.35
390.984	365.8
391.363	375.51
391.743	359.24
392.122	374.16
392.501	368.06
392.881	381.84
393.26	368.06
393.639	363.54
394.018	386.36
394.397	391.11
394.776	408.96
395.155	378.68
395.534	390.88
395.913	373.7
396.292	384.1
396.671	386.81
397.05	382.07
397.429	381.16
397.808	380.03
398.186	407.15
398.565	387.94
398.944	410.09
399.323	403.76
399.701	398.34
400.08	408.51
400.458	425.91
400.837	401.5
401.215	411.22
401.594	389.3
401.972	402.18
402.351	410.31
402.729	414.83
403.107	419.58
403.486	425.68
403.864	419.13
404.242	431.1
404.62	440.6
404.999	419.81
405.377	412.8
405.755	438.11
406.133	426.13
406.511	444.89
406.889	422.52
407.267	447.15
407.645	441.27
408.023	434.72
408.401	458.45
408.779	457.32
409.156	450.54
409.534	446.92
409.912	449.18
410.29	462.06
410.667	470.88
411.045	471.1
411.422	480.59
411.8	482.18
412.178	477.88
412.555	481.05
412.933	481.72
413.31	478.33
413.687	468.39
414.065	491.44
414.442	474.95
414.819	491.22
415.197	496.41
415.574	493.7
415.951	502.06
416.328	527.83
416.705	500.71
417.082	521.27
417.46	512.46
417.837	512.68
418.214	518.79
418.591	488.28
418.967	529.18
419.344	533.02
419.721	543.19
420.098	535.06
420.475	534.15
420.852	520.14
421.228	554.49
421.605	544.1
421.982	538.67
422.358	550.65
422.735	561.04
423.111	547.03
423.488	568.95
423.864	561.5
424.241	589.74
424.617	576.41
424.994	596.75
425.37	579.12
425.746	588.84
426.123	577.32
426.499	581.38
426.875	599.91
427.251	618.9
427.627	599.46
428.003	604.89
428.379	637.65
428.756	631.55
429.132	623.19
429.507	614.15
429.883	627.71
430.259	653.02
430.635	639.69
431.011	664.54
431.387	632.91
431.763	651.44
432.138	651.66
432.514	674.49
432.89	675.84
433.265	669.74
433.641	693.02
434.016	682.62
434.392	712.23
434.767	690.53
435.143	700.7
435.518	709.97
435.894	719.46
436.269	740.25
436.644	716.52
437.02	740.7
437.395	744.54
437.77	726.24
438.145	731.89
438.52	746.58
438.895	752.68
439.271	764.43
439.646	783.41
440.021	778.67
440.395	782.96
440.77	792.22
441.145	796.74
441.52	792.68
441.895	796.74
442.27	781.38
442.645	789.51
443.019	807.82
443.394	808.5
443.769	807.14
444.143	822.96
444.518	834.94
444.892	809.17
445.267	833.81
445.641	839.91
446.016	813.24
446.39	833.58
446.764	854.37
447.139	843.52
447.513	873.58
447.887	848.95
448.262	894.14
448.636	877.19
449.01	893.69
449.384	892.11
449.758	901.83
450.132	915.16
450.506	922.39
450.88	892.56
451.254	920.36
451.628	926.46
452.002	944.09
452.376	950.19
452.75	953.35
453.123	957.42
453.497	962.62
453.871	964.88
454.244	985.21
454.618	975.95
454.992	1000.58
455.365	995.61
455.739	1035.16
456.112	1038.09
456.486	1046.68
456.859	1041.71
457.232	1059.34
457.606	1074.48
457.979	1088.04
458.352	1063.18
458.725	1101.37
459.099	1109.73
459.472	1107.92
459.845	1147.47
460.218	1153.8
460.591	1160.58
460.964	1145.44
461.337	1187.92
461.71	1193.8
462.083	1218.65
462.456	1188.37
462.829	1231.31
463.201	1231.08
463.574	1277.18
463.947	1269.95
464.32	1282.16
464.692	1279.44
465.065	1328.48
465.438	1311.99
465.81	1322.61
466.183	1342.94
466.555	1371.87
466.928	1384.53
467.3	1366.67
467.672	1403.28
468.045	1443.51
468.417	1450.51
468.789	1457.74
469.161	1487.12
469.534	1506.1
469.906	1549.49
470.278	1519.44
470.65	1554.24
471.022	1596.72
471.394	1597.85
471.766	1607.34
472.138	1624.97
472.51	1670.85
472.882	1707.46
473.253	1711.3
473.625	1746.78
473.997	1783.61
474.369	1801.46
474.74	1815.25
475.112	1839.88
475.484	1880.78
475.855	1947.22
476.227	1938.18
476.598	1994.23
476.97	2004.62
477.341	2070.16
477.713	2087.11
478.084	2096.15
478.455	2158.29
478.827	2188.57
479.198	2259.08
479.569	2272.64
479.94	2329.13
480.311	2349.47
480.682	2406.87
481.053	2476.02
481.424	2513.31
481.795	2539.98
482.166	2570.03
482.537	2618.39
482.908	2681.21
483.279	2702.46
483.65	2725.06
484.021	2775
484.391	2867.42
484.762	2905.62
485.133	2925.05
485.503	2958.95
485.874	3009.79
486.244	3088.89
486.615	3133.41
486.985	3162.11
487.356	3237.13
487.726	3297.02
488.097	3329.56
488.467	3358.94
488.837	3428.54
489.207	3499.5
489.578	3570.68
489.948	3620.85
490.318	3647.74
490.688	3703.11
491.058	3727.97
491.428	3777.91
491.798	3819.04
492.168	3896.1
492.538	3942.42
492.908	3981.07
493.278	4069.88
493.648	4074.17
494.017	4100.39
494.387	4164.11
494.757	4190.1
495.126	4279.59
495.496	4271.91
495.866	4364.11
496.235	4365.24
496.605	4428.06
496.974	4444.56
497.344	4492.92
497.713	4511.68
498.082	4577.66
498.452	4575.18
498.821	4663.76
499.19	4652.01
499.559	4740.6
499.928	4748.96
500.298	4752.35
500.667	4818.79
501.036	4835.28
501.405	4852.46
501.774	4903.53
502.143	4972.91
502.512	4978.1
502.88	5009.29
503.249	5019.23
503.618	5034.6
503.987	5088.61
504.356	5131.77
504.724	5146.23
505.093	5145.1
505.462	5178.78
505.83	5169.96
506.199	5242.96
506.567	5327.25
506.936	5316.17
507.304	5383.06
507.672	5371.54
508.041	5388.49
508.409	5457.41
508.777	5446.11
509.145	5530.18
509.514	5485.66
509.882	5571.99
510.25	5576.96
510.618	5594.81
510.986	5611.08
511.354	5651.08
511.722	5687.01
512.09	5753.68
512.458	5731.76
512.826	5777.86
513.193	5774.69
513.561	5894.46
513.929	5886.55
514.297	5908.7
514.664	5914.58
515.032	5938.08
515.4	5966.78
515.767	5988.02
516.135	6055.82
516.502	5943.05
516.869	6086.1
517.237	6141.01
517.604	6093.55
517.972	6150.05
518.339	6219.2
518.706	6231.86
519.073	6200.22
519.44	6237.96
519.808	6279.54
520.175	6279.76
520.542	6382.81
520.909	6388.91
521.276	6436.14
521.643	6425.52
522.009	6479.08
522.376	6503.49
522.743	6534.22
523.11	6565.63
523.477	6610.6
523.843	6677.04
524.21	6696.48
524.577	6732.63
524.943	6799.75
525.31	6758.85
525.676	6837.72
526.043	6838.39
526.409	6924.04
526.776	6929.01
527.142	6972.85
527.508	7033.64
527.874	7106.41
528.241	7112.06
528.607	7167.88
528.973	7246.29
529.339	7207.88
529.705	7286.29
530.071	7285.39
530.437	7364.26
530.803	7291.26
531.169	7451.26
531.535	7409.45
531.901	7419.4
532.267	7453.97
532.632	7495.78
532.998	7533.97
533.364	7591.14
533.73	7591.82
534.095	7693.51
534.461	7703.91
534.826	7717.24
535.192	7778.03
535.557	7871.13
535.923	7832.72
536.288	7856.45
536.653	7882.21
537.019	7897.35
537.384	7967.18
537.749	7941.87
538.114	7971.47
538.479	7986.16
538.845	8091.92
539.21	8066.16
539.575	8116.33
539.94	8132.37
540.305	8182.77
540.67	8155.65
541.034	8194.74
541.399	8274.29
541.764	8257.11
542.129	8320.61
542.494	8334.85
542.858	8330.78
543.223	8399.26
543.587	8505.47
543.952	8454.17
544.316	8521.51
544.681	8560.83
545.045	8557.44
545.41	8656.42
545.774	8718.34
546.138	8660.49
546.503	8711.11
546.867	8780.72
547.231	8843.31
547.595	8807.83
547.959	8830.66
548.324	8844.89
548.688	8863.88
549.052	8837.21
549.416	8900.71
549.779	8969.86
550.143	9022.29
550.507	9008.51
550.871	9098.45
551.235	9123.76
551.599	9137.99
551.962	9183.42
552.326	9137.09
552.689	9255.96
553.053	9189.97
553.417	9230.2
553.78	9272.23
554.143	9286.01
554.507	9325.79
554.87	9394.03
555.234	9487.36
555.597	9393.58
555.96	9519.45
556.323	9558.32
556.686	9549.96
557.05	9622.5
557.413	9664.08
557.776	9613.46
558.139	9679.9
558.502	9688.49
558.865	9711.99
559.228	9767.13
559.59	9778.43
559.953	9773.23
560.316	9952.44
560.679	9926.9
561.041	9929.84
561.404	10038.54
561.767	10085.54
562.129	10035.15
562.492	10154.01
562.854	10130.96
563.217	10060.91
563.579	10098.65
563.941	10200.11
564.304	10240.56
564.666	10321.47
565.028	10328.7
565.39	10393.78
565.753	10416.15
566.115	10492.31
566.477	10494.12
566.839	10454.8
567.201	10580.44
567.563	10601.68
567.925	10659.31
568.287	10712.42
568.648	10679.2
569.01	10738.86
569.372	10792.64
569.734	10787.44
570.095	10876.93
570.457	10921.45
570.819	10973.88
571.18	10922.13
571.542	11059.75
571.903	11005.74
572.265	11188.11
572.626	11174.32
572.987	11212.52
573.349	11191.05
573.71	11369.35
574.071	11312.63
574.432	11462.68
574.794	11551.49
575.155	11517.82
575.516	11638.49
575.877	11685.72
576.238	11740.19
576.599	11884.14
576.96	11932.72
577.32	11938.37
577.681	12045.04
578.042	12174.3
578.403	12242.77
578.763	12426.04
579.124	12452.03
579.485	12550.56
579.845	12660.16
580.206	12786.26
580.566	12868.07
580.927	13049.76
581.287	13184.44
581.648	13292.91
582.008	13458.78
582.368	13581.04
582.728	13798.44
583.089	13836.4
583.449	13951.2
583.809	14193
584.169	14434.35
584.529	14469.38
584.889	14764.51
585.249	14849.93
585.609	15089.7
585.969	15418.06
586.329	15550.93
586.688	15740.53
587.048	15970.81
587.408	16101.2
587.768	16428.42
588.127	16570.12
588.487	16896.89
588.846	17260.04
589.206	17255.07
589.565	17601.73
589.925	17925.79
590.284	18289.84
590.643	18477.41
591.003	18821.36
591.362	18962.59
591.721	19353.09
592.08	19636.93
592.44	19932.74
592.799	20318.72
593.158	20531.14
593.517	20743.11
593.876	21104.01
594.235	21282.08
594.593	21651.34
594.952	21915.29
595.311	22172.23
595.67	22657.86
596.029	22940.34
596.387	23381.24
596.746	23664.39
597.104	23654.22
597.463	24180.31
597.822	24536.69
598.18	24797.7
598.538	25058.48
598.897	25494.63
599.255	25714.28
599.613	26349.75
599.972	26329.86
600.33	26651.66
600.688	26907.92
601.046	27347.68
601.404	27781.35
601.762	27965.52
602.12	28231.28
602.478	28504.26
602.836	28821.77
603.194	28994.2
603.552	29341.98
603.91	29454.97
604.268	29826.04
604.625	30077.78
604.983	30392.12
605.341	30621.05
605.698	31045.44
606.056	31444.98
606.413	31609.04
606.771	31836.61
607.128	32112.08
607.485	32267.56
607.843	32549.58
608.2	32827.99
608.557	33097.36
608.914	33338.71
609.272	33638.59
609.629	33933.05
609.986	34368.29
610.343	34272.25
610.7	34751.78
611.057	34923.76
611.414	34965.56
611.771	35223.86
612.127	35547.24
612.484	35741.81
612.841	35925.09
613.198	36001.69
613.554	36201.92
613.911	36612.53
614.267	36880.77
614.624	36886.87
614.98	37049.8
615.337	37505.38
615.693	37476.68
616.05	37614.31
616.406	38092.94
616.762	37990.79
617.118	38185.82
617.475	38320.28
617.831	38467.17
618.187	38690.44
618.543	38743.54
618.899	39119.8
619.255	39172.68
619.611	39193.7
619.967	39494.71
620.323	39800.69
620.678	39620.36
621.034	39686.8
621.39	39820.8
621.746	40019.22
622.101	40418.75
622.457	40217.4
622.812	40330.85
623.168	40529.49
623.523	40594.57
623.879	40928.57
624.234	40736.94
624.589	40697.39
624.945	41073.43
625.3	41073.2
625.655	41121.11
626.01	41420.54
626.365	41451.72
626.72	41406.3
627.075	41464.6
627.43	41502.57
627.785	41465.73
628.14	41603.13
628.495	41717.7
628.85	41717.25
629.205	41680.42
629.559	41947.98
629.914	41725.16
630.269	41925.38
630.623	41826.85
630.978	41805.84
631.332	42085.38
631.687	42103.46
632.041	42017.81
632.396	42242.66
632.75	42046.51
633.104	42165.15
633.459	42027.52
633.813	42061.65
634.167	42175.32
634.521	42132.15
634.875	42272.94
635.229	42181.65
635.583	41926.74
635.937	42121.08
636.291	42116.79
636.645	42092.61
636.999	42204.92
637.352	42244.02
637.706	41991.37
638.06	42312.94
638.413	42227.97
638.767	42002.21
639.121	42208.99
639.474	41954.08
639.828	41989.79
640.181	42179.61
640.534	42039.5
640.888	41958.15
641.241	41832.05
641.594	41999.05
641.947	42202.89
642.301	41953.85
642.654	42168.99
643.007	42170.57
643.36	42054.19
643.713	41979.39
644.066	42313.17
644.419	42002.89
644.771	41650.59
645.124	41317.49
645.477	41315.91
645.83	40953.88
646.182	41013.77
646.535	40988.68
646.888	40851.28
647.24	40725.64
647.593	40965.86
647.945	40915.92
648.298	40642.02
648.65	40723.38
649.002	40581.01
649.355	40710.05
649.707	40677.5
650.059	40883.6
650.411	41377.37
650.763	41454.88
651.115	41803.12
651.467	41662.34
651.819	41736.46
652.171	41700.3
652.523	41527.65
652.875	41513.87
653.227	41280.65
653.578	41627.08
653.93	41548.22
654.282	41445.17
654.633	41098.06
654.985	41403.36
655.337	41524.49
655.688	41530.59
656.039	41576.69
656.391	41288.56
656.742	41442.91
657.094	41436.81
657.445	41618.5
657.796	41508.67
658.147	41344.15
658.498	41352.06
658.849	41488.33
659.2	41411.95
659.551	41240.88
659.902	41391.16
660.253	41222.35
660.604	41301.67
660.955	41128.11
661.306	41356.58
661.656	41357.94
662.007	41227.77
662.358	41237.49
662.708	41302.12
663.059	41201.78
663.409	40966.99
663.76	41345.06
664.11	41226.42
664.461	41315
664.811	41184.61
665.161	41265.74
665.511	41229.35
665.862	41197.04
666.212	41259.64
666.562	41255.79
666.912	41044.27
667.262	41069.13
667.612	41159.98
667.962	41284.49
668.312	41215.79
668.662	41320.88
669.011	41107.1
669.361	41060.77
669.711	41178.73
670.06	41004.73
670.41	41015.12
670.76	40985.74
671.109	41075.23
671.459	40954.33
671.808	41024.61
672.157	41126.08
672.507	40960.66
672.856	40864.84
673.205	40899.42
673.554	41095.12
673.904	41075.23
674.253	41202.69
674.602	40949.81
674.951	40385.99
675.3	40197.29
675.649	40799.08
675.998	40796.82
676.346	40825.07
676.695	40916.14
677.044	40722.93
677.393	40837.5
677.741	40808.12
678.09	40614
678.438	40567.9
678.787	40607.22
679.135	40698.75
679.484	40472.99
679.832	40517.51
680.181	40330.17
680.529	40392.77
680.877	40191.64
681.225	40262.15
681.573	40375.14
681.922	40103.28
682.27	40052.89
682.618	40171.53
682.966	39975.15
683.314	40094.02
683.661	39898.09
684.009	39819
684.357	39772.44
684.705	39765.89
685.053	39775.83
685.4	39877.3
685.748	39589.85
686.095	39471.21
686.443	39488.38
686.79	39288.61
687.138	39481.83
687.485	39392.11
687.832	39281.38
688.18	39316.64
688.527	39073.7
688.874	39021.05
689.221	39049.75
689.568	38911.22
689.915	38865.35
690.262	38963.2
690.609	38709.65
690.956	38733.37
691.303	38610.89
691.65	38479.6
691.997	38527.96
692.344	38236.44
692.69	38176.33
693.037	38224.91
693.383	38030.34
693.73	38188.3
694.077	37754.19
694.423	37641.2
694.769	37688.2
695.116	37557.81
695.462	37577.7
695.808	37435.1
696.155	37577.02
696.501	37222.45
696.847	37156.69
697.193	36954.66
697.539	37043.25
697.885	36916.7
698.231	36725.29
698.577	36714.9
698.923	36774.33
699.269	36531.4
699.614	36361.69
699.96	36369.82
700.306	36423.83
700.651	36153.78
700.997	36174.35
701.342	36056.16
701.688	35946.78
702.033	35762.6
702.379	35836.95
702.724	35638.54
703.069	35734.81
703.415	35425.44
703.76	35392.67
704.105	35412.78
704.45	35282.17
704.795	35158.33
705.14	35094.37
705.485	35054.37
705.83	34892.8
706.175	34857.09
706.52	34901.61
706.865	34751.11
707.209	34803.76
707.554	34590.66
707.899	34709.53
708.243	34468.18
708.588	34434.05
708.932	34309.31
709.277	34131.91
709.621	34206.04
709.966	33906.38
710.31	34154.51
710.654	33836.55
710.998	33909.77
711.342	33712.94
711.687	33698.7
712.031	33579.61
712.375	33534.64
712.719	33588.42
713.063	33489.67
713.407	33511.59
713.75	33445.38
714.094	33293.97
714.438	33169
714.782	33246.51
715.125	32965.84
715.469	33118.61
715.812	32989.57
716.156	32770.82
716.499	32781.21
716.843	32819.86
717.186	32628
717.53	32726.53
717.873	32789.58
718.216	32668.22
718.559	32593.65
718.902	32208.35
719.246	32433.43
719.589	32282.7
719.932	32233.88
720.275	32176.26
720.617	32136.94
720.96	31964.29
721.303	32032.76
721.646	32124.28
721.989	31800.22
722.331	32067.33
722.674	31957.51
723.016	31863.72
723.359	31695.59
723.701	31824.86
724.044	31588.48
724.386	31309.61
724.729	31575.6
725.071	31529.95
725.413	31558.87
725.755	31436.84
726.097	31333.34
726.439	31189.62
726.782	31186.68
727.124	31314.36
727.465	31084.99
727.807	31109.62
728.149	31000.02
728.491	30977.87
728.833	30919.57
729.175	30846.12
729.516	30832.57
729.858	30790.76
730.199	30739.91
730.541	30710.31
730.882	30619.01
731.224	30762.28
731.565	30493.59
731.906	30527.94
732.248	30506.02
732.589	30303.09
732.93	30271.9
733.271	30406.81
733.612	30339.47
733.953	30420.37
734.294	30269.19
734.635	30165.01
734.976	30264.67
735.317	30214.95
735.658	30044.56
735.999	30100.38
736.339	30038.24
736.68	30074.84
737.021	29916.2
737.361	29880.73
737.702	29867.17
738.042	29845.7
738.383	29740.16
738.723	29738.13
739.063	29768.86
739.404	29786.94
739.744	29672.37
740.084	29577.23
740.424	29513.5
740.764	29560.06
741.104	29620.62
741.444	29459.27
741.784	29435.31
742.124	29400.29
742.464	29318.71
742.804	29176.11
743.143	29297.01
743.483	29120.29
743.823	29117.81
744.162	29126.4
744.502	29092.27
744.841	28926.4
745.181	29042.1
745.52	28923.91
745.86	28940.64
746.199	28881.2
746.538	28947.87
746.877	28958.04
747.216	28967.08
747.556	28697.03
747.895	28794.2
748.234	28750.13
748.573	28627.88
748.911	28525.73
749.25	28436.7
749.589	28563.02
749.928	28474.21
750.267	28507.43
750.605	28424.27
750.944	28334.1
751.283	28330.48
751.621	28386.3
751.96	28185.85
752.298	28183.82
752.636	28201.45
752.975	28088.91
753.313	27939.31
753.651	28147.44
753.989	27973.88
754.327	27840.78
754.666	27782.25
755.004	27803.49
755.342	27901.34
755.679	27784.06
756.017	27598.3
756.355	27643.5
756.693	27401.92
757.031	27614.34
757.368	27435.59
757.706	27327.35
758.044	27258.42
758.381	27316.73
758.719	27065.21
759.056	27085.77
759.394	26996.73
759.731	26792.22
760.068	26838.55
760.405	26847.81
760.743	26651.88
761.08	26785.44
761.417	26614.14
761.754	26613.01
762.091	26551.55
762.428	26363.53
762.765	26342.74
763.102	26389.29
763.438	26241.05
763.775	26106.59
764.112	26122.86
764.449	26052.8
764.785	26060.71
765.122	25858.68
765.458	25759.03
765.795	25661.63
766.131	25666.15
766.467	25616.88
766.804	25481.29
767.14	25278.36
767.476	25364.23
767.812	25107.74
768.148	25183.22
768.485	24949.1
768.821	24934.87
769.157	24971.48
769.492	24839.73
769.828	24847.86
770.164	24585.05
770.5	24578.72
770.836	24646.96
771.171	24431.6
771.507	24334.43
771.842	24191.16
772.178	24171.72
772.513	24103.93
772.849	24020.99
773.184	23974.44
773.519	23895.35
773.855	23828.68
774.19	23712.3
774.525	23569.93
774.86	23610.16
775.195	23605.41
775.53	23434.12
775.865	23379.88
776.2	23181.92
776.535	22998.42
776.87	22984.64
777.205	23017.4
777.539	22844.07
777.874	22860.12
778.209	22658.99
778.543	22553.69
778.878	22469.62
779.212	22525.21
779.547	22385.78
779.881	22446.8
780.215	22276.63
780.55	22218.33
780.884	22096.75
781.218	22173.13
781.552	21991.22
781.886	21951.89
782.22	21868.51
782.554	21779.02
782.888	21613.15
783.222	21519.59
783.556	21377.45
783.889	21301.97
784.223	21252.48
784.557	21126.15
784.89	21166.6
785.224	21076.21
785.557	20951.69
785.891	20913.5
786.224	20797.12
786.558	20837.8
786.891	20649.1
787.224	20542.89
787.557	20527.75
787.891	20455.21
788.224	20393.74
788.557	20348.32
788.89	20334.99
789.223	20293.41
789.556	20086.18
789.888	20023.58
790.221	19954.43
790.554	19744.95
790.887	19850.03
791.219	19697.72
791.552	19702.01
791.884	19549.25
792.217	19558.96
792.549	19537.49
792.882	19429.93
793.214	19261.34
793.546	19362.81
793.879	19164.17
794.211	19150.16
794.543	19188.35
794.875	19041.69
795.207	19183.61
795.539	18916.49
795.871	18987.9
796.203	18819.32
796.535	18677.86
796.867	18709.95
797.198	18611.87
797.53	18664.3
797.862	18549.95
798.193	18505.21
798.525	18334.81
798.856	18416.62
799.188	18185.44
799.519	18089.85
799.85	17998.55
800.182	18073.13
800.513	18063.41
800.844	17871.32
801.175	17910.87
801.506	17947.48
801.837	17767.15
802.168	17779.35
802.499	17672.23
802.83	17673.81
803.161	17567.38
803.491	17587.26
803.822	17548.85
804.153	17513.14
804.483	17324.22
804.814	17259.14
805.145	17223.43
805.475	17126.26
805.805	17119.93
806.136	17170.1
806.466	17182.98
806.796	17128.07
807.126	16888.52
807.457	16940.27
807.787	16994.51
808.117	16975.08
808.447	16726.27
808.777	16838.13
809.107	16802.88
809.436	16681.98
809.766	16681.52
810.096	16670.45
810.426	16511.59
810.755	16599.72
811.085	16462.55
811.414	16467.74
811.744	16332.61
812.073	16271.59
812.403	16295.55
812.732	16166.74
813.061	16071.82
813.39	16089
813.719	15976.68
814.049	16139.62
814.378	15998.15
814.707	15941.66
815.036	15933.75
815.365	15887.2
815.693	15756.58
816.022	15671.38
816.351	15626.64
816.68	15611.27
817.008	15689.23
817.337	15439.07
817.665	15471.61
817.994	15563.81
818.322	15511.84
818.651	15436.36
818.979	15369.02
819.307	15418.51
819.636	15303.93
819.964	15308.45
820.292	15338.28
820.62	15347.32
820.948	15331.28
821.276	15349.58
821.604	15263.26
821.932	15382.35
822.259	15237.72
822.587	15195.24
822.915	15213.31
823.243	15325.4
823.57	15141.45
823.898	15152.75
824.225	15154.11
824.553	15130.38
824.88	15233.88
825.207	15166.31
825.535	15080.21
825.862	15194.11
826.189	15151.62
826.516	15251.73
826.843	15215.35
827.17	15159.76
827.497	15181.23
827.824	15159.76
828.151	15162.24
828.478	15175.58
828.805	15292.18
829.131	15082.47
829.458	15213.31
829.785	15006.31
830.111	15116.82
830.438	15087.44
830.764	15132.64
831.09	15157.95
831.417	15054.9
831.743	15130.15
832.069	15120.66
832.395	15056.26
832.722	15114.11
833.048	14974.45
833.374	15001.79
833.7	14991.4
834.026	15089.7
834.351	15030.95
834.677	14952.76
835.003	14954.56
835.329	15023.94
835.654	14901.46
835.98	14809.94
836.306	14914.11
836.631	14818.75
836.956	14821.91
837.282	14847.9
837.607	14839.54
837.932	14733.78
838.258	14743.95
838.583	14682.03
838.908	14640.67
839.233	14651.52
839.558	14681.13
839.883	14589.15
840.208	14569.72
840.533	14562.48
840.858	14540.79
841.182	14449.27
841.507	14452.2
841.832	14301.25
842.156	14430.28
842.481	14359.1
842.805	14385.77
843.13	14373.79
843.454	14284.75
843.778	14287.92
844.103	14140.8
844.427	14197.75
844.751	14194.36
845.075	14114.81
845.399	14091.31
845.723	13999.34
846.047	14048.83
846.371	13973.12
846.695	13911.43
847.019	13845.89
847.343	13715.73
847.666	13665.78
847.99	13569.74
848.313	13624.2
848.637	13484.32
848.96	13533.58
849.284	13487.03
849.607	13346.92
849.931	13324.78
850.254	13136.31
850.577	13208.85
850.9	13075.07
851.223	13072.81
851.546	13057.89
851.869	12840.72
852.192	12894.73
852.515	12840.95
852.838	12782.19
853.161	12784.23
853.483	12697.22
853.806	12649.77
854.129	12692.03
854.451	12624.46
854.774	12583.78
855.096	12443.9
855.419	12546.72
855.741	12408.42
856.063	12345.37
856.385	12388.08
856.708	12329.1
857.03	12256.33
857.352	12262.66
857.674	12145.37
857.996	12210.91
858.318	12050.01
858.64	12101.76
858.961	12007.07
859.283	12062.44
859.605	11903.8
859.926	11934.3
860.248	11942.44
860.57	11822.44
860.891	11868.54
861.212	11808.88
861.534	11806.62
861.855	11718.94
862.176	11851.82
862.498	11724.82
862.819	11740.64
863.14	11725.27
863.461	11677.36
863.782	11641.43
864.103	11703.12
864.424	11641.88
864.745	11599.85
865.065	11537.93
865.386	11480.53
865.707	11599.85
866.027	11535.9
866.348	11405.96
866.668	11491.6
866.989	11453.19
867.309	11424.94
867.63	11408.89
867.95	11381.55
868.27	11357.14
868.59	11388.1
868.91	11323.02
869.23	11384.94
869.55	11204.61
869.87	11270.59
870.19	11304.49
870.51	11168.45
870.83	11252.29
871.15	11172.97
871.469	11142.01
871.789	11103.82
872.109	11205.74
872.428	11040.09
872.748	11095.23
873.067	11117.15
873.386	11021.56
873.706	11091.84
874.025	10979.98
874.344	10960.09
874.663	11027.44
874.982	10897.04
875.301	10922.13
875.62	10848.01
875.939	10846.42
876.258	10907.89
876.577	10838.06
876.896	10833.54
877.214	10754.45
877.533	10862.02
877.852	10779.98
878.17	10745.41
878.489	10766.43
878.807	10791.28
879.125	10702.25
879.444	10684.17
879.762	10636.94
880.08	10672.19
880.398	10631.97
880.716	10634
881.034	10599.2
881.352	10591.29
881.67	10584.28
881.988	10524.17
882.306	10532.08
882.624	10476.49
882.941	10433.1
883.259	10356.04
883.577	10421.8
883.894	10406.21
884.212	10348.36
884.529	10331.41
884.846	10333.44
885.164	10334.12
885.481	10222.71
885.798	10265.42
886.115	10241.69
886.432	10203.95
886.75	10184.29
887.067	10138.65
887.383	10139.55
887.7	10142.26
888.017	10138.19
888.334	10068.37
888.651	10110.85
888.967	10017.75
889.284	9976.16
889.6	9941.14
889.917	9834.47
890.233	9885.09
890.55	9886.68
890.866	9837.64
891.182	9906.56
891.498	9796.28
891.815	9738.43
892.131	9701.14
892.447	9734.14
892.763	9664.53
893.079	9645.55
893.395	9580.92
893.71	9551.54
894.026	9505.22
894.342	9591.77
894.657	9501.15
894.973	9457.76
895.289	9421.38
895.604	9420.02
895.92	9381.15
896.235	9322.17
896.55	9281.27
896.865	9309.74
897.181	9294.37
897.496	9271.32
897.811	9218.22
898.126	9192.68
898.441	9133.7
898.756	9051.22
899.071	9043.08
899.386	9056.19
899.7	8933.71
900.015	8930.77
900.33	8947.04
900.644	8846.25
900.959	8775.97
901.273	8833.14
901.588	8802.18
901.902	8753.15
902.216	8703.43
902.531	8775.52
902.845	8693.71
903.159	8596.99
903.473	8598.57
903.787	8582.3
904.101	8586.14
904.415	8526.26
904.729	8495.75
905.042	8431.35
905.356	8466.83
905.67	8405.36
905.984	8301.18
906.297	8373.72
906.611	8302.54
906.924	8300.05
907.237	8305.47
907.551	8237.68
907.864	8205.14
908.177	8190.9
908.491	8140.05
908.804	8132.82
909.117	8053.95
909.43	8026.84
909.743	7961.08
910.056	7961.53
910.368	7899.61
910.681	7852.15
910.994	7870.46
911.307	7861.42
911.619	7805.15
911.932	7811.48
912.244	7737.35
912.557	7671.14
912.869	7625.94
913.181	7629.11
913.494	7606.28
913.806	7534.42
914.118	7498.04
914.43	7505.04
914.742	7505.72
915.054	7474.76
915.366	7428.89
915.678	7401.77
915.99	7338.49
916.302	7307.08
916.613	7280.64
916.925	7264.6
917.236	7275.9
917.548	7253.98
917.859	7151.61
918.171	7138.05
918.482	7059.18
918.794	7075.68
919.105	7089.69
919.416	7003.81
919.727	7021.44
920.038	7040.42
920.349	6933.76
920.66	6903.48
920.971	6911.84
921.282	6873.42
921.593	6784.61
921.903	6824.83
922.214	6780.99
922.525	6745.97
922.835	6686.99
923.146	6673.88
923.456	6656.93
923.767	6602.47
924.077	6577.84
924.387	6537.61
924.697	6509.14
925.008	6452.64
925.318	6441.79
925.628	6432.3
925.938	6390.27
926.248	6362.47
926.558	6379.42
926.867	6359.54
927.177	6317.05
927.487	6289.93
927.796	6208.81
928.106	6206.55
928.416	6211.29
928.725	6228.24
929.034	6178.98
929.344	6159.09
929.653	6189.15
929.962	6072.54
930.271	6057.17
930.581	5990.73
930.89	5954.35
931.199	5956.38
931.508	5961.58
931.817	5946.89
932.125	5918.42
932.434	5926.1
932.743	5878.64
933.051	5810.17
933.36	5777.86
933.669	5782.83
933.977	5760.46
934.286	5716.39
934.594	5733.79
934.902	5609.05
935.21	5640.01
935.519	5650.85
935.827	5614.25
936.135	5513.68
936.443	5532.21
936.751	5508.71
937.059	5542.61
937.367	5463.74
937.674	5438.2
937.982	5435.27
938.29	5432.78
938.597	5360.92
938.905	5339.45
939.213	5346.91
939.52	5272.56
939.827	5332.9
940.135	5278.43
940.442	5262.16
940.749	5195.27
941.056	5183.52
941.363	5172
941.67	5180.81
941.977	5183.52
942.284	5086.58
942.591	5056.75
942.898	5032.79
943.205	5083.41
943.511	4960.48
943.818	4963.87
944.125	4999.35
944.431	4999.57
944.738	4961.38
945.044	4884.09
945.35	4891.1
945.657	4850.42
945.963	4855.85
946.269	4806.36
946.575	4815.4
946.881	4767.04
947.187	4769.07
947.493	4758.45
947.799	4718.9
948.105	4712.35
948.41	4699.01
948.716	4673.7
949.022	4649.3
949.327	4651.78
949.633	4582.63
949.938	4618.57
950.244	4573.82
950.549	4586.25
950.854	4555.29
951.16	4543.31
951.465	4470.09
951.77	4430.1
952.075	4447.72
952.38	4427.16
952.685	4452.47
952.99	4369.76
953.294	4357.55
953.599	4421.28
953.904	4342.64
954.209	4276.43
954.513	4292.92
954.818	4271.68
955.122	4276.2
955.426	4245.69
955.731	4172.25
956.035	4233.72
956.339	4200.72
956.643	4186.03
956.948	4169.54
957.252	4145.36
957.556	4144.91
957.86	4107.17
958.163	4120.95
958.467	4070.78
958.771	4036.21
959.075	4005.25
959.378	4018.13
959.682	3998.69
959.985	3971.35
960.289	3913.05
960.592	3936.55
960.896	3931.35
961.199	3882.31
961.502	3845.7
961.805	3852.71
962.108	3849.09
962.411	3820.39
962.714	3791.92
963.017	3807.51
963.32	3789.43
963.623	3762.54
963.926	3729.77
964.228	3753.5
964.531	3740.4
964.833	3704.24
965.136	3694.75
965.438	3660.4
965.741	3697.91
966.043	3652.49
966.345	3621.53
966.648	3584.47
966.95	3601.87
967.252	3579.72
967.554	3577.91
967.856	3573.62
968.158	3531.14
968.46	3537.92
968.761	3477.13
969.063	3490.91
969.365	3488.43
969.666	3455.21
969.968	3460.86
970.269	3455.21
970.571	3446.62
970.872	3419.73
971.174	3372.04
971.475	3402.55
971.776	3405.49
972.077	3359.39
972.378	3334.53
972.679	3332.5
972.98	3332.72
973.281	3335.89
973.582	3306.06
973.883	3256.11
974.183	3252.5
974.484	3205.49
974.785	3198.72
975.085	3188.32
975.386	3188.32
975.686	3180.41
975.986	3154.87
976.287	3136.34
976.587	3127.76
976.887	3093.86
977.187	3113.07
977.487	3092.73
977.787	3085.05
978.087	3043.24
978.387	3025.16
978.687	3019.96
978.987	2999.85
979.286	2994.43
979.586	2986.97
979.885	2966.63
980.185	2942
980.484	2947.42
980.784	2918.95
981.083	2882.79
981.382	2906.52
981.682	2903.81
981.981	2860.42
982.28	2899.51
982.579	2852.74
982.878	2892.06
983.177	2797.37
983.475	2848.67
983.774	2787.88
984.073	2828.1
984.372	2774.77
984.67	2754.43
984.969	2772.96
985.267	2731.61
985.566	2730.25
985.864	2744.26
986.162	2711.27
986.461	2719.18
986.759	2721.21
987.057	2664.49
987.355	2677.6
987.653	2664.27
987.951	2625.17
988.249	2609.8
988.547	2609.35
988.844	2597.15
989.142	2614.55
989.44	2544.5
989.737	2568.45
990.035	2540.43
990.332	2590.37
990.63	2549.01
990.927	2556.02
991.224	2494.33
991.521	2496.13
991.819	2492.29
992.116	2480.99
992.413	2465.18
992.71	2452.29
993.006	2468.79
993.303	2438.28
993.6	2412.3
993.897	2401.22
994.193	2397.61
994.49	2422.01
994.787	2394.44
995.083	2363.03
995.379	2342.47
995.676	2339.53
995.972	2330.04
996.268	2335.46
996.565	2322.58
996.861	2317.83
997.157	2268.34
997.453	2290.72
997.749	2270.38
998.044	2268.8
998.34	2226.76
998.636	2236.48
998.932	2230.15
999.227	2198.97
999.523	2183.37
999.818	2167.33
1000.114	2171.85
1000.409	2137.05
1000.704	2157.16
1001	2111.29
1001.295	2113.77
1001.59	2102.7
1001.885	2114.68
1002.18	2083.26
1002.475	2052.3
1002.77	2062.02
1003.065	2071.06
1003.359	2072.64
1003.654	2032.64
1003.949	2015.02
1004.243	2011.63
1004.538	2036.94
1004.832	2009.14
1005.127	1998.97
1005.421	2001.46
1005.715	1959.88
1006.009	1957.62
1006.304	1945.64
1006.598	1913.1
1006.892	1921.01
1007.186	1891.63
1007.48	1906.32
1007.773	1925.98
1008.067	1872.2
1008.361	1879.43
1008.655	1865.42
1008.948	1820.67
1009.242	1842.37
1009.535	1843.5
1009.829	1824.06
1010.122	1788.36
1010.415	1798.3
1010.708	1779.32
1011.001	1780.9
1011.295	1732.31
1011.588	1736.38
1011.881	1761.92
1012.173	1725.53
1012.466	1728.92
1012.759	1681.02
1013.052	1707.68
1013.344	1700.68
1013.637	1662.94
1013.93	1685.31
1014.222	1660
1014.514	1651.41
1014.807	1676.04
1015.099	1651.86
1015.391	1621.13
1015.683	1621.58
1015.976	1648.93
1016.268	1605.08
1016.56	1589.27
1016.851	1574.13
1017.143	1559.66
1017.435	1558.98
1017.727	1566.89
1018.018	1537.52
1018.31	1495.48
1018.602	1519.44
1018.893	1504.3
1019.185	1500.45
1019.476	1507.46
1019.767	1502.49
1020.058	1479.66
1020.35	1436.05
1020.641	1471.98
1020.932	1447.8
1021.223	1429.72
1021.514	1407.8
1021.804	1413.23
1022.095	1413.9
1022.386	1419.33
1022.677	1365.09
1022.967	1363.28
1023.258	1371.87
1023.548	1377.75
1023.839	1350.85
1024.129	1338.65
1024.419	1328.71
1024.709	1326.67
1025	1317.41
1025.29	1323.96
1025.58	1311.53
1025.87	1308.6
1026.16	1279.9
1026.449	1302.95
1026.739	1247.81
1027.029	1260.69
1027.319	1243.51
1027.608	1233.8
1027.898	1198.09
1028.187	1211.87
1028.477	1229.73
1028.766	1201.48
1029.055	1200.12
1029.344	1213
1029.634	1194.02
1029.923	1151.99
1030.212	1145.89
1030.501	1161.71
1030.79	1164.42
1031.078	1160.35
1031.367	1153.8
1031.656	1153.12
1031.945	1133.68
1032.233	1123.29
1032.522	1116.96
1032.81	1114.93
1033.099	1106.11
1033.387	1101.14
1033.675	1076.74
1033.963	1081.93
1034.251	1081.71
1034.54	1054.36
1034.828	1059.79
1035.116	1048.72
1035.403	1034.03
1035.691	1039.9
1035.979	1034.7
1036.267	1050.98
1036.554	1024.76
1036.842	991.32
1037.129	1009.39
1037.417	1032.22
1037.704	986.8
1037.992	971.66
1038.279	956.29
1038.566	953.8
1038.853	953.8
1039.14	953.8
