Data from hue_350_FLMS001491_93.txt Node
Date: Mon Feb 06 15:38:46 GMT 2017
User: dcchb
Spectrometer: FLMS00149
Trigger mode: 0
Integration Time (sec): 2.000000E-2
Scans to average: 10
Electric dark correction enabled: true
Nonlinearity correction enabled: false
Boxcar width: 0
XAxis mode: Wavelengths
Number of Pixels in Spectrum: 2048
>>>>>Begin Spectral Data<<<<<
341.393	-2.25
341.776	-2.25
342.16	-2.25
342.543	-72.07
342.927	-70.04
343.31	-64.16
343.693	-70.72
344.077	-71.17
344.46	-74.79
344.843	-65.52
345.226	-36.14
345.61	-20.78
345.993	-5.41
346.376	-12.19
346.759	12.44
347.142	31.43
347.525	55.15
347.908	63.29
348.291	59.45
348.674	93.12
349.057	106
349.44	144.19
349.823	137.86
350.206	159.33
350.588	186.68
350.971	204.98
351.354	205.21
351.737	217.64
352.119	253.11
352.502	267.35
352.884	275.94
353.267	282.72
353.65	281.36
354.032	299.44
354.414	300.57
354.797	306.9
355.179	321.14
355.562	314.81
355.944	325.88
356.326	335.6
356.709	319.1
357.091	336.28
357.473	340.57
357.855	343.73
358.238	342.15
358.62	334.47
359.002	329.95
359.384	345.54
359.766	311.19
360.148	329.72
360.53	337.86
360.912	319.33
361.294	329.05
361.676	320.23
362.057	327.69
362.439	324.07
362.821	331.98
363.203	327.92
363.584	323.17
363.966	340.12
364.348	334.47
364.729	324.98
365.111	308.48
365.493	328.59
365.874	321.36
366.256	317.97
366.637	313.68
367.019	323.4
367.4	309.84
367.781	345.09
368.163	316.16
368.544	308.48
368.925	317.75
369.306	336.73
369.688	336.5
370.069	328.14
370.45	320.23
370.831	312.32
371.212	307.8
371.593	317.07
371.974	320.01
372.355	319.1
372.736	307.12
373.117	300.12
373.498	305.54
373.879	312.32
374.26	296.96
374.641	305.54
375.021	292.89
375.402	311.64
375.783	315.49
376.163	332.89
376.544	316.39
376.925	334.47
377.305	311.64
377.686	317.97
378.066	340.34
378.447	315.49
378.827	315.71
379.208	314.36
379.588	315.49
379.968	312.32
380.349	321.81
380.729	329.5
381.109	326.33
381.489	345.77
381.87	338.08
382.25	333.79
382.63	336.28
383.01	327.69
383.39	344.41
383.77	346.9
384.15	315.94
384.53	334.69
384.91	331.08
385.29	343.51
385.67	339.44
386.049	343.28
386.429	347.58
386.809	352.77
387.189	333.56
387.568	350.51
387.948	347.58
388.328	347.35
388.707	343.73
389.087	335.82
389.466	355.71
389.846	361.13
390.225	354.36
390.605	346.45
390.984	347.12
391.363	350.74
391.743	364.98
392.122	358.2
392.501	363.39
392.881	359.1
393.26	383.28
393.639	382.38
394.018	373.56
394.397	360.23
394.776	365.65
395.155	394.35
395.534	358.65
395.913	368.14
396.292	391.19
396.671	361.81
397.05	376.95
397.429	375.15
397.808	390.29
398.186	390.29
398.565	377.41
398.944	382.15
399.323	399.55
399.701	381.92
400.08	390.51
400.458	369.95
400.837	390.06
401.215	386.44
401.594	393.45
401.972	405.88
402.351	383.73
402.729	407.69
403.107	395.03
403.486	399.55
403.864	398.42
404.242	406.56
404.62	399.1
404.999	404.52
405.377	416.95
405.755	415.6
406.133	425.31
406.511	402.49
406.889	416.73
407.267	419.89
407.645	423.73
408.023	417.18
408.401	428.25
408.779	417.86
409.156	432.09
409.534	424.86
409.912	429.38
410.29	439.32
410.667	423.96
411.045	478.42
411.422	451.98
411.8	455.6
412.178	448.59
412.555	448.14
412.933	458.31
413.31	465.76
413.687	477.74
414.065	462.6
414.442	468.7
414.819	462.37
415.197	479.78
415.574	465.54
415.951	482.26
416.328	492.2
416.705	483.39
417.082	505.31
417.46	494.01
417.837	491.07
418.214	502.83
418.591	510.28
418.967	495.37
419.344	515.03
419.721	515.71
420.098	507.57
420.475	509.83
420.852	522.26
421.228	538.31
421.605	529.27
421.982	528.59
422.358	547.12
422.735	545.76
423.111	530.62
423.488	552.32
423.864	545.54
424.241	561.36
424.617	556.16
424.994	563.39
425.37	587.12
425.746	555.03
426.123	563.16
426.499	567
426.875	572.2
427.251	593.22
427.627	589.38
428.003	605.2
428.379	608.81
428.756	600.45
429.132	615.82
429.507	597.96
429.883	607.91
430.259	599.32
430.635	634.35
431.011	646.1
431.387	617.17
431.763	646.55
432.138	634.8
432.514	644.97
432.89	654.69
433.265	662.37
433.641	671.63
434.016	681.35
434.392	703.95
434.767	698.98
435.143	680.22
435.518	683.61
435.894	706.21
436.269	687.45
436.644	722.03
437.02	726.1
437.395	701.69
437.77	719.09
438.145	728.81
438.52	729.71
438.895	740.11
439.271	736.04
439.646	750.5
440.021	748.92
440.395	761.12
440.77	741.01
441.145	753.89
441.52	781.91
441.895	790.95
442.27	777.39
442.645	790.5
443.019	792.08
443.394	788.47
443.769	790.05
444.143	778.3
444.518	795.47
444.892	799.99
445.267	808.58
445.641	825.98
446.016	802.93
446.39	825.76
446.764	803.16
447.139	830.95
447.513	821.69
447.887	822.59
448.262	829.6
448.636	845.87
449.01	865.98
449.384	853.33
449.758	861.01
450.132	838.18
450.506	844.74
450.88	857.84
451.254	852.65
451.628	858.97
452.002	870.5
452.376	896.94
452.75	886.54
453.123	895.81
453.497	897.62
453.871	948.46
454.244	912.76
454.618	932.87
454.992	957.5
455.365	936.94
455.739	947.79
456.112	940.55
456.486	968.12
456.859	973.32
457.232	987.11
457.606	976.49
457.979	984.17
458.352	1007.22
458.725	1002.02
459.099	1007.45
459.472	1048.57
459.845	1058.74
460.218	1042.7
460.591	1071.17
460.964	1066.65
461.337	1067.56
461.71	1062.81
462.083	1113.21
462.456	1110.27
462.829	1111.4
463.201	1124.96
463.574	1143.71
463.947	1138.52
464.32	1178.06
464.692	1159.31
465.065	1188.01
465.438	1212.64
465.81	1225.52
466.183	1213.99
466.555	1228.23
466.928	1230.94
467.3	1243.6
467.672	1282.47
468.045	1299.19
468.417	1311.62
468.789	1298.51
469.161	1330.83
469.534	1332.86
469.906	1352.97
470.278	1382.58
470.65	1416.7
471.022	1400.43
471.394	1467.09
471.766	1460.77
472.138	1468
472.51	1498.51
472.882	1514.32
473.253	1543.7
473.625	1557.71
473.997	1575.79
474.369	1580.31
474.74	1616.47
475.112	1613.98
475.484	1672.51
475.855	1712.96
476.227	1704.38
476.598	1785.5
476.97	1775.11
477.341	1780.76
477.713	1825.5
478.084	1842.9
478.455	1908.44
478.827	1901.21
479.198	1932.62
479.569	1948.44
479.94	2003.35
480.311	2005.61
480.682	2061.2
481.053	2118.6
481.424	2145.27
481.795	2164.93
482.166	2224.14
482.537	2240.41
482.908	2271.14
483.279	2330.12
483.65	2324.02
484.021	2390.69
484.391	2423
484.762	2482.21
485.133	2470.68
485.503	2544.13
485.874	2531.25
486.244	2578.03
486.615	2619.38
486.985	2664.12
487.356	2718.81
487.726	2723.78
488.097	2814.4
488.467	2813.73
488.837	2872.93
489.207	2892.59
489.578	2941.86
489.948	2949.32
490.318	2989.09
490.688	2957.45
491.058	3066.15
491.428	3112.02
491.798	3142.53
492.168	3222.3
492.538	3211.46
492.908	3225.69
493.278	3313.83
493.648	3315.63
494.017	3317.67
494.387	3390.43
494.757	3402.18
495.126	3419.59
495.496	3437.44
495.866	3466.14
496.235	3523.31
496.605	3538.45
496.974	3573.25
497.344	3616.19
497.713	3639.47
498.082	3662.29
498.452	3708.17
498.821	3716.75
499.19	3702.29
499.559	3741.38
499.928	3804.43
500.298	3818.9
500.667	3817.31
501.036	3856.64
501.405	3917.88
501.774	3846.01
502.143	3893.92
502.512	3935.5
502.88	3956.29
503.249	3951.77
503.618	3960.59
503.987	4005.56
504.356	4010.98
504.724	4047.14
505.093	4032.9
505.462	4096.4
505.83	4170.53
506.199	4107.02
506.567	4184.54
506.936	4210.52
507.304	4219.79
507.672	4208.04
508.041	4245.33
508.409	4267.02
508.777	4245.78
509.145	4327.81
509.514	4326.68
509.882	4319.67
510.25	4359.45
510.618	4378.2
510.986	4389.05
511.354	4431.54
511.722	4413.68
512.09	4505.21
512.458	4479.44
512.826	4529.84
513.193	4514.02
513.561	4523.74
513.929	4510.63
514.297	4592.89
514.664	4593.79
515.032	4619.78
515.4	4668.14
515.767	4617.29
516.135	4672.43
516.502	4599.44
516.869	4715.14
517.237	4705.2
517.604	4733
517.972	4778.87
518.339	4778.65
518.706	4737.06
519.073	4810.51
519.44	4764.86
519.808	4839.89
520.175	4779.1
520.542	4885.31
520.909	4921.92
521.276	4855.25
521.643	4964.4
522.009	4913.56
522.376	4985.87
522.743	4998.3
523.11	5069.49
523.477	5064.06
523.843	5124.4
524.21	5107
524.577	5161.01
524.943	5151.29
525.31	5175.25
525.676	5242.59
526.043	5194
526.409	5257.95
526.776	5276.26
527.142	5323.26
527.508	5336.15
527.874	5371.4
528.241	5360.55
528.607	5408.01
528.973	5470.38
529.339	5444.16
529.705	5537.04
530.071	5511.96
530.437	5609.36
530.803	5637.83
531.169	5626.98
531.535	5643.71
531.901	5629.7
532.267	5647.78
532.632	5761.44
532.998	5709.02
533.364	5792.4
533.73	5766.42
534.095	5813.42
534.461	5810.03
534.826	5845.96
535.192	5845.28
535.557	5943.36
535.923	5923.25
536.288	5957.15
536.653	5960.08
537.019	6015.68
537.384	6020.65
537.749	6007.31
538.114	6034.66
538.479	6050.7
538.845	6072.17
539.21	6122.57
539.575	6096.58
539.94	6182
540.305	6218.16
540.67	6193.98
541.034	6195.33
541.399	6281.88
541.764	6297.25
542.129	6257.93
542.494	6347.87
542.858	6388.09
543.223	6405.95
543.587	6436
543.952	6453.18
544.316	6464.25
544.681	6485.72
545.045	6465.61
545.41	6556.45
545.774	6593.97
546.138	6566.17
546.503	6573.63
546.867	6577.69
547.231	6631.03
547.595	6651.82
547.959	6684.13
548.324	6659.5
548.688	6739.5
549.052	6793.73
549.416	6774.98
549.779	6844.35
550.143	6794.64
550.507	6878.48
550.871	6909.66
551.235	6866.05
551.599	6939.94
551.962	6936.33
552.326	6971.13
552.689	7031.69
553.053	6988.53
553.417	7032.15
553.78	7131.35
554.143	7082.54
554.507	7064.69
554.87	7148.75
555.234	7167.96
555.597	7174.51
555.96	7163.44
556.323	7229.2
556.686	7243.67
557.05	7229.43
557.413	7279.6
557.776	7282.99
558.139	7282.08
558.502	7339.93
558.865	7365.47
559.228	7395.53
559.59	7399.14
559.953	7425.81
560.316	7514.17
560.679	7501.29
561.041	7552.13
561.404	7658.57
561.767	7693.15
562.129	7592.13
562.492	7688.4
562.854	7688.63
563.217	7758.45
563.579	7679.36
563.941	7762.3
564.304	7793.03
564.666	7797.32
565.028	7862.41
565.39	7836.87
565.753	7906.25
566.115	7944.89
566.477	7958
566.839	7910.09
567.201	8008.39
567.563	8048.16
567.925	8085.9
568.287	8100.82
568.648	8151.66
569.01	8188.5
569.372	8173.58
569.734	8132.46
570.095	8246.8
570.457	8220.36
570.819	8308.5
571.18	8331.09
571.542	8371.77
571.903	8401.15
572.265	8474.14
572.626	8472.56
572.987	8562.27
573.349	8587.36
573.71	8647.47
574.071	8681.59
574.432	8708.49
574.794	8867.35
575.155	8872.32
575.516	8865.09
575.877	8893.79
576.238	8997.52
576.599	9079.1
576.96	9095.82
577.32	9128.81
577.681	9247.91
578.042	9375.59
578.403	9447.68
578.763	9521.35
579.124	9701.68
579.485	9709.59
579.845	9771.51
580.206	9849.92
580.566	9983.48
580.927	10065.06
581.287	10194.77
581.648	10322
582.008	10506.86
582.368	10520.42
582.728	10767.41
583.089	10850.35
583.449	11012.83
583.809	11146.16
584.169	11333.05
584.529	11420.5
584.889	11601.97
585.249	11773.49
585.609	11934.39
585.969	12171.45
586.329	12309.07
586.688	12516.75
587.048	12719.91
587.408	12888.04
587.768	13159.22
588.127	13285.09
588.487	13506.1
588.846	13838.52
589.206	13984.28
589.565	14132.98
589.925	14384.95
590.284	14676.01
590.643	14951.71
591.003	15288.2
591.362	15496.33
591.721	15676.44
592.08	16025.81
592.44	16251.34
592.799	16575.62
593.158	16774.04
593.517	17112.33
593.876	17366.34
594.235	17588.25
594.593	17991.18
594.952	18204.96
595.311	18388.23
595.67	18839.97
596.029	19119.74
596.387	19400.41
596.746	19801.98
597.104	19909.55
597.463	20211.01
597.822	20561.73
598.18	20684.44
598.538	21032
598.897	21396.74
599.255	21489.62
599.613	22082.82
599.972	22189.26
600.33	22479.2
600.688	22681.68
601.046	23071.72
601.404	23406.86
601.762	23669.67
602.12	24029.44
602.478	24200.73
602.836	24542.42
603.194	24594.62
603.552	25027.6
603.91	25199.8
604.268	25525.44
604.625	25621.26
604.983	26103.51
605.341	26173.11
605.698	26686.77
606.056	26824.39
606.413	26996.14
606.771	27306.64
607.128	27496.47
607.485	27649
607.843	27937.58
608.2	28290.57
608.557	28607.17
608.914	28627.28
609.272	28999.25
609.629	29353.82
609.986	29554.49
610.343	29571.89
610.7	29985.67
611.057	30172.55
611.414	30376.39
611.771	30638.53
612.127	30814.35
612.484	31066.54
612.841	31306.08
613.198	31237.16
613.554	31424.95
613.911	31630.82
614.267	32038.95
614.624	32035.56
614.98	32337.69
615.337	32436.45
615.693	32577.69
616.05	32795.08
616.406	33139.03
616.762	32971.35
617.118	33203.21
617.475	33357.33
617.831	33612.92
618.187	33699.47
618.543	33880.25
618.899	34059.01
619.255	34195.73
619.611	34191.43
619.967	34444.31
620.323	34662.15
620.678	34728.14
621.034	34556.17
621.39	34734.92
621.746	34949.38
622.101	35357.28
622.457	35186.89
622.812	35347.79
623.168	35463.26
623.523	35607.44
623.879	35713.43
624.234	35663.03
624.589	35764.5
624.945	35963.81
625.3	36136.47
625.655	35930.59
626.01	36286.52
626.365	36340.3
626.72	36192.51
627.075	36261.66
627.43	36428.66
627.785	36392.96
628.14	36353.41
628.495	36607.19
628.85	36622.1
629.205	36646.28
629.559	36886.95
629.914	36689.44
630.269	36858.25
630.623	36883.79
630.978	36699.39
631.332	36939.38
631.687	37014.63
632.041	36838.82
632.396	37004.92
632.75	36892.15
633.104	36920.4
633.459	36973.73
633.813	37022.77
634.167	37015.54
634.521	37031.13
634.875	37127.17
635.229	37010.79
635.583	36963.79
635.937	36917.01
636.291	36920.63
636.645	36927.4
636.999	36913.85
637.352	37034.07
637.706	36862.32
638.06	37149.77
638.413	37042.66
638.767	36992.94
639.121	37015.76
639.474	36865.71
639.828	36956.56
640.181	37063.9
640.534	36962.21
640.888	36992.26
641.241	36752.49
641.594	36945.03
641.947	36898.7
642.301	36972.6
642.654	37010.11
643.007	36975.99
643.36	36948.2
643.713	36886.28
644.066	36777.58
644.419	36697.58
644.771	36526.96
645.124	36184.37
645.477	36263.92
645.83	35969.69
646.182	35956.13
646.535	35688.57
646.888	35879.52
647.24	35712.75
647.593	35822.58
647.945	35795.01
648.298	35705.06
648.65	35666.87
649.002	35599.98
649.355	35690.38
649.707	35622.58
650.059	35822.8
650.411	36151.38
650.763	36272.96
651.115	36611.03
651.467	36411.26
651.819	36669.33
652.171	36570.58
652.523	36462.33
652.875	36345.95
653.227	36356.8
653.578	36628.2
653.93	36484.93
654.282	36430.24
654.633	36107.77
654.985	36313.41
655.337	36426.4
655.688	36338.95
656.039	36511.14
656.391	36179.63
656.742	36149.35
657.094	36179.18
657.445	36344.82
657.796	36280.64
658.147	36168.55
658.498	36186.63
658.849	36234.09
659.2	36145.96
659.551	36154.54
659.902	36338.72
660.253	36223.24
660.604	36255.11
660.955	36102.12
661.306	36183.47
661.656	36186.41
662.007	36075.22
662.358	36052.63
662.708	36018.28
663.059	36101.44
663.409	35947.77
663.76	36160.65
664.11	36126.07
664.461	36258.27
664.811	36093.3
665.161	36082.46
665.511	35961.33
665.862	36017.37
666.212	36124.26
666.562	36155.9
666.912	36051.5
667.262	35961.1
667.612	36021.44
667.962	36013.53
668.312	36021.44
668.662	36218.95
669.011	36041.55
669.361	36004.04
669.711	36011.5
670.06	35955
670.41	35954.77
670.76	35796.14
671.109	36005.85
671.459	35895.57
671.808	35830.71
672.157	35934.89
672.507	35688.12
672.856	35761.56
673.205	35717.95
673.554	35830.94
673.904	35776.02
674.253	35842.91
674.602	35831.61
674.951	35152.08
675.3	35113.89
675.649	35769.02
675.998	35583.94
676.346	35690.83
676.695	35790.71
677.044	35456.93
677.393	35520.89
677.741	35608.34
678.09	35322.93
678.438	35425.3
678.787	35444.73
679.135	35565.18
679.484	35186.66
679.832	35512.75
680.181	35313.44
680.529	35441.79
680.877	35303.04
681.225	35184.63
681.573	35389.37
681.922	35145.53
682.27	35140.56
682.618	35000
682.966	35018.75
683.314	35035.25
683.661	34931.75
684.009	34708.48
684.357	34732.66
684.705	34687.01
685.053	34871.87
685.4	34609.95
685.748	34554.36
686.095	34499.22
686.443	34311.88
686.79	34301.94
687.138	34385.55
687.485	34453.12
687.832	34196.63
688.18	34096.07
688.527	34159.12
688.874	34184.88
689.221	33896.07
689.568	33955.05
689.915	33834.83
690.262	33807.26
690.609	33771.56
690.956	33593.26
691.303	33759.58
691.65	33511.68
691.997	33551
692.344	33211.12
692.69	33268.97
693.037	33168.18
693.383	33040.28
693.73	33210.67
694.077	32886.16
694.423	32958.02
694.769	32949.88
695.116	32796.21
695.462	32673.51
695.808	32628.08
696.155	32701.3
696.501	32466.05
696.847	32529.55
697.193	32111.03
697.539	32307.64
697.885	32135.44
698.231	31968.89
698.577	32029.23
698.923	32050.47
699.269	31768.22
699.614	31697.94
699.96	31589.01
700.306	31631.27
700.651	31480.77
700.997	31422.01
701.342	31315.35
701.688	31260.66
702.033	31247.1
702.379	31179.31
702.724	31028.35
703.069	31142.92
703.415	30610.28
703.76	30781.13
704.105	30730.96
704.45	30696.61
704.795	30562.37
705.14	30510.62
705.485	30530.28
705.83	30304.08
706.175	30364.87
706.52	30373
706.865	30034.03
707.209	30218.43
707.554	29914.71
707.899	30014.14
708.243	29856.63
708.588	29820.02
708.932	29771.89
709.277	29558.11
709.621	29717.65
709.966	29418
710.31	29551.33
710.654	29348.62
710.998	29415.29
711.342	29388.17
711.687	29216.65
712.031	29197.44
712.375	28997.67
712.719	29232.92
713.063	29029.76
713.407	29143.43
713.75	28879.93
714.094	28839.03
714.438	28825.7
714.782	28786.6
715.125	28608.08
715.469	28663.67
715.812	28507.06
716.156	28443.33
716.499	28446.27
716.843	28548.64
717.186	28264.36
717.53	28481.53
717.873	28366.27
718.216	28277.01
718.559	28236.11
718.902	27841.99
719.246	28059.39
719.589	28013.74
719.932	27830.69
720.275	27898.04
720.617	27864.59
720.96	27879.28
721.303	27653.07
721.646	27834.76
721.989	27625.95
722.331	27681.77
722.674	27568.1
723.016	27559.74
723.359	27524.94
723.701	27528.56
724.044	27376.47
724.386	27188.9
724.729	27329.47
725.071	27289.69
725.413	27211.28
725.755	27255.79
726.097	26983.26
726.439	26972.41
726.782	27032.75
727.124	27079.53
727.465	26973.32
727.807	26997.27
728.149	26930.83
728.491	26844.28
728.833	26878.4
729.175	26684.51
729.516	26712.31
729.858	26751.63
730.199	26709.82
730.541	26679.31
730.882	26598.18
731.224	26660.78
731.565	26461.01
731.906	26537.4
732.248	26417.62
732.589	26360
732.93	26331.3
733.271	26298.98
733.612	26321.58
733.953	26399.55
734.294	26319.55
734.635	26147.12
734.976	26163.39
735.317	25972.89
735.658	26029.61
735.999	25978.77
736.339	25881.82
736.68	26124.52
737.021	26028.26
737.361	25884.76
737.702	25908.03
738.042	25867.36
738.383	25678.66
738.723	25794.82
739.063	25586.69
739.404	25688.15
739.744	25583.97
740.084	25609.51
740.424	25566.35
740.764	25493.36
741.104	25590.3
741.444	25513.02
741.784	25355.51
742.124	25354.38
742.464	25378.1
742.804	25179.47
743.143	25275.28
743.483	25275.51
743.823	25125.46
744.162	25248.16
744.502	25168.84
744.841	25113.25
745.181	25202.06
745.52	24962.52
745.86	24981.96
746.199	24983.09
746.538	24896.53
746.877	25066.02
747.216	25031.9
747.556	24800.04
747.895	24932.01
748.234	24819.93
748.573	24766.59
748.911	24733.38
749.25	24789.42
749.589	24596.43
749.928	24640.04
750.267	24687.95
750.605	24486.6
750.944	24483.44
751.283	24530.22
751.621	24518.24
751.96	24322.09
752.298	24361.86
752.636	24365.02
752.975	24086.84
753.313	24076.44
753.651	24192.15
753.989	24108.31
754.327	24000.74
754.666	23873.28
755.004	23979.72
755.342	23982.89
755.679	23920.74
756.017	23835.32
756.355	23804.36
756.693	23675.1
757.031	23659.73
757.368	23661.99
757.706	23483.46
758.044	23508.1
758.381	23524.59
758.719	23466.97
759.056	23458.83
759.394	23373.41
759.731	23248.44
760.068	23191.27
760.405	23122.8
760.743	23019.3
761.08	23034.66
761.417	22924.84
761.754	22874.21
762.091	22804.16
762.428	22765.29
762.765	22676.25
763.102	22674.67
763.438	22622.47
763.775	22476.71
764.112	22466.09
764.449	22440.78
764.785	22368.69
765.122	22169.83
765.458	22184.06
765.795	22124.18
766.131	22139.32
766.467	22034.24
766.804	21951.3
767.14	21917.4
767.476	21837.18
767.812	21671.99
768.148	21716.05
768.485	21582.5
768.821	21444.42
769.157	21442.61
769.492	21361.26
769.828	21280.81
770.164	21191.32
770.5	21076.3
770.836	21076.07
771.171	21017.54
771.507	20942.51
771.842	20771.45
772.178	20747.04
772.513	20805.12
772.849	20668.4
773.184	20668.85
773.519	20608.96
773.855	20528.97
774.19	20365.81
774.525	20290.55
774.86	20294.17
775.195	20302.31
775.53	20114.06
775.865	20114.06
776.2	19897.57
776.535	19792.49
776.87	19835.2
777.205	19735.99
777.539	19690.34
777.874	19718.59
778.209	19502.78
778.543	19484.93
778.878	19349.56
779.212	19330.58
779.547	19217.36
779.881	19194.09
780.215	19161.09
780.55	19111.83
780.884	18890.36
781.218	18986.41
781.552	18930.36
781.886	18837.26
782.22	18780.31
782.554	18713.87
782.888	18494.67
783.222	18373.99
783.556	18367.21
783.889	18265.07
784.223	18177.16
784.557	18153.44
784.89	18248.12
785.224	18086.77
785.557	17961.12
785.891	17949.15
786.224	17910.28
786.558	17929.94
786.891	17768.13
787.224	17623.05
787.557	17572.43
787.891	17593.9
788.224	17635.26
788.557	17580.34
788.89	17556.39
789.223	17473.23
789.556	17329.73
789.888	17299.45
790.221	17252.89
790.554	17134.03
790.887	17075.27
791.219	17055.84
791.552	16962.05
791.884	16844.32
792.217	16852.68
792.549	16762.96
792.882	16600.93
793.214	16613.14
793.546	16649.75
793.879	16551.44
794.211	16469.41
794.543	16493.37
794.875	16468.73
795.207	16380.83
795.539	16291.11
795.871	16311.22
796.203	16206.14
796.535	16073.49
796.867	16144.45
797.198	16043.66
797.53	16036.88
797.862	15819.26
798.193	15951.23
798.525	15850.9
798.856	15790.11
799.188	15713.95
799.519	15733.61
799.85	15668.08
800.182	15580.4
800.513	15591.92
800.844	15337.69
801.175	15464.24
801.506	15500.17
801.837	15271.03
802.168	15316.67
802.499	15271.48
802.83	15214.76
803.161	15089.11
803.491	15167.75
803.822	15140.18
804.153	15021.09
804.483	14855.89
804.814	14909.45
805.145	14808.44
805.475	14798.95
805.805	14753.3
806.136	14780.42
806.466	14708.33
806.796	14700.42
807.126	14637.82
807.457	14587.43
807.787	14540.42
808.117	14461.55
808.447	14443.02
808.777	14386.08
809.107	14397.6
809.436	14343.37
809.766	14231.05
810.096	14282.35
810.426	14166.65
810.755	14216.82
811.085	14226.08
811.414	14136.82
811.744	13981.57
812.073	14121.45
812.403	13969.59
812.732	13917.39
813.061	13944.28
813.39	13853.21
813.719	13814.57
814.049	13889.37
814.378	13751.74
814.707	13771.63
815.036	13717.17
815.365	13667.45
815.693	13515.36
816.022	13632.42
816.351	13512.2
816.68	13473.33
817.008	13428.36
817.337	13384.97
817.665	13353.34
817.994	13394.69
818.322	13334.58
818.651	13266.56
818.979	13228.82
819.307	13284.86
819.636	13248.03
819.964	13183.4
820.292	13210.97
820.62	13153.34
820.948	13141.14
821.276	13236.05
821.604	13139.33
821.932	13141.36
822.259	13112.89
822.587	13162.38
822.915	13102.49
823.243	13064.3
823.57	13114.92
823.898	13063.63
824.225	13024.08
824.553	13022.72
824.88	13029.05
825.207	13109.5
825.535	13084.64
825.862	13106.11
826.189	13017.98
826.516	13063.63
826.843	13059.11
827.17	13064.76
827.497	13097.75
827.824	13059.78
828.151	13144.3
828.478	13060.69
828.805	13112.44
829.131	13036.73
829.458	13054.81
829.785	12892.78
830.111	12928.94
830.438	13093.68
830.764	13044.64
831.09	12963.74
831.417	12955.15
831.743	13011.2
832.069	12982.95
832.395	12964.64
832.722	13017.07
833.048	12904.31
833.374	12936.4
833.7	12915.15
834.026	12975.49
834.351	12874.03
834.677	12953.12
835.003	12887.13
835.329	12874.25
835.654	12784.31
835.98	12803.07
836.306	12833.57
836.631	12735.05
836.956	12813.24
837.282	12794.03
837.607	12713.35
837.932	12666.8
838.258	12700.7
838.583	12667.93
838.908	12510.42
839.233	12639
839.558	12581.38
839.883	12569.18
840.208	12533.92
840.533	12459.12
840.858	12554.94
841.182	12472.68
841.507	12509.06
841.832	12468.39
842.156	12363.76
842.481	12350.2
842.805	12309.07
843.13	12319.69
843.454	12348.16
843.778	12184.1
844.103	12236.3
844.427	12182.07
844.751	12206.25
845.075	12159.69
845.399	12037.89
845.723	12079.47
846.047	12125.35
846.371	11951.56
846.695	12006.7
847.019	11851
847.343	11816.88
847.666	11801.51
847.99	11725.58
848.313	11692.14
848.637	11623.89
848.96	11588.18
849.284	11604.23
849.607	11457.57
849.931	11491.01
850.254	11443.1
850.577	11343.67
850.9	11273.62
851.223	11251.47
851.546	11227.52
851.869	11145.03
852.192	11180.96
852.515	11071.36
852.838	11030.46
853.161	11015.32
853.483	10962.89
853.806	10900.97
854.129	10878.82
854.451	10865.27
854.774	10791.14
855.096	10785.04
855.419	10700.75
855.741	10732.39
856.063	10649.68
856.385	10657.59
856.708	10658.26
857.03	10578.27
857.352	10553.63
857.674	10586.85
857.996	10512.73
858.318	10389.8
858.64	10467.54
858.961	10320.87
859.283	10388.89
859.605	10350.25
859.926	10357.03
860.248	10319.06
860.57	10216.24
860.891	10222.8
861.212	10208.56
861.534	10168.79
861.855	10182.8
862.176	10153.65
862.498	10180.99
862.819	10149.8
863.14	10070.94
863.461	10061.9
863.782	10011.05
864.103	10032.29
864.424	10039.07
864.745	10015.12
865.065	9972.18
865.386	9951.16
865.707	9938.74
866.027	9861.68
866.348	9920.21
866.668	9883.82
866.989	9813.09
867.309	9829.13
867.63	9791.62
867.95	9874.1
868.27	9739.19
868.59	9803.15
868.91	9731.06
869.23	9696.26
869.55	9740.32
869.87	9853.31
870.19	9719.08
870.51	9680.89
870.83	9729.93
871.15	9670.95
871.469	9575.58
871.789	9636.37
872.109	9601.12
872.428	9622.13
872.748	9564.06
873.067	9631.17
873.386	9583.72
873.706	9560.21
874.025	9566.54
874.344	9474.79
874.663	9473.66
874.982	9473.21
875.301	9431.18
875.62	9417.39
875.939	9429.14
876.258	9405.87
876.577	9339.43
876.896	9326.1
877.214	9300.79
877.533	9305.76
877.852	9360.67
878.17	9290.84
878.489	9336.27
878.807	9310.05
879.125	9242.03
879.444	9212.88
879.762	9211.07
880.08	9162.49
880.398	9218.3
880.716	9197.29
881.034	9145.08
881.352	9171.3
881.67	9093.79
881.988	9048.59
882.306	9117.74
882.624	9057.63
882.941	9020.57
883.259	9009.04
883.577	8962.26
883.894	8913.68
884.212	8943.73
884.529	8998.42
884.846	8889.5
885.164	8924.53
885.481	8871.87
885.798	8871.19
886.115	8795.72
886.432	8870.74
886.75	8786.22
887.067	8761.37
887.383	8725.21
887.7	8748.03
888.017	8738.09
888.334	8693.57
888.651	8648.37
888.967	8675.72
889.284	8595.27
889.6	8584.65
889.917	8536.29
890.233	8546
890.55	8545.78
890.866	8550.52
891.182	8528.83
891.498	8375.39
891.815	8466.01
892.131	8391.88
892.447	8326.12
892.763	8376.07
893.079	8332.45
893.395	8246.35
893.71	8263.75
894.026	8242.06
894.342	8180.14
894.657	8155.96
894.973	8170.42
895.289	8163.87
895.604	8152.79
895.92	8082.51
896.235	7986.47
896.55	7996.19
896.865	8009.97
897.181	7983.53
897.496	8035.96
897.811	7953.93
898.126	7916.19
898.441	7944.21
898.756	7866.93
899.071	7863.31
899.386	7870.09
899.7	7728.62
900.015	7741.51
900.33	7689.08
900.644	7680.49
900.959	7643.65
901.273	7623.99
901.588	7558.01
901.902	7561.17
902.216	7545.13
902.531	7516.65
902.845	7477.11
903.159	7490.66
903.473	7394.4
903.787	7385.36
904.101	7389.42
904.415	7344.91
904.729	7301.52
905.042	7239.6
905.356	7276.21
905.67	7262.42
905.984	7226.94
906.297	7199.37
906.611	7205.7
906.924	7125.02
907.237	7106.49
907.551	7118.25
907.864	7080.73
908.177	7016.78
908.491	7033.5
908.804	7000.28
909.117	6968.64
909.43	6957.8
909.743	6874.41
910.056	6918.02
910.368	6822.66
910.681	6830.57
910.994	6757.8
911.307	6786.5
911.619	6718.26
911.932	6728.2
912.244	6718.03
912.557	6689.78
912.869	6641.2
913.181	6569.33
913.494	6517.58
913.806	6587.64
914.118	6520.75
914.43	6486.85
914.742	6471.26
915.054	6466.51
915.366	6388.77
915.678	6395.33
915.99	6334.54
916.302	6323.69
916.613	6319.62
916.925	6290.02
917.236	6296.8
917.548	6224.03
917.859	6198.5
918.171	6166.18
918.482	6169.57
918.794	6114.88
919.105	6167.31
919.416	6077.59
919.727	6072.4
920.038	6032.4
920.349	5971.38
920.66	5946.75
920.971	5959.41
921.282	5897.26
921.593	5890.71
921.903	5835.34
922.214	5810.93
922.525	5841.22
922.835	5767.55
923.146	5783.36
923.456	5774.55
923.767	5721.67
924.077	5694.55
924.387	5722.12
924.697	5694.1
925.008	5666.31
925.318	5569.36
925.628	5607.55
925.938	5582.47
926.248	5568
926.558	5507.21
926.867	5520.55
927.177	5499.98
927.487	5438.06
927.796	5401.23
928.106	5378.4
928.416	5418.18
928.725	5374.56
929.034	5352.19
929.344	5357.39
929.653	5342.25
929.962	5278.97
930.271	5268.35
930.581	5211.4
930.89	5204.17
931.199	5164.62
931.508	5178.18
931.817	5115.13
932.125	5128.01
932.434	5112.42
932.743	5062.25
933.051	5015.02
933.36	4970.28
933.669	5022.25
933.977	4995.36
934.286	4975.7
934.594	4935.03
934.902	4878.08
935.21	4907.46
935.519	4885.76
935.827	4883.05
936.135	4804.18
936.443	4797.85
936.751	4804.41
937.059	4803.5
937.367	4751.75
937.674	4748.59
937.982	4769.38
938.29	4681.25
938.597	4684.18
938.905	4625.88
939.213	4614.81
939.52	4607.8
939.827	4618.65
940.135	4574.13
940.442	4538.43
940.749	4549.27
941.056	4618.2
941.363	4505.21
941.67	4464.76
941.977	4476.73
942.284	4446.45
942.591	4420.69
942.898	4439.9
943.205	4446.68
943.511	4381.82
943.818	4332.78
944.125	4298.66
944.431	4298.43
944.738	4288.94
945.044	4299.56
945.35	4260.02
945.657	4222.05
945.963	4239.45
946.269	4193.35
946.575	4185.21
946.881	4143.63
947.187	4118.1
947.493	4119.45
947.799	4137.08
948.105	4110.41
948.41	4044.65
948.716	4065.9
949.022	4044.65
949.327	4023.19
949.633	4006.01
949.938	4042.17
950.244	4007.59
950.549	3977.31
950.854	3924.2
951.16	3937.76
951.465	3940.7
951.77	3879.23
952.075	3852.12
952.38	3839.46
952.685	3856.18
952.99	3820.25
953.294	3793.59
953.599	3797.43
953.904	3810.76
954.209	3741.61
954.513	3742.97
954.818	3765.79
955.122	3732.12
955.426	3704.55
955.731	3697.77
956.035	3719.46
956.339	3643.99
956.643	3680.14
956.948	3589.75
957.252	3591.11
957.556	3632.01
957.86	3621.39
958.163	3596.76
958.467	3588.39
958.771	3520.15
959.075	3550.66
959.378	3538
959.682	3489.87
959.985	3498
960.289	3422.3
960.592	3451.22
960.896	3407.83
961.199	3397.21
961.502	3383.2
961.805	3315.63
962.108	3372.13
962.411	3357.89
962.714	3292.58
963.017	3341.85
963.32	3300.72
963.623	3288.06
963.926	3279.02
964.228	3266.59
964.531	3278.57
964.833	3257.1
965.136	3234.51
965.438	3198.12
965.741	3155.19
966.043	3171.23
966.345	3159.71
966.648	3157.22
966.95	3138.46
967.252	3135.07
967.554	3084.45
967.856	3096.66
968.158	3066.37
968.46	3053.95
968.761	3065.92
969.063	3052.59
969.365	3040.39
969.666	3041.74
969.968	3035.64
970.269	3000.61
970.571	3000.61
970.872	2968.75
971.174	3017.34
971.475	2962.87
971.776	2939.6
972.077	2921.52
972.378	2913.16
972.679	2886.72
972.98	2907.06
973.281	2860.73
973.582	2866.15
973.883	2870.67
974.183	2819.83
974.484	2832.71
974.785	2795.87
975.085	2777.12
975.386	2798.58
975.686	2795.19
975.986	2773.73
976.287	2734.18
976.587	2761.75
976.887	2724.46
977.187	2734.86
977.487	2708.19
977.787	2674.75
978.087	2688.08
978.387	2660.51
978.687	2642.66
978.987	2638.14
979.286	2634.97
979.586	2627.29
979.885	2621.87
980.185	2587.29
980.484	2604.01
980.784	2585.93
981.083	2566.27
981.382	2538.93
981.682	2552.04
981.981	2528.08
982.28	2550.23
982.579	2511.36
982.878	2505.48
983.177	2523.34
983.475	2470.91
983.774	2442.66
984.073	2478.82
984.372	2451.93
984.67	2408.76
984.969	2420.97
985.267	2474.53
985.566	2425.94
985.864	2399.73
986.162	2391.36
986.461	2421.65
986.759	2368.09
987.057	2346.39
987.355	2308.88
987.653	2320.63
987.951	2314.53
988.249	2338.94
988.547	2293.06
988.844	2294.64
989.142	2273.4
989.44	2265.72
989.737	2247.86
990.035	2242.44
990.332	2233.18
990.63	2237.02
990.927	2220.97
991.224	2193.85
991.521	2222.78
991.819	2192.95
992.116	2204.25
992.413	2173.52
992.71	2174.42
993.006	2143.91
993.303	2124.7
993.6	2143.01
993.897	2119.96
994.193	2100.75
994.49	2112.73
994.787	2095.55
995.083	2054.2
995.379	2060.07
995.676	2087.64
995.972	2067.08
996.268	2041.32
996.565	2052.16
996.861	2013.97
997.157	2043.35
997.453	1976.69
997.749	2004.48
998.044	1965.84
998.34	1985.95
998.636	1954.76
998.932	1981.88
999.227	1945.73
999.523	1942.34
999.818	1906.4
1000.114	1907.53
1000.409	1918.16
1000.704	1878.83
1001	1915.9
1001.295	1909.57
1001.59	1884.26
1001.885	1860.53
1002.18	1850.59
1002.475	1847.42
1002.77	1810.81
1003.065	1789.57
1003.359	1835.67
1003.654	1782.34
1003.949	1808.78
1004.243	1766.75
1004.538	1785.96
1004.832	1771.49
1005.127	1762.68
1005.421	1719.52
1005.715	1737.37
1006.009	1723.58
1006.304	1726.52
1006.598	1711.83
1006.892	1730.36
1007.186	1709.35
1007.48	1686.52
1007.773	1684.49
1008.067	1656.02
1008.361	1643.59
1008.655	1657.15
1008.948	1627.77
1009.242	1615.34
1009.535	1617.6
1009.829	1626.64
1010.122	1590.48
1010.415	1582.12
1010.708	1582.12
1011.001	1591.84
1011.295	1588.45
1011.588	1563.36
1011.881	1552.06
1012.173	1541.89
1012.466	1536.02
1012.759	1516.58
1013.052	1524.72
1013.344	1499.18
1013.637	1509.58
1013.93	1483.36
1014.222	1456.47
1014.514	1452.18
1014.807	1482.46
1015.099	1426.19
1015.391	1442.46
1015.683	1445.63
1015.976	1470.03
1016.268	1415.8
1016.56	1399.75
1016.851	1392.29
1017.143	1390.94
1017.435	1385.74
1017.727	1386.19
1018.018	1381.45
1018.31	1365.4
1018.602	1364.95
1018.893	1337.61
1019.185	1339.87
1019.476	1343.71
1019.767	1338.51
1020.058	1299.64
1020.35	1315.91
1020.641	1320.43
1020.932	1261.9
1021.223	1269.13
1021.514	1266.42
1021.804	1250.83
1022.095	1262.58
1022.386	1246.08
1022.677	1264.61
1022.967	1241.34
1023.258	1255.57
1023.548	1245.18
1023.839	1242.02
1024.129	1196.14
1024.419	1193.66
1024.709	1179.19
1025	1185.07
1025.29	1172.86
1025.58	1173.09
1025.87	1148.46
1026.16	1122.24
1026.449	1157.05
1026.739	1148.23
1027.029	1110.95
1027.319	1101.23
1027.608	1117.05
1027.898	1116.14
1028.187	1090.83
1028.477	1075.47
1028.766	1070.27
1029.055	1076.82
1029.344	1054.9
1029.634	1083.83
1029.923	1065.3
1030.212	1037.05
1030.501	1050.16
1030.79	1066.65
1031.078	1030.04
1031.367	1024.85
1031.656	1019.65
1031.945	1011.29
1032.233	1025.52
1032.522	1005.64
1032.81	987.33
1033.099	1005.86
1033.387	987.56
1033.675	989.14
1033.963	968.12
1034.251	980.55
1034.54	954.57
1034.828	974.9
1035.116	972.87
1035.403	952.76
1035.691	949.37
1035.979	927.45
1036.267	923.61
1036.554	941.23
1036.842	936.71
1037.129	920.67
1037.417	896.04
1037.704	891.74
1037.992	893.55
1038.279	866.21
1038.566	889.26
1038.853	889.26
1039.14	889.26
