Data from hue_20_FLMS001491_30.txt Node
Date: Mon Feb 06 15:33:50 GMT 2017
User: dcchb
Spectrometer: FLMS00149
Trigger mode: 0
Integration Time (sec): 2.000000E-2
Scans to average: 10
Electric dark correction enabled: true
Nonlinearity correction enabled: false
Boxcar width: 0
XAxis mode: Wavelengths
Number of Pixels in Spectrum: 2048
>>>>>Begin Spectral Data<<<<<
341.393	-20.13
341.776	-20.13
342.16	-20.13
342.543	-54.25
342.927	-70.75
343.31	-54.93
343.693	-71.2
344.077	-76.85
344.46	-56.06
344.843	-40.01
345.226	-42.05
345.61	-18.32
345.993	-11.54
346.376	-5.89
346.759	0.89
347.142	15.8
347.525	51.51
347.908	52.41
348.291	60.1
348.674	83.37
349.057	112.75
349.44	143.94
349.823	134.9
350.206	154.78
350.588	186.42
350.971	230.94
351.354	223.71
351.737	247.89
352.119	248.11
352.502	264.39
352.884	266.19
353.267	277.72
353.65	286.76
354.032	284.27
354.414	297.61
354.797	293.09
355.179	322.69
355.562	313.65
355.944	335.57
356.326	331.5
356.709	334.67
357.091	366.53
357.473	338.96
357.855	348.45
358.238	338.28
358.62	352.29
359.002	350.03
359.384	337.15
359.766	359.3
360.148	354.55
360.53	322.92
360.912	340.09
361.294	345.74
361.676	325.85
362.057	360.2
362.439	319.3
362.821	324.27
363.203	322.01
363.584	332.41
363.966	328.56
364.348	316.14
364.729	323.59
365.111	340.77
365.493	309.58
365.874	309.58
366.256	329.92
366.637	318.17
367.019	321.33
367.4	310.94
367.781	327.66
368.163	324.05
368.544	324.72
368.925	314.1
369.306	338.06
369.688	315.46
370.069	305.51
370.45	322.69
370.831	326.76
371.212	329.02
371.593	324.5
371.974	330.6
372.355	310.49
372.736	333.76
373.117	312.29
373.498	326.53
373.879	316.36
374.26	317.49
374.641	326.98
375.021	345.51
375.402	337.38
375.783	333.76
376.163	321.11
376.544	317.94
376.925	323.14
377.305	329.69
377.686	304.84
378.066	331.28
378.447	340.99
378.827	334.67
379.208	331.05
379.588	325.63
379.968	329.69
380.349	348
380.729	338.73
381.109	346.64
381.489	336.7
381.87	324.5
382.25	340.32
382.63	351.16
383.01	348.68
383.39	356.13
383.77	352.74
384.15	357.26
384.53	331.05
384.91	353.65
385.29	346.64
385.67	349.13
386.049	337.83
386.429	325.63
386.809	363.14
387.189	364.95
387.568	352.52
387.948	360.43
388.328	347.77
388.707	345.29
389.087	345.97
389.466	350.71
389.846	348.23
390.225	356.59
390.605	370.82
390.984	381.22
391.363	337.15
391.743	370.82
392.122	380.99
392.501	379.86
392.881	372.41
393.26	354.55
393.639	369.24
394.018	368.11
394.397	383.48
394.776	386.42
395.155	371.73
395.534	371.73
395.913	394.55
396.292	378.96
396.671	388.9
397.05	397.49
397.429	367.21
397.808	385.51
398.186	388.22
398.565	404.95
398.944	398.62
399.323	376.25
399.701	372.18
400.08	395.68
400.458	392.74
400.837	388.22
401.215	370.15
401.594	406.3
401.972	431.16
402.351	396.36
402.729	416.02
403.107	369.47
403.486	404.72
403.864	429.13
404.242	404.72
404.62	416.47
404.999	411.5
405.377	422.57
405.755	396.13
406.133	431.16
406.511	429.35
406.889	420.31
407.267	420.54
407.645	419.41
408.023	420.77
408.401	413.99
408.779	426.19
409.156	434.78
409.534	422.12
409.912	455.79
410.29	453.99
410.667	444.95
411.045	464.61
411.422	474.55
411.8	451.95
412.178	474.78
412.555	460.31
412.933	453.99
413.31	460.31
413.687	472.74
414.065	489.69
414.442	470.93
414.819	474.78
415.197	453.76
415.574	481.33
415.951	484.72
416.328	466.64
416.705	484.94
417.082	495.11
417.46	482.91
417.837	497.37
418.214	498.05
418.591	484.49
418.967	482.23
419.344	519.29
419.721	497.6
420.098	487.66
420.475	482.69
420.852	498.96
421.228	510.71
421.605	508.67
421.982	523.36
422.358	531.72
422.735	524.27
423.111	519.29
423.488	520.65
423.864	541.67
424.241	529.01
424.617	552.29
424.994	524.49
425.37	533.53
425.746	545.73
426.123	538.28
426.499	557.26
426.875	565.39
427.251	564.04
427.627	559.75
428.003	576.92
428.379	560.2
428.756	579.63
429.132	580.99
429.507	585.96
429.883	590.25
430.259	589.57
430.635	613.3
431.011	570.82
431.387	595.9
431.763	586.19
432.138	618.73
432.514	597.94
432.89	631.16
433.265	619.86
433.641	634.32
434.016	638.61
434.392	625.05
434.767	677.48
435.143	644.49
435.518	640.2
435.894	659.4
436.269	680.65
436.644	644.04
437.02	667.31
437.395	654.66
437.77	670.48
438.145	666.18
438.52	705.73
438.895	690.14
439.271	706.18
439.646	708.44
440.021	699.4
440.395	705.28
440.77	716.8
441.145	731.27
441.52	733.98
441.895	717.71
442.27	710.48
442.645	695.11
443.019	728.55
443.394	750.93
443.769	736.69
444.143	734.66
444.518	742.79
444.892	718.16
445.267	747.54
445.641	763.81
446.016	717.71
446.39	747.08
446.764	775.33
447.139	774.65
447.513	790.47
447.887	765.84
448.262	769.68
448.636	783.92
449.01	795.9
449.384	774.2
449.758	791.83
450.132	805.61
450.506	796.58
450.88	794.77
451.254	820.98
451.628	826.63
452.002	824.6
452.376	832.05
452.75	821.43
453.123	852.17
453.497	839.29
453.871	843.81
454.244	859.4
454.618	850.36
454.992	869.57
455.365	894.65
455.739	906.4
456.112	872.96
456.486	908.21
456.859	909.79
457.232	913.41
457.606	917.7
457.979	956.8
458.352	943.69
458.725	956.8
459.099	961.32
459.472	978.27
459.845	979.85
460.218	1000.86
460.591	1011.94
460.964	979.4
461.337	1029.34
461.71	1041.54
462.083	1020.98
462.456	1041.99
462.829	1039.05
463.201	1064.59
463.574	1074.53
463.947	1074.99
464.32	1094.19
464.692	1136
465.065	1096
465.438	1130.8
465.81	1144.59
466.183	1156.34
466.555	1163.12
466.928	1208.54
467.3	1175.77
467.672	1200.86
468.045	1216.9
468.417	1240.63
468.789	1232.04
469.161	1253.96
469.534	1269.33
469.906	1285.83
470.278	1314.98
470.65	1338.93
471.022	1370.35
471.394	1411.02
471.766	1363.34
472.138	1409.67
472.51	1434.98
472.882	1469.1
473.253	1471.13
473.625	1489.44
473.997	1501.19
474.369	1544.8
474.74	1564.69
475.112	1570.11
475.484	1619.6
475.855	1651.47
476.227	1679.49
476.598	1712.48
476.97	1713.61
477.341	1761.07
477.713	1808.75
478.084	1799.03
478.455	1872.7
478.827	1881.29
479.198	1916.55
479.569	1933.04
479.94	2028.18
480.311	2026.83
480.682	2025.92
481.053	2109.53
481.424	2168.74
481.795	2217.78
482.166	2232.02
482.537	2251.9
482.908	2315.86
483.279	2352.47
483.65	2392.69
484.021	2438.57
484.391	2481.05
484.762	2492.58
485.133	2503.87
485.503	2603.76
485.874	2676.3
486.244	2667.71
486.615	2741.38
486.985	2747.94
487.356	2806.47
487.726	2857.31
488.097	2931.66
488.467	2928.5
488.837	3017.76
489.207	3015.27
489.578	3101.15
489.948	3144.76
490.318	3196.06
490.688	3167.13
491.058	3257.08
491.428	3348.15
491.798	3329.16
492.168	3434.92
492.538	3451.19
492.908	3496.62
493.278	3541.59
493.648	3566.45
494.017	3611.64
494.387	3636.95
494.757	3683.96
495.126	3737.29
495.496	3723.96
495.866	3751.3
496.235	3842.14
496.605	3847.79
496.974	3868.13
497.344	3946.32
497.713	3973.89
498.082	3955.81
498.452	4029.48
498.821	4076.04
499.19	4074.91
499.559	4137.28
499.928	4121.01
500.298	4183.38
500.667	4213.89
501.036	4236.71
501.405	4230.16
501.774	4261.79
502.143	4323.49
502.512	4325.97
502.88	4349.48
503.249	4360.78
503.618	4389.47
503.987	4424.05
504.356	4409.14
504.724	4467.89
505.093	4464.95
505.462	4465.86
505.83	4534.33
506.199	4607.1
506.567	4639.64
506.936	4601.67
507.304	4673.76
507.672	4668.79
508.041	4673.31
508.409	4692.97
508.777	4770.03
509.145	4760.76
509.514	4759.18
509.882	4806.41
510.25	4805.06
510.618	4833.08
510.986	4823.14
511.354	4897.03
511.722	4921.89
512.09	4941.55
512.458	4906.75
512.826	4944.04
513.193	5008.22
513.561	4979.29
513.929	5051.83
514.297	5054.77
514.664	5116.69
515.032	5058.16
515.4	5127.53
515.767	5126.63
516.135	5132.05
516.502	5084.15
516.869	5149.45
517.237	5237.36
517.604	5159.62
517.972	5210.7
518.339	5251.15
518.706	5245.5
519.073	5257.02
519.44	5306.06
519.808	5340.41
520.175	5348.32
520.542	5361.2
520.909	5359.17
521.276	5367.98
521.643	5413.18
522.009	5522.1
522.376	5452.27
522.743	5436.91
523.11	5505.15
523.477	5505.15
523.843	5586.51
524.21	5632.83
524.577	5644.81
524.943	5653.62
525.31	5659.72
525.676	5671.48
526.043	5665.83
526.409	5758.93
526.776	5822.43
527.142	5825.37
527.508	5834.86
527.874	5873.5
528.241	5908.76
528.607	5900.62
528.973	5996.66
529.339	5952.82
529.705	5982.88
530.071	6022.88
530.437	6085.25
530.803	6126.38
531.169	6158.02
531.535	6164.57
531.901	6104.01
532.267	6158.02
532.632	6266.26
532.998	6214.06
533.364	6309.88
533.73	6264.45
534.095	6327.73
534.461	6382.64
534.826	6380.61
535.192	6387.39
535.557	6431.23
535.923	6451.12
536.288	6501.51
536.653	6498.35
537.019	6463.09
537.384	6522.3
537.749	6590.77
538.114	6597.55
538.479	6640.49
538.845	6665.57
539.21	6629.19
539.575	6680.49
539.94	6695.86
540.305	6707.83
540.67	6781.05
541.034	6796.19
541.399	6819.02
541.764	6835.74
542.129	6888.39
542.494	6960.93
542.858	6954.61
543.223	6999.8
543.587	6926.36
543.952	7026.02
544.316	7004.55
544.681	7029.41
545.045	7057.88
545.41	7123.19
545.774	7203.86
546.138	7151.44
546.503	7213.81
546.867	7240.93
547.231	7247.93
547.595	7248.61
547.959	7314.82
548.324	7356.4
548.688	7361.6
549.052	7410.19
549.416	7411.54
549.779	7438.21
550.143	7429.62
550.507	7480.69
550.871	7496.06
551.235	7499
551.599	7661.25
551.962	7608.15
552.326	7615.6
552.689	7640.69
553.053	7668.03
553.417	7654.02
553.78	7752.78
554.143	7777.63
554.507	7758.88
554.87	7775.37
555.234	7851.53
555.597	7747.8
555.96	7902.6
556.323	7924.52
556.686	7925.88
557.05	7928.14
557.413	7965.2
557.776	7972.66
558.139	7982.83
558.502	8056.05
558.865	8039.32
559.228	8169.26
559.59	8148.47
559.953	8142.82
560.316	8185.31
560.679	8221.69
561.041	8284.06
561.404	8257.62
561.767	8306.89
562.129	8295.81
562.492	8316.38
562.854	8397.73
563.217	8332.42
563.579	8381.23
563.941	8451.74
564.304	8432.76
564.666	8513.89
565.028	8474.79
565.39	8546.88
565.753	8539.42
566.115	8662.58
566.477	8719.08
566.839	8671.4
567.201	8738.74
567.563	8700.77
567.925	8820.77
568.287	8804.27
568.648	8793.2
569.01	8906.42
569.372	8992.52
569.734	8816.93
570.095	9004.72
570.457	9032.29
570.819	9093.76
571.18	9052.63
571.542	9112.51
571.903	9150.48
572.265	9204.49
572.626	9293.75
572.987	9286.3
573.349	9399.06
573.71	9406.74
574.071	9486.29
574.432	9537.14
574.794	9635.66
575.155	9681.54
575.516	9635.44
575.877	9742.1
576.238	9801.08
576.599	9955.43
576.96	10074.75
577.32	10065.71
577.681	10114.07
578.042	10299.38
578.403	10343.44
578.763	10404.68
579.124	10563.1
579.485	10716.99
579.845	10838.57
580.206	10956.76
580.566	11009.64
580.927	11146.36
581.287	11358.78
581.648	11383.42
582.008	11629.06
582.368	11759.68
582.728	11910.63
583.089	12119.67
583.449	12352.66
583.809	12532.09
584.169	12725.08
584.529	12938.63
584.889	13195.8
585.249	13259.75
585.609	13479.63
585.969	13839.4
586.329	14061.54
586.688	14214.08
587.048	14541.07
587.408	14744
587.768	14998.69
588.127	15329.98
588.487	15517.32
588.846	16018.77
589.206	16107.58
589.565	16494.24
589.925	16837.74
590.284	17064.17
590.643	17387.1
591.003	17820.53
591.362	18109.11
591.721	18474.75
592.08	18861.41
592.44	19173.72
592.799	19460.72
593.158	19790.88
593.517	20270.41
593.876	20589.95
594.235	20985.87
594.593	21255.25
594.952	21672.64
595.311	21868.56
595.67	22335.44
596.029	22843.23
596.387	23179.26
596.746	23667.39
597.104	23936.98
597.463	24220.37
597.822	24650.86
598.18	24884.76
598.538	25255.82
598.897	25805.41
599.255	25899.19
599.613	26703.46
599.972	26757.02
600.33	27201.98
600.688	27492.14
601.046	27940.95
601.404	28318.34
601.762	28677.65
602.12	29095.49
602.478	29368.48
602.836	29717.62
603.194	30031.51
603.552	30435.57
603.91	30539.07
604.268	31047.53
604.625	31380.63
604.983	31693.39
605.341	31841.41
605.698	32245.24
606.056	32748.73
606.413	32902.85
606.771	33388.94
607.128	33697.63
607.485	33714.13
607.843	34076.83
608.2	34519.3
608.557	34848.11
608.914	35087.88
609.272	35540.07
609.629	35705.49
609.986	36065.03
610.343	36156.32
610.7	36618.46
611.057	36805.57
611.414	36947.04
611.771	37265.9
612.127	37671.09
612.484	37894.81
612.841	38156.04
613.198	38044.64
613.554	38488.24
613.911	38980.88
614.267	38936.82
614.624	39149.24
614.98	39406.41
615.337	39732.95
615.693	39905.15
616.05	40078.25
616.406	40425.36
616.762	40463.33
617.118	40541.29
617.475	40779.25
617.831	40918.46
618.187	41112.58
618.543	41388.5
618.899	41800.47
619.255	41883.18
619.611	41800.02
619.967	42128.37
620.323	42340.79
620.678	42347.35
621.034	42391.19
621.39	42516.61
621.746	42729.03
622.101	43046.76
622.457	42953.88
622.812	43113.43
623.168	43269.36
623.523	43361.56
623.879	43556.35
624.234	43435.91
624.589	43634.32
624.945	43946.4
625.3	44042.9
625.655	43981.43
626.01	44140.07
626.365	44258.94
626.72	44139.84
627.075	44273.85
627.43	44232.5
627.785	44254.19
628.14	44571.47
628.495	44716.32
628.85	44753.16
629.205	44669.32
629.559	44909.09
629.914	44793.38
630.269	44898.24
630.623	44712.03
630.978	44707.96
631.332	44959.48
631.687	45111.34
632.041	44930.78
632.396	45042.87
632.75	45090.55
633.104	45095.07
633.459	44908.86
633.813	44986.83
634.167	45046.26
634.521	45008.97
634.875	45171.91
635.229	45122.87
635.583	45047.61
635.937	45056.88
636.291	45097.11
636.645	45128.06
636.999	45045.58
637.352	45104.34
637.706	45027.28
638.06	45244.45
638.413	45089.2
638.767	45061.63
639.121	45075.41
639.474	44974.17
639.828	44990.22
640.181	45060.04
640.534	45165.58
640.888	44894.17
641.241	44854.85
641.594	44956.54
641.947	45081.96
642.301	44934.4
642.654	44858.02
643.007	44997.22
643.36	44944.79
643.713	44885.59
644.066	45070.21
644.419	44817.11
644.771	44492.15
645.124	44180.75
645.477	44233.17
645.83	43796.12
646.182	43768.78
646.535	43818.72
646.888	43830.47
647.24	43734.88
647.593	43821.43
647.945	43817.82
648.298	43658.5
648.65	43493.98
649.002	43410.6
649.355	43649.46
649.707	43538.28
650.059	43841.77
650.411	44211.03
650.763	44276.34
651.115	44723.1
651.467	44463.22
651.819	44449.89
652.171	44380.74
652.523	44288.54
652.875	44426.61
653.227	44133.29
653.578	44553.62
653.93	44375.32
654.282	44155.89
654.633	44099.84
654.985	44298.71
655.337	44279.73
655.688	44338.93
656.039	44491.7
656.391	44061.2
656.742	44079.5
657.094	44217.81
657.445	44323.57
657.796	44173.06
658.147	44114.08
658.498	44142.33
658.849	44216.45
659.2	44185.26
659.551	44000.86
659.902	44162.44
660.253	44044.03
660.604	44039.05
660.955	43967.64
661.306	44184.59
661.656	43952.28
662.007	43984.14
662.358	44106.17
662.708	44093.74
663.059	43989.11
663.409	43719.74
663.76	43953.41
664.11	43992.95
664.461	43940.3
664.811	44046.96
665.161	44109.11
665.511	43936.68
665.862	44066.62
666.212	44068.21
666.562	44064.59
666.912	43972.16
667.262	43883.35
667.612	43976.23
667.962	43974.42
668.312	43897.59
668.662	44082.22
669.011	43961.54
669.361	43824.6
669.711	43910.7
670.06	43838.38
670.41	43848.1
670.76	43656.01
671.109	43964.25
671.459	43944.14
671.808	43655.34
672.157	43912.73
672.507	43491.05
672.856	43613.53
673.205	43631.16
673.554	43711.83
673.904	43589.8
674.253	43881.09
674.602	43717.03
674.951	43173.77
675.3	42982.81
675.649	43590.48
675.998	43416.7
676.346	43577.6
676.695	43554.55
677.044	43320.43
677.393	43498.05
677.741	43516.58
678.09	43440.88
678.438	43268.45
678.787	43222.35
679.135	43304.16
679.484	43063.26
679.832	43346.87
680.181	43039.31
680.529	43083.6
680.877	43024.17
681.225	42971.06
681.573	43181.22
681.922	42958.18
682.27	42804.74
682.618	42747.34
682.966	42691.29
683.314	42804.96
683.661	42625.76
684.009	42452.88
684.357	42416.5
684.705	42307.8
685.053	42419.44
685.4	42343.96
685.748	42254.24
686.095	42155.04
686.443	42036.17
686.79	42097.86
687.138	42124.3
687.485	42007.02
687.832	41829.62
688.18	41986.9
688.527	41727.93
688.874	41686.8
689.221	41646.57
689.568	41616.74
689.915	41400.71
690.262	41409.29
690.609	41259.92
690.956	41041.17
691.303	41177.43
691.65	40992.81
691.997	40894.73
692.344	40679.59
692.69	40719.14
693.037	40699.03
693.383	40452.71
693.73	40649.99
694.077	40327.74
694.423	40231.92
694.769	39951.7
695.116	40040.06
695.462	39991.7
695.808	39954.87
696.155	40070.34
696.501	39696.34
696.847	39662.9
697.193	39368.22
697.539	39528.21
697.885	39165.28
698.231	39111.27
698.577	39160.09
698.923	39094.78
699.269	38813.65
699.614	38669.03
699.96	38650.72
700.306	38727.56
700.651	38516.26
700.997	38320.56
701.342	38448.47
701.688	38309.94
702.033	38300.45
702.379	38120.79
702.724	38208.7
703.069	38088.48
703.415	37629.05
703.76	37819.78
704.105	37703.4
704.45	37600.13
704.795	37405.1
705.14	37427.48
705.485	37309.97
705.83	37127.15
706.175	37165.56
706.52	37055.51
706.865	37022.29
707.209	37033.14
707.554	36827.04
707.899	36816.19
708.243	36693.03
708.588	36579.82
708.932	36394.51
709.277	36473.15
709.621	36403.1
709.966	36111.35
710.31	36288.98
710.654	36028.64
710.998	36007.85
711.342	35937.12
711.687	35829.78
712.031	35865.03
712.375	35637.01
712.719	35688.99
713.063	35575.77
713.407	35694.64
713.75	35515.89
714.094	35531.48
714.438	35296.91
714.782	35395.89
715.125	35166.97
715.469	35267.08
715.812	34985.73
716.156	34874.32
716.499	34965.62
716.843	35031.38
717.186	34605.86
717.53	34749.81
717.873	34957.26
718.216	34689.24
718.559	34590.49
718.902	34403.15
719.246	34503.26
719.589	34341.91
719.932	34268.69
720.275	34393.21
720.617	34149.37
720.96	34136.49
721.303	34117.73
721.646	34078.41
721.989	33938.75
722.331	33958.42
722.674	33913.22
723.016	33920.22
723.359	33788.02
723.701	33863.05
724.044	33606.56
724.386	33408.6
724.729	33600.68
725.071	33530.86
725.413	33596.16
725.755	33482.95
726.097	33327.92
726.439	33231.88
726.782	33176.51
727.124	33226.46
727.465	33017.42
727.807	33030.53
728.149	32983.75
728.491	32819.46
728.833	32919.8
729.175	32843.19
729.516	32821.72
729.858	32773.81
730.199	32733.59
730.541	32635.29
730.882	32618.56
731.224	32631.67
731.565	32453.14
731.906	32506.25
732.248	32492.24
732.589	32376.54
732.93	32334.28
733.271	32290.21
733.612	32319.81
733.953	32338.34
734.294	32018.8
734.635	32024
734.976	31994.17
735.317	31980.39
735.658	31989.43
735.999	31900.39
736.339	31920.28
736.68	31852.03
737.021	31939.26
737.361	31822.2
737.702	31838.7
738.042	31738.81
738.383	31744.69
738.723	31707.17
739.063	31651.36
739.404	31603.67
739.744	31486.62
740.084	31247.98
740.424	31385.83
740.764	31409.56
741.104	31403.45
741.444	31079.17
741.784	31097.02
742.124	31279.16
742.464	31141.31
742.804	31062.9
743.143	31047.76
743.483	30962.79
743.823	30896.12
744.162	30803.92
744.502	30850.47
744.841	30743.81
745.181	30821.32
745.52	30655.45
745.86	30799.63
746.199	30671.5
746.538	30685.73
746.877	30743.36
747.216	30657.48
747.556	30433.08
747.895	30528.22
748.234	30393.31
748.573	30408
748.911	30393.76
749.25	30317.83
749.589	30102.92
749.928	30354.44
750.267	30140.66
750.605	30063.6
750.944	30088.91
751.283	29980.44
751.621	30094.56
751.96	29924.62
752.298	29869.26
752.636	29914.68
752.975	29776.38
753.313	29764.63
753.651	29962.59
753.989	29711.52
754.327	29664.74
754.666	29476.05
755.004	29432.66
755.342	29604.41
755.679	29410.29
756.017	29380.91
756.355	29312.21
756.693	29257.3
757.031	29268.59
757.368	29037.19
757.706	28953.57
758.044	28882.16
758.381	28912.67
758.719	29010.75
759.056	28962.39
759.394	28886.46
759.731	28632.68
760.068	28516.52
760.405	28554.94
760.743	28457.54
761.08	28492.12
761.417	28322.86
761.754	28212.8
762.091	28181.39
762.428	28046.93
762.765	27860.5
763.102	27947.73
763.438	27739.82
763.775	27681.52
764.112	27719.93
764.449	27747.05
764.785	27610.56
765.122	27449.43
765.458	27337.35
765.795	27298.7
766.131	27343.45
766.467	27192.04
766.804	27126.28
767.14	26993.63
767.476	26978.71
767.812	26756.8
768.148	26894.19
768.485	26744.37
768.821	26495.11
769.157	26454.43
769.492	26416.92
769.828	26416.01
770.164	26268.67
770.5	26160.43
770.836	26028.23
771.171	25944.39
771.507	25836.82
771.842	25645.19
772.178	25771.29
772.513	25639.09
772.849	25655.81
773.184	25533.1
773.519	25472.76
773.855	25313.22
774.19	25136.95
774.525	25195.48
774.86	25115.94
775.195	25079.55
775.53	24946.45
775.865	24876.17
776.2	24601.15
776.535	24456.97
776.87	24532.22
777.205	24406.35
777.539	24292
777.874	24425.56
778.209	24095.4
778.543	24132.68
778.878	24040.71
779.212	23889.98
779.547	23889.75
779.881	23837.55
780.215	23574.51
780.55	23696.76
780.884	23547.16
781.218	23490.22
781.552	23470.56
781.886	23344.46
782.22	23244.12
782.554	23109.66
782.888	22898.59
783.222	22836
783.556	22744.25
783.889	22659.96
784.223	22523.91
784.557	22466.97
784.89	22556.45
785.224	22420.87
785.557	22250.02
785.891	22205.05
786.224	22192.85
786.558	22120.08
786.891	21862.46
787.224	21805.06
787.557	21860.88
787.891	21755.12
788.224	21705.18
788.557	21669.92
788.89	21572.75
789.223	21591.73
789.556	21429.48
789.888	21384.28
790.221	21290.27
790.554	21102.48
790.887	21153.33
791.219	20963.28
791.552	20955.82
791.884	20910.17
792.217	20842.15
792.549	20709.27
792.882	20699.78
793.214	20544.98
793.546	20549.05
793.879	20454.59
794.211	20308.38
794.543	20376.63
794.875	20217.31
795.207	20305.89
795.539	20166.01
795.871	20110.64
796.203	20011.21
796.535	19914.72
796.867	19809.41
797.198	19743.87
797.53	19783.65
797.862	19598.57
798.193	19652.58
798.525	19571.9
798.856	19509.53
799.188	19371.91
799.519	19312.7
799.85	19144.34
800.182	19220.27
800.513	19185.02
800.844	19074.29
801.175	19105.47
801.506	19039.94
801.837	18940.5
802.168	18916.78
802.499	18834.74
802.83	18766.27
803.161	18677.23
803.491	18701.19
803.822	18594.07
804.153	18484.92
804.483	18361.99
804.814	18413.29
805.145	18350.24
805.475	18336
805.805	18204.25
806.136	18292.16
806.466	18356.34
806.796	18161.32
807.126	17932.85
807.457	18035.67
807.787	18013.52
808.117	17911.15
808.447	17863.7
808.777	17856.92
809.107	17751.61
809.436	17656.92
809.766	17766.07
810.096	17735.56
810.426	17611.5
810.755	17659.63
811.085	17498.06
811.414	17471.62
811.744	17394.78
812.073	17274.79
812.403	17254
812.732	17180.55
813.061	17178.74
813.39	17054
813.719	17032.98
814.049	17107.11
814.378	17044.28
814.707	17022.82
815.036	16921.8
815.365	16841.35
815.693	16796.38
816.022	16690.17
816.351	16677.74
816.68	16628.7
817.008	16662.82
817.337	16497.18
817.665	16444.3
817.994	16552.77
818.322	16520.23
818.651	16389.16
818.979	16364.98
819.307	16423.73
819.636	16353.45
819.964	16303.96
820.292	16309.16
820.62	16298.77
820.948	16203.4
821.276	16264.42
821.604	16211.09
821.932	16256.28
822.259	16178.32
822.587	16173.35
822.915	16128.15
823.243	16179
823.57	16063.07
823.898	16126.79
824.225	16058.32
824.553	16105.78
824.88	16050.41
825.207	16093.57
825.535	16073.01
825.862	16143.97
826.189	15990.53
826.516	16155.04
826.843	16141.26
827.17	16151.2
827.497	16117.98
827.824	16120.92
828.151	16185.77
828.478	16171.99
828.805	16225.77
829.131	16009.73
829.458	16061.48
829.785	16005.89
830.111	16078.66
830.438	16075.5
830.764	16101.03
831.09	16158.43
831.417	16009.73
831.743	16026.23
832.069	16061.26
832.395	15979.45
832.722	15990.07
833.048	15970.41
833.374	15951.88
833.7	15962.05
834.026	15889.06
834.351	15965.22
834.677	15940.13
835.003	15957.31
835.329	15889.29
835.654	15817.88
835.98	15739.01
836.306	15762.74
836.631	15706.24
836.956	15758.67
837.282	15755.05
837.607	15710.08
837.932	15666.01
838.258	15652.91
838.583	15712.57
838.908	15486.58
839.233	15479.13
839.558	15541.5
839.883	15524.78
840.208	15442.97
840.533	15418.56
840.858	15442.52
841.182	15373.82
841.507	15385.34
841.832	15277.32
842.156	15225.57
842.481	15240.04
842.805	15144.45
843.13	15253.6
843.454	15260.38
843.778	15100.83
844.103	15089.31
844.427	15014.96
844.751	15085.24
845.075	14977.9
845.399	14974.28
845.723	14888.18
846.047	14899.71
846.371	14730.45
846.695	14762.54
847.019	14585.82
847.343	14544.91
847.666	14564.8
847.99	14502.43
848.313	14487.51
848.637	14254.07
848.96	14306.95
849.284	14303.11
849.607	14250.91
849.931	14186.05
850.254	14056.34
850.577	13975.44
850.9	13921.88
851.223	13902.9
851.546	13763.47
851.869	13704.48
852.192	13760.53
852.515	13664.03
852.838	13612.96
853.161	13612.96
853.483	13513.3
853.806	13472.85
854.129	13428.79
854.451	13411.61
854.774	13299.52
855.096	13311.27
855.419	13198.96
855.741	13131.39
856.063	13104.27
856.385	13184.05
856.708	13095.91
857.03	12984.5
857.352	13072.41
857.674	12992.64
857.996	12898.63
858.318	12854.34
858.64	12861.79
858.961	12832.87
859.283	12809.82
859.605	12673.32
859.926	12746.77
860.248	12656.38
860.57	12646.43
860.891	12596.94
861.212	12603.95
861.534	12536.83
861.855	12479.66
862.176	12460.45
862.498	12495.93
862.819	12418.42
863.14	12400.34
863.461	12458.64
863.782	12382.03
864.103	12352.43
864.424	12337.06
864.745	12332.77
865.065	12322.6
865.386	12200.34
865.707	12244.18
866.027	12263.17
866.348	12209.38
866.668	12164.41
866.989	12113.11
867.309	12076.96
867.63	12117.63
867.95	12086.9
868.27	12003.06
868.59	12019.1
868.91	12048.48
869.23	12009.16
869.55	11926
869.87	11951.31
870.19	11991.76
870.51	11894.36
870.83	11922.38
871.15	11904.53
871.469	11845.78
871.789	11865.21
872.109	11784.76
872.428	11789.05
872.748	11867.02
873.067	11778.66
873.386	11716.06
873.706	11734.82
874.025	11658.21
874.344	11637.42
874.663	11674.26
874.982	11628.83
875.301	11571.21
875.62	11590.87
875.939	11496.41
876.258	11503.86
876.577	11421.83
876.896	11500.02
877.214	11503.41
877.533	11418.67
877.852	11500.47
878.17	11443.53
878.489	11373.7
878.807	11359.69
879.125	11404.21
879.444	11368.73
879.762	11309.74
880.08	11357.43
880.398	11235.85
880.716	11288.73
881.034	11199.24
881.352	11256.87
881.67	11175.51
881.988	11211.67
882.306	11181.16
882.624	11079.92
882.941	11066.14
883.259	11066.59
883.577	11005.57
883.894	10990.21
884.212	11043.54
884.529	11015.06
884.846	10968.96
885.164	10876.54
885.481	10889.64
885.798	10884.67
886.115	10803.54
886.432	10854.62
886.75	10777.56
887.067	10710.66
887.383	10724
887.7	10789.76
888.017	10704.11
888.334	10695.75
888.651	10712.02
888.967	10610.33
889.284	10615.75
889.6	10581.85
889.917	10484.46
890.233	10476.09
890.55	10425.93
890.866	10412.59
891.182	10346.61
891.498	10388.64
891.815	10331.69
892.131	10287.17
892.447	10277.68
892.763	10185.03
893.079	10218.47
893.395	10190.45
893.71	10132.37
894.026	10171.92
894.342	10166.72
894.657	10013.96
894.973	10035.88
895.289	9995.66
895.604	10059.61
895.92	9889.9
896.235	9870.23
896.55	9878.37
896.865	9856
897.181	9778.03
897.496	9778.49
897.811	9759.05
898.126	9705.95
898.441	9667.98
898.756	9600.86
899.071	9614.2
899.386	9592.95
899.7	9508.89
900.015	9534.42
900.33	9425.95
900.644	9440.19
900.959	9397.93
901.273	9401.32
901.588	9365.84
901.902	9281.32
902.216	9280.19
902.531	9242
902.845	9177.82
903.159	9188.44
903.473	9066.19
903.787	9093.31
904.101	9053.53
904.415	9094.66
904.729	8984.16
905.042	8990.94
905.356	8896.48
905.67	8957.72
905.984	8847.89
906.297	8836.59
906.611	8758.17
906.924	8812.86
907.237	8759.08
907.551	8670.72
907.864	8627.33
908.177	8602.7
908.491	8657.39
908.804	8548.69
909.117	8503.04
909.43	8482.25
909.743	8445.64
910.056	8437.5
910.368	8366.55
910.681	8350.27
910.994	8292.65
911.307	8298.3
911.619	8197.28
911.932	8254.68
912.244	8203.61
912.557	8163.39
912.869	8061.24
913.181	8079.32
913.494	8134.91
913.806	8003.39
914.118	7941.92
914.43	7967.69
914.742	7917.97
915.054	7859.44
915.366	7855.6
915.678	7778.54
915.99	7807.24
916.302	7729.5
916.613	7719.78
916.925	7684.53
917.236	7636.17
917.548	7637.53
917.859	7576.74
918.171	7601.82
918.482	7526.12
918.794	7468.49
919.105	7477.3
919.416	7368.61
919.727	7419.23
920.038	7356.85
920.349	7290.87
920.66	7298.55
920.971	7273.24
921.282	7242.06
921.593	7199.12
921.903	7150.98
922.214	7087.03
922.525	7142.85
922.835	7142.4
923.146	7040.48
923.456	7053.13
923.767	7052.46
924.077	6990.08
924.387	6988.5
924.697	6947.15
925.008	6960.03
925.318	6853.59
925.628	6825.12
925.938	6804.78
926.248	6746.93
926.558	6677.55
926.867	6755.06
927.177	6706.93
927.487	6643.65
927.796	6582.19
928.106	6629.64
928.416	6605.24
928.725	6537.22
929.034	6498.12
929.344	6507.84
929.653	6471.45
929.962	6414.96
930.271	6359.14
930.581	6358.46
930.89	6304.45
931.199	6323.66
931.508	6269.43
931.817	6244.34
932.125	6231.23
932.434	6225.13
932.743	6165.25
933.051	6132.03
933.36	6105.14
933.669	6114.4
933.977	6041.86
934.286	6012.26
934.594	6031.01
934.902	5976.1
935.21	5971.58
935.519	5906.72
935.827	5921.86
936.135	5884.58
936.443	5819.49
936.751	5862.2
937.059	5820.17
937.367	5742.89
937.674	5786.05
937.982	5724.13
938.29	5677.35
938.597	5708.08
938.905	5665.83
939.213	5636.67
939.52	5591.03
939.827	5584.02
940.135	5579.5
940.442	5569.1
940.749	5547.86
941.056	5522.55
941.363	5432.61
941.67	5472.38
941.977	5414.31
942.284	5393.06
942.591	5386.74
942.898	5349.45
943.205	5332.5
943.511	5324.82
943.818	5296.12
944.125	5249.57
944.431	5245.5
944.738	5226.06
945.044	5184.71
945.35	5182.67
945.657	5159.85
945.963	5122.34
946.269	5098.38
946.575	5080.3
946.881	5041.66
947.187	5089.12
947.493	5009.8
947.799	4992.17
948.105	4976.35
948.41	4939.74
948.716	4930.48
949.022	4934.55
949.327	4897.94
949.633	4848.67
949.938	4905.85
950.244	4788.79
950.549	4774.78
950.854	4786.3
951.16	4763.7
951.465	4752.18
951.77	4780.43
952.075	4716.47
952.38	4675.12
952.685	4658.62
952.99	4600.99
953.294	4611.62
953.599	4607.32
953.904	4570.71
954.209	4535.69
954.513	4525.97
954.818	4485.29
955.122	4462.47
955.426	4455.01
955.731	4438.29
956.035	4394.45
956.339	4435.8
956.643	4411.62
956.948	4391.73
957.252	4355.58
957.556	4379.53
957.86	4319.42
958.163	4340.89
958.467	4268.12
958.771	4278.29
959.075	4244.39
959.378	4222.25
959.682	4261.12
959.985	4182.93
960.289	4171.63
960.592	4148.8
960.896	4132.98
961.199	4142.93
961.502	4118.97
961.805	4111.74
962.108	4053.44
962.411	4089.14
962.714	4006.21
963.017	4027.45
963.32	3980.67
963.623	3963.95
963.926	3916.27
964.228	3932.76
964.531	3935.02
964.833	3918.98
965.136	3906.78
965.438	3895.7
965.741	3843.5
966.043	3835.82
966.345	3800.34
966.648	3799.89
966.95	3792.2
967.252	3774.35
967.554	3749.49
967.856	3771.64
968.158	3691.87
968.46	3705.43
968.761	3684.18
969.063	3654.81
969.365	3679.44
969.666	3662.71
969.968	3636.27
970.269	3601.7
970.571	3615.48
970.872	3591.98
971.174	3582.04
971.475	3555.82
971.776	3541.59
972.077	3503.85
972.378	3515.6
972.679	3502.49
972.98	3495.71
973.281	3462.04
973.582	3460.23
973.883	3442.16
974.183	3424.08
974.484	3426.79
974.785	3397.86
975.085	3349.95
975.386	3370.29
975.686	3328.49
975.986	3311.09
976.287	3321.48
976.587	3285.1
976.887	3263.4
977.187	3290.29
977.487	3269.28
977.787	3260.47
978.087	3196.51
978.387	3180.02
978.687	3195.61
978.987	3144.99
979.286	3206.23
979.586	3134.59
979.885	3100.47
980.185	3125.33
980.484	3108.6
980.784	3097.53
981.083	3049.62
981.382	3077.19
981.682	3027.93
981.981	3038.32
982.28	2995.16
982.579	2997.2
982.878	3001.26
983.177	2966.01
983.475	3008.27
983.774	2963.3
984.073	2974.6
984.372	2895.73
984.67	2933.24
984.969	2913.81
985.267	2839.23
985.566	2898.21
985.864	2843.07
986.162	2866.58
986.461	2859.12
986.759	2840.82
987.057	2782.29
987.355	2790.87
987.653	2797.65
987.951	2795.39
988.249	2758.56
988.547	2787.48
988.844	2716.3
989.142	2717.43
989.44	2716.07
989.737	2692.8
990.035	2676.98
990.332	2676.3
990.63	2716.07
990.927	2609.41
991.224	2652.57
991.521	2586.58
991.819	2599.47
992.116	2572.12
992.413	2611.89
992.71	2584.78
993.006	2574.38
993.303	2538.9
993.6	2518.79
993.897	2535.74
994.193	2523.31
994.49	2512.69
994.787	2539.58
995.083	2483.08
995.379	2434.95
995.676	2467.49
995.972	2444.89
996.268	2435.4
996.565	2421.17
996.861	2395.63
997.157	2418.45
997.453	2383.65
997.749	2383.65
998.044	2345.23
998.34	2343.2
998.636	2359.92
998.932	2337.78
999.227	2320.38
999.523	2272.24
999.818	2270.66
1000.114	2280.83
1000.409	2268.4
1000.704	2217.33
1001	2224.56
1001.295	2230.89
1001.59	2219.81
1001.885	2222.98
1002.18	2193.83
1002.475	2184.79
1002.77	2183.66
1003.065	2151.79
1003.359	2164.22
1003.654	2136.88
1003.949	2100.04
1004.243	2106.6
1004.538	2123.55
1004.832	2095.3
1005.127	2088.52
1005.421	2069.08
1005.715	2050.55
1006.009	2041.74
1006.304	2026.15
1006.598	2035.19
1006.892	1980.5
1007.186	1958.58
1007.48	1998.58
1007.773	1968.07
1008.067	1953.38
1008.361	1942.99
1008.655	1942.76
1008.948	1921.74
1009.242	1931.01
1009.535	1880.84
1009.829	1884.23
1010.122	1897.79
1010.415	1869.77
1010.708	1859.37
1011.001	1854.4
1011.295	1851.69
1011.588	1831.12
1011.881	1842.65
1012.173	1818.02
1012.466	1805.14
1012.759	1794.97
1013.052	1766.04
1013.344	1800.16
1013.637	1737.79
1013.93	1761.97
1014.222	1733.73
1014.514	1729.21
1014.807	1707.74
1015.099	1703.67
1015.391	1694.18
1015.683	1692.6
1015.976	1693.73
1016.268	1688.76
1016.56	1633.84
1016.851	1636.55
1017.143	1635.88
1017.435	1645.37
1017.727	1598.81
1018.018	1590.9
1018.31	1577.57
1018.602	1613.95
1018.893	1557.46
1019.185	1566.95
1019.476	1536.89
1019.767	1549.1
1020.058	1536.67
1020.35	1543.22
1020.641	1492.15
1020.932	1496.67
1021.223	1495.31
1021.514	1495.54
1021.804	1460.29
1022.095	1500.96
1022.386	1503
1022.677	1451.02
1022.967	1439.72
1023.258	1414.19
1023.548	1429.33
1023.839	1421.42
1024.129	1414.64
1024.419	1407.41
1024.709	1376.45
1025	1384.36
1025.29	1368.31
1025.58	1350.91
1025.87	1321.08
1026.16	1348.65
1026.449	1354.3
1026.739	1333.06
1027.029	1277.47
1027.319	1299.84
1027.608	1291.03
1027.898	1285.83
1028.187	1245.6
1028.477	1260.52
1028.766	1262.33
1029.055	1243.79
1029.344	1227.52
1029.634	1243.34
1029.923	1223.23
1030.212	1205.38
1030.501	1198.37
1030.79	1197.69
1031.078	1176.9
1031.367	1182.1
1031.656	1208.09
1031.945	1176
1032.233	1174.87
1032.522	1137.13
1032.81	1130.8
1033.099	1143.91
1033.387	1124.48
1033.675	1089.22
1033.963	1113.85
1034.251	1103.23
1034.54	1092.16
1034.828	1104.14
1035.116	1098.49
1035.403	1088.54
1035.691	1051.03
1035.979	1094.87
1036.267	1039.51
1036.554	1055.55
1036.842	1042.67
1037.129	1017.36
1037.417	1042.44
1037.704	1027.53
1037.992	1040.64
1038.279	1022.11
1038.566	987.76
1038.853	987.76
1039.14	987.76
