Data from hue_350_FLMS001491_65.txt Node
Date: Mon Feb 06 15:38:21 GMT 2017
User: dcchb
Spectrometer: FLMS00149
Trigger mode: 0
Integration Time (sec): 2.000000E-2
Scans to average: 10
Electric dark correction enabled: true
Nonlinearity correction enabled: false
Boxcar width: 0
XAxis mode: Wavelengths
Number of Pixels in Spectrum: 2048
>>>>>Begin Spectral Data<<<<<
341.393	-12.9
341.776	-12.9
342.16	-12.9
342.543	-43.4
342.927	-73.01
343.31	-65.78
343.693	-87.7
344.077	-72.78
344.46	-57.19
344.843	-49.28
345.226	-28.94
345.61	-29.17
345.993	-21.26
346.376	0.44
346.759	15.8
347.142	34.34
347.525	38.18
347.908	51.74
348.291	85.41
348.674	78.4
349.057	107.78
349.44	123.82
349.823	138.51
350.206	185.74
350.588	178.74
350.971	211.51
351.354	209.47
351.737	225.74
352.119	257.83
352.502	275.68
352.884	272.3
353.267	277.72
353.65	300.77
354.032	295.8
354.414	294.44
354.797	308.9
355.179	350.26
355.562	307.1
355.944	319.53
356.326	335.34
356.709	329.24
357.091	335.57
357.473	366.76
357.855	369.92
358.238	361.78
358.62	344.38
359.002	340.77
359.384	341.22
359.766	337.15
360.148	351.84
360.53	334.44
360.912	332.18
361.294	313.88
361.676	341.45
362.057	323.59
362.439	327.43
362.821	321.56
363.203	321.56
363.584	328.11
363.966	339.64
364.348	315.91
364.729	316.14
365.111	298.51
365.493	304.16
365.874	324.95
366.256	302.58
366.637	321.56
367.019	324.05
367.4	313.2
367.781	303.71
368.163	288.57
368.544	323.59
368.925	316.14
369.306	316.59
369.688	316.14
370.069	319.07
370.45	328.79
370.831	308
371.212	314.33
371.593	324.05
371.974	324.05
372.355	330.6
372.736	303.25
373.117	320.88
373.498	313.42
373.879	327.43
374.26	317.72
374.641	323.37
375.021	333.99
375.402	338.28
375.783	312.75
376.163	312.75
376.544	316.36
376.925	328.34
377.305	305.97
377.686	324.27
378.066	333.54
378.447	337.15
378.827	313.42
379.208	330.6
379.588	317.27
379.968	315.46
380.349	332.18
380.729	330.15
381.109	332.86
381.489	356.36
381.87	341.45
382.25	333.54
382.63	335.12
383.01	327.89
383.39	329.02
383.77	334.44
384.15	322.69
384.53	336.93
384.91	327.66
385.29	362.91
385.67	337.83
386.049	353.42
386.429	340.77
386.809	342.8
387.189	362.24
387.568	352.52
387.948	356.81
388.328	349.36
388.707	333.99
389.087	343.93
389.466	350.71
389.846	364.72
390.225	358.62
390.605	356.59
390.984	374.89
391.363	361.33
391.743	361.78
392.122	349.36
392.501	349.36
392.881	379.64
393.26	378.51
393.639	372.63
394.018	369.92
394.397	343.71
394.776	373.08
395.155	381.22
395.534	375.57
395.913	350.94
396.292	398.39
396.671	369.24
397.05	388
397.429	346.19
397.808	365.85
398.186	361.33
398.565	391.84
398.944	416.02
399.323	368.79
399.701	394.33
400.08	390.48
400.458	395
400.837	382.8
401.215	374.67
401.594	385.51
401.972	382.8
402.351	400.43
402.729	407.43
403.107	397.94
403.486	396.59
403.864	409.47
404.242	393.42
404.62	391.16
404.999	390.26
405.377	382.12
405.755	419.41
406.133	408.56
406.511	403.82
406.889	410.14
407.267	408.79
407.645	406.3
408.023	408.11
408.401	422.12
408.779	421.9
409.156	421.67
409.534	425.51
409.912	433.19
410.29	446.75
410.667	443.14
411.045	433.87
411.422	430.26
411.8	443.36
412.178	469.58
412.555	457.15
412.933	451.73
413.31	462.8
413.687	465.28
414.065	471.84
414.442	465.06
414.819	461.22
415.197	494.44
415.574	446.08
415.951	485.85
416.328	470.93
416.705	506.64
417.082	477.26
417.46	490.59
417.837	487.66
418.214	499.18
418.591	509.35
418.967	513.64
419.344	503.02
419.721	513.42
420.098	515.23
420.475	519.97
420.852	515.23
421.228	516.13
421.605	529.01
421.982	518.62
422.358	528.33
422.735	541.67
423.111	555.23
423.488	534.89
423.864	528.56
424.241	555.9
424.617	546.19
424.994	539.86
425.37	561.55
425.746	578.95
426.123	575.11
426.499	561.78
426.875	569.01
427.251	568.11
427.627	574.89
428.003	581.44
428.379	595.68
428.756	594.32
429.132	590.03
429.507	624.38
429.883	594.55
430.259	616.92
430.635	601.78
431.011	589.57
431.387	623.02
431.763	628.22
432.138	628.9
432.514	650.36
432.89	674.54
433.265	652.85
433.641	675.22
434.016	650.82
434.392	679.52
434.767	677.93
435.143	678.16
435.518	681.55
435.894	664.15
436.269	682.91
436.644	698.95
437.02	705.28
437.395	698.95
437.77	690.14
438.145	695.56
438.52	706.86
438.895	717.03
439.271	717.48
439.646	735.79
440.021	746.18
440.395	757.71
440.77	743.47
441.145	732.62
441.52	759.97
441.895	748.21
442.27	770.14
442.645	771.72
443.019	783.47
443.394	785.5
443.769	753.86
444.143	762.45
444.518	789.12
444.892	785.95
445.267	816.01
445.641	792.73
446.016	794.54
446.39	790.47
446.764	777.82
447.139	791.83
447.513	806.74
447.887	798.83
448.262	817.59
448.636	830.02
449.01	827.31
449.384	841.32
449.758	828.66
450.132	866.4
450.506	834.09
450.88	824.6
451.254	838.16
451.628	865.27
452.002	848.33
452.376	867.31
452.75	886.06
453.123	848.1
453.497	887.65
453.871	884.26
454.244	878.38
454.618	931.03
454.992	922.67
455.365	908.66
455.739	908.66
456.112	919.74
456.486	937.14
456.859	916.12
457.232	958.83
457.606	945.95
457.979	958.83
458.352	962.22
458.725	968.77
459.099	982.78
459.472	1009.68
459.845	998.15
460.218	1053.52
460.591	1024.59
460.964	1028.89
461.337	1067.08
461.71	1046.51
462.083	1078.6
462.456	1055.1
462.829	1082.22
463.201	1111.6
463.574	1098.94
463.947	1084.25
464.32	1117.24
464.692	1120.63
465.065	1129.45
465.438	1162.89
465.81	1148.43
466.183	1194.98
466.555	1194.98
466.928	1212.16
467.3	1202.89
467.672	1208.32
468.045	1232.72
468.417	1256.9
468.789	1233.63
469.161	1285.6
469.534	1278.82
469.906	1332.83
470.278	1310.46
470.65	1345.49
471.022	1357.01
471.394	1361.98
471.766	1392.72
472.138	1420.97
472.51	1431.81
472.882	1433.85
473.253	1482.66
473.625	1507.97
473.997	1519.49
474.369	1505.71
474.74	1526.5
475.112	1589.77
475.484	1606.27
475.855	1589.1
476.227	1625.71
476.598	1654.63
476.97	1647.63
477.341	1683.78
477.713	1740.51
478.084	1732.37
478.455	1805.36
478.827	1804.68
479.198	1858.47
479.569	1863.21
479.94	1900.95
480.311	1926.71
480.682	1957
481.053	2019.59
481.424	2051.01
481.795	2056.43
482.166	2107.95
482.537	2124.9
482.908	2168.74
483.279	2178.91
483.65	2222.75
484.021	2273.37
484.391	2290.1
484.762	2319.25
485.133	2336.65
485.503	2360.15
485.874	2445.35
486.244	2436.98
486.615	2472.01
486.985	2517.21
487.356	2568.28
487.726	2592.69
488.097	2666.81
488.467	2640.59
488.837	2717.65
489.207	2726.69
489.578	2768.05
489.948	2800.59
490.318	2839.23
490.688	2877.65
491.058	2906.58
491.428	2926.69
491.798	2929.63
492.168	3024.99
492.538	3021.15
492.908	3057.98
493.278	3121.03
493.648	3146.8
494.017	3136.4
494.387	3200.13
494.757	3195.83
495.126	3253.91
495.496	3278.54
495.866	3310.86
496.235	3345.21
496.605	3376.39
496.974	3402.83
497.344	3396.51
497.713	3437.86
498.082	3441.25
498.452	3476.28
498.821	3495.49
499.19	3528.93
499.559	3547.46
499.928	3611.42
500.298	3602.38
500.667	3619.55
501.036	3615.03
501.405	3661.81
501.774	3704.97
502.143	3698.87
502.512	3704.52
502.88	3783.84
503.249	3742.94
503.618	3781.13
503.987	3806.44
504.356	3812.09
504.724	3860.68
505.093	3860.22
505.462	3825.42
505.83	3927.34
506.199	3920.11
506.567	3990.84
506.936	3950.16
507.304	3989.26
507.672	4013.44
508.041	3994.01
508.409	4060.44
508.777	4013.44
509.145	4083.27
509.514	4098.86
509.882	4081.91
510.25	4106.54
510.618	4142.7
510.986	4166.2
511.354	4177.96
511.722	4183.83
512.09	4192.64
512.458	4205.75
512.826	4221.12
513.193	4256.82
513.561	4300.89
513.929	4275.58
514.297	4305.86
514.664	4323.71
515.032	4332.53
515.4	4354
515.767	4336.82
516.135	4386.09
516.502	4415.24
516.869	4466.99
517.237	4431.96
517.604	4421.79
517.972	4473.99
518.339	4527.32
518.706	4463.82
519.073	4502.47
519.44	4543.82
519.808	4546.53
520.175	4559.87
520.542	4587.44
520.909	4601.9
521.276	4593.54
521.643	4631.73
522.009	4642.58
522.376	4721.67
522.743	4682.8
523.11	4752.18
523.477	4762.35
523.843	4817.71
524.21	4858.16
524.577	4864.04
524.943	4800.09
525.31	4853.64
525.676	4946.75
526.043	4969.8
526.409	4935.22
526.776	4979.06
527.142	4968.67
527.508	4972.51
527.874	5072.17
528.241	5097.93
528.607	5047.99
528.973	5117.14
529.339	5136.12
529.705	5183.8
530.071	5213.63
530.437	5198.04
530.803	5216.35
531.169	5257.25
531.535	5282.33
531.901	5274.88
532.267	5285.27
532.632	5365.95
532.998	5365.49
533.364	5414.31
533.73	5402.1
534.095	5434.87
534.461	5487.3
534.826	5450.24
535.192	5544.7
535.557	5558.71
535.923	5551.7
536.288	5578.37
536.653	5570.69
537.019	5607.97
537.384	5619.27
537.749	5652.72
538.114	5688.42
538.479	5679.61
538.845	5653.85
539.21	5720.51
539.575	5766.16
539.94	5749.89
540.305	5798.48
540.67	5776.78
541.034	5828.08
541.399	5880.51
541.764	5895.2
542.129	5970
542.494	5900.85
542.858	5979.04
543.223	5930.45
543.587	6043.89
543.952	5989.43
544.316	6074.85
544.681	6048.19
545.045	6063.56
545.41	6099.71
545.774	6158.47
546.138	6126.15
546.503	6168.86
546.867	6190.56
547.231	6207.51
547.595	6311.68
547.959	6301.29
548.324	6296.32
548.688	6352.81
549.052	6340.38
549.416	6341.51
549.779	6390.55
550.143	6381.06
550.507	6400.04
550.871	6440.95
551.235	6453.15
551.599	6494.28
551.962	6489.08
552.326	6528.18
552.689	6575.18
553.053	6486.82
553.417	6569.98
553.78	6583.99
554.143	6605.01
554.507	6649.53
554.87	6657.21
555.234	6678.91
555.597	6695.18
555.96	6723.65
556.323	6750.54
556.686	6738.57
557.05	6771.79
557.413	6790.54
557.776	6808.85
558.139	6874.16
558.502	6927.71
558.865	6902.86
559.228	6900.6
559.59	6956.19
559.953	6932.68
560.316	7020.14
560.679	6999.8
561.041	7062.17
561.404	7099.01
561.767	7111.66
562.129	7091.78
562.492	7105.11
562.854	7134.49
563.217	7155.05
563.579	7181.94
563.941	7210.42
564.304	7223.75
564.666	7265.56
565.028	7305.56
565.39	7345.78
565.753	7353.92
566.115	7312.79
566.477	7360.24
566.839	7415.16
567.201	7468.72
567.563	7462.61
567.925	7592.78
568.287	7506.68
568.648	7585.32
569.01	7661.25
569.372	7630.52
569.734	7655.83
570.095	7708.26
570.457	7722.72
570.819	7787.8
571.18	7753.23
571.542	7820.57
571.903	7849.05
572.265	7888.82
572.626	7928.14
572.987	7975.37
573.349	7995.03
573.71	8114.57
574.071	8129.26
574.432	8118.42
574.794	8289.49
575.155	8277.06
575.516	8257.85
575.877	8317.73
576.238	8438.41
576.599	8511.4
576.96	8500.1
577.32	8561.79
577.681	8663.49
578.042	8748.46
578.403	8818.96
578.763	8856.02
579.124	8901.45
579.485	9060.99
579.845	9174.89
580.206	9208.56
580.566	9364.03
580.927	9473.18
581.287	9514.99
581.648	9611.03
582.008	9837.47
582.368	9935.77
582.728	10070
583.089	10186.61
583.449	10213.95
583.809	10475.64
584.169	10606.94
584.529	10843.77
584.889	10969.64
585.249	11140.26
585.609	11361.04
585.969	11469.51
586.329	11662.28
586.688	11906.79
587.048	12071.53
587.408	12274.01
587.768	12464.29
588.127	12711.97
588.487	12835.81
588.846	13081
589.206	13314.66
589.565	13560.31
589.925	13816.35
590.284	14072.61
590.643	14324.13
591.003	14667.17
591.362	14959.14
591.721	15115.97
592.08	15440.71
592.44	15625.79
592.799	15852
593.158	16155.72
593.517	16534.24
593.876	16767.68
594.235	17042.93
594.593	17355.01
594.952	17525.17
595.311	17750.03
595.67	18222.33
596.029	18502.32
596.387	18749.1
596.746	19138.47
597.104	19317.44
597.463	19680.15
597.822	19948.16
598.18	20149.74
598.538	20432.22
598.897	20769.61
599.255	20995.59
599.613	21563.49
599.972	21676.25
600.33	21936.81
600.688	22209.12
601.046	22599.84
601.404	22887.75
601.762	23135.42
602.12	23427.84
602.478	23696.31
602.836	23945.34
603.194	24092.01
603.552	24527.93
603.91	24716.85
604.268	24993.23
604.625	25212.2
604.983	25483.61
605.341	25778.07
605.698	26049.92
606.056	26378.95
606.413	26561.77
606.771	26875.66
607.128	27088.09
607.485	27247.86
607.843	27570.56
608.2	27808.52
608.557	28218
608.914	28263.65
609.272	28507.03
609.629	28664.99
609.986	29119.45
610.343	29113.12
610.7	29509.94
611.057	29693.22
611.414	29744.06
611.771	30056.37
612.127	30419.3
612.484	30493.42
612.841	30880.53
613.198	30868.33
613.554	31120.98
613.911	31317.81
614.267	31436.67
614.624	31658.14
614.98	31758.92
615.337	32163.43
615.693	32231.45
616.05	32370.43
616.406	32618.34
616.762	32593.03
617.118	32621.95
617.475	32802.06
617.831	33094.71
618.187	33180.81
618.543	33358.2
618.899	33781.24
619.255	33627.8
619.611	33881.35
619.967	34095.81
620.323	34208.58
620.678	34137.85
621.034	34140.11
621.39	34309.14
621.746	34405.86
622.101	34900.76
622.457	34608.79
622.812	34918.62
623.168	34955.68
623.523	35119.97
623.879	35348.43
624.234	35121.77
624.589	35353.86
624.945	35550.69
625.3	35573.74
625.655	35638.14
626.01	35738.26
626.365	35920.4
626.72	35813.51
627.075	35987.97
627.43	36075.42
627.785	35921.08
628.14	36215.3
628.495	36124.69
628.85	36189.99
629.205	36085.36
629.559	36391.57
629.914	36277.68
630.269	36348.18
630.623	36220.5
630.978	36325.36
631.332	36565.13
631.687	36462.53
632.041	36320.39
632.396	36477.22
632.75	36547.27
633.104	36596.76
633.459	36386.6
633.813	36470.67
634.167	36463.43
634.521	36586.82
634.875	36682.86
635.229	36693.94
635.583	36542.08
635.937	36531.23
636.291	36550.21
636.645	36608.51
636.999	36442.42
637.352	36617.33
637.706	36411.01
638.06	36725.35
638.413	36612.81
638.767	36412.59
639.121	36656.42
639.474	36427.95
639.828	36450.78
640.181	36627.27
640.534	36572.13
640.888	36653.03
641.241	36488.07
641.594	36463.21
641.947	36528.97
642.301	36484.68
642.654	36552.25
643.007	36433.15
643.36	36584.11
643.713	36537.33
644.066	36521.74
644.419	36404.68
644.771	36258.02
645.124	35841.76
645.477	35889.89
645.83	35597.47
646.182	35581.65
646.535	35449
646.888	35396.12
647.24	35195.67
647.593	35481.54
647.945	35401.99
648.298	35303.69
648.65	35285.39
649.002	35211.49
649.355	35346.63
649.707	35320.64
650.059	35427.75
650.411	35851.02
650.763	35909.78
651.115	36210.33
651.467	36072.03
651.819	36117.23
652.171	36047.17
652.523	35993.84
652.875	35986.84
653.227	35917.01
653.578	36085.36
653.93	36079.94
654.282	35828.2
654.633	35747.75
654.985	35850.12
655.337	35809.44
655.688	35847.86
656.039	36082.43
656.391	35667.97
656.742	35816.45
657.094	35832.49
657.445	35810.8
657.796	35834.98
658.147	35796.33
658.498	35749.55
658.849	35866.16
659.2	35795.88
659.551	35714.98
659.902	35880.4
660.253	35736.22
660.604	35878.36
660.955	35718.59
661.306	35855.77
661.656	35719.5
662.007	35759.05
662.358	35677.01
662.708	35730.12
663.059	35624.81
663.409	35519.05
663.76	35801.76
664.11	35772.38
664.461	35757.24
664.811	35621.87
665.161	35743.45
665.511	35625.04
665.862	35606.96
666.212	35673.62
666.562	35794.07
666.912	35681.08
667.262	35635.21
667.612	35665.94
667.962	35681.53
668.312	35682.21
668.662	35722.21
669.011	35620.74
669.361	35636.11
669.711	35513.63
670.06	35546.62
670.41	35518.15
670.76	35427.53
671.109	35614.42
671.459	35498.71
671.808	35454.87
672.157	35626.39
672.507	35245.39
672.856	35320.41
673.205	35310.7
673.554	35437.92
673.904	35304.82
674.253	35379.17
674.602	35401.77
674.951	34897.37
675.3	34680.66
675.649	35353.41
675.998	35207.87
676.346	35084.71
676.695	35305.27
677.044	35161.77
677.393	35274.54
677.741	35284.71
678.09	35169.46
678.438	35213.98
678.787	35053.3
679.135	35282
679.484	34955.45
679.832	35029.57
680.181	34907.09
680.529	34936.47
680.877	34813.08
681.225	34814.66
681.573	35048.56
681.922	34738.96
682.27	34708
682.618	34721.33
682.966	34509.36
683.314	34663.71
683.661	34538.96
684.009	34536.7
684.357	34327.67
684.705	34327.9
685.053	34330.16
685.4	34182.14
685.748	34155.25
686.095	34044.06
686.443	33955.93
686.79	34032.76
687.138	34088.36
687.485	34047
687.832	33861.24
688.18	33903.95
688.527	33740.79
688.874	33660.12
689.221	33560.91
689.568	33522.95
689.915	33460.12
690.262	33460.57
690.609	33335.83
690.956	33332.67
691.303	33114.6
691.65	33055.84
691.997	33079.79
692.344	32946.24
692.69	32848.16
693.037	32903.75
693.383	32557.1
693.73	32794.83
694.077	32447.95
694.423	32554.84
694.769	32487.95
695.116	32287.95
695.462	32328.63
695.808	32336.54
696.155	32226.94
696.501	32054.06
696.847	32098.35
697.193	31884.57
697.539	31867.62
697.885	31553.73
698.231	31627.4
698.577	31552.38
698.923	31584.24
699.269	31409.33
699.614	31237.13
699.96	31190.58
700.306	31154.42
700.651	31169.79
700.997	30934.99
701.342	30953.97
701.688	30985.84
702.033	30840.08
702.379	30795.33
702.724	30695.45
703.069	30805.5
703.415	30301.34
703.76	30417.49
704.105	30358.96
704.45	30302.69
704.795	30141.57
705.14	30184.5
705.485	29923.49
705.83	29903.15
706.175	29878.97
706.52	29808.02
706.865	29721.24
707.209	29767.79
707.554	29653.67
707.899	29690.28
708.243	29548.36
708.588	29500.23
708.932	29298.65
709.277	29274.02
709.621	29357.63
709.966	29127.58
710.31	29294.58
710.654	28899.56
710.998	28973.01
711.342	28993.8
711.687	28910.19
712.031	28661.61
712.375	28689.85
712.719	28742.96
713.063	28521.95
713.407	28747.7
713.75	28573.02
714.094	28585
714.438	28395.17
714.782	28455.06
715.125	28282.63
715.469	28285.8
715.812	28286.7
716.156	28037.67
716.499	28112.69
716.843	28255.29
717.186	27908.4
717.53	28145.23
717.873	28062.98
718.216	28062.98
718.559	27788.86
718.902	27613.27
719.246	27805.36
719.589	27636.1
719.932	27553.16
720.275	27552.48
720.617	27453.95
720.96	27461.64
721.303	27414.63
721.646	27364.69
721.989	27237.01
722.331	27362.66
722.674	27214.41
723.016	27293.51
723.359	27163.11
723.701	27231.59
724.044	27001.08
724.386	26881.54
724.729	26998.82
725.071	26964.93
725.413	26895.55
725.755	26880.41
726.097	26728.77
726.439	26684.71
726.782	26681.54
727.124	26766.06
727.465	26598.38
727.807	26667.31
728.149	26492.17
728.491	26459.86
728.833	26525.62
729.175	26447.2
729.516	26360.65
729.858	26357.03
730.199	26275
730.541	26257.6
730.882	26292.63
731.224	26231.39
731.565	26102.12
731.906	26103.03
732.248	26113.42
732.589	25917.27
732.93	25827.78
733.271	25908.23
733.612	25972.64
733.953	25951.39
734.294	25830.95
734.635	25788.69
734.976	25828.69
735.317	25671.63
735.658	25691.74
735.999	25711.4
736.339	25561.35
736.68	25753.43
737.021	25608.8
737.361	25435.93
737.702	25645.64
738.042	25445.42
738.383	25469.6
738.723	25456.49
739.063	25297.63
739.404	25446.55
739.744	25322.94
740.084	25145.31
740.424	25231.64
740.764	25183.73
741.104	25332.2
741.444	25080
741.784	25023.73
742.124	25099.21
742.464	25024.86
742.804	24984.64
743.143	25006.79
743.483	24937.64
743.823	24864.19
744.162	24821.03
744.502	24880.91
744.841	24784.87
745.181	24941.7
745.52	24702.16
745.86	24819.22
746.199	24659.22
746.538	24706.91
746.877	24604.31
747.216	24586.91
747.556	24446.12
747.895	24434.6
748.234	24372
748.573	24438.67
748.911	24355.05
749.25	24381.94
749.589	24315.73
749.928	24358.44
750.267	24296.3
750.605	24225.34
750.944	24127.04
751.283	24055.4
751.621	24116.19
751.96	24029.64
752.298	23934.27
752.636	23926.36
752.975	23888.17
753.313	23826.48
753.651	23886.59
753.989	23777.44
754.327	23709.19
754.666	23614.51
755.004	23712.58
755.342	23695.63
755.679	23509.88
756.017	23406.38
756.355	23520.95
756.693	23307.17
757.031	23382.65
757.368	23264.46
757.706	23146.04
758.044	23150.34
758.381	23272.82
758.719	23129.1
759.056	23124.8
759.394	23086.84
759.731	22894.07
760.068	22804.58
760.405	22853.4
760.743	22714.87
761.08	22757.58
761.417	22627.41
761.754	22522.33
762.091	22579.96
762.428	22394.88
762.765	22305.61
763.102	22492.95
763.438	22163.47
763.775	22167.09
764.112	22134.55
764.449	22216.8
764.785	21918.05
765.122	21880.99
765.458	21775.91
765.795	21739.53
766.131	21733.2
766.467	21721
766.804	21641.9
767.14	21504.73
767.476	21465.64
767.812	21399.65
768.148	21348.13
768.485	21302.7
768.821	21179.77
769.157	21111.52
769.492	21040.56
769.828	21097.74
770.164	20879.44
770.5	20792.21
770.836	20807.8
771.171	20612.78
771.507	20665.88
771.842	20468.83
772.178	20543.4
772.513	20471.09
772.849	20433.35
773.184	20344.54
773.519	20258.66
773.855	20141.38
774.19	20123.52
774.525	20062.28
774.86	19999.69
775.195	20109.97
775.53	19907.71
775.865	19846.24
776.2	19588.62
776.535	19598.57
776.87	19574.39
777.205	19497.78
777.539	19390.66
777.874	19422.3
778.209	19199.93
778.543	19261.17
778.878	19091.46
779.212	19013.5
779.547	18967.17
779.881	18983.67
780.215	18906.61
780.55	18834.07
780.884	18665.03
781.218	18727.4
781.552	18688.08
781.886	18477.69
782.22	18534.64
782.554	18448.09
782.888	18203.12
783.222	18129.23
783.556	18089
783.889	18095.1
784.223	17881.55
784.557	17882.68
784.89	17954.09
785.224	17831.83
785.557	17755.23
785.891	17688.56
786.224	17672.06
786.558	17666.41
786.891	17498.28
787.224	17470.71
787.557	17373.99
787.891	17269.59
788.224	17258.06
788.557	17276.37
788.89	17228.23
789.223	17148.01
789.556	17001.57
789.888	17043.83
790.221	16970.84
790.554	16830.96
790.887	16741.69
791.219	16753.67
791.552	16708.02
791.884	16513.45
792.217	16575.14
792.549	16513.22
792.882	16374.47
793.214	16392.78
793.546	16415.37
793.879	16255.83
794.211	16211.76
794.543	16236.85
794.875	16195.04
795.207	16218.09
795.539	16100.35
795.871	16034.14
796.203	15893.81
796.535	15867.59
796.867	15865.56
797.198	15781.94
797.53	15771.55
797.862	15629.86
798.193	15655.62
798.525	15501.5
798.856	15549.63
799.188	15421.73
799.519	15340.37
799.85	15400.03
800.182	15319.81
800.513	15309.41
800.844	15180.6
801.175	15252.47
801.506	15165.69
801.837	15197.1
802.168	15069.42
802.499	14964.34
802.83	14930.44
803.161	14920.5
803.491	14823.55
803.822	14836.43
804.153	14776.32
804.483	14589.43
804.814	14587.17
805.145	14572.26
805.475	14555.54
805.805	14451.58
806.136	14497.68
806.466	14489.55
806.796	14455.2
807.126	14389.89
807.457	14374.3
807.787	14231.02
808.117	14304.24
808.447	14203.68
808.777	14218.6
809.107	14210.69
809.436	14084.36
809.766	14120.29
810.096	14054.98
810.426	13981.99
810.755	13892.5
811.085	13945.16
811.414	13830.36
811.744	13907.19
812.073	13803.46
812.403	13788.55
812.732	13588.1
813.061	13664.94
813.39	13572.28
813.719	13546.97
814.049	13630.59
814.378	13516.01
814.707	13517.6
815.036	13494.09
815.365	13458.62
815.693	13324.83
816.022	13319.41
816.351	13321.9
816.68	13294.33
817.008	13314.44
817.337	13117.83
817.665	13054.56
817.994	13103.14
818.322	13135.23
818.651	13061.34
818.979	13055.01
819.307	13069.02
819.636	13036.03
819.964	12891.62
820.292	12964.62
820.62	12955.13
820.948	12885.3
821.276	12963.03
821.604	12836.26
821.932	12919.19
822.259	12920.1
822.587	12861.34
822.915	12800.55
823.243	12959.19
823.57	12833.09
823.898	12919.87
824.225	12791.29
824.553	12869.7
824.88	12842.59
825.207	12934.34
825.535	12852.98
825.862	12854.11
826.189	12829.93
826.516	12919.87
826.843	12910.15
827.17	12863.38
827.497	12894.79
827.824	12850.04
828.151	12926.88
828.478	12907.67
828.805	12849.59
829.131	12820.67
829.458	12795.36
829.785	12756.71
830.111	12750.39
830.438	12859.31
830.764	12816.37
831.09	12835.58
831.417	12668.58
831.743	12794.45
832.069	12831.51
832.395	12718.75
832.722	12756.03
833.048	12760.33
833.374	12634.46
833.7	12668.81
834.026	12700.44
834.351	12652.53
834.677	12681.23
835.003	12612.31
835.329	12670.84
835.654	12682.59
835.98	12560.33
836.306	12575.7
836.631	12490.5
836.956	12578.19
837.282	12574.57
837.607	12495.48
837.932	12456.83
838.258	12455.7
838.583	12506.1
838.908	12437.62
839.233	12414.35
839.558	12295.93
839.883	12331.19
840.208	12264.52
840.533	12383.39
840.858	12302.26
841.182	12383.39
841.507	12296.39
841.832	12252.32
842.156	12248.93
842.481	12184.52
842.805	12176.16
843.13	12130.51
843.454	12135.71
843.778	12072.66
844.103	12026.34
844.427	11960.8
844.751	12001.25
845.075	11909.73
845.399	11881.48
845.723	11898.43
846.047	11817.53
846.371	11817.08
846.695	11721.94
847.019	11698.21
847.343	11595.61
847.666	11541.38
847.99	11535.28
848.313	11537.54
848.637	11326.24
848.96	11437.88
849.284	11342.51
849.607	11253.93
849.931	11279.69
850.254	11188.17
850.577	11121.28
850.9	11078.34
851.223	11047.38
851.546	11066.59
851.869	10964.44
852.192	11002.86
852.515	10848.51
852.838	10838.12
853.161	10789.53
853.483	10844.45
853.806	10695.3
854.129	10737.1
854.451	10699.59
854.774	10590.44
855.096	10653.72
855.419	10584.57
855.741	10599.26
856.063	10472.03
856.385	10495.08
856.708	10472.25
857.03	10454.63
857.352	10401.52
857.674	10298.47
857.996	10390.22
858.318	10265.93
858.64	10292.82
858.961	10209.21
859.283	10204.46
859.605	10197.23
859.926	10179.61
860.248	10131.47
860.57	10053.73
860.891	10093.05
861.212	10075.88
861.534	9979.84
861.855	10010.8
862.176	9980.74
862.498	9992.04
862.819	9991.59
863.14	9915.43
863.461	9918.14
863.782	9891.03
864.103	9875.43
864.424	9835.89
864.745	9814.42
865.065	9797.24
865.386	9768.99
865.707	9717.7
866.027	9794.08
866.348	9716.57
866.668	9790.91
866.989	9691.48
867.309	9603.35
867.63	9662.1
867.95	9653.52
868.27	9636.12
868.59	9640.41
868.91	9645.61
869.23	9542.79
869.55	9523.58
869.87	9568.1
870.19	9518.38
870.51	9546.85
870.83	9563.58
871.15	9465.05
871.469	9434.09
871.789	9443.35
872.109	9401.09
872.428	9362.68
872.748	9418.27
873.067	9424.6
873.386	9359.97
873.706	9379.85
874.025	9347.31
874.344	9323.58
874.663	9322.45
874.982	9334.2
875.301	9300.98
875.62	9240.65
875.939	9238.16
876.258	9319.97
876.577	9202
876.896	9239.52
877.214	9134.43
877.533	9233.64
877.852	9215.79
878.17	9130.37
878.489	9160.87
878.807	9087.43
879.125	9116.13
879.444	9086.98
879.762	9098.5
880.08	9071.61
880.398	9049.01
880.716	9048.11
881.034	8981.67
881.352	8990.03
881.67	8968.56
881.988	8974.89
882.306	8930.15
882.624	8941.9
882.941	8915.91
883.259	8882.24
883.577	8846.76
883.894	8878.17
884.212	8818.29
884.529	8782.35
884.846	8789.81
885.164	8751.62
885.481	8713.2
885.798	8664.39
886.115	8704.84
886.432	8647.89
886.75	8582.36
887.067	8628.46
887.383	8549.14
887.7	8544.39
888.017	8535.13
888.334	8539.87
888.651	8539.2
888.967	8517.95
889.284	8460.33
889.6	8451.06
889.917	8356.38
890.233	8401.35
890.55	8331.97
890.866	8413.78
891.182	8334.68
891.498	8271.41
891.815	8241.58
892.131	8294.91
892.447	8239.54
892.763	8206.78
893.079	8183.73
893.395	8116.83
893.71	8148.47
894.026	8105.31
894.342	8120.45
894.657	8033.45
894.973	8001.13
895.289	7988.93
895.604	8036.38
895.92	7963.39
896.235	7890.17
896.55	7855.82
896.865	7897.18
897.181	7890.85
897.496	7850.17
897.811	7820.12
898.126	7809.5
898.441	7755.04
898.756	7751.87
899.071	7734.25
899.386	7706
899.7	7632.1
900.015	7614.02
900.33	7548.71
900.644	7561.14
900.959	7509.39
901.273	7505.1
901.588	7451.09
901.902	7465.55
902.216	7416.51
902.531	7385.1
902.845	7408.6
903.159	7400.02
903.473	7378.32
903.787	7266.24
904.101	7243.19
904.415	7226.46
904.729	7216.52
905.042	7169.74
905.356	7171.77
905.67	7186.92
905.984	7124.77
906.297	7087.71
906.611	7010.2
906.924	7050.87
907.237	7001.61
907.551	7016.52
907.864	6935.85
908.177	6918.22
908.491	6928.17
908.804	6879.13
909.117	6822.63
909.43	6829.41
909.743	6783.76
910.056	6759.13
910.368	6748.06
910.681	6692.47
910.994	6673.48
911.307	6637.33
911.619	6625.12
911.932	6629.87
912.244	6568.63
912.557	6560.27
912.869	6510.55
913.181	6471.91
913.494	6463.32
913.806	6443.21
914.118	6433.26
914.43	6395.52
914.742	6333.83
915.054	6331.12
915.366	6308.07
915.678	6273.27
915.99	6281.85
916.302	6191.91
916.613	6167.28
916.925	6158.92
917.236	6159.15
917.548	6153.27
917.859	6080.73
918.171	6076.89
918.482	6059.26
918.794	6007.96
919.105	6042.99
919.416	5956.89
919.727	5965.7
920.038	5934.07
920.349	5918.02
920.66	5894.75
920.971	5839.83
921.282	5878.48
921.593	5826.5
921.903	5766.84
922.214	5743.11
922.525	5732.04
922.835	5724.36
923.146	5657.01
923.456	5728.2
923.767	5636.22
924.077	5650.46
924.387	5619.95
924.697	5570.69
925.008	5553.51
925.318	5497.47
925.628	5532.27
925.938	5478.94
926.248	5386.96
926.558	5418.6
926.867	5460.41
927.177	5387.19
927.487	5348.32
927.796	5298.83
928.106	5262.22
928.416	5335.21
928.725	5334.99
929.034	5230.58
929.344	5284.14
929.653	5250.24
929.962	5152.84
930.271	5180.87
930.581	5137.7
930.89	5094.54
931.199	5066.52
931.508	5085.73
931.817	5053.41
932.125	5042.79
932.434	5011.15
932.743	4998.95
933.051	4972.51
933.36	4925.96
933.669	4892.29
933.977	4903.36
934.286	4886.19
934.594	4865.85
934.902	4833.31
935.21	4774.78
935.519	4799.63
935.827	4803.7
936.135	4769.8
936.443	4675.12
936.751	4699.75
937.059	4698.62
937.367	4674.44
937.674	4663.59
937.982	4653.65
938.29	4650.94
938.597	4586.76
938.905	4574.33
939.213	4594.89
939.52	4536.36
939.827	4560.32
940.135	4519.19
940.442	4494.1
940.749	4458.4
941.056	4473.77
941.363	4394.9
941.67	4403.71
941.977	4418.4
942.284	4355.58
942.591	4345.63
942.898	4350.83
943.205	4317.16
943.511	4285.75
943.818	4301.34
944.125	4221.34
944.431	4276.71
944.738	4217.28
945.044	4203.49
945.35	4178.18
945.657	4153.1
945.963	4173.66
946.269	4123.72
946.575	4111.74
946.881	4158.52
947.187	4098.86
947.493	4078.52
947.799	4086.21
948.105	4019.77
948.41	3972.99
948.716	3999.43
949.022	4001.91
949.327	3971.41
949.633	3945.64
949.938	3978.41
950.244	3906.32
950.549	3904.97
950.854	3914.69
951.16	3861.35
951.465	3865.87
951.77	3829.49
952.075	3814.8
952.38	3787.68
952.685	3798.98
952.99	3764.41
953.294	3780.68
953.599	3787.46
953.904	3747.01
954.209	3715.14
954.513	3667.46
954.818	3677.86
955.122	3668.14
955.426	3633.11
955.731	3644.64
956.035	3638.31
956.339	3584.75
956.643	3584.75
956.948	3525.99
957.252	3537.75
957.556	3551.76
957.86	3537.97
958.163	3522.61
958.467	3502.27
958.771	3486.22
959.075	3459.56
959.378	3440.35
959.682	3466.11
959.985	3422.27
960.289	3413.23
960.592	3406.45
960.896	3394.92
961.199	3366.23
961.502	3312.67
961.805	3307.24
962.108	3343.85
962.411	3311.99
962.714	3280.58
963.017	3267.92
963.32	3274.02
963.623	3280.35
963.926	3255.72
964.228	3228.6
964.531	3197.19
964.833	3172.78
965.136	3165.55
965.438	3169.17
965.741	3155.16
966.043	3134.59
966.345	3138.43
966.648	3120.81
966.95	3074.48
967.252	3072.67
967.554	3045.78
967.856	3031.54
968.158	3035.84
968.46	3038.78
968.761	3019.57
969.063	2979.79
969.365	2981.83
969.666	2977.31
969.968	2966.01
970.269	2935.05
970.571	2936.18
970.872	2915.16
971.174	2929.85
971.475	2915.62
971.776	2884.43
972.077	2874.71
972.378	2865.22
972.679	2857.31
972.98	2858.89
973.281	2824.54
973.582	2828.16
973.883	2789.97
974.183	2780.25
974.484	2759.46
974.785	2753.36
975.085	2820.25
975.386	2733.93
975.686	2744.55
975.986	2703.87
976.287	2720.82
976.587	2730.76
976.887	2691.89
977.187	2721.04
977.487	2664.32
977.787	2665.23
978.087	2677.43
978.387	2624.78
978.687	2618.45
978.987	2587.94
979.286	2574.61
979.586	2601.73
979.885	2572.35
980.185	2556.3
980.484	2551.33
980.784	2548.85
981.083	2523.08
981.382	2496.87
981.682	2515.17
981.981	2479.92
982.28	2458.23
982.579	2453.25
982.878	2455.29
983.177	2437.89
983.475	2456.87
983.774	2444.22
984.073	2441.73
984.372	2396.98
984.67	2395.86
984.969	2385.01
985.267	2394.5
985.566	2366.25
985.864	2347.72
986.162	2388.4
986.461	2323.54
986.759	2324.9
987.057	2309.98
987.355	2316.54
987.653	2314.95
987.951	2291.45
988.249	2280.15
988.547	2265.24
988.844	2246.25
989.142	2229.76
989.44	2246.25
989.737	2213.94
990.035	2222.98
990.332	2188.85
990.63	2200.61
990.927	2195.63
991.224	2187.72
991.521	2167.61
991.819	2168.52
992.116	2181.62
992.413	2125.58
992.71	2153.15
993.006	2126.03
993.303	2089.42
993.6	2092.13
993.897	2102.98
994.193	2093.72
994.49	2124.9
994.787	2061.4
995.083	2063.89
995.379	2044.45
995.676	2038.35
995.972	2029.99
996.268	2008.97
996.565	2010.55
996.861	2003.32
997.157	1975.53
997.453	2007.16
997.749	1970.56
998.044	1941.4
998.34	1932.82
998.636	1931.23
998.932	1935.98
999.227	1897.11
999.523	1920.16
999.818	1924.68
1000.114	1912.03
1000.409	1908.86
1000.704	1903.66
1001	1858.02
1001.295	1850.56
1001.59	1854.17
1001.885	1828.86
1002.18	1846.04
1002.475	1812.59
1002.77	1805.14
1003.065	1768.07
1003.359	1787.74
1003.654	1784.57
1003.949	1780.28
1004.243	1745.48
1004.538	1747.28
1004.832	1758.58
1005.127	1724.91
1005.421	1713.16
1005.715	1693.73
1006.009	1711.13
1006.304	1702.77
1006.598	1681.98
1006.892	1641.75
1007.186	1648.76
1007.48	1655.99
1007.773	1664.8
1008.067	1638.36
1008.361	1640.17
1008.655	1626.84
1008.948	1581.19
1009.242	1620.73
1009.535	1599.49
1009.829	1585.25
1010.122	1575.99
1010.415	1573.5
1010.708	1587.29
1011.001	1580.51
1011.295	1535.99
1011.588	1524.47
1011.881	1528.99
1012.173	1509.1
1012.466	1528.99
1012.759	1479.49
1013.052	1484.01
1013.344	1473.39
1013.637	1492.83
1013.93	1447.63
1014.222	1452.38
1014.514	1489.89
1014.807	1454.18
1015.099	1425.26
1015.391	1443.56
1015.683	1398.14
1015.976	1418.25
1016.268	1394.53
1016.56	1419.84
1016.851	1379.38
1017.143	1360.85
1017.435	1367.41
1017.727	1326.28
1018.018	1350.68
1018.31	1345.26
1018.602	1324.24
1018.893	1336.67
1019.185	1323.34
1019.476	1322.89
1019.767	1300.52
1020.058	1308.43
1020.35	1266.85
1020.641	1281.31
1020.932	1276.34
1021.223	1244.7
1021.514	1266.62
1021.804	1265.49
1022.095	1259.84
1022.386	1226.17
1022.677	1213.51
1022.967	1224.13
1023.258	1217.35
1023.548	1182.33
1023.839	1216.9
1024.129	1188.66
1024.419	1180.07
1024.709	1197.47
1025	1167.41
1025.29	1156.34
1025.58	1144.36
1025.87	1149.11
1026.16	1132.84
1026.449	1127.87
1026.739	1117.92
1027.029	1124.48
1027.319	1105.72
1027.608	1093.06
1027.898	1083.8
1028.187	1067.75
1028.477	1072.5
1028.766	1090.58
1029.055	1048.32
1029.344	1092.61
1029.634	1074.31
1029.923	1060.97
1030.212	1033.86
1030.501	1022.78
1030.79	1027.98
1031.078	1030.69
1031.367	1006.29
1031.656	1000.64
1031.945	1010.13
1032.233	1000.19
1032.522	1018.49
1032.81	994.31
1033.099	990.02
1033.387	973.52
1033.675	983.24
1033.963	980.53
1034.251	939.4
1034.54	947.08
1034.828	963.58
1035.116	929.9
1035.403	936.68
1035.691	941.43
1035.979	937.14
1036.267	913.18
1036.554	900.08
1036.842	908.21
1037.129	904.59
1037.417	904.59
1037.704	891.71
1037.992	894.43
1038.279	874.99
1038.566	887.65
1038.853	887.65
1039.14	887.65
