Data from hue_270_FLMS001491_00095.txt Node
Date: Tue Feb 07 15:57:57 GMT 2017
User: dcchb
Spectrometer: FLMS00149
Trigger mode: 0
Integration Time (sec): 2.000000E-2
Scans to average: 10
Electric dark correction enabled: true
Nonlinearity correction enabled: false
Boxcar width: 0
XAxis mode: Wavelengths
Number of Pixels in Spectrum: 2048
>>>>>Begin Spectral Data<<<<<
341.393	-8.7
341.776	-8.7
342.16	-8.7
342.543	-72.2
342.927	-65.2
343.31	-64.97
343.693	-57.74
344.077	-75.14
344.46	-56.83
344.843	-47.34
345.226	-52.99
345.61	-37.63
345.993	-16.84
346.376	-7.8
346.759	3.73
347.142	43.05
347.525	38.76
347.908	54.57
348.291	72.88
348.674	97.06
349.057	107.23
349.44	107.45
349.823	136.83
350.206	163.5
350.588	163.5
350.971	205.53
351.354	210.95
351.737	232.42
352.119	226.55
352.502	240.11
352.884	274
353.267	283.5
353.65	275.81
354.032	296.38
354.414	292.76
354.797	302.03
355.179	308.13
355.562	317.17
355.944	293.89
356.326	318.97
356.709	312.42
357.091	325.98
357.473	337.96
357.855	329.37
358.238	346.32
358.62	307.22
359.002	329.6
359.384	343.61
359.766	321.01
360.148	335.7
360.53	315.81
360.912	327.56
361.294	317.39
361.676	363.04
362.057	311.52
362.439	337.05
362.821	329.82
363.203	314.68
363.584	304.29
363.966	325.53
364.348	309.26
364.729	325.98
365.111	332.08
365.493	324.62
365.874	305.64
366.256	313.1
366.637	313.33
367.019	329.14
367.4	309.48
367.781	313.78
368.163	313.55
368.544	306.32
368.925	316.71
369.306	302.7
369.688	319.88
370.069	320.78
370.45	323.04
370.831	325.3
371.212	313.1
371.593	292.53
371.974	319.88
372.355	311.74
372.736	324.17
373.117	304.74
373.498	299.99
373.879	321.46
374.26	302.48
374.641	310.61
375.021	309.26
375.402	312.42
375.783	326.88
376.163	313.78
376.544	307.68
376.925	315.58
377.305	318.52
377.686	331.86
378.066	309.26
378.447	341.35
378.827	331.4
379.208	308.81
379.588	311.97
379.968	310.39
380.349	335.47
380.729	341.35
381.109	335.47
381.489	326.21
381.87	315.13
382.25	324.62
382.63	328.69
383.01	349.26
383.39	328.69
383.77	340.89
384.15	366.21
384.53	366.66
384.91	351.52
385.29	349.48
385.67	325.75
386.049	337.05
386.429	358.97
386.809	347.9
387.189	339.99
387.568	339.99
387.948	356.26
388.328	357.39
388.707	348.13
389.087	354.45
389.466	377.28
389.846	383.61
390.225	360.78
390.605	370.27
390.984	365.98
391.363	371.85
391.743	346.77
392.122	369.37
392.501	368.24
392.881	400.1
393.26	375.47
393.639	370.27
394.018	384.96
394.397	385.19
394.776	391.97
395.155	392.42
395.534	396.71
395.913	397.84
396.292	396.26
396.671	400.33
397.05	399.2
397.429	398.75
397.808	410.95
398.186	411.63
398.565	405.07
398.944	409.37
399.323	411.4
399.701	412.98
400.08	415.47
400.458	404.4
400.837	418.63
401.215	430.38
401.594	425.19
401.972	431.51
402.351	416.15
402.729	436.49
403.107	438.52
403.486	425.19
403.864	425.19
404.242	455.69
404.62	452.76
404.999	448.46
405.377	451.17
405.755	473.55
406.133	459.99
406.511	469.03
406.889	460.21
407.267	456.37
407.645	473.09
408.023	483.04
408.401	487.56
408.779	467.22
409.156	464.96
409.534	479.2
409.912	525.3
410.29	525.07
410.667	523.26
411.045	517.61
411.422	544.51
411.8	533.88
412.178	536.6
412.555	548.35
412.933	555.58
413.31	577.5
413.687	576.37
414.065	558.74
414.442	575.69
414.819	583.37
415.197	604.62
415.574	585.86
415.951	614.79
416.328	611.85
416.705	630.6
417.082	609.81
417.46	638.29
417.837	633.09
418.214	655.69
418.591	659.53
418.967	657.04
419.344	661.34
419.721	662.24
420.098	675.58
420.475	710.15
420.852	701.34
421.228	693.88
421.605	729.36
421.982	712.86
422.358	735.91
422.735	753.09
423.111	740.21
423.488	758.74
423.864	759.64
424.241	787.21
424.617	820.43
424.994	784.27
425.37	822.69
425.746	810.71
426.123	815.23
426.499	850.03
426.875	850.71
427.251	862.46
427.627	873.54
428.003	899.07
428.379	908.56
428.756	895.46
429.132	900.2
429.507	898.85
429.883	939.98
430.259	930.03
430.635	966.87
431.011	949.01
431.387	990.14
431.763	1004.61
432.138	982.46
432.514	1031.95
432.89	1019.97
433.265	1044.38
433.641	1058.84
434.016	1073.31
434.392	1077.37
434.767	1116.24
435.143	1160.99
435.518	1135.68
435.894	1152.63
436.269	1191.04
436.644	1192.85
437.02	1222.45
437.395	1207.54
437.77	1226.07
438.145	1254.54
438.52	1247.54
438.895	1293.86
439.271	1287.76
439.646	1334.77
440.021	1351.26
440.395	1356.91
440.77	1390.13
441.145	1369.12
441.52	1365.5
441.895	1418.15
442.27	1403.47
442.645	1388.1
443.019	1426.52
443.394	1445.95
443.769	1465.84
444.143	1450.24
444.518	1477.81
444.892	1478.72
445.267	1514.88
445.641	1497.25
446.016	1507.19
446.39	1481.66
446.764	1532.05
447.139	1560.3
447.513	1587.19
447.887	1566.17
448.262	1553.97
448.636	1577.92
449.01	1608.88
449.384	1601.2
449.758	1619.05
450.132	1631.26
450.506	1613.18
450.88	1676
451.254	1655.89
451.628	1703.57
452.002	1669.67
452.376	1685.27
452.75	1709.67
453.123	1758.48
453.497	1715.77
453.871	1785.38
454.244	1800.74
454.618	1795.09
454.992	1792.16
455.365	1835.77
455.739	1838.93
456.112	1863.34
456.486	1844.13
456.859	1911.25
457.232	1909.89
457.606	1916.22
457.979	1945.82
458.352	1950.57
458.725	1973.62
459.099	1993.73
459.472	2012.49
459.845	2001.87
460.218	2054.3
460.591	2075.09
460.964	2095.2
461.337	2131.81
461.71	2171.13
462.083	2165.25
462.456	2171.13
462.829	2198.25
463.201	2221.98
463.574	2208.19
463.947	2253.61
464.32	2289.09
464.692	2312.59
465.065	2290.67
465.438	2308.3
465.81	2400.73
466.183	2362.31
466.555	2451.12
466.928	2425.36
467.3	2438.47
467.672	2492.25
468.045	2527.73
468.417	2531.12
468.789	2518.24
469.161	2567.05
469.534	2587.84
469.906	2635.3
470.278	2614.73
470.65	2685.69
471.022	2724.56
471.394	2792.13
471.766	2786.93
472.138	2831.45
472.51	2866.7
472.882	2923.88
473.253	2911.67
473.625	2944.44
473.997	2979.92
474.369	3031.67
474.74	3020.6
475.112	3112.12
475.484	3138.34
475.855	3195.51
476.227	3150.99
476.598	3257.88
476.97	3284.32
477.341	3352.34
477.713	3403.19
478.084	3393.02
478.455	3481.83
478.827	3481.38
479.198	3575.84
479.569	3557.31
479.94	3671.88
480.311	3657.64
480.682	3763.63
481.053	3813.8
481.424	3872.33
481.795	3880.24
482.166	3942.16
482.537	3972.21
482.908	4029.16
483.279	4050.85
483.65	4173.56
484.021	4183.05
484.391	4263.05
484.762	4218.99
485.133	4248.36
485.503	4359.55
485.874	4430.05
486.244	4365.42
486.615	4461.24
486.985	4535.13
487.356	4638.41
487.726	4647.67
488.097	4713.44
488.467	4710.05
488.837	4842.25
489.207	4839.76
489.578	4869.59
489.948	4902.58
490.318	4970.83
490.688	4955.01
491.058	5046.08
491.428	5107.1
491.798	5164.5
492.168	5221.44
492.538	5215.57
492.908	5306.87
493.278	5326.3
493.648	5340.31
494.017	5380.76
494.387	5443.13
494.757	5460.76
495.126	5518.84
495.496	5448.56
495.866	5589.8
496.235	5610.13
496.605	5605.16
496.974	5670.7
497.344	5633.64
497.713	5715.67
498.082	5748.44
498.452	5775.33
498.821	5777.59
499.19	5815.33
499.559	5868.21
499.928	5894.42
500.298	5900.07
500.667	5949.34
501.036	5877.02
501.405	5985.49
501.774	5997.7
502.143	6041.76
502.512	6052.61
502.88	6120.86
503.249	6056.68
503.618	6085.38
503.987	6181.42
504.356	6189.78
504.724	6181.42
505.093	6192.94
505.462	6215.09
505.83	6248.31
506.199	6286.95
506.567	6332.83
506.936	6253.06
507.304	6378.7
507.672	6362.66
508.041	6373.5
508.409	6412.83
508.777	6430.45
509.145	6442.2
509.514	6451.92
509.882	6469.55
510.25	6503.22
510.618	6505.03
510.986	6541.18
511.354	6575.31
511.722	6646.94
512.09	6660.28
512.458	6640.16
512.826	6652.37
513.193	6675.87
513.561	6689.65
513.929	6701.41
514.297	6657.11
514.664	6797.45
515.032	6733.27
515.4	6807.17
515.767	6738.92
516.135	6812.82
516.502	6730.11
516.869	6801.29
517.237	6815.3
517.604	6796.09
517.972	6951.57
518.339	6882.64
518.706	6894.62
519.073	6864.34
519.44	6968.29
519.808	6935.52
520.175	6917.67
520.542	6978.69
520.909	7033.6
521.276	6994.96
521.643	7038.8
522.009	7049.19
522.376	7077.22
522.743	7107.95
523.11	7112.47
523.477	7219.36
523.843	7224.1
524.21	7277.66
524.577	7293.71
524.943	7256.87
525.31	7275.18
525.676	7326.47
526.043	7319.02
526.409	7271.79
526.776	7458
527.142	7448.96
527.508	7467.71
527.874	7492.12
528.241	7435.85
528.607	7530.76
528.973	7515.85
529.339	7501.38
529.705	7569.63
530.071	7545.45
530.437	7606.24
530.803	7608.5
531.169	7636.97
531.535	7644.43
531.901	7744.99
532.267	7639.01
532.632	7652.57
532.998	7756.07
533.364	7741.15
533.73	7743.86
534.095	7769.63
534.461	7772.34
534.826	7862.51
535.192	7757.88
535.557	7783.19
535.923	7823.86
536.288	7836.74
536.653	7871.32
537.019	7841.49
537.384	7857.08
537.749	7883.75
538.114	7855.95
538.479	7873.35
538.845	7889.62
539.21	7840.13
539.575	7901.15
539.94	7921.71
540.305	7927.81
540.67	7888.72
541.034	7949.51
541.399	7964.65
541.764	7947.47
542.129	7959.68
542.494	7915.84
542.858	7977.53
543.223	7969.17
543.587	8027.02
543.952	7972.11
544.316	7983.86
544.681	7982.28
545.045	8051.88
545.41	8067.25
545.774	8099.56
546.138	7987.25
546.503	8037.42
546.867	8021.6
547.231	8065.89
547.595	8056.62
547.959	8117.41
548.324	8078.54
548.688	8118.09
549.052	8130.29
549.416	8091.88
549.779	8049.17
550.143	8114.48
550.507	8191.08
550.871	8106.79
551.235	8123.74
551.599	8186.56
551.962	8176.62
552.326	8188.6
552.689	8199.22
553.053	8161.48
553.417	8202.61
553.78	8197.19
554.143	8173.46
554.507	8278.31
554.87	8270.86
555.234	8310.4
555.597	8228.82
555.96	8305.88
556.323	8271.08
556.686	8296.84
557.05	8336.84
557.413	8383.4
557.776	8311.08
558.139	8352.44
558.502	8471.08
558.865	8419.1
559.228	8448.93
559.59	8464.98
559.953	8459.78
560.316	8543.84
560.679	8497.52
561.041	8553.79
561.404	8652.09
561.767	8671.3
562.129	8613.9
562.492	8670.85
562.854	8621.81
563.217	8733.44
563.579	8656.83
563.941	8748.13
564.304	8720.34
564.666	8780.22
565.028	8812.76
565.39	8831.75
565.753	8875.59
566.115	8914.91
566.477	8992.87
566.839	8974.79
567.201	9020.67
567.563	9064.51
567.925	9104.96
568.287	9071.06
568.648	9141.57
569.01	9220.66
569.372	9225.86
569.734	9110.61
570.095	9217.5
570.457	9237.16
570.819	9311.28
571.18	9325.74
571.542	9315.57
571.903	9343.82
572.265	9417.72
572.626	9532.97
572.987	9432.63
573.349	9524.61
573.71	9482.8
574.071	9485.51
574.432	9563.93
574.794	9642.12
575.155	9625.17
575.516	9633.98
575.877	9738.61
576.238	9753.75
576.599	9779.97
576.96	9705.62
577.32	9765.51
577.681	9833.75
578.042	9872.85
578.403	9805.05
578.763	9867.42
579.124	9922.79
579.485	9944.48
579.845	9971.83
580.206	9995.56
580.566	10018.38
580.927	9948.1
581.287	10141.09
581.648	10080.75
582.008	10094.31
582.368	10157.59
582.728	10269.9
583.089	10220.41
583.449	10301.31
583.809	10284.81
584.169	10261.76
584.529	10274.65
584.889	10467.63
585.249	10340.63
585.609	10308.99
585.969	10449.1
586.329	10404.59
586.688	10483.68
587.048	10478.26
587.408	10441.65
587.768	10450.91
588.127	10474.87
588.487	10565.48
588.846	10636.9
589.206	10599.61
589.565	10626.27
589.925	10584.02
590.284	10707.85
590.643	10703.33
591.003	10794.41
591.362	10841.86
591.721	10751.02
592.08	10828.08
592.44	10864.01
592.799	10827.62
593.158	10841.64
593.517	10900.17
593.876	10919.6
594.235	10877.34
594.593	10900.39
594.952	11013.83
595.311	10968.41
595.67	10984
596.029	11066.71
596.387	11033.5
596.746	11143.55
597.104	11116.2
597.463	11031.01
597.822	11216.09
598.18	11122.76
598.538	11134.51
598.897	11167.95
599.255	11118.24
599.613	11235.3
599.972	11176.09
600.33	11178.58
600.688	11189.65
601.046	11230.55
601.404	11285.24
601.762	11305.8
602.12	11384.67
602.478	11275.52
602.836	11305.8
603.194	11255.18
603.552	11296.09
603.91	11286.6
604.268	11406.37
604.625	11310.55
604.983	11388.51
605.341	11386.71
605.698	11390.32
606.056	11405.69
606.413	11382.86
606.771	11511
607.128	11440.26
607.485	11413.6
607.843	11448.4
608.2	11593.25
608.557	11530.21
608.914	11495.63
609.272	11528.4
609.629	11614.72
609.986	11613.82
610.343	11534.5
610.7	11607.04
611.057	11588.73
611.414	11625.34
611.771	11619.92
612.127	11619.02
612.484	11698.79
612.841	11742.86
613.198	11616.3
613.554	11618.11
613.911	11744.44
614.267	11736.53
614.624	11625.12
614.98	11689.07
615.337	11769.3
615.693	11781.27
616.05	11749.18
616.406	11836.64
616.762	11785.34
617.118	11726.58
617.475	11755.74
617.831	11800.71
618.187	11851.78
618.543	11824.43
618.899	11917.31
619.255	11939.23
619.611	11914.15
619.967	11931.55
620.323	11904.21
620.678	11910.31
621.034	11856.07
621.39	11828.28
621.746	11849.07
622.101	11918.44
622.457	11795.74
622.812	11925.9
623.168	11920.93
623.523	11917.31
623.879	11998.89
624.234	11910.76
624.589	11927.03
624.945	11925.22
625.3	11963.64
625.655	11992.57
626.01	11916.64
626.365	11915.73
626.72	11978.1
627.075	11930.87
627.43	11993.24
627.785	11840.03
628.14	11909.18
628.495	11869.41
628.85	11861.5
629.205	11939.23
629.559	11931.32
629.914	11766.58
630.269	11814.94
630.623	11862.85
630.978	11761.84
631.332	11899.01
631.687	11888.39
632.041	11892.46
632.396	11808.84
632.75	11726.36
633.104	11778.79
633.459	11771.1
633.813	11699.24
634.167	11755.28
634.521	11773.36
634.875	11693.59
635.229	11676.42
635.583	11693.59
635.937	11627.83
636.291	11633.25
636.645	11614.04
636.999	11614.04
637.352	11641.84
637.706	11621.95
638.06	11642.74
638.413	11605.46
638.767	11575.18
639.121	11565.91
639.474	11514.61
639.828	11517.1
640.181	11550.32
640.534	11611.33
640.888	11544.89
641.241	11464.9
641.594	11488.62
641.947	11474.16
642.301	11431.22
642.654	11556.65
643.007	11538.11
643.36	11500.15
643.713	11454.5
644.066	11444.11
644.419	11461.96
644.771	11372.24
645.124	11282.08
645.477	11278.23
645.83	11195.98
646.182	11107.84
646.535	11081.63
646.888	11077.34
647.24	11009.54
647.593	11088.86
647.945	11025.59
648.298	10974.29
648.65	10955.08
649.002	10949.88
649.355	11027.39
649.707	11043.21
650.059	11027.39
650.411	11165.24
650.763	11163.89
651.115	11258.35
651.467	11253.6
651.819	11238.69
652.171	11245.24
652.523	11211.57
652.875	11234.39
653.227	11188.29
653.578	11331.34
653.93	11294.51
654.282	11183.55
654.633	11151.68
654.985	11191.91
655.337	11256.31
655.688	11191.91
656.039	11249.08
656.391	11208.86
656.742	11224.45
657.094	11191.01
657.445	11254.51
657.796	11189.65
658.147	11181.74
658.498	11204.34
658.849	11193.49
659.2	11196.88
659.551	11213.6
659.902	11211.12
660.253	11233.72
660.604	11180.16
660.955	11200.72
661.306	11249.08
661.656	11198.01
662.007	11229.87
662.358	11234.85
662.708	11219.7
663.059	11205.24
663.409	11169.08
663.76	11261.96
664.11	11317.78
664.461	11305.58
664.811	11212.7
665.161	11150.1
665.511	11188.07
665.862	11204.56
666.212	11252.7
666.562	11241.63
666.912	11206.37
667.262	11205.47
667.612	11164.57
667.962	11257.44
668.312	11245.92
668.662	11274.84
669.011	11240.5
669.361	11116.43
669.711	11220.83
670.06	11136.77
670.41	11159.14
670.76	11118.24
671.109	11173.38
671.459	11195.98
671.808	11144.68
672.157	11201.63
672.507	11099.03
672.856	11061.07
673.205	11154.17
673.554	11166.37
673.904	11076.43
674.253	11213.15
674.602	11095.87
674.951	10955.98
675.3	10924.35
675.649	11105.36
675.998	11018.35
676.346	11066.49
676.695	11110.56
677.044	10932.93
677.393	10986.26
677.741	11082.08
678.09	11008.86
678.438	10903.78
678.787	10993.27
679.135	10988.98
679.484	10995.76
679.832	10864.23
680.181	10861.97
680.529	10938.13
680.877	10868.08
681.225	10908.3
681.573	10910.11
681.922	10854.74
682.27	10840.05
682.618	10780.17
682.966	10786.72
683.314	10769.55
683.661	10740.62
684.009	10679.38
684.357	10625.6
684.705	10706.27
685.053	10671.7
685.4	10662.43
685.748	10528.65
686.095	10598.93
686.443	10584.47
686.79	10487.52
687.138	10495.43
687.485	10540.63
687.832	10413.85
688.18	10492.27
688.527	10438.93
688.874	10420.86
689.221	10315.77
689.568	10252.27
689.915	10290.01
690.262	10213.86
690.609	10277.13
690.956	10225.83
691.303	10247.75
691.65	10205.72
691.997	10140.64
692.344	10122.78
692.69	10084.37
693.037	10062.9
693.383	10061.32
693.73	10025.61
694.077	9925.5
694.423	9930.25
694.769	9846.18
695.116	9864.26
695.462	9889.57
695.808	9847.99
696.155	9821.32
696.501	9739.29
696.847	9762.79
697.193	9692.06
697.539	9655.68
697.885	9642.12
698.231	9541.56
698.577	9635.11
698.923	9613.87
699.269	9503.59
699.614	9486.19
699.96	9440.99
700.306	9429.24
700.651	9375.23
700.997	9362.13
701.342	9313.31
701.688	9281.22
702.033	9235.58
702.379	9284.84
702.724	9218.18
703.069	9225.18
703.415	9162.81
703.76	9145.18
704.105	9102.02
704.45	9111.96
704.795	9072.42
705.14	9009.14
705.485	9077.84
705.83	8944.96
706.175	8912.65
706.52	8905.87
706.865	8874
707.209	8890.95
707.554	8791.52
707.899	8871.97
708.243	8787.9
708.588	8753.1
708.932	8714.23
709.277	8770.05
709.621	8751.07
709.966	8684.63
710.31	8660
710.654	8601.47
710.998	8587.46
711.342	8581.36
711.687	8592.2
712.031	8512.66
712.375	8541.36
712.719	8515.82
713.063	8502.71
713.407	8489.38
713.75	8400.57
714.094	8417.29
714.438	8392.66
714.782	8413.45
715.125	8369.16
715.469	8377.97
715.812	8390.85
716.156	8285.54
716.499	8343.85
716.843	8346.79
717.186	8323.28
717.53	8326.45
717.873	8323.28
718.216	8266.56
718.559	8229.5
718.902	8212.33
719.246	8204.42
719.589	8149.28
719.932	8226.56
720.275	8224.08
720.617	8192.44
720.96	8171.65
721.303	8152.67
721.646	8188.37
721.989	8078.54
722.331	8119.9
722.674	8114.93
723.016	8136.62
723.359	8095.72
723.701	8138.66
724.044	8019.56
724.386	8042.16
724.729	8065.66
725.071	8050.75
725.413	8033.35
725.755	7975.27
726.097	8020.92
726.439	7931.43
726.782	7971.2
727.124	8011.88
727.465	8021.37
727.807	8024.53
728.149	7982.05
728.491	7926.46
728.833	7904.99
729.175	7942.95
729.516	7906.8
729.858	7957.64
730.199	7932.33
730.541	7999.22
730.882	7936.4
731.224	7932.33
731.565	7907.7
731.906	7904.31
732.248	7890.75
732.589	7878.32
732.93	7878.55
733.271	7890.98
733.612	7929.4
733.953	7890.75
734.294	7932.56
734.635	7823.64
734.976	7839
735.317	7850.3
735.658	7845.78
735.999	7852.11
736.339	7882.62
736.68	7896.63
737.021	7864.09
737.361	7808.95
737.702	7883.97
738.042	7883.52
738.383	7856.63
738.723	7911.32
739.063	7888.95
739.404	7902.28
739.744	7872.9
740.084	7900.02
740.424	7968.27
740.764	7916.52
741.104	7961.03
741.444	7943.41
741.784	7970.98
742.124	8002.16
742.464	7935.95
742.804	7986.34
743.143	8020.24
743.483	8022.05
743.823	7966.68
744.162	8007.81
744.502	8098.66
744.841	8064.53
745.181	8175.27
745.52	8157.64
745.86	8218.88
746.199	8208.03
746.538	8309.05
746.877	8251.2
747.216	8301.36
747.556	8349.05
747.895	8391.76
748.234	8377.07
748.573	8421.59
748.911	8499.32
749.25	8505.43
749.589	8524.63
749.928	8638.76
750.267	8676.95
750.605	8707.68
750.944	8801.92
751.283	8857.06
751.621	8947
751.96	9006.2
752.298	9049.59
752.636	9112.42
752.975	9166.2
753.313	9294.56
753.651	9404.39
753.989	9427.21
754.327	9544.04
754.666	9563.03
755.004	9786.75
755.342	9840.76
755.679	10018.61
756.017	10040.75
756.355	10187.42
756.693	10175.21
757.031	10421.99
757.368	10466.96
757.706	10666.73
758.044	10764.12
758.381	10955.31
758.719	11071.69
759.056	11200.95
759.394	11305.13
759.731	11416.31
760.068	11597.1
760.405	11784.66
760.743	11866.47
761.08	12102.39
761.417	12196.63
761.754	12247.02
762.091	12460.35
762.428	12669.84
762.765	12696.5
763.102	12874.8
763.438	13070.05
763.775	13185.3
764.112	13349.14
764.449	13571.06
764.785	13717.94
765.122	13812.86
765.458	13934.66
765.795	14051.49
766.131	14225.28
766.467	14307.31
766.804	14464.37
767.14	14617.81
767.476	14670.69
767.812	14870.68
768.148	14980.06
768.485	15060.96
768.821	15169.21
769.157	15333.5
769.492	15446.03
769.828	15576.2
770.164	15579.14
770.5	15790.88
770.836	15830.43
771.171	15816.42
771.507	16032.01
771.842	16058.22
772.178	16152.23
772.513	16271.32
772.849	16347.93
773.184	16401.04
773.519	16441.49
773.855	16576.63
774.19	16613.24
774.525	16747.47
774.86	16748.15
775.195	16866.56
775.53	16841.03
775.865	16894.36
776.2	16949.05
776.535	16921.7
776.87	17004.41
777.205	17034.92
777.539	17094.13
777.874	17153.11
778.209	17119.44
778.543	17201.47
778.878	17087.8
779.212	17238.53
779.547	17162.15
779.881	17325.53
780.215	17383.61
780.55	17321.47
780.884	17224.29
781.218	17362.37
781.552	17375.25
781.886	17375.02
782.22	17325.99
782.554	17390.62
782.888	17267.46
783.222	17254.57
783.556	17195.37
783.889	17220.23
784.223	17159.21
784.557	17294.57
784.89	17265.42
785.224	17205.08
785.557	17190.17
785.891	17240.56
786.224	17164.18
786.558	17272.65
786.891	17172.54
787.224	17043.73
787.557	16990.85
787.891	17097.74
788.224	17100.68
788.557	17095.71
788.89	17049.16
789.223	17157.4
789.556	16909.27
789.888	16993.11
790.221	16933.91
790.554	16927.58
790.887	16850.29
791.219	16794.02
791.552	16843.06
791.884	16791.76
792.217	16867.01
792.549	16811.65
792.882	16670.41
793.214	16632.9
793.546	16679.67
793.879	16621.37
794.211	16507.48
794.543	16564.42
794.875	16511.54
795.207	16596.51
795.539	16484.2
795.871	16535.27
796.203	16383.64
796.535	16323.98
796.867	16365.11
797.198	16262.28
797.53	16352.45
797.862	16222.29
798.193	16209.86
798.525	16067.26
798.856	16114.94
799.188	15961.95
799.519	15989.07
799.85	15963.76
800.182	15867.94
800.513	15938.68
800.844	15777.78
801.175	15979.58
801.506	15914.5
801.837	15812.13
802.168	15775.52
802.499	15783.2
802.83	15666.37
803.161	15678.12
803.491	15647.61
803.822	15643.32
804.153	15508.18
804.483	15503.21
804.814	15404.91
805.145	15379.14
805.475	15411.23
805.805	15349.77
806.136	15402.87
806.466	15345.47
806.796	15381.4
807.126	15271.8
807.457	15129.21
807.787	15237.45
808.117	15185.48
808.447	15074.07
808.777	15171.01
809.107	15042.88
809.436	15114.97
809.766	15067.51
810.096	14984.8
810.426	14966.27
810.755	14947.52
811.085	14905.48
811.414	14928.08
811.744	14792.72
812.073	14680.18
812.403	14774.64
812.732	14723.12
813.061	14711.59
813.39	14638.15
813.719	14639.05
814.049	14705.72
814.378	14719.27
814.707	14634.53
815.036	14608.77
815.365	14547.08
815.693	14452.16
816.022	14398.83
816.351	14404.48
816.68	14275.22
817.008	14290.36
817.337	14209.68
817.665	14226.18
817.994	14186.18
818.322	14244.03
818.651	14140.08
818.979	14150.93
819.307	14255.33
819.636	14104.83
819.964	14130.36
820.292	14122.45
820.62	14043.59
820.948	14018.28
821.276	14133.07
821.604	14016.24
821.932	14015.56
822.259	14083.13
822.587	14083.81
822.915	14083.58
823.243	14082.68
823.57	13964.72
823.898	14060.99
824.225	13973.53
824.553	14027.31
824.88	13987.77
825.207	14068.67
825.535	14039.97
825.862	14104.83
826.189	14067.54
826.516	14058.5
826.843	14197.71
827.17	14069.12
827.497	14152.06
827.824	14107.09
828.151	14154.77
828.478	14090.82
828.805	14132.4
829.131	14096.01
829.458	14123.36
829.785	14046.52
830.111	14062.34
830.438	14179.18
830.764	14216.46
831.09	14125.39
831.417	14079.06
831.743	14154.09
832.069	14014.66
832.395	13980.08
832.722	14082.45
833.048	13981.21
833.374	14011.72
833.7	13940.54
834.026	13925.85
834.351	13954.32
834.677	13968.56
835.003	13949.8
835.329	13994.55
835.654	14037.03
835.98	13842.01
836.306	13938.73
836.631	13872.29
836.956	13940.09
837.282	13862.57
837.607	13813.31
837.932	13785.97
838.258	13753.65
838.583	13821.9
838.908	13702.35
839.233	13785.97
839.558	13653.09
839.883	13616.25
840.208	13599.3
840.533	13583.03
840.858	13660.77
841.182	13583.71
841.507	13680.66
841.832	13475.01
842.156	13500.77
842.481	13518.4
842.805	13486.99
843.13	13470.72
843.454	13399.76
843.778	13391.17
844.103	13367.45
844.427	13341.01
844.751	13286.77
845.075	13210.61
845.399	13160.44
845.723	13167.22
846.047	13165.42
846.371	13020.11
846.695	13021.01
847.019	12884.52
847.343	12910.96
847.666	12852.2
847.99	12814.47
848.313	12796.84
848.637	12666.45
848.96	12625.77
849.284	12602.95
849.607	12551.65
849.931	12516.17
850.254	12427.58
850.577	12359.79
850.9	12335.16
851.223	12255.38
851.546	12193.24
851.869	12121.83
852.192	12249.73
852.515	12204.31
852.838	12060.59
853.161	12119.12
853.483	11984.2
853.806	11943.08
854.129	11973.36
854.451	11981.04
854.774	11852.68
855.096	11823.08
855.419	11778.11
855.741	11723.19
856.063	11748.28
856.385	11643.2
856.708	11576.76
857.03	11615.85
857.352	11597.1
857.674	11495.18
857.996	11557.1
858.318	11474.16
858.64	11445.46
858.961	11394.16
859.283	11316.65
859.605	11293.15
859.926	11346.93
860.248	11316.88
860.57	11206.15
860.891	11230.55
861.212	11122.76
861.534	11143.32
861.855	11075.08
862.176	11139.93
862.498	11165.02
862.819	11110.1
863.14	11118.24
863.461	11007.06
863.782	10987.39
864.103	11012.25
864.424	10981.52
864.745	10927.96
865.065	10891.58
865.386	10824.69
865.707	10815.2
866.027	10851.13
866.348	10900.84
866.668	10873.05
866.989	10788.76
867.309	10734.97
867.63	10781.07
867.95	10675.76
868.27	10622.43
868.59	10655.65
868.91	10739.72
869.23	10690.45
869.55	10597.35
869.87	10720.51
870.19	10648.42
870.51	10647.74
870.83	10619.27
871.15	10591.25
871.469	10541.98
871.789	10570.46
872.109	10562.1
872.428	10388.09
872.748	10551.93
873.067	10485.49
873.386	10483.23
873.706	10456.34
874.025	10346.96
874.344	10428.31
874.663	10429.9
874.982	10416.11
875.301	10328.43
875.62	10303.34
875.939	10250.92
876.258	10316.9
876.577	10261.99
876.896	10319.62
877.214	10272.39
877.533	10281.65
877.852	10235.78
878.17	10244.14
878.489	10212.73
878.807	10216.34
879.125	10198.49
879.444	10144.25
879.762	10115.1
880.08	10082.79
880.398	10058.83
880.716	10074.2
881.034	9972.05
881.352	10020.87
881.67	9966.63
881.988	10014.31
882.306	9958.27
882.624	9882.34
882.941	9882.11
883.259	9873.07
883.577	9794.88
883.894	9789.23
884.212	9822.45
884.529	9769.57
884.846	9732.96
885.164	9726.18
885.481	9692.74
885.798	9780.65
886.115	9671.72
886.432	9662.46
886.75	9641.44
887.067	9635.57
887.383	9588.56
887.7	9557.6
888.017	9541.56
888.334	9575
888.651	9453.88
888.967	9507.89
889.284	9417.49
889.6	9452.75
889.917	9337.49
890.233	9370.04
890.55	9295.01
890.866	9289.13
891.182	9256.82
891.498	9228.34
891.815	9190.61
892.131	9170.49
892.447	9264.5
892.763	9121
893.079	9132.3
893.395	9066.99
893.71	9026.32
894.026	9057.95
894.342	9040.55
894.657	8972.31
894.973	8896.6
895.289	8939.54
895.604	8920.33
895.92	8785.64
896.235	8781.13
896.55	8737.74
896.865	8784.06
897.181	8718.53
897.496	8758.3
897.811	8663.39
898.126	8601.24
898.441	8674.46
898.756	8553.56
899.071	8530.96
899.386	8554.01
899.7	8518.31
900.015	8458.42
900.33	8381.36
900.644	8417.29
900.959	8361.25
901.273	8335.04
901.588	8308.37
901.902	8274.7
902.216	8226.11
902.531	8244.42
902.845	8234.7
903.159	8133.46
903.473	8053.23
903.787	8127.13
904.101	8031.77
904.415	8053.01
904.729	8023.86
905.042	7977.98
905.356	7923.75
905.67	7904.54
905.984	7885.78
906.297	7915.16
906.611	7790.19
906.924	7807.14
907.237	7726.92
907.551	7775.95
907.864	7663.64
908.177	7712.68
908.491	7606.24
908.804	7627.71
909.117	7521.27
909.43	7495.28
909.743	7493.93
910.056	7428.62
910.368	7425.91
910.681	7467.94
910.994	7420.48
911.307	7380.94
911.619	7294.16
911.932	7272.24
912.244	7242.41
912.557	7252.8
912.869	7149.3
913.181	7167.38
913.494	7179.13
913.806	7057.1
914.118	7119.25
914.43	7022.08
914.742	7040.15
915.054	6983.21
915.366	6979.14
915.678	6918.58
915.99	6919.93
916.302	6829.09
916.613	6850.55
916.925	6805.81
917.236	6796.09
917.548	6747.73
917.859	6805.36
918.171	6709.77
918.482	6675.42
918.794	6663.89
919.105	6627.51
919.416	6591.35
919.727	6582.09
920.038	6590.67
920.349	6534.63
920.66	6451.92
920.971	6489.21
921.282	6471.58
921.593	6423.67
921.903	6375.99
922.214	6372.37
922.525	6343.9
922.835	6294.64
923.146	6280.63
923.456	6265.03
923.767	6245.15
924.077	6234.07
924.387	6181.42
924.697	6157.24
925.008	6184.36
925.318	6154.53
925.628	6118.82
925.938	6049.22
926.248	6058.71
926.558	6066.85
926.867	6054.87
927.177	5977.13
927.487	5942.56
927.796	5889
928.106	5888.55
928.416	5923.35
928.725	5865.5
929.034	5812.16
929.344	5782.33
929.653	5835.89
929.962	5760.41
930.271	5741.2
930.581	5693.75
930.89	5654.65
931.199	5659.63
931.508	5644.03
931.817	5698.95
932.125	5623.69
932.434	5586.41
932.743	5580.53
933.051	5533.07
933.36	5482.91
933.669	5465.05
933.977	5460.53
934.286	5447.2
934.594	5425.06
934.902	5369.92
935.21	5353.42
935.519	5268.68
935.827	5326.07
936.135	5288.56
936.443	5295.12
936.751	5293.31
937.059	5197.26
937.367	5172.63
937.674	5197.72
937.982	5170.82
938.29	5144.38
938.597	5151.16
938.905	5042.01
939.213	5039.75
939.52	5056.25
939.827	5041.56
940.135	5058.51
940.442	5013.54
940.749	4980.1
941.056	4980.32
941.363	4904.62
941.67	4914.11
941.977	4862.58
942.284	4842.02
942.591	4833.88
942.898	4832.75
943.205	4801.12
943.511	4816.03
943.818	4770.16
944.125	4752.53
944.431	4671.4
944.738	4694.45
945.044	4662.82
945.35	4648.58
945.657	4643.15
945.963	4646.54
946.269	4605.19
946.575	4574.46
946.881	4543.95
947.187	4586.43
947.493	4517.06
947.799	4489.49
948.105	4483.16
948.41	4425.76
948.716	4458.53
949.022	4426.89
949.327	4419.21
949.633	4363.39
949.938	4343.28
950.244	4402.94
950.549	4341.47
950.854	4295.82
951.16	4272.99
951.465	4281.36
951.77	4287.68
952.075	4218.53
952.38	4254.69
952.685	4218.31
952.99	4195.26
953.294	4201.58
953.599	4153.22
953.904	4156.61
954.209	4152.32
954.513	4147.57
954.818	4119.55
955.122	4030.74
955.426	4045.88
955.731	4042.27
956.035	3988.03
956.339	3981.7
956.643	3966.56
956.948	3938.54
957.252	3938.77
957.556	3956.17
957.86	3928.82
958.163	3932.66
958.467	3847.24
958.771	3869.16
959.075	3896.96
959.378	3817.19
959.682	3819.9
959.985	3832.1
960.289	3785.32
960.592	3738.09
960.896	3753.69
961.199	3743.52
961.502	3738.32
961.805	3727.92
962.108	3677.76
962.411	3675.95
962.714	3670.75
963.017	3637.98
963.32	3664.42
963.623	3607.48
963.926	3598.21
964.228	3590.53
964.531	3586.69
964.833	3530.64
965.136	3497.42
965.438	3532.22
965.741	3501.04
966.043	3467.82
966.345	3442.73
966.648	3491.32
966.95	3479.12
967.252	3431.89
967.554	3419.01
967.856	3414.94
968.158	3395.96
968.46	3380.36
968.761	3347.6
969.063	3310.31
969.365	3340.36
969.666	3322.96
969.968	3293.81
970.269	3319.35
970.571	3263.3
970.872	3220.59
971.174	3228.05
971.475	3244.55
971.776	3216.75
972.077	3179.46
972.378	3173.14
972.679	3158.22
972.98	3193.25
973.281	3146.92
973.582	3135.4
973.883	3163.42
974.183	3121.39
974.484	3114.61
974.785	3138.79
975.085	3063.31
975.386	3052.24
975.686	3056.98
975.986	3026.7
976.287	3004.1
976.587	2986.48
976.887	2991.45
977.187	2985.8
977.487	2964.1
977.787	2942.86
978.087	2948.06
978.387	2967.94
978.687	2928.62
978.987	2838.46
979.286	2868.96
979.586	2870.77
979.885	2856.08
980.185	2843.65
980.484	2822.64
980.784	2797.1
981.083	2800.04
981.382	2816.54
981.682	2743.32
981.981	2741.74
982.28	2750.32
982.579	2717.78
982.878	2733.37
983.177	2691.57
983.475	2687.5
983.774	2659.25
984.073	2626.71
984.372	2664.68
984.67	2656.09
984.969	2623.09
985.267	2617.67
985.566	2598.24
985.864	2611.57
986.162	2617.9
986.461	2558.24
986.759	2563.66
987.057	2557.11
987.355	2516.88
987.653	2540.39
987.951	2526.37
988.249	2514.4
988.547	2497.22
988.844	2473.95
989.142	2489.77
989.44	2488.86
989.737	2474.62
990.035	2453.38
990.332	2425.36
990.63	2416.55
990.927	2413.83
991.224	2407.28
991.521	2377
991.819	2339.03
992.116	2362.08
992.413	2339.26
992.71	2360.95
993.006	2330.67
993.303	2297
993.6	2292.26
993.897	2302.2
994.193	2304.01
994.49	2315.08
994.787	2285.93
995.083	2240.73
995.379	2248.19
995.676	2237.12
995.972	2221.75
996.268	2220.85
996.565	2196.44
996.861	2202.77
997.157	2186.04
997.453	2173.84
997.749	2175.87
998.044	2125.93
998.34	2140.4
998.636	2116.22
998.932	2109.21
999.227	2119.15
999.523	2090.23
999.818	2091.13
1000.114	2072.37
1000.409	2064.69
1000.704	2057.69
1001	2025.6
1001.295	2047.97
1001.59	1992.83
1001.885	2011.81
1002.18	1990.12
1002.475	2000.06
1002.77	1975.43
1003.065	1946.28
1003.359	1944.47
1003.654	1937.24
1003.949	1942.21
1004.243	1935.2
1004.538	1882.1
1004.832	1900.63
1005.127	1904.24
1005.421	1883.45
1005.715	1879.84
1006.009	1863.34
1006.304	1832.83
1006.598	1819.95
1006.892	1823.57
1007.186	1820.18
1007.48	1804.13
1007.773	1792.61
1008.067	1777.47
1008.361	1746.28
1008.655	1744.25
1008.948	1779.95
1009.242	1745.38
1009.535	1720.75
1009.829	1731.59
1010.122	1689.79
1010.415	1702.67
1010.708	1720.97
1011.001	1743.34
1011.295	1686.4
1011.588	1664.02
1011.881	1679.62
1012.173	1627.64
1012.466	1614.76
1012.759	1631.71
1013.052	1602.1
1013.344	1620.86
1013.637	1626.74
1013.93	1595.1
1014.222	1594.42
1014.514	1565.04
1014.807	1563.01
1015.099	1559.39
1015.391	1555.1
1015.683	1543.12
1015.976	1542.67
1016.268	1547.19
1016.56	1491.6
1016.851	1479.85
1017.143	1476.91
1017.435	1475.55
1017.727	1495.21
1018.018	1473.97
1018.31	1458.61
1018.602	1435.1
1018.893	1425.61
1019.185	1433.3
1019.476	1433.97
1019.767	1424.03
1020.058	1410.25
1020.35	1375.67
1020.641	1390.13
1020.932	1378.38
1021.223	1374.09
1021.514	1339.06
1021.804	1347.42
1022.095	1337.48
1022.386	1317.59
1022.677	1295.22
1022.967	1313.07
1023.258	1318.5
1023.548	1283.47
1023.839	1271.72
1024.129	1271.04
1024.419	1263.13
1024.709	1270.36
1025	1232.17
1025.29	1247.54
1025.58	1223.13
1025.87	1210.7
1026.16	1223.81
1026.449	1201.44
1026.739	1202.79
1027.029	1176.13
1027.319	1217.03
1027.608	1182.23
1027.898	1136.81
1028.187	1149.69
1028.477	1145.85
1028.766	1153.75
1029.055	1150.59
1029.344	1113.76
1029.634	1125.51
1029.923	1136.35
1030.212	1113.08
1030.501	1098.84
1030.79	1107.88
1031.078	1092.06
1031.367	1091.16
1031.656	1083.7
1031.945	1096.81
1032.233	1074.66
1032.522	1079.63
1032.81	1032.85
1033.099	1039.86
1033.387	1036.24
1033.675	1026.3
1033.963	1024.04
1034.251	1028.33
1034.54	1012.97
1034.828	998.28
1035.116	1015.45
1035.403	1011.16
1035.691	967.32
1035.979	982.91
1036.267	1006.87
1036.554	943.59
1036.842	948.34
1037.129	953.76
1037.417	944.49
1037.704	951.95
1037.992	934.55
1038.279	950.82
1038.566	901.56
1038.853	901.56
1039.14	901.56
