Data from hue_350_FLMS001491_44.txt Node
Date: Mon Feb 06 15:38:04 GMT 2017
User: dcchb
Spectrometer: FLMS00149
Trigger mode: 0
Integration Time (sec): 2.000000E-2
Scans to average: 10
Electric dark correction enabled: true
Nonlinearity correction enabled: false
Boxcar width: 0
XAxis mode: Wavelengths
Number of Pixels in Spectrum: 2048
>>>>>Begin Spectral Data<<<<<
341.393	-14.43
341.776	-14.43
342.16	-14.43
342.543	-56.24
342.927	-57.15
343.31	-76.81
343.693	-74.77
344.077	-56.69
344.46	-60.99
344.843	-54.66
345.226	-30.93
345.61	-47.65
345.993	0.03
346.376	-3.81
346.759	-6.07
347.142	28.28
347.525	47.71
347.908	57.2
348.291	78.22
348.674	79.12
349.057	121.83
349.44	122.74
349.823	136.75
350.206	190.31
350.588	187.82
350.971	205.9
351.354	203.86
351.737	222.62
352.119	259
352.502	275.73
352.884	261.72
353.267	269.17
353.65	276.63
354.032	287.25
354.414	301.04
354.797	310.08
355.179	301.49
355.562	307.14
355.944	313.69
356.326	321.83
356.709	329.74
357.091	322.51
357.473	343.07
357.855	339.23
358.238	350.53
358.62	341.04
359.002	363.41
359.384	359.79
359.766	342.17
360.148	325.44
360.53	339.68
360.912	349.4
361.294	349.17
361.676	336.52
362.057	346.69
362.439	330.19
362.821	334.71
363.203	343.97
363.584	315.27
363.966	321.6
364.348	320.92
364.729	327.7
365.111	312.34
365.493	321.15
365.874	318.66
366.256	322.28
366.637	308.72
367.019	313.47
367.4	315.73
367.781	306.23
368.163	282.73
368.544	316.86
368.925	303.52
369.306	292.9
369.688	316.18
370.069	314.14
370.45	304.2
370.831	314.14
371.212	326.35
371.593	305.1
371.974	320.47
372.355	314.6
372.736	314.6
373.117	307.14
373.498	300.81
373.879	311.66
374.26	316.86
374.641	315.5
375.021	316.18
375.402	333.35
375.783	314.37
376.163	329.29
376.544	311.43
376.925	317.53
377.305	315.95
377.686	323.41
378.066	327.48
378.447	318.44
378.827	326.8
379.208	327.93
379.588	326.35
379.968	324.54
380.349	345.78
380.729	321.83
381.109	334.48
381.489	339.68
381.87	326.57
382.25	347.82
382.63	356.86
383.01	338.32
383.39	339
383.77	339.23
384.15	337.87
384.53	329.51
384.91	336.06
385.29	352.11
385.67	331.09
386.049	324.31
386.429	342.62
386.809	322.51
387.189	353.69
387.568	344.43
387.948	351.88
388.328	352.56
388.707	339.23
389.087	346.69
389.466	351.66
389.846	347.36
390.225	369.06
390.605	359.57
390.984	369.74
391.363	350.3
391.743	358.66
392.122	381.49
392.501	351.66
392.881	373.35
393.26	340.36
393.639	361.83
394.018	362.28
394.397	356.18
394.776	364.31
395.155	365.67
395.534	365.22
395.913	361.15
396.292	350.75
396.671	369.51
397.05	373.13
397.429	401.15
397.808	361.15
398.186	366.57
398.565	371.32
398.944	397.08
399.323	374.48
399.701	385.78
400.08	367.93
400.458	372.9
400.837	399.57
401.215	416.51
401.594	383.75
401.972	389.85
402.351	396.18
402.729	398.21
403.107	390.3
403.486	394.37
403.864	397.31
404.242	404.54
404.62	410.41
404.999	419.23
405.377	406.12
405.755	411.54
406.133	410.64
406.511	407.93
406.889	410.41
407.267	411.54
407.645	420.58
408.023	400.02
408.401	435.5
408.779	398.44
409.156	423.29
409.534	432.33
409.912	428.04
410.29	449.51
410.667	433.92
411.045	441.6
411.422	455.16
411.8	436.17
412.178	455.61
412.555	453.58
412.933	464.87
413.31	446.8
413.687	475.27
414.065	451.32
414.442	459.23
414.819	480.92
415.197	473.01
415.574	458.32
415.951	468.26
416.328	478.66
416.705	484.99
417.082	482.73
417.46	460.81
417.837	514.37
418.214	492.44
418.591	489.51
418.967	500.58
419.344	504.42
419.721	522.27
420.098	507.13
420.475	505.78
420.852	522.27
421.228	523.18
421.605	512.33
421.982	512.56
422.358	525.21
422.735	520.47
423.111	535.38
423.488	537.87
423.864	532.44
424.241	544.19
424.617	543.97
424.994	559.11
425.37	552.78
425.746	548.49
426.123	577.64
426.499	586.45
426.875	562.95
427.251	603.18
427.627	556.62
428.003	605.44
428.379	617.19
428.756	604.76
429.132	607.47
429.507	610.41
429.883	587.81
430.259	604.08
430.635	612.67
431.011	619.22
431.387	625.77
431.763	622.38
432.138	646.11
432.514	652.44
432.89	645.66
433.265	644.53
433.641	670.75
434.016	659.45
434.392	680.24
434.767	691.76
435.143	667.58
435.518	666.9
435.894	682.95
436.269	710.97
436.644	702.38
437.02	688.6
437.395	699.9
437.77	719.56
438.145	712.55
438.52	741.03
438.895	718.65
439.271	725.21
439.646	741.7
440.021	722.95
440.395	748.26
440.77	721.37
441.145	746.9
441.52	757.75
441.895	756.39
442.27	761.82
442.645	789.16
443.019	785.77
443.394	756.62
443.769	777.63
444.143	764.98
444.518	789.16
444.892	776.73
445.267	792.55
445.641	783.96
446.016	769.73
446.39	804.07
446.764	813.11
447.139	793.68
447.513	794.13
447.887	813.34
448.262	831.87
448.636	807.24
449.01	828.48
449.384	850.63
449.758	822.61
450.132	840.46
450.506	857.41
450.88	866.67
451.254	866.45
451.628	847.24
452.002	869.38
452.376	840.68
452.75	884.52
453.123	895.37
453.497	892.21
453.871	886.56
454.244	901.47
454.618	893.34
454.992	890.17
455.365	904.41
455.739	945.09
456.112	965.2
456.486	951.64
456.859	975.37
457.232	988.7
457.606	970.62
457.979	960
458.352	1018.98
458.725	1000.23
459.099	1012.66
459.472	1009.49
459.845	1001.36
460.218	1031.87
460.591	1049.49
460.964	1047.01
461.337	1081.36
461.71	1100.56
462.083	1087.68
462.456	1072.32
462.829	1067.34
463.201	1109.15
463.574	1093.56
463.947	1110.73
464.32	1147.12
464.692	1152.77
465.065	1148.02
465.438	1137.63
465.81	1171.07
466.183	1176.95
466.555	1214.01
466.928	1220.11
467.3	1213.78
467.672	1247
468.045	1236.83
468.417	1256.27
468.789	1257.62
469.161	1251.52
469.534	1315.93
469.906	1332.87
470.278	1334.23
470.65	1352.76
471.022	1370.61
471.394	1371.52
471.766	1370.84
472.138	1413.78
472.51	1430.95
472.882	1445.41
473.253	1477.73
473.625	1506.43
473.997	1532.42
474.369	1538.52
474.74	1537.16
475.112	1565.86
475.484	1583.49
475.855	1638.86
476.227	1637.95
476.598	1673.66
476.97	1700.55
477.341	1746.2
477.713	1775.35
478.084	1779.19
478.455	1815.57
478.827	1809.02
479.198	1842.92
479.569	1898.51
479.94	1952.97
480.311	1958.17
480.682	2004.27
481.053	2045.17
481.424	2067.09
481.795	2098.96
482.166	2114.1
482.537	2130.37
482.908	2187.54
483.279	2222.34
483.65	2212.63
484.021	2270.25
484.391	2308.89
484.762	2335.11
485.133	2351.83
485.503	2428.21
485.874	2466.86
486.244	2481.77
486.615	2513.63
486.985	2552.05
487.356	2605.61
487.726	2608.55
488.097	2648.77
488.467	2683.35
488.837	2715.89
489.207	2774.64
489.578	2813.97
489.948	2848.99
490.318	2886.51
490.688	2876.34
491.058	2910.23
491.428	2971.93
491.798	2999.72
492.168	3047.18
492.538	3070.91
492.908	3127.63
493.278	3154.97
493.648	3191.81
494.017	3230.9
494.387	3248.08
494.757	3269.55
495.126	3258.02
495.496	3293.95
495.866	3335.53
496.235	3386.15
496.605	3370.79
496.974	3428.41
497.344	3478.58
497.713	3512.7
498.082	3485.81
498.452	3497.11
498.821	3561.97
499.19	3552.25
499.559	3544.34
499.928	3612.59
500.298	3654.62
500.667	3621.18
501.036	3661.85
501.405	3696.88
501.774	3708.63
502.143	3720.38
502.512	3764
502.88	3764.9
503.249	3789.76
503.618	3765.58
503.987	3773.49
504.356	3823.43
504.724	3879.25
505.093	3873.15
505.462	3875.86
505.83	3895.97
506.199	3908.63
506.567	3975.06
506.936	3977.32
507.304	3999.02
507.672	4049.41
508.041	4046.93
508.409	4036.31
508.777	4066.36
509.145	4080.82
509.514	4102.75
509.882	4110.88
510.25	4148.39
510.618	4133.93
510.986	4155.17
511.354	4233.82
511.722	4221.16
512.09	4277.88
512.458	4248.28
512.826	4296.19
513.193	4288.96
513.561	4283.76
513.929	4284.66
514.297	4272.23
514.664	4350.42
515.032	4400.36
515.4	4304.55
515.767	4391.55
516.135	4419.35
516.502	4412.79
516.869	4477.42
517.237	4412.57
517.604	4465.9
517.972	4469.29
518.339	4475.16
518.706	4499.8
519.073	4471.32
519.44	4503.41
519.808	4525.56
520.175	4556.07
520.542	4624.54
520.909	4643.07
521.276	4542.06
521.643	4633.8
522.009	4653.69
522.376	4683.75
522.743	4693.01
523.11	4723.52
523.477	4714.71
523.843	4770.07
524.21	4840.13
524.577	4839
524.943	4902.5
525.31	4865.44
525.676	4872.89
526.043	4912.89
526.409	4918.99
526.776	4975.26
527.142	4986.34
527.508	5010.29
527.874	5043.96
528.241	5083.06
528.607	5082.38
528.973	5178.65
529.339	5076.05
529.705	5113.34
530.071	5144.98
530.437	5238.99
530.803	5248.7
531.169	5223.17
531.535	5269.72
531.901	5257.52
532.267	5283.51
532.632	5332.32
532.998	5361.24
533.364	5436.72
533.73	5395.59
534.095	5452.09
534.461	5395.82
534.826	5535.93
535.192	5477.17
535.557	5498.64
535.923	5538.87
536.288	5574.12
536.653	5581.12
537.019	5534.35
537.384	5595.14
537.749	5626.32
538.114	5645.3
538.479	5668.35
538.845	5675.13
539.21	5732.31
539.575	5767.56
539.94	5798.07
540.305	5752.87
540.67	5755.58
541.034	5859.99
541.399	5842.59
541.764	5915.8
542.129	5879.65
542.494	5856.37
542.858	5970.72
543.223	5954.45
543.587	6030.83
543.952	5979.31
544.316	6052.98
544.681	6040.77
545.045	6073.54
545.41	6165.06
545.774	6086.65
546.138	6174.56
546.503	6185.18
546.867	6205.51
547.231	6236.02
547.595	6214.78
547.959	6217.72
548.324	6283.93
548.688	6307.43
549.052	6325.29
549.416	6320.99
549.779	6302.91
550.143	6410.03
550.507	6382.91
550.871	6416.81
551.235	6373.87
551.599	6535.9
551.962	6490.25
552.326	6570.7
552.689	6517.82
553.053	6541.55
553.417	6495.68
553.78	6657.25
554.143	6622.45
554.507	6647.31
554.87	6623.58
555.234	6697.71
555.597	6650.02
555.96	6721.66
556.323	6689.12
556.686	6735.22
557.05	6759.62
557.413	6784.03
557.776	6819.74
558.139	6857.93
558.502	6850.92
558.865	6844.14
559.228	6921.43
559.59	6885.5
559.953	6949.22
560.316	7018.83
560.679	7021.31
561.041	7050.92
561.404	7060.63
561.767	7111.03
562.129	7035.32
562.492	7167.52
562.854	7119.16
563.217	7099.28
563.579	7147.41
563.941	7249.56
564.304	7214.75
564.666	7245.26
565.028	7289.78
565.39	7313.28
565.753	7358.03
566.115	7347.41
566.477	7403.22
566.839	7461.53
567.201	7513.28
567.563	7464.46
567.925	7509.66
568.287	7455.88
568.648	7503.33
569.01	7588.08
569.372	7581.52
569.734	7595.08
570.095	7695.87
570.457	7706.72
570.819	7708.75
571.18	7810.67
571.542	7749.65
571.903	7799.37
572.265	7896.09
572.626	7915.98
572.987	7952.81
573.349	8024.68
573.71	8046.6
574.071	8048.4
574.432	8134.5
574.794	8184.67
575.155	8254.27
575.516	8275.74
575.877	8349.87
576.238	8420.15
576.599	8488.39
576.96	8515.74
577.32	8595.06
577.681	8654.72
578.042	8734.94
578.403	8799.8
578.763	8853.35
579.124	8984.65
579.485	9083.18
579.845	9175.15
580.206	9245.43
580.566	9346.68
580.927	9487.01
581.287	9586.89
581.648	9636.39
582.008	9852.2
582.368	9953.21
582.728	10073.21
583.089	10197.95
583.449	10338.06
583.809	10463.71
584.169	10660.54
584.529	10760.65
584.889	11020.3
585.249	11211.03
585.609	11263.46
585.969	11507.52
586.329	11702.32
586.688	11855.31
587.048	12064.12
587.408	12286.71
587.768	12452.58
588.127	12679.47
588.487	12881.95
588.846	13314.48
589.206	13335.95
589.565	13545.89
589.925	13930.96
590.284	14045.08
590.643	14369.59
591.003	14664.5
591.362	14852.29
591.721	15118.27
592.08	15318.72
592.44	15812.95
592.799	15980.4
593.158	16197.57
593.517	16467.17
593.876	16851.56
594.235	17034.61
594.593	17378.78
594.952	17724.53
595.311	17962.04
595.67	18223.96
596.029	18619.43
596.387	18933.32
596.746	19296.24
597.104	19437.03
597.463	19814.65
597.822	20073.17
598.18	20241.3
598.538	20438.59
598.897	20910.21
599.255	21079.25
599.613	21646.69
599.972	21719.91
600.33	22090.97
600.688	22294.81
601.046	22668.58
601.404	23102.47
601.762	23271.96
602.12	23570.93
602.478	23924.37
602.836	24096.34
603.194	24251.14
603.552	24665.59
603.91	24806.61
604.268	25164.56
604.625	25351
604.983	25655.4
605.341	25882.29
605.698	26227.14
606.056	26394.14
606.413	26693.79
606.771	26943.5
607.128	27319.99
607.485	27235.92
607.843	27631.62
608.2	27946.19
608.557	28316.57
608.914	28329.68
609.272	28597.24
609.629	28923.11
609.986	29147.96
610.343	29314.74
610.7	29661.62
611.057	29850.99
611.414	30023.19
611.771	30192.91
612.127	30506.34
612.484	30611.43
612.841	30937.52
613.198	31003.51
613.554	31216.16
613.911	31465.64
614.267	31671.74
614.624	31699.53
614.98	32002.58
615.337	32354.21
615.693	32263.81
616.05	32590.58
616.406	32837.58
616.762	32747.42
617.118	32969.33
617.475	33019.73
617.831	33215.65
618.187	33446.61
618.543	33544.91
618.899	33845.24
619.255	33989.87
619.611	34078
619.967	34315.51
620.323	34472.57
620.678	34365
621.034	34431.21
621.39	34602.96
621.746	34549.4
622.101	35182.61
622.457	34942.16
622.812	35177.86
623.168	35325.65
623.523	35485.87
623.879	35544.4
624.234	35411.3
624.589	35564.74
624.945	35640.67
625.3	35788.01
625.655	35806.54
626.01	35989.59
626.365	36121.56
626.72	36101.23
627.075	36091.28
627.43	36155.24
627.785	36337.38
628.14	36415.34
628.495	36327.66
628.85	36455.57
629.205	36404.72
629.559	36602.46
629.914	36656.92
630.269	36675.9
630.623	36522.68
630.978	36608.11
631.332	36744.82
631.687	36838.38
632.041	36704.83
632.396	36921.32
632.75	36787.76
633.104	36968.77
633.459	36747.54
633.813	36807.2
634.167	36860.98
634.521	36761.55
634.875	36876.8
635.229	36940.75
635.583	36731.04
635.937	36846.97
636.291	36859.4
636.645	36915.44
636.999	36961.99
637.352	36912.05
637.706	36785.73
638.06	36952.28
638.413	36837.25
638.767	36809.91
639.121	36770.81
639.474	36752.28
639.828	36716.35
640.181	36858.04
640.534	36859.62
640.888	36732.62
641.241	36603.13
641.594	36633.64
641.947	36773.98
642.301	36695.56
642.654	36688.33
643.007	36745.95
643.36	36772.17
643.713	36821.21
644.066	36925.16
644.419	36800.42
644.771	36439.97
645.124	36169.7
645.477	36208.79
645.83	35967.22
646.182	35816.26
646.535	35580.79
646.888	35778.3
647.24	35562.48
647.593	35957.05
647.945	35774.91
648.298	35553.22
648.65	35561.58
649.002	35505.08
649.355	35599.54
649.707	35528.81
650.059	35675.25
650.411	36126.99
650.763	36124.28
651.115	36463.93
651.467	36380.54
651.819	36316.14
652.171	36308.45
652.523	36349.13
652.875	36279.53
653.227	36091.28
653.578	36393.2
653.93	36322.69
654.282	36210.83
654.633	36210.6
654.985	36178.29
655.337	36163.37
655.688	36162.02
656.039	36228.91
656.391	36027.1
656.742	36070.04
657.094	36152.98
657.445	36206.31
657.796	36099.19
658.147	36105.75
658.498	36106.42
658.849	36241.34
659.2	36147.33
659.551	36011.51
659.902	36179.87
660.253	36101.9
660.604	36173.09
660.955	35879.54
661.306	36132.64
661.656	36053.09
662.007	36060.77
662.358	35967.9
662.708	36056.71
663.059	36075.92
663.409	35722.7
663.76	36014.45
664.11	35928.8
664.461	36050.83
664.811	36037.95
665.161	35948.24
665.511	35833.44
665.862	35899.88
666.212	36016.71
666.562	36032.75
666.912	35892.42
667.262	35858.52
667.612	35977.39
667.962	35927.9
668.312	35832.08
668.662	36081.57
669.011	36000.89
669.361	35936.94
669.711	35930.38
670.06	35851.06
670.41	35811.52
670.76	35719.09
671.109	35915.24
671.459	35904.85
671.808	35757.96
672.157	35901.46
672.507	35589.6
672.856	35672.76
673.205	35730.16
673.554	35752.99
673.904	35592.99
674.253	35938.07
674.602	35702.37
674.951	35208.14
675.3	35021.25
675.649	35669.82
675.998	35597.96
676.346	35638.19
676.695	35575.82
677.044	35396.61
677.393	35556.38
677.741	35614.69
678.09	35442.03
678.438	35390.51
678.787	35494.24
679.135	35504.86
679.484	35194.13
679.832	35409.94
680.181	35050.63
680.529	35267.58
680.877	35006.11
681.225	35104.42
681.573	35265.32
681.922	35090.63
682.27	34978.09
682.618	34964.31
682.966	34917.75
683.314	34884.08
683.661	34768.15
684.009	34682.51
684.357	34751.66
684.705	34625.78
685.053	34489.06
685.4	34668.95
685.748	34282.74
686.095	34333.14
686.443	34219.47
686.79	34239.58
687.138	34270.54
687.485	34268.28
687.832	34071.45
688.18	34134.95
688.527	34019.25
688.874	34037.1
689.221	33939.47
689.568	33870.78
689.915	33720.5
690.262	33784.45
690.609	33725.47
690.956	33619.94
691.303	33572.03
691.65	33450.67
691.997	33303.56
692.344	33227.63
692.69	33270.11
693.037	33221.3
693.383	32941.53
693.73	33040.97
694.077	32835.1
694.423	32835.55
694.769	32749.68
695.116	32602.11
695.462	32651.37
695.808	32494.09
696.155	32582.67
696.501	32343.13
696.847	32406.18
697.193	32081.67
697.539	32210.03
697.885	32027.66
698.231	31893.65
698.577	31909.02
698.923	31945.85
699.269	31686.88
699.614	31537.28
699.96	31576.6
700.306	31621.57
700.651	31495.7
700.997	31277.85
701.342	31301.35
701.688	31208.02
702.033	31107.68
702.379	31020.91
702.724	30925.54
703.069	30972.55
703.415	30702.72
703.76	30682.61
704.105	30820.91
704.45	30702.27
704.795	30407.59
705.14	30304.99
705.485	30373.69
705.83	30181.38
706.175	30404.2
706.52	30167.37
706.865	30165.34
707.209	30005.79
707.554	29992.01
707.899	30069.07
708.243	29836.08
708.588	29847.38
708.932	29519.93
709.277	29614.84
709.621	29589.08
709.966	29525.35
710.31	29569.42
710.654	29320.39
710.998	29333.95
711.342	29331.46
711.687	29215.76
712.031	29111.58
712.375	29089.66
712.719	29081.98
713.063	29009.43
713.407	29048.98
713.75	28795.88
714.094	28818.03
714.438	28813.51
714.782	28826.16
715.125	28739.16
715.469	28733.28
715.812	28501.2
716.156	28274.99
716.499	28448.55
716.843	28457.81
717.186	28308.21
717.53	28383.46
717.873	28411.71
718.216	28259.85
718.559	28178.5
718.902	28023.92
719.246	28002.68
719.589	27852.86
719.932	27825.29
720.275	27838.39
720.617	27873.65
720.96	27791.39
721.303	27835.68
721.646	27733.31
721.989	27587.1
722.331	27723.59
722.674	27468.91
723.016	27716.59
723.359	27405.86
723.701	27446.54
724.044	27303.27
724.386	27308.69
724.729	27281.34
725.071	27443.83
725.413	27249.48
725.755	27181.23
726.097	27141.24
726.439	27068.24
726.782	27005.87
727.124	27138.52
727.465	26961.81
727.807	26842.03
728.149	26881.13
728.491	26768.59
728.833	26786.22
729.175	26664.41
729.516	26646.11
729.858	26669.61
730.199	26586.9
730.541	26558.65
730.882	26522.27
731.224	26621.93
731.565	26440.69
731.906	26467.13
732.248	26469.16
732.589	26233.46
732.93	26283.63
733.271	26221.49
733.612	26248.6
733.953	26306.68
734.294	26109.62
734.635	26042.73
734.976	26051.55
735.317	25978.33
735.658	25890.19
735.999	26011.32
736.339	25899.69
736.68	25882.96
737.021	25848.84
737.361	25729.97
737.702	25943.53
738.042	25772.23
738.383	25642.29
738.723	25705.79
739.063	25540.15
739.404	25743.98
739.744	25616.53
740.084	25485.69
740.424	25531.56
740.764	25417.21
741.104	25417.89
741.444	25373.82
741.784	25302.19
742.124	25346.48
742.464	25356.42
742.804	25296.31
743.143	25242.98
743.483	25244.56
743.823	25009.99
744.162	25047.05
744.502	25046.83
744.841	24906.27
745.181	25008.64
745.52	24920.28
745.86	24961.18
746.199	24876.66
746.538	24773.84
746.877	25033.04
747.216	24857
747.556	24758.47
747.895	24766.83
748.234	24659.72
748.573	24670.11
748.911	24685.48
749.25	24568.65
749.589	24399.39
749.928	24581.3
750.267	24562.09
750.605	24464.47
750.944	24435.32
751.283	24287.07
751.621	24355.77
751.96	24315.1
752.298	24285.27
752.636	24248.88
752.975	24096.57
753.313	24055.67
753.651	24168.88
753.989	24007.08
754.327	23885.5
754.666	23815.22
755.004	23809.57
755.342	23807.76
755.679	23850.47
756.017	23709.91
756.355	23789.23
756.693	23643.02
757.031	23669.01
757.368	23507.88
757.706	23422.01
758.044	23351.28
758.381	23302.01
758.719	23298.62
759.056	23223.15
759.394	23164.16
759.731	23094.56
760.068	22970.95
760.405	22996.71
760.743	22900.67
761.08	23024.06
761.417	22800.33
761.754	22737.74
762.091	22721.46
762.428	22559.44
762.765	22565.76
763.102	22572.09
763.438	22375.26
763.775	22256.62
764.112	22363.73
764.449	22343.17
764.785	22186.34
765.122	22032.44
765.458	22088.49
765.795	21966.23
766.131	21909.06
766.467	21879.9
766.804	21794.26
767.14	21750.19
767.476	21589.07
767.812	21574.38
768.148	21576.41
768.485	21361.05
768.821	21305.46
769.157	21367.83
769.492	21229.07
769.828	21207.61
770.164	21127.83
770.5	20913.15
770.836	20987.27
771.171	20869.08
771.507	20849.2
771.842	20719.48
772.178	20676.32
772.513	20599.71
772.849	20536.21
773.184	20438.81
773.519	20362.43
773.855	20270.46
774.19	20235.2
774.525	20144.36
774.86	20207.18
775.195	20130.8
775.53	19982.1
775.865	19945.04
776.2	19783.46
776.535	19762.9
776.87	19672.73
777.205	19663.01
777.539	19504.15
777.874	19496.46
778.209	19359.75
778.543	19431.61
778.878	19239.07
779.212	19269.8
779.547	19266.64
779.881	19137.6
780.215	19018.51
780.55	18996.82
780.884	18820.32
781.218	18780.55
781.552	18882.47
781.886	18740.1
782.22	18691.06
782.554	18625.53
782.888	18398.19
783.222	18430.73
783.556	18274.58
783.889	18160
784.223	18059.89
784.557	17988.03
784.89	18074.36
785.224	17943.06
785.557	17806.57
785.891	17825.32
786.224	17795.49
786.558	17698.55
786.891	17617.19
787.224	17574.03
787.557	17477.53
787.891	17463.07
788.224	17453.58
788.557	17411.77
788.89	17365
789.223	17331.78
789.556	17222.17
789.888	17156.41
790.221	17124.78
790.554	16960.03
790.887	16995.06
791.219	16908.06
791.552	16871.68
791.884	16746.25
792.217	16751.45
792.549	16656.54
792.882	16574.73
793.214	16466.49
793.546	16568.86
793.879	16391.46
794.211	16294.97
794.543	16391.91
794.875	16328.64
795.207	16331.8
795.539	16164.35
795.871	16223.1
796.203	16028.53
796.535	15948.31
796.867	15865.15
797.198	15965.03
797.53	15944.47
797.862	15817.01
798.193	15816.11
798.525	15753.06
798.856	15748.54
799.188	15627.41
799.519	15468.77
799.85	15450.92
800.182	15481.43
800.513	15470.13
800.844	15319.4
801.175	15341.77
801.506	15325.5
801.837	15290.25
802.168	15119.18
802.499	15218.84
802.83	15062.01
803.161	15014.1
803.491	15012.97
803.822	14967.32
804.153	14964.61
804.483	14770.04
804.814	14676.93
805.145	14723.48
805.475	14732.97
805.805	14665.63
806.136	14624.05
806.466	14667.44
806.796	14675.8
807.126	14469.48
807.457	14431.29
807.787	14475.13
808.117	14408.69
808.447	14257.28
808.777	14391.51
809.107	14258.41
809.436	14199.65
809.766	14177.28
810.096	14188.58
810.426	14124.63
810.755	14111.97
811.085	14069.04
811.414	13952.43
811.744	13942.94
812.073	13869.27
812.403	13928.02
812.732	13894.35
813.061	13830.17
813.39	13791.76
813.719	13692.78
814.049	13830.4
814.378	13689.16
814.707	13684.41
815.036	13661.59
815.365	13590.86
815.693	13510.63
816.022	13489.84
816.351	13344.54
816.68	13408.72
817.008	13425.21
817.337	13267.25
817.665	13256.63
817.994	13330.53
818.322	13264.09
818.651	13152.68
818.979	13112.45
819.307	13243.07
819.636	13153.13
819.964	13039.01
820.292	13175.5
820.62	13130.76
820.948	13028.39
821.276	13112.23
821.604	13115.62
821.932	13027.26
822.259	13038.1
822.587	12980.7
822.915	12990.65
823.243	13071.32
823.57	12919.91
823.898	12971.66
824.225	12953.36
824.553	12865.68
824.88	12933.7
825.207	12937.77
825.535	13003.98
825.862	12946.58
826.189	12920.59
826.516	12982.06
826.843	12996.3
827.17	12963.98
827.497	12996.52
827.824	12949.97
828.151	12939.12
828.478	12875.62
828.805	13025
829.131	12925.56
829.458	12862.06
829.785	12873.59
830.111	12897.77
830.438	12968.5
830.764	12929.63
831.09	12911.33
831.417	12865.23
831.743	12880.59
832.069	12947.94
832.395	12871.78
832.722	12853.93
833.048	12770.09
833.374	12842.18
833.7	12748.85
834.026	12747.72
834.351	12800.14
834.677	12850.76
835.003	12807.15
835.329	12775.74
835.654	12811.67
835.98	12605.8
836.306	12711.11
836.631	12694.84
836.956	12672.69
837.282	12752.46
837.607	12655.74
837.932	12607.61
838.258	12543.43
838.583	12525.12
838.908	12521.05
839.233	12468.85
839.558	12578.91
839.883	12394.73
840.208	12454.16
840.533	12447.84
840.858	12435.63
841.182	12429.31
841.507	12365.35
841.832	12364.22
842.156	12293.26
842.481	12275.86
842.805	12256.2
843.13	12201.06
843.454	12149.77
843.778	12219.59
844.103	12119.94
844.427	12120.61
844.751	12078.58
845.075	11982.54
845.399	12033.84
845.723	11910.22
846.047	11908.19
846.371	11784.58
846.695	11876.33
847.019	11737.8
847.343	11714.75
847.666	11620.97
847.99	11571.48
848.313	11652.15
848.637	11513.17
848.96	11496.68
849.284	11388.66
849.607	11388.66
849.931	11424.36
850.254	11337.13
850.577	11262.11
850.9	11181.2
851.223	11136.68
851.546	11124.48
851.869	11033.86
852.192	11039.74
852.515	10974.65
852.838	10950.93
853.161	10986.18
853.483	10841.55
853.806	10813.76
854.129	10809.69
854.451	10712.29
854.774	10761.78
855.096	10712.97
855.419	10622.35
855.741	10635
856.063	10621.9
856.385	10578.73
856.708	10505.74
857.03	10470.71
857.352	10491.5
857.674	10467.1
857.996	10369.02
858.318	10402.69
858.64	10366.08
858.961	10263.71
859.283	10261.68
859.605	10254
859.926	10262.58
860.248	10232.75
860.57	10182.59
860.891	10209.7
861.212	10077.28
861.534	10127.67
861.855	10077.05
862.176	10086.54
862.498	10015.13
862.819	10086.32
863.14	10100.78
863.461	9992.76
863.782	9950.95
864.103	10002.25
864.424	9912.08
864.745	9966.55
865.065	9895.36
865.386	9825.08
865.707	9889.71
866.027	9845.65
866.348	9789.6
866.668	9811.75
866.989	9828.24
867.309	9700.11
867.63	9761.58
867.95	9691.98
868.27	9641.81
868.59	9665.54
868.91	9672.32
869.23	9643.84
869.55	9584.86
869.87	9677.74
870.19	9545.31
870.51	9562.04
870.83	9654.69
871.15	9501.7
871.469	9533.11
871.789	9517.74
872.109	9556.61
872.428	9406.11
872.748	9489.95
873.067	9435.71
873.386	9526.33
873.706	9465.32
874.025	9353.68
874.344	9426.67
874.663	9412.21
874.982	9420.12
875.301	9358.88
875.62	9374.92
875.939	9254.7
876.258	9289.05
876.577	9253.34
876.896	9334.92
877.214	9199.33
877.533	9256.96
877.852	9263.97
878.17	9240.69
878.489	9235.04
878.807	9197.53
879.125	9208.15
879.444	9209.28
879.762	9142.16
880.08	9173.35
880.398	9113.01
880.716	9128.15
881.034	9093.35
881.352	9094.25
881.67	9050.41
881.988	9063.29
882.306	8995.5
882.624	8971.77
882.941	8981.49
883.259	8943.75
883.577	8881.6
883.894	8862.39
884.212	8857.42
884.529	8869.85
884.846	8857.65
885.164	8787.82
885.481	8783.3
885.798	8827.37
886.115	8658.33
886.432	8769.06
886.75	8687.03
887.067	8745.56
887.383	8707.6
887.7	8654.26
888.017	8659.69
888.334	8669.86
888.651	8612.23
888.967	8584.89
889.284	8524.78
889.6	8465.79
889.917	8486.13
890.233	8436.19
890.55	8453.37
890.866	8456.98
891.182	8394.38
891.498	8401.62
891.815	8356.64
892.131	8354.16
892.447	8329.53
892.763	8268.29
893.079	8202.52
893.395	8140.15
893.71	8209.76
894.026	8198.23
894.342	8121.85
894.657	8101.74
894.973	8138.57
895.289	8074.17
895.604	8076.65
895.92	7997.78
896.235	7988.07
896.55	7960.04
896.865	7964.34
897.181	7919.82
897.496	7953.94
897.811	7864.91
898.126	7850.44
898.441	7786.26
898.756	7813.61
899.071	7793.72
899.386	7756.43
899.7	7703.55
900.015	7683.67
900.33	7639.15
900.644	7630.34
900.959	7608.19
901.273	7563.45
901.588	7521.19
901.902	7471.92
902.216	7483
902.531	7438.7
902.845	7440.06
903.159	7393.05
903.473	7370.68
903.787	7326.39
904.101	7254.53
904.415	7313.06
904.729	7273.51
905.042	7186.05
905.356	7169.11
905.67	7260.63
905.984	7196.45
906.297	7112.16
906.611	7129.56
906.924	7120.97
907.237	7094.76
907.551	7081.88
907.864	7039.39
908.177	7007.08
908.491	7015.66
908.804	6970.47
909.117	6881.66
909.43	6866.97
909.743	6832.62
910.056	6843.69
910.368	6821.77
910.681	6797.82
910.994	6736.8
911.307	6687.99
911.619	6698.61
911.932	6650.02
912.244	6607.99
912.557	6605.73
912.869	6583.81
913.181	6535
913.494	6520.99
913.806	6436.92
914.118	6476.47
914.43	6406.87
914.742	6419.52
915.054	6335.23
915.366	6343.59
915.678	6337.26
915.99	6325.96
916.302	6252.07
916.613	6235.34
916.925	6271.95
917.236	6196.93
917.548	6204.61
917.859	6123.03
918.171	6138.17
918.482	6062.92
918.794	6089.81
919.105	6023.82
919.416	6064.28
919.727	5989.25
920.038	5989.25
920.349	5933.21
920.66	5894.56
920.971	5935.47
921.282	5887.56
921.593	5819.76
921.903	5798.52
922.214	5781.57
922.525	5788.35
922.835	5769.14
923.146	5760.55
923.456	5730.27
923.767	5665.64
924.077	5661.8
924.387	5612.99
924.697	5582.93
925.008	5592.65
925.318	5582.48
925.628	5548.13
925.938	5557.4
926.248	5504.06
926.558	5493.44
926.867	5426.1
927.177	5425.42
927.487	5365.54
927.796	5329.61
928.106	5386.55
928.416	5332.09
928.725	5338.64
929.034	5278.76
929.344	5309.95
929.653	5255.48
929.962	5191.08
930.271	5206.45
930.581	5171.87
930.89	5139.1
931.199	5124.19
931.508	5100.46
931.817	5152.44
932.125	5115.15
932.434	5126.67
932.743	5019.11
933.051	5003.51
933.36	4982.95
933.669	4982.72
933.977	4888.49
934.286	4938.66
934.594	4900.01
934.902	4878.09
935.21	4864.99
935.519	4860.47
935.827	4806.91
936.135	4819.34
936.443	4724.42
936.751	4770.98
937.059	4727.59
937.367	4687.81
937.674	4696.85
937.982	4663.41
938.29	4641.26
938.597	4641.04
938.905	4582.51
939.213	4563.52
939.52	4571.21
939.827	4568.5
940.135	4560.36
940.442	4474.71
940.749	4495.05
941.056	4530.53
941.363	4460.48
941.67	4410.76
941.977	4455.05
942.284	4403.3
942.591	4430.87
942.898	4400.82
943.205	4317.2
943.511	4319.69
943.818	4330.31
944.125	4251.67
944.431	4268.84
944.738	4263.87
945.044	4213.25
945.35	4201.73
945.657	4200.14
945.963	4163.99
946.269	4182.74
946.575	4154.5
946.881	4089.41
947.187	4105.91
947.493	4103.2
947.799	4149.07
948.105	4073.82
948.41	4053.93
948.716	4044.67
949.022	4074.72
949.327	4039.92
949.633	3980.49
949.938	3940.49
950.244	3943.88
950.549	3899.59
950.854	3886.03
951.16	3921.51
951.465	3897.33
951.77	3787.05
952.075	3830.21
952.38	3815.07
952.685	3799.7
952.99	3784.79
953.294	3753.6
953.599	3746.82
953.904	3747.27
954.209	3686.48
954.513	3749.99
954.818	3687.61
955.122	3713.38
955.426	3642.87
955.731	3655.53
956.035	3621.18
956.339	3614.85
956.643	3580.5
956.948	3571.69
957.252	3562.87
957.556	3566.71
957.86	3562.19
958.163	3472.93
958.467	3501.41
958.771	3513.16
959.075	3462.99
959.378	3446.27
959.682	3451.91
959.985	3405.59
960.289	3376.66
960.592	3389.77
960.896	3416.66
961.199	3383.89
961.502	3398.36
961.805	3348.41
962.108	3336.44
962.411	3300.28
962.714	3322.43
963.017	3284.01
963.32	3285.82
963.623	3252.15
963.926	3264.58
964.228	3219.15
964.531	3265.03
964.833	3246.95
965.136	3176.22
965.438	3198.36
965.741	3193.62
966.043	3168.76
966.345	3131.92
966.648	3141.64
966.95	3107.29
967.252	3115.2
967.554	3129.66
967.856	3079.27
968.158	3051.7
968.46	3081.98
968.761	3015.99
969.063	3042.66
969.365	3025.26
969.666	3029.1
969.968	2986.16
970.269	2985.94
970.571	2946.84
970.872	2957.46
971.174	2933.96
971.475	2938.26
971.776	2916.11
972.077	2891.93
972.378	2921.99
972.679	2856.68
972.98	2865.04
973.281	2827.98
973.582	2855.09
973.883	2824.81
974.183	2831.82
974.484	2828.88
974.785	2787.98
975.085	2773.97
975.386	2754.31
975.686	2749.79
975.986	2731.93
976.287	2722.67
976.587	2681.54
976.887	2677.47
977.187	2688.77
977.487	2651.03
977.787	2641.77
978.087	2690.13
978.387	2632.95
978.687	2647.19
978.987	2630.47
979.286	2595.44
979.586	2604.03
979.885	2578.94
980.185	2581.88
980.484	2527.42
980.784	2521.32
981.083	2537.36
981.382	2531.26
981.682	2492.62
981.981	2500.3
982.28	2519.51
982.579	2488.55
982.878	2500.75
983.177	2465.5
983.475	2445.84
983.774	2455.1
984.073	2426.86
984.372	2402.68
984.67	2422.11
984.969	2409.46
985.267	2387.31
985.566	2382.79
985.864	2390.47
986.162	2364.03
986.461	2343.47
986.759	2362
987.057	2320.65
987.355	2294.43
987.653	2312.06
987.951	2298.5
988.249	2274.09
988.547	2294.66
988.844	2286.52
989.142	2265.28
989.44	2248.56
989.737	2260.08
990.035	2207.2
990.332	2220.08
990.63	2175.11
990.927	2202.68
991.224	2169.01
991.521	2172.4
991.819	2145.06
992.116	2154.1
992.413	2138.73
992.71	2132.18
993.006	2151.38
993.303	2140.54
993.6	2141.44
993.897	2130.37
994.193	2107.32
994.49	2086.75
994.787	2079.97
995.083	2038.17
995.379	2068
995.676	2051.27
995.972	2032.07
996.268	2019.18
996.565	2017.83
996.861	1996.36
997.157	2009.47
997.453	1976.93
997.749	1972.41
998.044	1976.02
998.34	1994.33
998.636	1951.16
998.932	1911.62
999.227	1916.59
999.523	1905.51
999.818	1902.8
1000.114	1897.61
1000.409	1879.53
1000.704	1868.68
1001	1910.94
1001.295	1851.96
1001.59	1871.17
1001.885	1841.11
1002.18	1836.14
1002.475	1792.75
1002.77	1806.53
1003.065	1805.18
1003.359	1803.37
1003.654	1764.28
1003.949	1766.99
1004.243	1782.58
1004.538	1758.17
1004.832	1782.81
1005.127	1737.84
1005.421	1740.32
1005.715	1722.92
1006.009	1694
1006.304	1675.24
1006.598	1693.09
1006.892	1693.32
1007.186	1682.92
1007.48	1660.32
1007.773	1650.61
1008.067	1653.54
1008.361	1619.65
1008.655	1628.46
1008.948	1625.07
1009.242	1611.51
1009.535	1602.92
1009.829	1599.76
1010.122	1588.91
1010.415	1572.64
1010.708	1543.94
1011.001	1586.2
1011.295	1539.42
1011.588	1534.9
1011.881	1526.54
1012.173	1526.09
1012.466	1530.84
1012.759	1490.16
1013.052	1530.38
1013.344	1498.97
1013.637	1472.08
1013.93	1437.5
1014.222	1469.59
1014.514	1462.59
1014.807	1439.09
1015.099	1451.29
1015.391	1461.23
1015.683	1451.29
1015.976	1417.17
1016.268	1402.03
1016.56	1383.49
1016.851	1374.91
1017.143	1406.32
1017.435	1389.82
1017.727	1346.21
1018.018	1363.61
1018.31	1355.02
1018.602	1362.48
1018.893	1319.77
1019.185	1321.8
1019.476	1295.14
1019.767	1308.69
1020.058	1303.04
1020.35	1284.74
1020.641	1273.22
1020.932	1271.86
1021.223	1294.68
1021.514	1269.83
1021.804	1269.6
1022.095	1227.57
1022.386	1211.97
1022.677	1239.32
1022.967	1211.75
1023.258	1226.44
1023.548	1209.26
1023.839	1171.52
1024.129	1203.84
1024.419	1189.38
1024.709	1172.43
1025	1187.79
1025.29	1166.1
1025.58	1141.02
1025.87	1123.16
1026.16	1157.29
1026.449	1142.82
1026.739	1128.13
1027.029	1124.29
1027.319	1123.16
1027.608	1118.19
1027.898	1108.47
1028.187	1091.98
1028.477	1086.33
1028.766	1093.33
1029.055	1075.25
1029.344	1058.98
1029.634	1074.35
1029.923	1055.59
1030.212	1035.48
1030.501	1042.26
1030.79	1040.45
1031.078	1021.47
1031.367	1014.92
1031.656	997.74
1031.945	1020.79
1032.233	988.48
1032.522	975.6
1032.81	1002.49
1033.099	983.05
1033.387	979.44
1033.675	979.66
1033.963	980.79
1034.251	970.4
1034.54	953.68
1034.828	939.89
1035.116	940.79
1035.403	935.14
1035.691	919.1
1035.979	930.17
1036.267	928.14
1036.554	905.77
1036.842	928.82
1037.129	900.12
1037.417	895.37
1037.704	882.94
1037.992	888.82
1038.279	895.6
1038.566	875.26
1038.853	875.26
1039.14	875.26
