Data from hue_210_FLMS001491_00084.txt Node
Date: Tue Feb 07 16:41:52 GMT 2017
User: dcchb
Spectrometer: FLMS00149
Trigger mode: 0
Integration Time (sec): 2.000000E-2
Scans to average: 10
Electric dark correction enabled: true
Nonlinearity correction enabled: false
Boxcar width: 0
XAxis mode: Wavelengths
Number of Pixels in Spectrum: 2048
>>>>>Begin Spectral Data<<<<<
341.393	-0.99
341.776	-0.99
342.16	-0.99
342.543	-45.51
342.927	-62.23
343.31	-66.07
343.693	-73.08
344.077	-56.35
344.46	-47.77
344.843	-76.92
345.226	-43.47
345.61	-12.51
345.993	-24.94
346.376	-15.68
346.759	11.67
347.142	24.55
347.525	49.18
347.908	62.51
348.291	83.98
348.674	74.04
349.057	110.87
349.44	122.4
349.823	144.09
350.206	169.4
350.588	182.51
350.971	213.92
351.354	250.08
351.737	246.24
352.119	237.65
352.502	267.48
352.884	283.07
353.267	283.07
353.65	279.46
354.032	296.86
354.414	309.06
354.797	283.07
355.179	310.19
355.562	321.04
355.944	343.64
356.326	325.1
356.709	332.79
357.091	333.01
357.473	348.38
357.855	321.26
358.238	307.25
358.62	348.15
359.002	337.08
359.384	326.91
359.766	343.18
360.148	354.26
360.53	357.65
360.912	328.72
361.294	331.43
361.676	337.31
362.057	340.02
362.439	328.27
362.821	316.07
363.203	322.17
363.584	299.34
363.966	322.84
364.348	319
364.729	320.36
365.111	325.78
365.493	306.57
365.874	314.26
366.256	308.83
366.637	316.74
367.019	309.74
367.4	297.76
367.781	310.64
368.163	318.55
368.544	295.05
368.925	319
369.306	318.55
369.688	320.13
370.069	324.43
370.45	311.77
370.831	322.17
371.212	304.99
371.593	302.05
371.974	304.09
372.355	315.84
372.736	314.03
373.117	324.65
373.498	308.83
373.879	304.77
374.26	315.61
374.641	300.7
375.021	309.74
375.402	317.2
375.783	303.86
376.163	336.86
376.544	318.78
376.925	322.62
377.305	322.84
377.686	333.92
378.066	348.61
378.447	318.55
378.827	313.13
379.208	338.66
379.588	326.69
379.968	330.98
380.349	350.19
380.729	340.25
381.109	345.89
381.489	348.61
381.87	335.95
382.25	353.13
382.63	336.63
383.01	334.82
383.39	351.54
383.77	359.91
384.15	336.63
384.53	348.38
384.91	341.83
385.29	343.64
385.67	360.58
386.049	362.62
386.429	355.39
386.809	345.89
387.189	366.91
387.568	369.62
387.948	361.49
388.328	374.37
388.707	373.01
389.087	351.09
389.466	367.82
389.846	368.49
390.225	353.13
390.605	349.74
390.984	338.21
391.363	372.56
391.743	384.31
392.122	364.88
392.501	367.36
392.881	383.63
393.26	374.14
393.639	385.67
394.018	382.28
394.397	404.88
394.776	396.74
395.155	392.45
395.534	384.31
395.913	394.71
396.292	394.26
396.671	404.2
397.05	395.61
397.429	404.88
397.808	395.61
398.186	393.13
398.565	393.8
398.944	424.31
399.323	400.36
399.701	411.2
400.08	431.32
400.458	402.62
400.837	440.36
401.215	417.31
401.594	426.34
401.972	417.76
402.351	436.06
402.729	431.99
403.107	420.47
403.486	435.38
403.864	412.79
404.242	430.41
404.62	456.85
404.999	457.3
405.377	468.6
405.755	451.2
406.133	479.45
406.511	475.61
406.889	486.46
407.267	504.53
407.645	482.61
408.023	482.84
408.401	504.08
408.779	494.82
409.156	539.79
409.534	530.07
409.912	523.97
410.29	536.85
410.667	546.12
411.045	555.15
411.422	568.04
411.8	562.84
412.178	557.87
412.555	563.97
412.933	574.59
413.31	591.76
413.687	616.17
414.065	608.49
414.442	643.97
414.819	649.16
415.197	662.5
415.574	664.98
415.951	660.46
416.328	652.1
416.705	698.2
417.082	664.3
417.46	675.6
417.837	696.17
418.214	692.55
418.591	711.53
418.967	696.62
419.344	720.8
419.721	738.88
420.098	732.1
420.475	765.09
420.852	772.78
421.228	796.28
421.605	810.74
421.982	829.5
422.358	817.07
422.735	838.09
423.111	821.14
423.488	859.78
423.864	867.92
424.241	884.86
424.617	906.56
424.994	923.96
425.37	932.55
425.746	926.9
426.123	976.39
426.499	950.17
426.875	962.83
427.251	983.39
427.627	1006.22
428.003	1016.61
428.379	1034.69
428.756	1042.15
429.132	1074.69
429.507	1074.69
429.883	1068.81
430.259	1111.07
430.635	1107.68
431.011	1127.8
431.387	1131.86
431.763	1140
432.138	1164.63
432.514	1189.94
432.89	1213.67
433.265	1241.01
433.641	1274.68
434.016	1269.49
434.392	1296.15
434.767	1336.38
435.143	1321.69
435.518	1346.55
435.894	1387.45
436.269	1408.24
436.644	1412.53
437.02	1459.99
437.395	1475.81
437.77	1481.68
438.145	1523.04
438.52	1531.85
438.895	1568.69
439.271	1582.02
439.646	1606.2
440.021	1644.84
440.395	1632.19
440.77	1648.46
441.145	1690.27
441.52	1716.48
441.895	1696.82
442.27	1756.93
442.645	1721.45
443.019	1760.09
443.394	1803.94
443.769	1824.73
444.143	1790.15
444.518	1866.76
444.892	1866.08
445.267	1857.72
445.641	1913.76
446.016	1911.28
446.39	1938.62
446.764	1971.84
447.139	1925.51
447.513	1950.82
447.887	1958.51
448.262	2002.35
448.636	1992.18
449.01	2015
449.384	2080.09
449.758	2073.31
450.132	2080.31
450.506	2128.45
450.88	2131.84
451.254	2112.4
451.628	2142.68
452.002	2166.86
452.376	2166.86
452.75	2203.7
453.123	2228.33
453.497	2252.29
453.871	2275.11
454.244	2303.13
454.618	2290.02
454.992	2358.05
455.365	2357.14
455.739	2417.48
456.112	2454.77
456.486	2459.51
456.859	2443.47
457.232	2532.73
457.606	2543.58
457.979	2551.49
458.352	2590.81
458.725	2626.29
459.099	2666.74
459.472	2708.54
459.845	2723.23
460.218	2709.22
460.591	2763.01
460.964	2786.73
461.337	2847.3
461.71	2895.66
462.083	2874.87
462.456	2941.08
462.829	2884.59
463.201	2940.18
463.574	2970.01
463.947	3007.29
464.32	3107.18
464.692	3124.58
465.065	3152.6
465.438	3192.37
465.81	3254.97
466.183	3262.65
466.555	3335.65
466.928	3323.67
467.3	3358.47
467.672	3393.5
468.045	3459.94
468.417	3428.98
468.789	3503.78
469.161	3512.82
469.534	3605.02
469.906	3666.03
470.278	3680.27
470.65	3742.42
471.022	3787.16
471.394	3851.34
471.766	3856.09
472.138	3916.42
472.51	3972.47
472.882	4058.11
473.253	4098.56
473.625	4103.54
473.997	4202.52
474.369	4237.32
474.74	4249.75
475.112	4350.54
475.484	4431.44
475.855	4467.14
476.227	4515.73
476.598	4641.15
476.97	4630.75
477.341	4730.64
477.713	4764.31
478.084	4813.8
478.455	4968.6
478.827	4934.02
479.198	5111.19
479.569	5081.14
479.94	5197.74
480.311	5285.65
480.682	5383.73
481.053	5490.84
481.424	5502.14
481.795	5607.45
482.166	5664.63
482.537	5770.16
482.908	5876.6
483.279	5861.23
483.65	6021.23
484.021	6098.29
484.391	6123.82
484.762	6165.18
485.133	6131.28
485.503	6297.38
485.874	6468.67
486.244	6442.23
486.615	6567.2
486.985	6669.8
487.356	6793.86
487.726	6766.29
488.097	6917.47
488.467	6942.56
488.837	7018.71
489.207	7119.05
489.578	7160.86
489.948	7197.92
490.318	7322.89
490.688	7326.73
491.058	7414.18
491.428	7490.34
491.798	7579.15
492.168	7718.81
492.538	7734.85
492.908	7804.68
493.278	7912.02
493.648	7883.55
494.017	8018.01
494.387	8025.47
494.757	8076.54
495.126	8191.79
495.496	8246.48
495.866	8237.21
496.235	8318.34
496.605	8365.35
496.974	8384.55
497.344	8529.41
497.713	8486.02
498.082	8553.59
498.452	8623.42
498.821	8616.19
499.19	8654.83
499.559	8720.82
499.928	8775.96
500.298	8741.38
500.667	8845.78
501.036	8862.06
501.405	8901.15
501.774	8925.78
502.143	8937.08
502.512	8980.92
502.88	9017.98
503.249	9034.93
503.618	9069.51
503.987	9120.81
504.356	9108.38
504.724	9176.17
505.093	9201.93
505.462	9118.77
505.83	9203.29
506.199	9290.52
506.567	9382.72
506.936	9355.15
507.304	9439.67
507.672	9427.24
508.041	9496.39
508.409	9557.4
508.777	9570.96
509.145	9613.45
509.514	9568.25
509.882	9617.74
510.25	9623.17
510.618	9711.98
510.986	9639.44
511.354	9756.72
511.722	9745.2
512.09	9745.87
512.458	9804.18
512.826	9802.14
513.193	9791.52
513.561	9855.93
513.929	9890.28
514.297	9854.12
514.664	10039.43
515.032	9955.81
515.4	10012.31
515.767	9979.99
516.135	9957.85
516.502	9932.54
516.869	10035.81
517.237	10046.2
517.604	10016.38
517.972	10056.83
518.339	10108.8
518.706	10069.26
519.073	10086.88
519.44	10147.22
519.808	10261.57
520.175	10110.61
520.542	10177.73
520.909	10170.5
521.276	10198.52
521.643	10281.45
522.009	10244.17
522.376	10356.93
522.743	10246.43
523.11	10278.52
523.477	10447.1
523.843	10394.44
524.21	10477.15
524.577	10489.81
524.943	10490.26
525.31	10416.59
525.676	10481.67
526.043	10535.01
526.409	10498.85
526.776	10598.05
527.142	10490.26
527.508	10598.05
527.874	10569.35
528.241	10577.94
528.607	10511.96
528.973	10642.57
529.339	10558.96
529.705	10633.53
530.071	10631.05
530.437	10634.44
530.803	10591.05
531.169	10634.21
531.535	10594.66
531.901	10610.94
532.267	10627.21
532.632	10661.56
532.998	10550.15
533.364	10606.64
533.73	10559.19
534.095	10558.73
534.461	10546.53
534.826	10621.33
535.192	10548.79
535.557	10571.61
535.923	10529.13
536.288	10542.01
536.653	10532.75
537.019	10441.22
537.384	10449.36
537.749	10428.57
538.114	10440.09
538.479	10382.02
538.845	10396.03
539.21	10297.95
539.575	10330.04
539.94	10256.37
540.305	10290.94
540.67	10245.52
541.034	10250.72
541.399	10198.74
541.764	10136.37
542.129	10179.08
542.494	10188.57
542.858	10177.5
543.223	10204.39
543.587	10186.54
543.952	10076.03
544.316	10123.49
544.681	10063.83
545.045	10046.43
545.41	10012.31
545.774	10041.46
546.138	9964.62
546.503	9951.74
546.867	9904.29
547.231	9857.51
547.595	9891.18
547.959	9881.69
548.324	9830.84
548.688	9761.47
549.052	9845.31
549.416	9744.74
549.779	9697.97
550.143	9707.91
550.507	9757.62
550.871	9725.76
551.235	9634.01
551.599	9712.43
551.962	9684.86
552.326	9622.26
552.689	9584.07
553.053	9552.43
553.417	9555.82
553.78	9580.45
554.143	9539.1
554.507	9519.66
554.87	9506.33
555.234	9580.68
555.597	9499.33
555.96	9488.48
556.323	9410.74
556.686	9363.74
557.05	9462.49
557.413	9415.49
557.776	9444.41
558.139	9486.22
558.502	9459.33
558.865	9415.03
559.228	9443.96
559.59	9398.99
559.953	9373
560.316	9469.5
560.679	9403.51
561.041	9505.2
561.404	9463.62
561.767	9455.03
562.129	9501.81
562.492	9417.52
562.854	9450.06
563.217	9411.19
563.579	9394.47
563.941	9476.05
564.304	9482.15
564.666	9487.12
565.028	9469.27
565.39	9512.66
565.753	9495.48
566.115	9552.88
566.477	9510.17
566.839	9515.15
567.201	9541.13
567.563	9496.84
567.925	9616.39
568.287	9608.48
568.648	9670.62
569.01	9624.29
569.372	9690.96
569.734	9611.41
570.095	9686.67
570.457	9632.2
570.819	9728.92
571.18	9719.21
571.542	9703.61
571.903	9690.28
572.265	9761.01
572.626	9791.75
572.987	9755.14
573.349	9762.6
573.71	9760.79
574.071	9777.74
574.432	9802.82
574.794	9877.85
575.155	9795.36
575.516	9815.02
575.877	9859.09
576.238	9788.13
576.599	9887.34
576.96	9924.4
577.32	9866.55
577.681	9912.87
578.042	10017.73
578.403	9941.35
578.763	9953.55
579.124	9965.75
579.485	10007.34
579.845	10025.64
580.206	10024.74
580.566	10057.05
580.927	10047.33
581.287	10055.47
581.648	10040.56
582.008	10068.8
582.368	10050.27
582.728	10036.71
583.089	10123.04
583.449	10041.69
583.809	10070.38
584.169	10101.34
584.529	10087.33
584.889	10227.67
585.249	10136.82
585.609	10060.89
585.969	10122.36
586.329	10149.48
586.688	10142.93
587.048	10154.68
587.408	10225.18
587.768	10115.58
588.127	10192.87
588.487	10194.9
588.846	10222.92
589.206	10123.49
589.565	10207.78
589.925	10176.14
590.284	10138.18
590.643	10144.96
591.003	10190.83
591.362	10332.3
591.721	10275.58
592.08	10214.79
592.44	10300.66
592.799	10240.1
593.158	10229.02
593.517	10243.04
593.876	10283.03
594.235	10231.96
594.593	10287.33
594.952	10286.88
595.311	10251.17
595.67	10228.57
596.029	10318.97
596.387	10319.19
596.746	10376.37
597.104	10318.97
597.463	10275.58
597.822	10326.65
598.18	10210.95
598.538	10252.75
598.897	10337.95
599.255	10292.75
599.613	10385.18
599.972	10340.43
600.33	10377.04
600.688	10342.92
601.046	10368.68
601.404	10447.78
601.762	10391.05
602.12	10425.18
602.478	10435.35
602.836	10379.98
603.194	10346.99
603.552	10348.57
603.91	10335.91
604.268	10366.87
604.625	10318.29
604.983	10363.48
605.341	10330.72
605.698	10412.75
606.056	10396.03
606.413	10428.79
606.771	10445.29
607.128	10449.36
607.485	10384.73
607.843	10510.15
608.2	10460.43
608.557	10511.05
608.914	10440.09
609.272	10471.73
609.629	10541.33
609.986	10537.04
610.343	10444.16
610.7	10595.12
611.057	10548.34
611.414	10458.85
611.771	10545.85
612.127	10639.64
612.484	10598.96
612.841	10514.44
613.198	10568.68
613.554	10578.17
613.911	10611.16
614.267	10558.73
614.624	10526.19
614.98	10637.83
615.337	10666.08
615.693	10640.31
616.05	10650.26
616.406	10599.64
616.762	10564.61
617.118	10607.55
617.475	10632.4
617.831	10712.18
618.187	10674.89
618.543	10717.37
618.899	10739.52
619.255	10684.15
619.611	10690.26
619.967	10725.96
620.323	10708.33
620.678	10685.96
621.034	10681.22
621.39	10701.55
621.746	10642.35
622.101	10817.71
622.457	10735.45
622.812	10728.22
623.168	10754.21
623.523	10705.85
623.879	10801.67
624.234	10733.64
624.589	10812.06
624.945	10779.52
625.3	10693.65
625.655	10704.04
626.01	10678.5
626.365	10709.69
626.72	10735.23
627.075	10660.2
627.43	10688.45
627.785	10600.31
628.14	10678.28
628.495	10704.49
628.85	10731.38
629.205	10647.77
629.559	10697.26
629.914	10650.48
630.269	10652.29
630.623	10658.62
630.978	10658.39
631.332	10552.18
631.687	10617.26
632.041	10581.11
632.396	10626.53
632.75	10479.64
633.104	10554.44
633.459	10510.83
633.813	10558.51
634.167	10483.48
634.521	10492.75
634.875	10534.1
635.229	10415.01
635.583	10421.11
635.937	10457.49
636.291	10417.49
636.645	10427.66
636.999	10417.95
637.352	10445.74
637.706	10363.48
638.06	10352.19
638.413	10338.4
638.767	10349.7
639.121	10335.24
639.474	10252.08
639.828	10315.58
640.181	10290.49
640.534	10307.67
640.888	10268.12
641.241	10189.93
641.594	10251.17
641.947	10244.62
642.301	10263.6
642.654	10248.23
643.007	10238.52
643.36	10230.38
643.713	10222.25
644.066	10184.28
644.419	10203.71
644.771	10172.08
645.124	10044.62
645.477	10003.27
645.83	9909.49
646.182	9883.27
646.535	9923.04
646.888	9867
647.24	9857.28
647.593	9879.66
647.945	9840.56
648.298	9778.19
648.65	9792.65
649.002	9767.12
649.355	9862.71
649.707	9771.41
650.059	9942.7
650.411	9974.57
650.763	10021.57
651.115	10107.45
651.467	10026.09
651.819	9986.09
652.171	10085.53
652.523	9980.67
652.875	10062.93
653.227	10025.19
653.578	10071.06
653.93	9992.87
654.282	10040.56
654.633	9939.54
654.985	10022.02
655.337	9958.98
655.688	10003.04
656.039	10073.32
656.391	10002.14
656.742	10030.61
657.094	10028.58
657.445	10006.43
657.796	9986.32
658.147	9998.52
658.498	10001.69
658.849	10054.57
659.2	10024.06
659.551	10011.18
659.902	10067.67
660.253	9991.74
660.604	10006.88
660.955	10013.89
661.306	10035.81
661.656	10013.21
662.007	10032.19
662.358	9988.81
662.708	10069.48
663.059	10105.64
663.409	10031.52
663.76	10031.97
664.11	10079.88
664.461	10071.06
664.811	10103.15
665.161	10081.68
665.511	10021.35
665.862	10062.25
666.212	10081.68
666.562	10073.32
666.912	10044.62
667.262	10053.44
667.612	10099.08
667.962	10027.9
668.312	10052.31
668.662	10062.02
669.011	10010.73
669.361	10054.34
669.711	10034.23
670.06	9954.46
670.41	9913.1
670.76	10016.6
671.109	10033.78
671.459	10023.15
671.808	9995.13
672.157	9990.84
672.507	9964.62
672.856	9969.82
673.205	9979.77
673.554	9945.19
673.904	9958.07
674.253	9956.72
674.602	9871.29
674.951	9854.8
675.3	9740.68
675.649	9908.81
675.998	9916.26
676.346	9930.95
676.695	9966.66
677.044	9798.75
677.393	9848.92
677.741	9867.9
678.09	9890.5
678.438	9837.85
678.787	9881.92
679.135	9785.19
679.484	9731.41
679.832	9829.26
680.181	9737.29
680.529	9774.57
680.877	9664.52
681.225	9695.93
681.573	9820.67
681.922	9762.37
682.27	9668.59
682.618	9683.5
682.966	9645.76
683.314	9620.91
683.661	9644.41
684.009	9589.27
684.357	9601.92
684.705	9501.59
685.053	9572.77
685.4	9579.1
685.748	9438.31
686.095	9401.93
686.443	9382.27
686.79	9413.91
687.138	9461.59
687.485	9352.66
687.832	9311.31
688.18	9330.52
688.527	9279.9
688.874	9296.17
689.221	9284.64
689.568	9275.38
689.915	9211.2
690.262	9169.62
690.609	9202.39
690.956	9130.3
691.303	9143.4
691.65	9089.39
691.997	9037.87
692.344	9017.98
692.69	9067.93
693.037	8985.22
693.383	8914.94
693.73	8924.88
694.077	8902.05
694.423	8847.14
694.769	8826.8
695.116	8779.12
695.462	8787.93
695.808	8759.91
696.155	8758.56
696.501	8681.49
696.847	8699.12
697.193	8664.09
697.539	8672.23
697.885	8559.92
698.231	8530.09
698.577	8589.97
698.923	8552.46
699.269	8423.2
699.614	8406.25
699.96	8403.54
700.306	8356.98
700.651	8326.25
700.997	8264.56
701.342	8218.23
701.688	8269.98
702.033	8196.31
702.379	8225.69
702.724	8181.4
703.069	8207.16
703.415	8083.77
703.76	8098.91
704.105	8110.21
704.45	8061.4
704.795	7974.39
705.14	8055.97
705.485	8024.56
705.83	7888.3
706.175	7897.11
706.52	7875.19
706.865	7890.56
707.209	7839.03
707.554	7814.63
707.899	7799.26
708.243	7744.8
708.588	7781.63
708.932	7667.96
709.277	7685.36
709.621	7670.22
709.966	7639.71
710.31	7652.14
710.654	7556.78
710.998	7585.7
711.342	7593.16
711.687	7526.27
712.031	7543.9
712.375	7548.42
712.719	7558.13
713.063	7474.29
713.407	7478.81
713.75	7461.64
714.094	7444.47
714.438	7417.12
714.782	7426.39
715.125	7404.01
715.469	7364.24
715.812	7338.25
716.156	7361.98
716.499	7359.5
716.843	7337.35
717.186	7342.32
717.53	7349.1
717.873	7305.26
718.216	7250.35
718.559	7274.07
718.902	7247.86
719.246	7210.35
719.589	7263.23
719.932	7207.86
720.275	7176.9
720.617	7204.25
720.96	7175.77
721.303	7158.37
721.646	7156.34
721.989	7126.73
722.331	7173.06
722.674	7157.47
723.016	7187.52
723.359	7128.77
723.701	7147.75
724.044	7080.63
724.386	7068.2
724.729	7130.35
725.071	7061.88
725.413	7065.49
725.755	7092.38
726.097	7040.63
726.439	7013.52
726.782	7045.83
727.124	7045.61
727.465	6997.92
727.807	6987.75
728.149	7014.65
728.491	7046.96
728.833	7023.91
729.175	6993.63
729.516	7024.14
729.858	6958.15
730.199	7010.58
730.541	7009.22
730.882	6931.71
731.224	7007.87
731.565	6947.76
731.906	6968.32
732.248	7034.08
732.589	6934.65
732.93	6950.24
733.271	6984.14
733.612	7015.78
733.953	6941.65
734.294	6954.31
734.635	7006.28
734.976	6971.71
735.317	6936.46
735.658	6905.27
735.999	6997.47
736.339	6953.86
736.68	6964.48
737.021	6958.6
737.361	6972.16
737.702	7106.4
738.042	6935.78
738.383	6983.46
738.723	6947.08
739.063	6984.14
739.404	6993.63
739.744	7022.1
740.084	6961.09
740.424	7071.82
740.764	7014.65
741.104	7011.03
741.444	7023.01
741.784	7029.33
742.124	7098.94
742.464	7088.77
742.804	7133.51
743.143	7064.36
743.483	7135.09
743.823	7130.8
744.162	7099.39
744.502	7190.23
744.841	7232.04
745.181	7227.3
745.52	7194.53
745.86	7308.2
746.199	7304.36
746.538	7330.34
746.877	7410.12
747.216	7422.54
747.556	7496.67
747.895	7501.19
748.234	7554.29
748.573	7597.68
748.911	7642.65
749.25	7688.98
749.589	7667.28
749.928	7794.74
750.267	7900.95
750.605	7913.15
750.944	8109.31
751.283	7990.21
751.621	8113.83
751.96	8204.45
752.298	8218.46
752.636	8396.08
752.975	8468.62
753.313	8499.8
753.651	8639.46
753.989	8727.14
754.327	8808.05
754.666	8888.5
755.004	8975.95
755.342	9175.49
755.679	9286.22
756.017	9359.44
756.355	9521.92
756.693	9530.51
757.031	9711.75
757.368	9821.8
757.706	9953.1
758.044	10109.93
758.381	10310.6
758.719	10468.57
759.056	10606.64
759.394	10742.01
759.731	10801.89
760.068	11002.34
760.405	11108.1
760.743	11258.15
761.08	11513.51
761.417	11600.06
761.754	11751.47
762.091	11940.84
762.428	12101.07
762.765	12320.5
763.102	12453.37
763.438	12554.39
763.775	12728.39
764.112	12920.93
764.449	13185.33
764.785	13311.88
765.122	13319.34
765.458	13440.47
765.795	13690.63
766.131	13793.22
766.467	13990.51
766.804	14020.11
767.14	14237.96
767.476	14402.93
767.812	14536.48
768.148	14695.8
768.485	14763.82
768.821	14811.5
769.157	15007.66
769.492	15165.84
769.828	15358.83
770.164	15353.64
770.5	15490.58
770.836	15536.23
771.171	15639.05
771.507	15717.69
771.842	15763.12
772.178	15965.6
772.513	15955.88
772.849	16140.73
773.184	16198.81
773.519	16306.15
773.855	16383.67
774.19	16455.98
774.525	16512.02
774.86	16637.44
775.195	16665.92
775.53	16805.35
775.865	16802.41
776.2	16754.5
776.535	16781.85
776.87	16894.16
777.205	17012.35
777.539	16975.97
777.874	17214.15
778.209	16954.72
778.543	17115.17
778.878	17050.99
779.212	17255.05
779.547	17180.25
779.881	17238.33
780.215	17217.32
780.55	17291.21
780.884	17332.34
781.218	17285.11
781.552	17354.49
781.886	17333.02
782.22	17301.38
782.554	17214.15
782.888	17293.47
783.222	17365.33
783.556	17207.6
783.889	17278.56
784.223	17204.89
784.557	17216.41
784.89	17331.21
785.224	17168.28
785.557	17211.44
785.891	17169.18
786.224	17281.72
786.558	17335.73
786.891	17165.11
787.224	17019.81
787.557	17126.47
787.891	17138.67
788.224	17168.73
788.557	17258.67
788.89	17202.17
789.223	17235.39
789.556	17078.79
789.888	17046.47
790.221	17039.24
790.554	16910.88
790.887	16994.04
791.219	16919.7
791.552	16878.12
791.884	16887.38
792.217	16863.43
792.549	16841.05
792.882	16781.39
793.214	16721.51
793.546	16802.19
793.879	16600.61
794.211	16620.5
794.543	16649.19
794.875	16629.99
795.207	16653.26
795.539	16630.21
795.871	16571.46
796.203	16442.19
796.535	16431.35
796.867	16369.2
797.198	16394.74
797.53	16415.3
797.862	16362.2
798.193	16313.61
798.525	16240.62
798.856	16307.51
799.188	16215.99
799.519	16128.08
799.85	16042.43
800.182	16161.07
800.513	16085.82
800.844	15918.59
801.175	16021.64
801.506	16003.34
801.837	15960.4
802.168	15832.72
802.499	15861.42
802.83	15845.37
803.161	15723.12
803.491	15834.08
803.822	15791.59
804.153	15645.38
804.483	15612.61
804.814	15533.74
805.145	15625.95
805.475	15509.79
805.805	15481.32
806.136	15427.76
806.466	15519.51
806.796	15467.08
807.126	15303.69
807.457	15317.7
807.787	15292.85
808.117	15308.89
808.447	15229.57
808.777	15333.98
809.107	15174.88
809.436	15136.24
809.766	15073.87
810.096	15071.38
810.426	14978.28
810.755	15032.06
811.085	15005.62
811.414	15105.05
811.744	14902.12
812.073	14919.97
812.403	14936.02
812.732	14814.21
813.061	14765.18
813.39	14717.95
813.719	14752.75
814.049	14825.51
814.378	14805.63
814.707	14744.16
815.036	14722.92
815.365	14548.91
815.693	14465.98
816.022	14590.72
816.351	14603.6
816.68	14432.3
817.008	14487.9
817.337	14360.22
817.665	14301.23
817.994	14356.37
818.322	14331.97
818.651	14221.69
818.979	14246.09
819.307	14251.52
819.636	14214.23
819.964	14141.69
820.292	14203.16
820.62	14231.63
820.948	14210.62
821.276	14236.15
821.604	14122.48
821.932	14210.16
822.259	14187.11
822.587	14230.5
822.915	14125.42
823.243	14227.11
823.57	14141.46
823.898	14109.6
824.225	14184.18
824.553	14186.89
824.88	14240.9
825.207	14255.36
825.535	14121.8
825.862	14243.16
826.189	14213.33
826.516	14203.84
826.843	14281.35
827.17	14264.4
827.497	14253.1
827.824	14236.15
828.151	14199.99
828.478	14266.21
828.805	14315.25
829.131	14172.65
829.458	14230.28
829.785	14218.3
830.111	14153.89
830.438	14205.42
830.764	14229.6
831.09	14263.04
831.417	14117.51
831.743	14223.5
832.069	14232.08
832.395	14163.38
832.722	14192.99
833.048	14161.35
833.374	14165.42
833.7	14160.67
834.026	14141.69
834.351	14207.45
834.677	14137.85
835.003	14061.92
835.329	14008.36
835.654	14077.29
835.98	14063.73
836.306	14109.6
836.631	13978.98
836.956	14039.55
837.282	13954.58
837.607	13946.22
837.932	13950.73
838.258	13952.32
838.583	13924.29
838.908	13843.39
839.233	13919.78
839.558	13832.09
839.883	13807.69
840.208	13814.92
840.533	13718.2
840.858	13800
841.182	13669.84
841.507	13772.66
841.832	13646.79
842.156	13720.01
842.481	13569.95
842.805	13669.16
843.13	13518.2
843.454	13491.99
843.778	13531.54
844.103	13507.13
844.427	13473.46
844.751	13445.21
845.075	13296.06
845.399	13365.89
845.723	13277.98
846.047	13263.97
846.371	13181.94
846.695	13209.51
847.019	13089.74
847.343	13073.92
847.666	12943.76
847.99	12926.58
848.313	12900.37
848.637	12853.59
848.96	12862.4
849.284	12757.09
849.607	12601.39
849.931	12688.17
850.254	12560.71
850.577	12501.96
850.9	12403.43
851.223	12418.35
851.546	12346.26
851.869	12295.19
852.192	12389.19
852.515	12239.14
852.838	12118.01
853.161	12146.94
853.483	12074.17
853.806	12120.5
854.129	12074.85
854.451	11960.73
854.774	11931.35
855.096	11901.07
855.419	11909.66
855.741	11788.31
856.063	11796.22
856.385	11734.3
856.708	11698.59
857.03	11706.5
857.352	11715.99
857.674	11655.2
857.996	11553.06
858.318	11575.66
858.64	11578.59
858.961	11537.92
859.283	11488.65
859.605	11446.85
859.926	11454.08
860.248	11349.22
860.57	11368.2
860.891	11391.93
861.212	11293.4
861.534	11247.53
861.855	11184.03
862.176	11264.48
862.498	11194.2
862.819	11236.46
863.14	11199.17
863.461	11159.4
863.782	11099.51
864.103	11076.01
864.424	11048.89
864.745	11085.73
865.065	11053.86
865.386	11003.69
865.707	11030.81
866.027	11010.93
866.348	10945.39
866.668	10909.68
866.989	10905.17
867.309	10896.58
867.63	10856.58
867.95	10803.47
868.27	10815.22
868.59	10827.2
868.91	10828.56
869.23	10722.35
869.55	10700.2
869.87	10775.23
870.19	10752.85
870.51	10737.71
870.83	10734.1
871.15	10671.95
871.469	10677.37
871.789	10730.25
872.109	10702.01
872.428	10570.03
872.748	10595.57
873.067	10499.98
873.386	10649.58
873.706	10527.1
874.025	10538.4
874.344	10528.45
874.663	10455.46
874.982	10405.97
875.301	10477.38
875.62	10375.69
875.939	10419.75
876.258	10455.91
876.577	10371.62
876.896	10440.32
877.214	10336.59
877.533	10345.86
877.852	10347.67
878.17	10298.4
878.489	10295.92
878.807	10293.66
879.125	10266.54
879.444	10284.16
879.762	10246.43
880.08	10154.68
880.398	10163.26
880.716	10187.44
881.034	10092.76
881.352	10143.83
881.67	10116.03
881.988	10099.54
882.306	10056.15
882.624	10077.62
882.941	9988.58
883.259	10007.11
883.577	9952.2
883.894	9965.53
884.212	9884.85
884.529	9863.16
884.846	9827
885.164	9836.27
885.481	9809.6
885.798	9835.81
886.115	9692.09
886.432	9710.85
886.75	9694.35
887.067	9760.79
887.383	9703.39
887.7	9686.67
888.017	9632.66
888.334	9632.2
888.651	9599.66
888.967	9559.44
889.284	9632.66
889.6	9524.18
889.917	9506.33
890.233	9444.41
890.55	9417.29
890.866	9387.69
891.182	9425.88
891.498	9356.51
891.815	9336.84
892.131	9280.35
892.447	9259.11
892.763	9226.11
893.079	9198.77
893.395	9217.53
893.71	9258.43
894.026	9145.89
894.342	9157.41
894.657	9107.92
894.973	9038.55
895.289	9080.13
895.604	9023.63
895.92	8954.71
896.235	8953.35
896.55	8870.64
896.865	8882.17
897.181	8850.08
897.496	8843.75
897.811	8795.39
898.126	8679.91
898.441	8722.62
898.756	8709.97
899.071	8691.21
899.386	8679.24
899.7	8608.05
900.015	8546.36
900.33	8396.53
900.644	8493.03
900.959	8540.26
901.273	8445.79
901.588	8434.04
901.902	8356.98
902.216	8368.06
902.531	8268.4
902.845	8258.91
903.159	8235.86
903.473	8234.05
903.787	8196.08
904.101	8113.37
904.415	8095.3
904.729	8039.48
905.042	8063.66
905.356	8024.56
905.67	8006.48
905.984	8048.97
906.297	7915.64
906.611	7923.55
906.924	7858.01
907.237	7899.14
907.551	7853.04
907.864	7777.11
908.177	7758.81
908.491	7752.71
908.804	7667.28
909.117	7624.57
909.43	7575.99
909.743	7636.32
910.056	7556.55
910.368	7535.54
910.681	7476.33
910.994	7447.4
911.307	7466.39
911.619	7365.37
911.932	7422.09
912.244	7339.16
912.557	7304.58
912.869	7246.5
913.181	7199.27
913.494	7252.38
913.806	7202.21
914.118	7171.03
914.43	7160.86
914.742	7127.86
915.054	7047.64
915.366	7054.19
915.678	7046.06
915.99	6964.7
916.302	6961.09
916.613	6933.29
916.925	6919.73
917.236	6905.72
917.548	6821.88
917.859	6818.04
918.171	6811.04
918.482	6729.91
918.794	6701.66
919.105	6737.14
919.416	6700.53
919.727	6672.96
920.038	6654.43
920.349	6603.81
920.66	6552.06
920.971	6588.44
921.282	6550.48
921.593	6503.47
921.903	6455.79
922.214	6484.26
922.525	6423.7
922.835	6373.31
923.146	6368.56
923.456	6395.91
923.767	6329.47
924.077	6317.72
924.387	6249.92
924.697	6214.89
925.008	6258.96
925.318	6175.8
925.628	6219.64
925.938	6133.31
926.248	6152.52
926.558	6085.86
926.867	6115.91
927.177	6008.8
927.487	5983.26
927.796	5933.77
928.106	5978.06
928.416	5900.55
928.725	5881.12
929.034	5885.18
929.344	5863.04
929.653	5854.45
929.962	5820.78
930.271	5831.4
930.581	5749.82
930.89	5710.27
931.199	5684.29
931.508	5741.91
931.817	5668.92
932.125	5655.36
932.434	5646.09
932.743	5604.74
933.051	5578.3
933.36	5588.47
933.669	5468.47
933.977	5475.03
934.286	5549.15
934.594	5507.12
934.902	5441.58
935.21	5411.75
935.519	5461.24
935.827	5401.58
936.135	5384.63
936.443	5341.7
936.751	5335.59
937.059	5285.65
937.367	5277.74
937.674	5215.37
937.982	5266.44
938.29	5217.18
938.597	5205.88
938.905	5109.84
939.213	5145.54
939.52	5079.1
939.827	5118.2
940.135	5051.31
940.442	5077.52
940.749	5040.46
941.056	5054.25
941.363	4943.74
941.67	4969.28
941.977	4934.47
942.284	4975.38
942.591	4888.15
942.898	4837.75
943.205	4858.77
943.511	4839.56
943.818	4853.12
944.125	4789.62
944.431	4811.54
944.738	4749.85
945.044	4752.33
945.35	4690.41
945.657	4717.31
945.963	4677.98
946.269	4655.84
946.575	4661.26
946.881	4630.98
947.187	4590.75
947.493	4575.61
947.799	4576.29
948.105	4524.54
948.41	4558.21
948.716	4491.1
949.022	4479.8
949.327	4510.31
949.633	4440.48
949.938	4440.93
950.244	4455.17
950.549	4351.89
950.854	4398.9
951.16	4362.74
951.465	4358.9
951.77	4354.38
952.075	4284.55
952.38	4265.57
952.685	4294.72
952.99	4260.82
953.294	4231.67
953.599	4184.66
953.904	4201.39
954.209	4178.56
954.513	4164.33
954.818	4134.27
955.122	4108.51
955.426	4106.25
955.731	4074.84
956.035	4053.14
956.339	4057.21
956.643	4065.35
956.948	4016.53
957.252	4012.92
957.556	3942.86
957.86	3992.35
958.163	3931.34
958.467	3948.51
958.771	3940.6
959.075	3942.18
959.378	3857.44
959.682	3871.23
959.985	3840.27
960.289	3816.09
960.592	3821.96
960.896	3796.2
961.199	3739.48
961.502	3769.99
961.805	3744.9
962.108	3743.77
962.411	3722.08
962.714	3683.66
963.017	3671.46
963.32	3689.31
963.623	3648.18
963.926	3649.99
964.228	3610.22
964.531	3595.98
964.833	3595.07
965.136	3566.15
965.438	3561.18
965.741	3562.76
966.043	3553.49
966.345	3524.12
966.648	3511.46
966.95	3433.72
967.252	3483.67
967.554	3433.27
967.856	3440.95
968.158	3388.3
968.46	3440.5
968.761	3393.05
969.063	3400.5
969.365	3385.81
969.666	3388.75
969.968	3323.44
970.269	3308.53
970.571	3342.88
970.872	3291.13
971.174	3280.51
971.475	3226.27
971.776	3217.23
972.077	3255.87
972.378	3248.87
972.679	3224.69
972.98	3230.11
973.281	3199.15
973.582	3155.54
973.883	3191.92
974.183	3138.82
974.484	3118.03
974.785	3139.27
975.085	3134.75
975.386	3121.19
975.686	3056.56
975.986	3094.07
976.287	3048.2
976.587	3067.63
976.887	3034.41
977.187	3023.34
977.487	3005.26
977.787	2977.46
978.087	2985.6
978.387	2930.69
978.687	2979.5
978.987	2875.77
979.286	2932.04
979.586	2893.4
979.885	2859.95
980.185	2878.03
980.484	2875.55
980.784	2849.33
981.083	2886.17
981.382	2844.81
981.682	2828.77
981.981	2821.08
982.28	2789.9
982.579	2788.09
982.878	2763.01
983.177	2754.42
983.475	2703.57
983.774	2724.36
984.073	2720.75
984.372	2680.52
984.67	2701.99
984.969	2682.33
985.267	2685.27
985.566	2635.33
985.864	2602.78
986.162	2625.61
986.461	2631.71
986.759	2596.23
987.057	2591.71
987.355	2565.5
987.653	2590.58
987.951	2571.6
988.249	2548.32
988.547	2559.4
988.844	2521.2
989.142	2506.52
989.44	2491.83
989.737	2506.74
990.035	2504.71
990.332	2468.78
990.63	2461.09
990.927	2418.83
991.224	2439.85
991.521	2425.16
991.819	2415.9
992.116	2392.85
992.413	2378.16
992.71	2351.04
993.006	2353.3
993.303	2331.38
993.6	2346.52
993.897	2358.95
994.193	2324.6
994.49	2319.18
994.787	2291.38
995.083	2285.5
995.379	2282.57
995.676	2253.19
995.972	2261.78
996.268	2234.43
996.565	2258.84
996.861	2210.48
997.157	2227.65
997.453	2190.59
997.749	2171.61
998.044	2170.03
998.34	2165.51
998.636	2144.04
998.932	2171.16
999.227	2150.59
999.523	2150.14
999.818	2111.27
1000.114	2085.74
1000.409	2080.54
1000.704	2087.09
1001	2047.09
1001.295	2067.88
1001.59	2074.66
1001.885	2065.85
1002.18	2011.84
1002.475	2024.49
1002.77	2043.48
1003.065	1994.21
1003.359	2005.96
1003.654	1965.06
1003.949	1947.89
1004.243	1970.03
1004.538	1925.97
1004.832	1917.38
1005.127	1925.74
1005.421	1901.11
1005.715	1893.65
1006.009	1891.62
1006.304	1851.39
1006.598	1892.52
1006.892	1859.75
1007.186	1837.83
1007.48	1821.11
1007.773	1820.43
1008.067	1851.39
1008.361	1814.78
1008.655	1772.52
1008.948	1817.27
1009.242	1811.17
1009.535	1744.05
1009.829	1760.32
1010.122	1737.95
1010.415	1724.39
1010.708	1736.59
1011.001	1704.05
1011.295	1692.75
1011.588	1686.2
1011.881	1694.33
1012.173	1677.39
1012.466	1652.98
1012.759	1654.11
1013.052	1653.88
1013.344	1654.79
1013.637	1605.3
1013.93	1620.21
1014.222	1617.5
1014.514	1615.69
1014.807	1588.57
1015.099	1579.99
1015.391	1579.31
1015.683	1532.08
1015.976	1543.38
1016.268	1543.38
1016.56	1523.04
1016.851	1525.98
1017.143	1530.5
1017.435	1499.54
1017.727	1490.95
1018.018	1499.31
1018.31	1481.68
1018.602	1481.01
1018.893	1468.13
1019.185	1437.17
1019.476	1455.7
1019.767	1427.67
1020.058	1411.4
1020.35	1397.62
1020.641	1424.74
1020.932	1389.26
1021.223	1396.49
1021.514	1382.93
1021.804	1361.01
1022.095	1341.8
1022.386	1361.24
1022.677	1336.6
1022.967	1350.39
1023.258	1318.98
1023.548	1313.1
1023.839	1320.11
1024.129	1296.83
1024.419	1285.31
1024.709	1271.97
1025	1278.98
1025.29	1240.56
1025.58	1274.68
1025.87	1257.28
1026.16	1250.73
1026.449	1244.18
1026.739	1238.07
1027.029	1229.04
1027.319	1229.26
1027.608	1209.15
1027.898	1206.44
1028.187	1201.92
1028.477	1172.77
1028.766	1165.99
1029.055	1163.27
1029.344	1176.38
1029.634	1139.55
1029.923	1161.01
1030.212	1136.16
1030.501	1108.13
1030.79	1103.39
1031.078	1117.85
1031.367	1105.2
1031.656	1098.19
1031.945	1071.98
1032.233	1107.68
1032.522	1072.66
1032.81	1079.89
1033.099	1083.95
1033.387	1057.06
1033.675	1055.25
1033.963	1072.43
1034.251	1044.41
1034.54	1071.3
1034.828	1020.23
1035.116	1032.43
1035.403	1021.58
1035.691	993.34
1035.979	994.47
1036.267	978.42
1036.554	983.84
1036.842	978.65
1037.129	979.1
1037.417	964.64
1037.704	983.62
1037.992	932.55
1038.279	931.19
1038.566	911.3
1038.853	911.3
1039.14	911.3
