Data from hue_100_FLMS001491_00035.txt Node
Date: Tue Feb 07 17:03:04 GMT 2017
User: dcchb
Spectrometer: FLMS00149
Trigger mode: 0
Integration Time (sec): 2.000000E-2
Scans to average: 10
Electric dark correction enabled: true
Nonlinearity correction enabled: false
Boxcar width: 0
XAxis mode: Wavelengths
Number of Pixels in Spectrum: 2048
>>>>>Begin Spectral Data<<<<<
341.393	-9.04
341.776	-9.04
342.16	-9.04
342.543	-67.12
342.927	-49.49
343.31	-65.31
343.693	-55.14
344.077	-63.05
344.46	-57.63
344.843	-64.18
345.226	-55.14
345.61	-19.66
345.993	-22.6
346.376	-4.52
346.759	27.34
347.142	14.01
347.525	27.57
347.908	52.65
348.291	64.18
348.674	102.14
349.057	119.32
349.44	113.9
349.823	143.95
350.206	155.7
350.588	199.99
350.971	200.9
351.354	227.56
351.737	227.79
352.119	244.29
352.502	250.39
352.884	272.54
353.267	293.33
353.65	317.05
354.032	275.25
354.414	311.4
354.797	312.76
355.179	325.87
355.562	329.03
355.944	328.58
356.326	327.22
356.709	329.48
357.091	325.42
357.473	361.8
357.855	335.36
358.238	339.65
358.62	359.09
359.002	358.18
359.384	342.59
359.766	333.55
360.148	353.21
360.53	342.59
360.912	344.17
361.294	342.14
361.676	322.48
362.057	325.64
362.439	349.82
362.821	319.99
363.203	327.9
363.584	320.9
363.966	330.84
364.348	330.39
364.729	331.29
365.111	321.8
365.493	319.99
365.874	342.36
366.256	315.02
366.637	324.74
367.019	319.54
367.4	319.77
367.781	332.87
368.163	298.98
368.544	337.62
368.925	327.68
369.306	327.45
369.688	304.4
370.069	327.45
370.45	319.99
370.831	319.09
371.212	323.83
371.593	321.8
371.974	307.79
372.355	316.38
372.736	336.04
373.117	322.7
373.498	328.13
373.879	313.66
374.26	344.17
374.641	311.4
375.021	319.77
375.402	319.31
375.783	351.86
376.163	336.71
376.544	340.1
376.925	332.87
377.305	345.08
377.686	335.36
378.066	354.11
378.447	331.52
378.827	358.18
379.208	354.57
379.588	348.01
379.968	334.45
380.349	333.55
380.729	354.57
381.109	344.17
381.489	351.63
381.87	364.28
382.25	358.63
382.63	357.28
383.01	344.85
383.39	363.61
383.77	362.93
384.15	346.43
384.53	376.71
384.91	359.31
385.29	365.19
385.67	381.23
386.049	366.77
386.429	373.32
386.809	370.16
387.189	365.87
387.568	380.55
387.948	385.3
388.328	375.81
388.707	378.07
389.087	400.67
389.466	390.72
389.846	396.83
390.225	401.12
390.605	397.73
390.984	388.01
391.363	396.37
391.743	381.91
392.122	383.94
392.501	387.11
392.881	412.64
393.26	432.98
393.639	404.74
394.018	417.62
394.397	397.96
394.776	426.66
395.155	439.08
395.534	432.53
395.913	406.32
396.292	420.1
396.671	423.04
397.05	442.25
397.429	417.16
397.808	434.79
398.186	422.81
398.565	420.78
398.944	420.55
399.323	446.77
399.701	455.36
400.08	429.82
400.458	454.23
400.837	449.48
401.215	440.21
401.594	438.18
401.972	467.33
402.351	442.02
402.729	435.92
403.107	463.04
403.486	446.77
403.864	468.91
404.242	446.09
404.62	476.37
404.999	477.73
405.377	477.5
405.755	462.13
406.133	487.67
406.511	478.18
406.889	476.37
407.267	498.74
407.645	493.55
408.023	493.32
408.401	515.01
408.779	501
409.156	503.49
409.534	506.65
409.912	505.52
410.29	528.12
410.667	541
411.045	526.99
411.422	535.35
411.8	530.83
412.178	536.48
412.555	558.86
412.933	538.06
413.31	570.15
413.687	561.57
414.065	576.48
414.442	575.8
414.819	561.57
415.197	563.83
415.574	566.54
415.951	571.74
416.328	607.67
416.705	603.83
417.082	605.86
417.46	619.87
417.837	616.25
418.214	604.73
418.591	606.31
418.967	601.57
419.344	629.36
419.721	628.68
420.098	618.51
420.475	607.89
420.852	621.45
421.228	657.61
421.605	653.32
421.982	657.16
422.358	653.54
422.735	660.1
423.111	657.61
423.488	685.18
423.864	661
424.241	660.55
424.617	678.4
424.994	683.6
425.37	712.98
425.746	691.06
426.123	706.2
426.499	695.8
426.875	698.29
427.251	737.38
427.627	736.93
428.003	737.83
428.379	744.16
428.756	764.95
429.132	757.49
429.507	745.97
429.883	745.07
430.259	763.82
430.635	779.64
431.011	784.16
431.387	791.84
431.763	828
432.138	800.88
432.514	818.74
432.89	851.96
433.265	846.98
433.641	874.55
434.016	848.34
434.392	879.98
434.767	890.82
435.143	882.24
435.518	892.63
435.894	885.85
436.269	902.8
436.644	938.28
437.02	925.17
437.395	922.24
437.77	929.69
438.145	972.63
438.52	972.18
438.895	971.5
439.271	993.65
439.646	967.21
440.021	978.05
440.395	999.3
440.77	993.19
441.145	1006.53
441.52	1039.97
441.895	1029.8
442.27	1034.1
442.645	1028.22
443.019	1038.62
443.394	1048.56
443.769	1037.71
444.143	1051.72
444.518	1085.85
444.892	1073.42
445.267	1082.01
445.641	1086.07
446.016	1098.73
446.39	1139.86
446.764	1132.4
447.139	1107.54
447.513	1128.33
447.887	1134.43
448.262	1106.64
448.636	1132.4
449.01	1157.71
449.384	1180.08
449.758	1198.61
450.132	1195.45
450.506	1191.83
450.88	1204.04
451.254	1210.14
451.628	1235.22
452.002	1222.11
452.376	1215.34
452.75	1255.79
453.123	1273.19
453.497	1292.17
453.871	1288.33
454.244	1339.63
454.618	1333.75
454.992	1346.18
455.365	1324.03
455.739	1376.46
456.112	1383.69
456.486	1397.03
456.859	1410.13
457.232	1456.46
457.606	1438.38
457.979	1476.35
458.352	1503.46
458.725	1503.24
459.099	1522.67
459.472	1530.58
459.845	1572.84
460.218	1595.89
460.591	1593.86
460.964	1608.32
461.337	1650.58
461.71	1675.89
462.083	1686.74
462.456	1696.23
462.829	1700.29
463.201	1736.45
463.574	1743.01
463.947	1766.06
464.32	1836.79
464.692	1834.3
465.065	1864.58
465.438	1878.37
465.81	1903.45
466.183	1922.44
466.555	1961.98
466.928	1954.07
467.3	1987.07
467.672	2030.23
468.045	2094.86
468.417	2112.94
468.789	2147.74
469.161	2165.14
469.534	2213.28
469.906	2287.17
470.278	2258.7
470.65	2321.75
471.022	2374.63
471.394	2452.82
471.766	2434.96
472.138	2451.23
472.51	2554.96
472.882	2610.1
473.253	2669.76
473.625	2704.11
473.997	2734.39
474.369	2798.57
474.74	2833.82
475.112	2929.64
475.484	2963.99
475.855	3049.86
476.227	3106.58
476.598	3271.55
476.97	3273.59
477.341	3376.41
477.713	3445.79
478.084	3485.78
478.455	3627.48
478.827	3639.23
479.198	3802.61
479.569	3848.26
479.94	4005.54
480.311	4030.85
480.682	4164.41
481.053	4281.24
481.424	4388.81
481.795	4537.28
482.166	4594.68
482.537	4693.21
482.908	4874
483.279	4968.46
483.65	5019.53
484.021	5259.52
484.391	5324.83
484.762	5486.18
485.133	5541.1
485.503	5698.38
485.874	5911.48
486.244	5960.75
486.615	6184.02
486.985	6305.37
487.356	6455.88
487.726	6557.34
488.097	6801.4
488.467	6858.12
488.837	7067.61
489.207	7238.68
489.578	7413.14
489.948	7574.04
490.318	7774.48
490.688	7848.61
491.058	8076.17
491.428	8266
491.798	8410.17
492.168	8605.88
492.538	8785.08
492.908	8969.93
493.278	9141.45
493.648	9222.58
494.017	9361.11
494.387	9577.83
494.757	9731.95
495.126	9887.42
495.496	10009
495.866	10154.31
496.235	10321.31
496.605	10533.06
496.974	10614.41
497.344	10828.87
497.713	10889.21
498.082	11053.95
498.452	11206.26
498.821	11381.17
499.19	11389.53
499.559	11643.31
499.928	11673.59
500.298	11825.68
500.667	12011.21
501.036	12067.71
501.405	12295.27
501.774	12323.74
502.143	12466.79
502.512	12597.41
502.88	12782.49
503.249	12668.82
503.618	12863.84
503.987	13054.8
504.356	13187.45
504.724	13251.4
505.093	13275.13
505.462	13481.68
505.83	13615.91
506.199	13666.76
506.567	13859.52
506.936	13800.99
507.304	14044.6
507.672	14130.7
508.041	14224.71
508.409	14275.78
508.777	14356.23
509.145	14509.9
509.514	14561.43
509.882	14626.73
510.25	14804.13
510.618	14827.86
510.986	14889.55
511.354	15040.06
511.722	15098.13
512.09	15223.78
512.458	15238.7
512.826	15314.63
513.193	15402.31
513.561	15464
513.929	15593.94
514.297	15629.65
514.664	15750.55
515.032	15733.15
515.4	15845.46
515.767	15913.71
516.135	16003.42
516.502	15894.5
516.869	16117.09
517.237	16162.74
517.604	16128.84
517.972	16257.43
518.339	16353.02
518.706	16370.42
519.073	16409.74
519.44	16528.83
519.808	16691.54
520.175	16544.88
520.542	16783.97
520.909	16836.62
521.276	16790.07
521.643	16892.44
522.009	16897.63
522.376	17018.76
522.743	17047.69
523.11	17284.97
523.477	17291.97
523.843	17301.69
524.21	17440.9
524.577	17493.1
524.943	17509.14
525.31	17526.09
525.676	17669.82
526.043	17682.92
526.409	17787.55
526.776	17824.39
527.142	17858.06
527.508	18005.4
527.874	18020.09
528.241	18083.14
528.607	17971.28
528.973	18160.43
529.339	18059.41
529.705	18196.13
530.071	18234.55
530.437	18254.44
530.803	18223.02
531.169	18267.09
531.535	18330.59
531.901	18163.59
532.267	18253.08
532.632	18307.77
532.998	18326.3
533.364	18279.97
533.73	18417.59
534.095	18360.87
534.461	18393.41
534.826	18406.3
535.192	18561.55
535.557	18469.57
535.923	18444.26
536.288	18476.8
536.653	18431.83
537.019	18368.1
537.384	18382.12
537.749	18378.95
538.114	18334.43
538.479	18343.7
538.845	18337.82
539.21	18312.74
539.575	18266.41
539.94	18359.07
540.305	18353.87
540.67	18175.57
541.034	18237.71
541.399	18381.21
541.764	18258.05
542.129	18237.94
542.494	18220.99
542.858	18182.57
543.223	18180.76
543.587	18133.53
543.952	18170.82
544.316	18023.71
544.681	18014.22
545.045	18047.21
545.41	18067.55
545.774	18051.5
546.138	18066.64
546.503	18020.77
546.867	17884.73
547.231	17973.31
547.595	17958.85
547.959	17946.65
548.324	17938.96
548.688	17930.38
549.052	17865.97
549.416	17911.17
549.779	17760.21
550.143	17847.44
550.507	17775.58
550.871	17872.98
551.235	17706.88
551.599	17811.74
551.962	17765.86
552.326	17661.68
552.689	17747.78
553.053	17627.79
553.417	17584.62
553.78	17797.72
554.143	17596.83
554.507	17654.9
554.87	17645.19
555.234	17831.62
555.597	17687.67
555.96	17670.5
556.323	17705.75
556.686	17619.42
557.05	17750.27
557.413	17631.4
557.776	17622.36
558.139	17645.64
558.502	17701.68
558.865	17690.16
559.228	17825.07
559.59	17759.99
559.953	17775.8
560.316	17859.87
560.679	17717.73
561.041	17881.34
561.404	17921.56
561.767	17974.44
562.129	17826.65
562.492	17916.59
562.854	17894.44
563.217	17849.7
563.579	17921.11
563.941	17951.17
564.304	18100.09
564.666	18009.92
565.028	18135.79
565.39	18083.82
565.753	18137.15
566.115	18091.95
566.477	18227.09
566.839	18174.44
567.201	18265.28
567.563	18234.1
567.925	18394.77
568.287	18301.44
568.648	18317.94
569.01	18291.27
569.372	18508.21
569.734	18340.76
570.095	18502.11
570.457	18568.55
570.819	18502.56
571.18	18487.65
571.542	18630.47
571.903	18671.37
572.265	18643.58
572.626	18632.5
572.987	18727.87
573.349	18691.94
573.71	18758.6
574.071	18738.04
574.432	18722.22
574.794	18936.23
575.155	18764.48
575.516	18626.18
575.877	18773.52
576.238	18790.01
576.599	18755.44
576.96	18936.45
577.32	18821.88
577.681	18857.58
578.042	18934.87
578.403	18849
578.763	18857.81
579.124	18928.77
579.485	19043.57
579.845	19031.59
580.206	18960.86
580.566	18981.42
580.927	18933.29
581.287	19057.13
581.648	18948.65
582.008	19103.45
582.368	18921.08
582.728	18936.45
583.089	18953.4
583.449	18810.13
583.809	18931.93
584.169	19016.22
584.529	18984.36
584.889	18979.61
585.249	18884.25
585.609	18897.58
585.969	18920.41
586.329	18935.55
586.688	18894.19
587.048	18880.63
587.408	18885.15
587.768	18780.3
588.127	18738.49
588.487	18764.03
588.846	18760.86
589.206	18759.73
589.565	18799.73
589.925	18744.59
590.284	18598.83
590.643	18781.43
591.003	18789.56
591.362	18795.66
591.721	18774.2
592.08	18766.06
592.44	18853.97
592.799	18800.64
593.158	18714.54
593.517	18736.23
593.876	18841.09
594.235	18647.87
594.593	18753.63
594.952	18777.81
595.311	18698.49
595.67	18738.04
596.029	18839.05
596.387	18785.95
596.746	18804.93
597.104	18711.82
597.463	18685.16
597.822	18708.66
598.18	18718.6
598.538	18598.61
598.897	18710.69
599.255	18563.81
599.613	18823.46
599.972	18589.79
600.33	18740.3
600.688	18574.2
601.046	18639.96
601.404	18690.81
601.762	18654.65
602.12	18746.4
602.478	18806.96
602.836	18698.72
603.194	18605.61
603.552	18741.43
603.91	18609.45
604.268	18707.08
604.625	18594.31
604.983	18717.47
605.341	18677.93
605.698	18678.38
606.056	18693.75
606.413	18758.15
606.771	18821.88
607.128	18903.23
607.485	18704.82
607.843	18738.72
608.2	18832.27
608.557	18799.28
608.914	18776
609.272	18887.41
609.629	19025.49
609.986	18886.96
610.343	18821.65
610.7	19001.76
611.057	18975.55
611.414	18978.03
611.771	18980.52
612.127	19079.95
612.484	19096.22
612.841	19108.65
613.198	18989.56
613.554	19030.01
613.911	19085.83
614.267	19069.56
614.624	18970.57
614.98	19032.95
615.337	19196.78
615.693	19119.05
616.05	19220.29
616.406	19210.34
616.762	19169.44
617.118	19144.36
617.475	19155.88
617.831	19112.94
618.187	19173.96
618.543	19282.88
618.899	19275.88
619.255	19232.94
619.611	19162.89
619.967	19349.1
620.323	19467.28
620.678	19305.48
621.034	19214.86
621.39	19237.23
621.746	19200.63
622.101	19454.86
622.457	19345.71
622.812	19355.42
623.168	19355.2
623.523	19367.4
623.879	19446.04
624.234	19304.8
624.589	19365.14
624.945	19371.24
625.3	19395.87
625.655	19220.29
626.01	19319.94
626.365	19358.14
626.72	19306.84
627.075	19403.56
627.43	19297.8
627.785	19250.57
628.14	19370.11
628.495	19231.36
628.85	19273.62
629.205	19231.13
629.559	19348.19
629.914	19144.36
630.269	19175.09
630.623	19154.07
630.978	19208.31
631.332	19241.08
631.687	19199.72
632.041	19176.22
632.396	19200.85
632.75	19048.31
633.104	19052.83
633.459	18998.6
633.813	18948.88
634.167	19068.65
634.521	18829.11
634.875	19021.87
635.229	18940.74
635.583	18834.08
635.937	18835.21
636.291	18912.05
636.645	18824.36
636.999	18795.21
637.352	18765.38
637.706	18658.94
638.06	18761.09
638.413	18722.9
638.767	18707.08
639.121	18769.68
639.474	18624.6
639.828	18619.62
640.181	18603.35
640.534	18730.35
640.888	18622.34
641.241	18569.23
641.594	18595.22
641.947	18542.34
642.301	18552.73
642.654	18522.68
643.007	18624.14
643.36	18537.82
643.713	18459.18
644.066	18557.48
644.419	18451.27
644.771	18323.36
645.124	18119.98
645.477	18211.95
645.83	18064.84
646.182	17871.17
646.535	17941.9
646.888	17942.13
647.24	17766.99
647.593	17917.95
647.945	17835.92
648.298	17827.33
648.65	17850.83
649.002	17693.77
649.355	17882.02
649.707	17790.27
650.059	17932.86
650.411	18189.13
650.763	18218.73
651.115	18298.28
651.467	18245.62
651.819	18229.35
652.171	18152.07
652.523	18099.64
652.875	18235.9
653.227	18124.95
653.578	18243.14
653.93	18230.26
654.282	18181.44
654.633	18064.38
654.985	18151.61
655.337	18204.27
655.688	18218.73
656.039	18265.51
656.391	18074.78
656.742	18101.44
657.094	18097.15
657.445	18279.75
657.796	18139.18
658.147	18209.46
658.498	18160.43
658.849	18170.14
659.2	18175.79
659.551	18152.52
659.902	18160.2
660.253	18140.54
660.604	18178.28
660.955	18148.68
661.306	18241.1
661.656	18092.86
662.007	18161.33
662.358	18228
662.708	18183.02
663.059	18209.01
663.409	18141.22
663.76	18233.19
664.11	18187.77
664.461	18235.68
664.811	18206.75
665.161	18195.91
665.511	18131.27
665.862	18169.24
666.212	18220.09
666.562	18163.82
666.912	18120.88
667.262	18164.27
667.612	18179.86
667.962	18141.9
668.312	18271.61
668.662	18330.14
669.011	18163.82
669.361	18177.15
669.711	18164.49
670.06	18237.71
670.41	18146.19
670.76	18135.34
671.109	18188.9
671.459	18137.83
671.808	18131.95
672.157	18155
672.507	18005.63
672.856	18072.29
673.205	18022.13
673.554	18072.75
673.904	17998.85
674.253	18065.06
674.602	18046.08
674.951	17807.67
675.3	17644.06
675.649	18022.35
675.998	17847.44
676.346	17911.62
676.695	17898.06
677.044	17789.81
677.393	17888.12
677.741	17893.99
678.09	17884.5
678.438	17838.85
678.787	17770.83
679.135	17809.48
679.484	17724.51
679.832	17711.17
680.181	17694.22
680.529	17622.59
680.877	17646.54
681.225	17609.71
681.573	17673.89
681.922	17513.66
682.27	17492.42
682.618	17518.18
682.966	17361.13
683.314	17428.92
683.661	17498.75
684.009	17276.38
684.357	17243.39
684.705	17269.38
685.053	17282.26
685.4	17238.87
685.748	17125.2
686.095	17087.01
686.443	17061.47
686.79	16984.86
687.138	17079.78
687.485	16983.96
687.832	16926.11
688.18	17023.06
688.527	16906.22
688.874	16813.12
689.221	16799.33
689.568	16788.71
689.915	16684.08
690.262	16659.67
690.609	16639.34
690.956	16560.69
691.303	16595.27
691.65	16502.39
691.997	16463.52
692.344	16318.89
692.69	16272.57
693.037	16330.87
693.383	16150.08
693.73	16171.78
694.077	16039.13
694.423	16082.97
694.769	16074.61
695.116	15960.94
695.462	15975.17
695.808	15899.47
696.155	15840.49
696.501	15774.05
696.847	15778.57
697.193	15596.43
697.539	15630.55
697.885	15448.63
698.231	15500.38
698.577	15541.29
698.923	15478.69
699.269	15333.83
699.614	15329.77
699.96	15164.57
700.306	15179.94
700.651	15134.74
700.997	15122.09
701.342	15013.84
701.688	14957.12
702.033	14868.54
702.379	14857.91
702.724	14874.19
703.069	14877.57
703.415	14651.14
703.76	14711.7
704.105	14648.65
704.45	14656.11
704.795	14553.29
705.14	14486.17
705.485	14488.66
705.83	14375.89
706.175	14348.78
706.52	14343.8
706.865	14323.47
707.209	14311.94
707.554	14146.97
707.899	14244.37
708.243	14107.43
708.588	14046.64
708.932	13982.68
709.277	14047.99
709.621	13925.96
709.966	13880.76
710.31	13948.79
710.654	13828.79
710.998	13863.82
711.342	13843.03
711.687	13777.94
712.031	13653.43
712.375	13703.37
712.719	13640.55
713.063	13617.95
713.407	13711.05
713.75	13573.43
714.094	13619.75
714.438	13585.18
714.782	13591.73
715.125	13468.35
715.469	13507.44
715.812	13366.2
716.156	13294.11
716.499	13314.45
716.843	13288.46
717.186	13240.78
717.53	13338.18
717.873	13352.64
718.216	13226.32
718.559	13237.39
718.902	13162.14
719.246	13204.85
719.589	13113.1
719.932	13105.19
720.275	13131.86
720.617	13054.8
720.96	13078.07
721.303	13021.35
721.646	13096.15
721.989	12985.2
722.331	12963.95
722.674	12969.6
723.016	13050.96
723.359	13024.74
723.701	12956.27
724.044	12817.29
724.386	12888.7
724.729	12989.49
725.071	12860.45
725.413	12942.94
725.755	12846.67
726.097	12797.86
726.439	12721.25
726.782	12740.23
727.124	12763.05
727.465	12773.45
727.807	12673.79
728.149	12666.79
728.491	12774.81
728.833	12723.96
729.175	12665.2
729.516	12671.08
729.858	12653.68
730.199	12667.24
730.541	12696.39
730.882	12666.11
731.224	12666.11
731.565	12595.83
731.906	12665.43
732.248	12704.07
732.589	12599.22
732.93	12569.61
733.271	12617.07
733.612	12561.7
733.953	12658.42
734.294	12565.77
734.635	12512.67
734.976	12645.77
735.317	12516.73
735.658	12538.88
735.999	12527.58
736.339	12526.22
736.68	12589.27
737.021	12510.63
737.361	12515.15
737.702	12651.64
738.042	12582.27
738.383	12561.7
738.723	12563.51
739.063	12540.01
739.404	12606.9
739.744	12564.19
740.084	12546.79
740.424	12616.17
740.764	12559.44
741.104	12670.85
741.444	12665.66
741.784	12559.9
742.124	12727.57
742.464	12640.12
742.804	12689.16
743.143	12656.84
743.483	12670.63
743.823	12635.15
744.162	12659.33
744.502	12800.79
744.841	12754.69
745.181	12925.76
745.52	12802.15
745.86	12984.52
746.199	12900
746.538	13028.13
746.877	13100.67
747.216	13155.13
747.556	13085.76
747.895	13177.73
748.234	13173.66
748.573	13245.53
748.911	13342.25
749.25	13440.1
749.589	13430.38
749.928	13561.45
750.267	13646.19
750.605	13669.02
750.944	13792.86
751.283	13826.76
751.621	14026.07
751.96	14027.2
752.298	14052.74
752.636	14290.02
752.975	14240.53
753.313	14310.36
753.651	14506.29
753.989	14655.89
754.327	14719.16
754.666	14785.37
755.004	14979.72
755.342	15111.24
755.679	15342.87
756.017	15319.6
756.355	15565.69
756.693	15675.29
757.031	15808.4
757.368	15939.47
757.706	16086.36
758.044	16231.89
758.381	16484.54
758.719	16567.02
759.056	16871.87
759.394	16898.76
759.731	16951.42
760.068	17240.22
760.405	17315.7
760.743	17418.3
761.08	17699.2
761.417	17791.17
761.754	17994.33
762.091	18111.39
762.428	18346.41
762.765	18449.46
763.102	18651.94
763.438	18800.86
763.775	18861.65
764.112	19057.8
764.449	19336.21
764.785	19389.32
765.122	19446.49
765.458	19550.22
765.795	19761.74
766.131	19864.56
766.467	20123.76
766.804	20104.1
767.14	20292.12
767.476	20448.73
767.812	20576.86
768.148	20734.82
768.485	20903.18
768.821	20770.98
769.157	21001.71
769.492	21063.85
769.828	21225.88
770.164	21220.23
770.5	21371.64
770.836	21568.92
771.171	21508.14
771.507	21551.07
771.842	21657.96
772.178	21690.96
772.513	21842.59
772.849	21937.73
773.184	21953.32
773.519	21989.93
773.855	21993.55
774.19	22141.56
774.525	22172.98
774.86	22247.55
775.195	22350.15
775.53	22391.05
775.865	22326.87
776.2	22308.34
776.535	22311.5
776.87	22435.79
777.205	22389.24
777.539	22282.58
777.874	22546.75
778.209	22366.87
778.543	22408
778.878	22388.11
779.212	22441.44
779.547	22351.28
779.881	22584.72
780.215	22439.18
780.55	22597.15
780.884	22482.57
781.218	22398.28
781.552	22515.34
781.886	22430.6
782.22	22315.35
782.554	22407.77
782.888	22261.79
783.222	22331.84
783.556	22262.24
783.889	22101.57
784.223	22108.8
784.557	22167.1
784.89	22197.38
785.224	22072.87
785.557	21873.1
785.891	21908.8
786.224	21956.48
786.558	22003.94
786.891	21830.61
787.224	21838.97
787.557	21777.05
787.891	21766.66
788.224	21622.93
788.557	21729.37
788.89	21744.96
789.223	21825.41
789.556	21558.08
789.888	21457.51
790.221	21463.62
790.554	21337.52
790.887	21412.32
791.219	21244.41
791.552	21281.02
791.884	21214.13
792.217	21256.39
792.549	21158.09
792.882	21045.1
793.214	20951.99
793.546	21140.01
793.879	20894.59
794.211	20841.03
794.543	20917.87
794.875	20864.99
795.207	20961.48
795.539	20816.63
795.871	20772.11
796.203	20592.45
796.535	20595.16
796.867	20537.77
797.198	20476.75
797.53	20486.02
797.862	20372.8
798.193	20331.67
798.525	20386.81
798.856	20338
799.188	20147.04
799.519	20102.3
799.85	19907.73
800.182	20077.21
800.513	20075.63
800.844	19881.06
801.175	19924.45
801.506	19932.81
801.837	19884
802.168	19802.19
802.499	19769.65
802.83	19651.91
803.161	19583.44
803.491	19555.42
803.822	19602.65
804.153	19486.27
804.483	19346.38
804.814	19317.68
805.145	19287.18
805.475	19208.08
805.805	19220.06
806.136	19263.67
806.466	19105.26
806.796	19168.54
807.126	19048.09
807.457	18946.17
807.787	18935.1
808.117	18894.87
808.447	18828.43
808.777	18791.37
809.107	18740.98
809.436	18733.29
809.766	18691.49
810.096	18599.06
810.426	18501.21
810.755	18587.99
811.085	18512.06
811.414	18556.8
811.744	18399.29
812.073	18352.74
812.403	18295.34
812.732	18304.15
813.061	18242.68
813.39	18135.12
813.719	18157.49
814.049	18238.16
814.378	18178.05
814.707	18032.52
815.036	18128.56
815.365	17993.2
815.693	17828.46
816.022	17985.97
816.351	17820.32
816.68	17794.56
817.008	17894.22
817.337	17632.08
817.665	17624.62
817.994	17624.85
818.322	17652.64
818.651	17506.43
818.979	17443.84
819.307	17518.86
819.636	17611.51
819.964	17363.39
820.292	17436.15
820.62	17464.63
820.948	17397.73
821.276	17439.99
821.604	17327
821.932	17396.83
822.259	17337.62
822.587	17303.5
822.915	17309.6
823.243	17354.35
823.57	17321.8
823.898	17292.2
824.225	17289.94
824.553	17299.66
824.88	17403.84
825.207	17326.55
825.535	17315.93
825.862	17411.75
826.189	17359.77
826.516	17364.97
826.843	17363.39
827.17	17435.47
827.497	17407
827.824	17317.51
828.151	17411.97
828.478	17366.1
828.805	17404.06
829.131	17331.52
829.458	17371.97
829.785	17306.66
830.111	17330.17
830.438	17450.39
830.764	17311.86
831.09	17416.27
831.417	17334.91
831.743	17364.06
832.069	17382.14
832.395	17339.21
832.722	17363.16
833.048	17219.21
833.374	17337.62
833.7	17225.08
834.026	17314.35
834.351	17200.68
834.677	17218.08
835.003	17222.37
835.329	17247.46
835.654	17117.52
835.98	17051.98
836.306	17033.68
836.631	17066.67
836.956	17130.62
837.282	17090.17
837.607	17016.28
837.932	17043.39
838.258	16902.83
838.583	16922.72
838.908	16827.81
839.233	16868.03
839.558	16865.32
839.883	16784.19
840.208	16760.92
840.533	16656.06
840.858	16656.51
841.182	16707.13
841.507	16670.3
841.832	16554.82
842.156	16593.24
842.481	16472.11
842.805	16563.86
843.13	16453.35
843.454	16475.5
843.778	16382.62
844.103	16353.92
844.427	16319.12
844.751	16352.34
845.075	16249.52
845.399	16237.54
845.723	16148.73
846.047	16198.44
846.371	16009.07
846.695	16050.65
847.019	15942.41
847.343	15837.32
847.666	15741.51
847.99	15702.86
848.313	15629.87
848.637	15628.74
848.96	15618.12
849.284	15491.57
849.607	15364.79
849.931	15355.53
850.254	15243.22
850.577	15221.52
850.9	15058.14
851.223	15126.38
851.546	15002.54
851.869	14835.32
852.192	14976.78
852.515	14878.03
852.838	14766.39
853.161	14742.21
853.483	14721.65
853.806	14645.49
854.129	14620.41
854.451	14484.59
854.774	14406.4
855.096	14471.48
855.419	14410.92
855.741	14341.54
856.063	14321.66
856.385	14248.21
856.708	14335.44
857.03	14160.98
857.352	14194.2
857.674	14071.95
857.996	14082.79
858.318	13964.15
858.64	13972.29
858.961	13963.93
859.283	13931.39
859.605	13874.66
859.926	13835.34
860.248	13808.9
860.57	13732.07
860.891	13782.01
861.212	13620.21
861.534	13586.31
861.855	13614.56
862.176	13621.56
862.498	13535.92
862.819	13599.42
863.14	13537.05
863.461	13480.78
863.782	13417.27
864.103	13463.37
864.424	13377.95
864.745	13418.86
865.065	13335.24
865.386	13334.34
865.707	13323.72
866.027	13251.18
866.348	13217.05
866.668	13254.79
866.989	13212.53
867.309	13155.81
867.63	13196.26
867.95	13210.5
868.27	13086.89
868.59	13095.93
868.91	13071.07
869.23	13075.81
869.55	12995.14
869.87	13031.75
870.19	12951.98
870.51	13062.71
870.83	13058.19
871.15	12920.79
871.469	12931.86
871.789	12944.07
872.109	12924.18
872.428	12832.88
872.748	12907.46
873.067	12867.01
873.386	12866.78
873.706	12790.85
874.025	12724.41
874.344	12691.87
874.663	12695.49
874.982	12668.37
875.301	12662.04
875.62	12608.93
875.939	12565.32
876.258	12588.37
876.577	12599.89
876.896	12616.62
877.214	12468.37
877.533	12445.1
877.852	12505.66
878.17	12486.9
878.489	12557.64
878.807	12407.58
879.125	12401.26
879.444	12376.62
879.762	12342.27
880.08	12370.52
880.398	12308.83
880.716	12358.09
881.034	12237.64
881.352	12278.55
881.67	12259.56
881.988	12247.36
882.306	12234.25
882.624	12126.01
882.941	12096.86
883.259	12112.22
883.577	12036.75
883.894	11996.29
884.212	11976.86
884.529	11989.97
884.846	11941.15
885.164	11932.79
885.481	11921.95
885.798	11898.9
886.115	11801.05
886.432	11821.84
886.75	11763.98
887.067	11856.41
887.383	11761.05
887.7	11782.29
888.017	11660.71
888.334	11690.09
888.651	11646.7
888.967	11577.77
889.284	11576.64
889.6	11550.66
889.917	11353.83
890.233	11498.45
890.55	11393.37
890.866	11370.77
891.182	11377.1
891.498	11321.96
891.815	11280.61
892.131	11260.95
892.447	11177.33
892.763	11129.42
893.079	11155.64
893.395	11087.39
893.71	11071.12
894.026	11031.8
894.342	11077.9
894.657	10932.37
894.973	10931.24
895.289	10886.95
895.604	10902.31
895.92	10763.33
896.235	10726.5
896.55	10726.72
896.865	10667.97
897.181	10608.08
897.496	10631.13
897.811	10622.32
898.126	10573.96
898.441	10520.4
898.756	10510.23
899.071	10431.36
899.386	10492.83
899.7	10342.55
900.015	10282.67
900.33	10251.93
900.644	10224.82
900.959	10328.32
901.273	10279.5
901.588	10204.48
901.902	10089
902.216	10149.56
902.531	10136
902.845	10002.22
903.159	9935.56
903.473	9938.04
903.787	9830.7
904.101	9796.8
904.415	9816.01
904.729	9770.59
905.042	9712.96
905.356	9659.86
905.67	9691.95
905.984	9697.15
906.297	9608.79
906.611	9543.7
906.924	9516.13
907.237	9521.56
907.551	9485.63
907.864	9438.85
908.177	9449.7
908.491	9319.08
908.804	9254.67
909.117	9258.29
909.43	9187.33
909.743	9136.93
910.056	9150.72
910.368	9089.93
910.681	9084.28
910.994	9074.56
911.307	8997.73
911.619	8882.03
911.932	8975.36
912.244	8894.91
912.557	8854
912.869	8705.31
913.181	8724.29
913.494	8759.54
913.806	8710.05
914.118	8685.87
914.43	8647.68
914.742	8568.81
915.054	8516.39
915.366	8499.89
915.678	8507.12
915.99	8489.04
916.302	8395.94
916.613	8362.94
916.925	8392.55
917.236	8329.5
917.548	8273.91
917.859	8271.19
918.171	8261.48
918.482	8186.68
918.794	8143.29
919.105	8150.52
919.416	8030.52
919.727	8032.56
920.038	8072.33
920.349	7949.17
920.66	7951.2
920.971	7914.82
921.282	7873.01
921.593	7834.14
921.903	7802.28
922.214	7775.16
922.525	7713.02
922.835	7728.84
923.146	7678.44
923.456	7616.97
923.767	7611.78
924.077	7579.91
924.387	7529.29
924.697	7514.6
925.008	7427.38
925.318	7415.4
925.628	7438
925.938	7342.86
926.248	7348.73
926.558	7304.21
926.867	7294.72
927.177	7248.62
927.487	7236.42
927.796	7174.27
928.106	7114.16
928.416	7181.73
928.725	7123.43
929.034	7091.56
929.344	7108.51
929.653	7018.8
929.962	7006.82
930.271	6992.58
930.581	6979.25
930.89	6853.61
931.199	6892.47
931.508	6821.97
931.817	6822.19
932.125	6837.33
932.434	6803.21
932.743	6702.65
933.051	6706.94
933.36	6669.2
933.669	6601.18
933.977	6585.36
934.286	6638.47
934.594	6593.05
934.902	6510.79
935.21	6545.82
935.519	6494.97
935.827	6449.1
936.135	6361.87
936.443	6350.79
936.751	6415.42
937.059	6313.73
937.367	6320.96
937.674	6281.87
937.982	6325.03
938.29	6217.24
938.597	6265.82
938.905	6150.35
939.213	6158.71
939.52	6144.25
939.827	6148.76
940.135	6061.54
940.442	6005.04
940.749	5979.05
941.056	6010.24
941.363	5971.37
941.67	5932.5
941.977	5887.3
942.284	5872.39
942.591	5864.48
942.898	5862.9
943.205	5852.95
943.511	5753.75
943.818	5835.1
944.125	5748.1
944.431	5716.69
944.738	5675.33
945.044	5675.11
945.35	5582.9
945.657	5638.04
945.963	5577.03
946.269	5551.04
946.575	5555.79
946.881	5499.97
947.187	5486.41
947.493	5473.98
947.799	5436.47
948.105	5447.31
948.41	5384.27
948.716	5388.33
949.022	5374.32
949.327	5366.41
949.633	5282.57
949.938	5278.51
950.244	5304.72
950.549	5266.08
950.854	5213.42
951.16	5219.75
951.465	5157.15
951.77	5136.36
952.075	5111.73
952.38	5094.78
952.685	5125.74
952.99	5012.98
953.294	5009.13
953.599	5079.41
953.904	4990.15
954.209	5011.39
954.513	4971.85
954.818	4943.37
955.122	4883.26
955.426	4830.38
955.731	4867.44
956.035	4808.24
956.339	4821.12
956.643	4800.33
956.948	4784.28
957.252	4742.25
957.556	4746.09
957.86	4703.61
958.163	4697.28
958.467	4694.34
958.771	4680.55
959.075	4670.61
959.378	4613.89
959.682	4617.96
959.985	4597.17
960.289	4545.64
960.592	4558.75
960.896	4490.28
961.199	4460.45
961.502	4461.13
961.805	4424.06
962.108	4421.13
962.411	4437.4
962.714	4423.39
963.017	4377.96
963.32	4375.7
963.623	4345.2
963.926	4354.01
964.228	4309.94
964.531	4280.79
964.833	4308.81
965.136	4223.39
965.438	4261.13
965.741	4231.3
966.043	4149.5
966.345	4207.57
966.648	4146.11
966.95	4143.62
967.252	4091.64
967.554	4115.37
967.856	4084.19
968.158	4045.09
968.46	4039.89
968.761	4022.49
969.063	4015.49
969.365	3945.43
969.666	3991.53
969.968	3952.21
970.269	3921.7
970.571	3937.07
970.872	3908.82
971.174	3894.81
971.475	3915.38
971.776	3875.83
972.077	3889.39
972.378	3814.81
972.679	3806.68
972.98	3815.72
973.281	3770.97
973.582	3781.6
973.883	3730.3
974.183	3703.86
974.484	3714.93
974.785	3704.31
975.085	3646.46
975.386	3672.9
975.686	3639.9
975.986	3650.98
976.287	3656.63
976.587	3592.67
976.887	3585.67
977.187	3595.16
977.487	3518.1
977.787	3525.11
978.087	3520.36
978.387	3523.98
978.687	3506.8
978.987	3486.24
979.286	3459.8
979.586	3454.82
979.885	3397.88
980.185	3407.59
980.484	3385.22
980.784	3356.07
981.083	3323.98
981.382	3377.31
981.682	3356.75
981.981	3329.18
982.28	3284.66
982.579	3251.44
982.878	3284.43
983.177	3224.1
983.475	3242.17
983.774	3216.19
984.073	3234.72
984.372	3167.37
984.67	3145.45
984.969	3160.14
985.267	3171.67
985.566	3112.46
985.864	3113.59
986.162	3109.52
986.461	3082.63
986.759	3086.25
987.057	3048.96
987.355	3059.13
987.653	3035.4
987.951	3033.37
988.249	2991.33
988.547	2964.67
988.844	2970.77
989.142	2951.79
989.44	2942.3
989.737	2921.05
990.035	2895.07
990.332	2915.18
990.63	2907.27
990.927	2885.12
991.224	2848.06
991.521	2875.4
991.819	2842.64
992.116	2803.54
992.413	2802.19
992.71	2817.78
993.006	2797.21
993.303	2771.23
993.6	2759.25
993.897	2741.17
994.193	2745.01
994.49	2738.23
994.787	2725.35
995.083	2702.53
995.379	2651.46
995.676	2643.77
995.972	2644.68
996.268	2623.21
996.565	2613.04
996.861	2573.49
997.157	2594.51
997.453	2624.56
997.749	2617.11
998.044	2532.14
998.34	2554.06
998.636	2573.27
998.932	2538.24
999.227	2486.26
999.523	2517.9
999.818	2473.38
1000.114	2478.8
1000.409	2443.33
1000.704	2460.05
1001	2436.32
1001.295	2441.97
1001.59	2408.52
1001.885	2430.67
1002.18	2386.15
1002.475	2354.29
1002.77	2349.99
1003.065	2341.18
1003.359	2327.4
1003.654	2298.02
1003.949	2300.73
1004.243	2280.84
1004.538	2284.23
1004.832	2258.02
1005.127	2221.41
1005.421	2224.8
1005.715	2228.64
1006.009	2208.08
1006.304	2188.19
1006.598	2180.96
1006.892	2145.03
1007.186	2156.1
1007.48	2129.21
1007.773	2129.66
1008.067	2137.34
1008.361	2103.67
1008.655	2082.43
1008.948	2084.46
1009.242	2093.28
1009.535	2081.98
1009.829	2060.28
1010.122	2056.44
1010.415	2048.08
1010.708	2003.56
1011.001	2018.25
1011.295	1961.3
1011.588	1971.7
1011.881	1942.32
1012.173	1967.86
1012.466	1935.09
1012.759	1940.74
1013.052	1899.84
1013.344	1920.18
1013.637	1941.64
1013.93	1880.85
1014.222	1871.59
1014.514	1857.35
1014.807	1840.18
1015.099	1846.51
1015.391	1808.31
1015.683	1810.57
1015.976	1807.41
1016.268	1788.65
1016.56	1803.57
1016.851	1784.81
1017.143	1798.14
1017.435	1753.4
1017.727	1738.71
1018.018	1714.08
1018.31	1694.42
1018.602	1698.71
1018.893	1704.36
1019.185	1681.54
1019.476	1684.7
1019.767	1643.8
1020.058	1615.78
1020.35	1637.02
1020.641	1645.38
1020.932	1609.68
1021.223	1602.22
1021.514	1572.61
1021.804	1580.3
1022.095	1582.11
1022.386	1573.52
1022.677	1555.44
1022.967	1522.9
1023.258	1534.42
1023.548	1524.48
1023.839	1534.42
1024.129	1548.89
1024.419	1480.64
1024.709	1486.29
1025	1484.48
1025.29	1445.16
1025.58	1471.83
1025.87	1439.96
1026.16	1449.45
1026.449	1417.14
1026.739	1442
1027.029	1421.66
1027.319	1388.66
1027.608	1383.92
1027.898	1378.04
1028.187	1365.39
1028.477	1359.74
1028.766	1358.61
1029.055	1350.47
1029.344	1340.98
1029.634	1340.3
1029.923	1346.63
1030.212	1292.85
1030.501	1301.66
1030.79	1265.96
1031.078	1290.14
1031.367	1259.85
1031.656	1265.73
1031.945	1235.67
1032.233	1231.38
1032.522	1240.87
1032.81	1209.91
1033.099	1225.96
1033.387	1217.37
1033.675	1206.75
1033.963	1191.61
1034.251	1200.19
1034.54	1182.57
1034.828	1171.27
1035.116	1133.08
1035.403	1159.74
1035.691	1159.52
1035.979	1140.08
1036.267	1144.15
1036.554	1126.98
1036.842	1089.01
1037.129	1097.6
1037.417	1056.24
1037.704	1068.22
1037.992	1059.18
1038.279	1101.21
1038.566	1077.49
1038.853	1077.49
1039.14	1077.49
