Data from hue_36_FLMS001491_00021.txt Node
Date: Tue Feb 07 17:29:34 GMT 2017
User: dcchb
Spectrometer: FLMS00149
Trigger mode: 0
Integration Time (sec): 2.000000E-2
Scans to average: 10
Electric dark correction enabled: true
Nonlinearity correction enabled: false
Boxcar width: 0
XAxis mode: Wavelengths
Number of Pixels in Spectrum: 2048
>>>>>Begin Spectral Data<<<<<
341.393	-5.54
341.776	-5.54
342.16	-5.54
342.543	-64.52
342.927	-72.88
343.31	-61.58
343.693	-75.14
344.077	-64.29
344.46	-58.42
344.843	-64.74
345.226	-48.7
345.61	-26.1
345.993	-20.45
346.376	-16.61
346.759	17.51
347.142	36.27
347.525	34.24
347.908	61.81
348.291	94.8
348.674	101.13
349.057	90.28
349.44	133.89
349.823	160.11
350.206	169.15
350.588	188.13
350.971	228.58
351.354	226.32
351.737	231.97
352.119	262.93
352.502	274.91
352.884	278.07
353.267	287.11
353.65	310.84
354.032	307.22
354.414	310.61
354.797	321.46
355.179	318.97
355.562	316.71
355.944	319.43
356.326	328.69
356.709	324.4
357.091	349.48
357.473	321.01
357.855	344.28
358.238	358.3
358.62	351.52
359.002	339.99
359.384	356.49
359.766	356.94
360.148	367.56
360.53	355.36
360.912	350.16
361.294	340.44
361.676	340.22
362.057	328.47
362.439	349.26
362.821	344.06
363.203	319.88
363.584	316.04
363.966	329.82
364.348	317.17
364.729	332.08
365.111	327.34
365.493	336.6
365.874	325.08
366.256	302.03
366.637	311.29
367.019	295.92
367.4	308.13
367.781	319.2
368.163	316.49
368.544	302.48
368.925	322.59
369.306	306.09
369.688	325.08
370.069	317.62
370.45	327.79
370.831	318.07
371.212	312.65
371.593	333.21
371.974	322.59
372.355	311.74
372.736	344.96
373.117	310.39
373.498	322.59
373.879	327.34
374.26	313.1
374.641	300.22
375.021	320.1
375.402	349.26
375.783	313.55
376.163	318.52
376.544	327.11
376.925	334.34
377.305	318.07
377.686	320.56
378.066	324.17
378.447	325.98
378.827	325.53
379.208	343.83
379.588	326.88
379.968	351.29
380.349	346.32
380.729	326.43
381.109	346.77
381.489	351.74
381.87	335.02
382.25	337.73
382.63	339.09
383.01	344.28
383.39	354.91
383.77	331.86
384.15	338.86
384.53	328.01
384.91	350.84
385.29	335.02
385.67	330.95
386.049	339.77
386.429	334.79
386.809	360.56
387.189	339.99
387.568	355.13
387.948	375.7
388.328	351.74
388.707	364.62
389.087	346.77
389.466	355.36
389.846	346.77
390.225	355.81
390.605	361.69
390.984	353.55
391.363	377.73
391.743	362.59
392.122	361.23
392.501	386.54
392.881	366.88
393.26	377.05
393.639	372.76
394.018	382.25
394.397	366.88
394.776	359.2
395.155	358.3
395.534	377.28
395.913	387.9
396.292	372.31
396.671	386.54
397.05	378.41
397.429	391.06
397.808	368.92
398.186	392.65
398.565	391.06
398.944	392.87
399.323	380.22
399.701	385.87
400.08	391.52
400.458	403.27
400.837	389.48
401.215	393.55
401.594	387.9
401.972	404.4
402.351	384.74
402.729	394
403.107	399.65
403.486	401.46
403.864	408.69
404.242	412.53
404.62	405.07
404.999	409.37
405.377	419.54
405.755	402.59
406.133	422.7
406.511	410.27
406.889	415.02
407.267	425.86
407.645	410.72
408.023	422.47
408.401	425.41
408.779	442.14
409.156	454.79
409.534	431.51
409.912	426.77
410.29	441.23
410.667	425.19
411.045	434.68
411.422	448.69
411.8	450.27
412.178	470.38
412.555	455.47
412.933	472.87
413.31	459.99
413.687	487.11
414.065	456.82
414.442	452.76
414.819	458.63
415.197	488.46
415.574	502.25
415.951	483.72
416.328	485.75
416.705	482.36
417.082	485.3
417.46	497.05
417.837	502.47
418.214	495.47
418.591	499.53
418.967	476.03
419.344	502.47
419.721	492.08
420.098	497.5
420.475	512.19
420.852	493.21
421.228	528.01
421.605	520.78
421.982	498.63
422.358	544.05
422.735	533.43
423.111	525.3
423.488	537.05
423.864	524.62
424.241	543.6
424.617	545.18
424.994	551.06
425.37	537.27
425.746	547.9
426.123	559.42
426.499	559.87
426.875	563.94
427.251	572.53
427.627	581.57
428.003	585.18
428.379	580.21
428.756	563.94
429.132	586.99
429.507	592.41
429.883	568.69
430.259	590.38
430.635	593.32
431.011	610.72
431.387	613.88
431.763	615.46
432.138	626.31
432.514	633.09
432.89	623.83
433.265	639.42
433.641	638.29
434.016	636.48
434.392	646.65
434.767	634.67
435.143	653.43
435.518	692.52
435.894	653.66
436.269	666.31
436.644	675.35
437.02	678.51
437.395	677.16
437.77	684.84
438.145	685.52
438.52	698.63
438.895	695.69
439.271	692.98
439.646	704.73
440.021	722.81
440.395	722.58
440.77	712.64
441.145	714.44
441.52	739.98
441.895	739.75
442.27	724.16
442.645	735.46
443.019	758.06
443.394	764.61
443.769	761.9
444.143	735.91
444.518	753.77
444.892	754.44
445.267	778.85
445.641	770.71
446.016	772.52
446.39	803.93
446.764	807.1
447.139	789.7
447.513	784.5
447.887	784.95
448.262	783.37
448.636	789.47
449.01	837.38
449.384	830.15
449.758	799.87
450.132	819.07
450.506	811.17
450.88	838.06
451.254	831.96
451.628	831.5
452.002	862.24
452.376	827.21
452.75	876.02
453.123	871.73
453.497	853.88
453.871	896.13
454.244	883.25
454.618	908.79
454.992	917.38
455.365	904.04
455.739	937.94
456.112	958.73
456.486	954.21
456.859	946.98
457.232	967.32
457.606	953.08
457.979	949.24
458.352	995.12
458.725	980.43
459.099	996.92
459.472	1033.53
459.845	1010.26
460.218	1055.23
460.591	1035.34
460.964	1066.53
461.337	1088.45
461.71	1062.23
462.083	1092.29
462.456	1100.42
462.829	1109.01
463.201	1125.06
463.574	1130.48
463.947	1137.94
464.32	1151.95
464.692	1163.47
465.065	1172.51
465.438	1195.56
465.81	1229.69
466.183	1212.28
466.555	1291.15
466.928	1279.85
467.3	1285.73
467.672	1314.43
468.045	1332.96
468.417	1332.96
468.789	1353.75
469.161	1358.95
469.534	1381.09
469.906	1417.7
470.278	1438.72
470.65	1477.81
471.022	1473.29
471.394	1517.59
471.766	1507.64
472.138	1548.55
472.51	1578.15
472.882	1621.77
473.253	1634.19
473.625	1669
473.997	1721.88
474.369	1732.95
474.74	1748.09
475.112	1851.36
475.484	1835.32
475.855	1877.35
476.227	1880.06
476.598	1961.87
476.97	2034.86
477.341	2051.81
477.713	2102.88
478.084	2111.47
478.455	2181.52
478.827	2248.19
479.198	2331.8
479.569	2308.53
479.94	2377.45
480.311	2465.81
480.682	2539.26
481.053	2612.25
481.424	2651.57
481.795	2704.67
482.166	2807.95
482.537	2847.27
482.908	2962.29
483.279	3000.03
483.65	3058.79
484.021	3206.36
484.391	3225.11
484.762	3291.78
485.133	3342.62
485.503	3476.18
485.874	3557.08
486.244	3612.9
486.615	3737.87
486.985	3826.68
487.356	3940.12
487.726	4004.08
488.097	4081.36
488.467	4155.26
488.837	4274.58
489.207	4378.98
489.578	4492.2
489.948	4548.24
490.318	4642.7
490.688	4762.47
491.058	4821.68
491.428	4948.23
491.798	5024.16
492.168	5185.97
492.538	5237.94
492.908	5334.44
493.278	5409.91
493.648	5509.8
494.017	5618.95
494.387	5728.32
494.757	5795.21
495.126	5887.19
495.496	5931.71
495.866	6095.32
496.235	6156.11
496.605	6241.76
496.974	6385.71
497.344	6400.62
497.713	6552.48
498.082	6613.5
498.452	6754.96
498.821	6779.6
499.19	6849.2
499.559	6912.02
499.928	6983.43
500.298	7036.31
500.667	7194.05
501.036	7195.63
501.405	7311.79
501.774	7383.65
502.143	7491.67
502.512	7518.33
502.88	7633.13
503.249	7559.91
503.618	7780.25
503.987	7807.37
504.356	7933.46
504.724	7986.34
505.093	8039.45
505.462	8159.9
505.83	8162.84
506.199	8289.16
506.567	8402.6
506.936	8391.98
507.304	8474.24
507.672	8575.93
508.041	8591.53
508.409	8677.85
508.777	8759.2
509.145	8850.73
509.514	8861.12
509.882	9011.18
510.25	9005.98
510.618	9086.88
510.986	9081.91
511.354	9186.31
511.722	9259.3
512.09	9319.87
512.458	9395.8
512.826	9465.17
513.193	9563.93
513.561	9605.74
513.929	9687.32
514.297	9762.79
514.664	9753.08
515.032	9861.1
515.4	9916.91
515.767	9875.33
516.135	10006.4
516.502	9958.95
516.869	10165.04
517.237	10195.33
517.604	10148.77
517.972	10279.84
518.339	10370.69
518.706	10341.31
519.073	10403.23
519.44	10449.56
519.808	10540.17
520.175	10607.97
520.542	10725.48
520.909	10800.06
521.276	10716.67
521.643	10880.5
522.009	10946.94
522.376	11057.45
522.743	11066.04
523.11	11200.5
523.477	11232.36
523.843	11305.8
524.21	11436.42
524.577	11472.35
524.943	11572.24
525.31	11641.39
525.676	11694.27
526.043	11772.01
526.409	11790.99
526.776	11915.73
527.142	12006.58
527.508	12059.23
527.874	12188.72
528.241	12271.43
528.607	12221.94
528.973	12370.86
529.339	12362.5
529.705	12458.09
530.071	12630.74
530.437	12656.96
530.803	12698.76
531.169	12711.19
531.535	12721.13
531.901	12857.85
532.267	12864.86
532.632	12984.18
532.998	13001.13
533.364	13115.93
533.73	13160.9
534.095	13211.97
534.461	13304.17
534.826	13335.36
535.192	13329.93
535.557	13432.3
535.923	13418.52
536.288	13589.81
536.653	13686.08
537.019	13619.64
537.384	13618.96
537.749	13724.27
538.114	13798.17
538.479	13872.06
538.845	13915
539.21	13917.49
539.575	13998.39
539.94	14041.33
540.305	14091.04
540.67	14142.11
541.034	14153.87
541.399	14314.99
541.764	14258.27
542.129	14397.7
542.494	14416.68
542.858	14444.03
543.223	14545.27
543.587	14597.92
543.952	14617.58
544.316	14659.16
544.681	14743.91
545.045	14834.98
545.41	14854.64
545.774	14950.45
546.138	14897.35
546.503	14972.37
546.867	14964.69
547.231	15175.31
547.595	15112.71
547.959	15215.76
548.324	15305.93
548.688	15309.99
549.052	15379.14
549.416	15419.59
549.779	15477.22
550.143	15476.99
550.507	15559.48
550.871	15540.95
551.235	15645.13
551.599	15744.33
551.962	15681.06
552.326	15850.09
552.689	15923.76
553.053	15861.39
553.417	15866.59
553.78	16053.48
554.143	16149.74
554.507	16146.36
554.87	16181.16
555.234	16213.02
555.597	16272.91
555.96	16332.56
556.323	16392
556.686	16467.25
557.05	16550.41
557.413	16604.2
557.776	16506.35
558.139	16705.44
558.502	16746.57
558.865	16890.52
559.228	16992.66
559.59	16976.39
559.953	16976.84
560.316	17215.25
560.679	17135.48
561.041	17309.94
561.404	17268.13
561.767	17453.21
562.129	17304.06
562.492	17534.57
562.854	17473.33
563.217	17571.63
563.579	17553.1
563.941	17712.64
564.304	17742.02
564.666	17858.17
565.028	17902.02
565.39	17987.66
565.753	17979.08
566.115	18039.41
566.477	18207.54
566.839	18225.17
567.201	18354.66
567.563	18335.22
567.925	18446.63
568.287	18559.85
568.648	18539.74
569.01	18706.06
569.372	18811.82
569.734	18751.26
570.095	18892.27
570.457	18972.04
570.819	18948.09
571.18	19101.53
571.542	19162.55
571.903	19201.64
572.265	19381.75
572.626	19368.19
572.987	19425.14
573.349	19569.54
573.71	19499.49
574.071	19716.2
574.432	19803.66
574.794	20055.4
575.155	20065.35
575.516	20022.41
575.877	20231.45
576.238	20277.09
576.599	20430.54
576.96	20480.48
577.32	20541.27
577.681	20761.15
578.042	20899.9
578.403	20937.64
578.763	21031.2
579.124	21237.97
579.485	21361.13
579.845	21570.62
580.206	21536.72
580.566	21678.64
580.927	21899.88
581.287	22084.73
581.648	22140.32
582.008	22440.65
582.368	22537.83
582.728	22779.63
583.089	22799.29
583.449	22971.71
583.809	23198.83
584.169	23315.43
584.529	23463.45
584.889	23892.37
585.249	23927.39
585.609	23984.79
585.969	24412.58
586.329	24442.41
586.688	24729.63
587.048	24893.92
587.408	25039.45
587.768	25227.7
588.127	25479.22
588.487	25635.37
588.846	25989.26
589.206	26112.65
589.565	26248.24
589.925	26650.03
590.284	26709.69
590.643	26905.39
591.003	27267.42
591.362	27535.66
591.721	27690.01
592.08	27965.03
592.44	28095.19
592.799	28409.08
593.158	28590.1
593.517	28782.41
593.876	28982.85
594.235	29184.66
594.593	29468.26
594.952	29641.37
595.311	29724.08
595.67	30024.18
596.029	30332.87
596.387	30649.48
596.746	30809.25
597.104	30849.7
597.463	31086.75
597.822	31380.53
598.18	31402.23
598.538	31618.26
598.897	32022.32
599.255	31911.82
599.613	32615.75
599.972	32499.37
600.33	32792.02
600.688	32879.7
601.046	33039.7
601.404	33342.29
601.762	33567.37
602.12	33644.2
602.478	33976.85
602.836	34153.79
603.194	34142.27
603.552	34356.72
603.91	34365.76
604.268	34690.05
604.625	34759.43
604.983	35083.26
605.341	35024.95
605.698	35298.17
606.056	35529.35
606.413	35591.95
606.771	35872.62
607.128	35953.29
607.485	35955.78
607.843	36031.03
608.2	36429.66
608.557	36568.19
608.914	36453.17
609.272	36764.57
609.629	36993.26
609.986	37268.51
610.343	36949.65
610.7	37530.65
611.057	37481.61
611.414	37545.11
611.771	37650.65
612.127	37957.08
612.484	38072.78
612.841	38153.46
613.198	38158.21
613.554	38204.76
613.911	38478.65
614.267	38585.99
614.624	38619.66
614.98	38714.12
615.337	39089.71
615.693	39141
616.05	39078.86
616.406	39473.43
616.762	39294.45
617.118	39462.13
617.475	39464.16
617.831	39665.51
618.187	39797.71
618.543	39895.56
618.899	40096.46
619.255	40103.69
619.611	40111.83
619.967	40369.67
620.323	40454.87
620.678	40358.6
621.034	40138.72
621.39	40409.45
621.746	40500.07
622.101	40848.53
622.457	40546.39
622.812	40761.53
623.168	40866.61
623.523	40930.79
623.879	41096.89
624.234	40876.78
624.589	41084.91
624.945	41055.76
625.3	41206.49
625.655	41185.02
626.01	41356.99
626.365	41343.88
626.72	41284.68
627.075	41418.23
627.43	41386.37
627.785	41254.4
628.14	41462.98
628.495	41632.92
628.85	41380.27
629.205	41378.69
629.559	41543.43
629.914	41441.06
630.269	41571.45
630.623	41517.44
630.978	41378.46
631.332	41549.98
631.687	41710.2
632.041	41422.53
632.396	41625.69
632.75	41461.17
633.104	41635.85
633.459	41358.8
633.813	41438.8
634.167	41329.65
634.521	41531
634.875	41557.66
635.229	41580.94
635.583	41480.15
635.937	41458.46
636.291	41377.78
636.645	41463.2
636.999	41478.57
637.352	41495.52
637.706	41280.16
638.06	41451.9
638.413	41386.37
638.767	41317.67
639.121	41366.03
639.474	41186.15
639.828	41373.71
640.181	41341.17
640.534	41354.51
640.888	41155.19
641.241	40887.85
641.594	41161.74
641.947	41319.93
642.301	41116.77
642.654	41123.1
643.007	41161.52
643.36	41148.18
643.713	41043.78
644.066	41180.27
644.419	40924.01
644.771	40778.48
645.124	40429.11
645.477	40276.57
645.83	40067.76
646.182	39945.5
646.535	39808.33
646.888	39829.12
647.24	39732.85
647.593	40030.7
647.945	39811.95
648.298	39737.15
648.65	39572.63
649.002	39439.98
649.355	39803.13
649.707	39638.62
650.059	39842
650.411	40383.91
650.763	40256
651.115	40682.66
651.467	40572.83
651.819	40684.92
652.171	40389.11
652.523	40367.41
652.875	40415.77
653.227	40394.76
653.578	40561.08
653.93	40334.42
654.282	40309.56
654.633	40298.26
654.985	40219.85
655.337	40185.27
655.688	40305.49
656.039	40435.43
656.391	40122.67
656.742	40240.86
657.094	40206.97
657.445	40308.66
657.796	40218.94
658.147	40120.19
658.498	40112.05
658.849	40235.89
659.2	40118.38
659.551	40194.31
659.902	40240.18
660.253	40175.1
660.604	40225.72
660.955	39898.05
661.306	40165.61
661.656	40048.33
662.007	40037.25
662.358	40058.95
662.708	40084.26
663.059	40102.11
663.409	39727.43
663.76	40173.52
664.11	40006.07
664.461	40090.36
664.811	40094.65
665.161	39942.34
665.511	39944.15
665.862	39878.84
666.212	40131.94
666.562	40049.91
666.912	39833.19
667.262	39787.09
667.612	39993.86
667.962	39841.1
668.312	39841.55
668.662	40191.15
669.011	39875.22
669.361	39969.91
669.711	39992.28
670.06	39872.51
670.41	39764.72
670.76	39738.96
671.109	39854.21
671.459	39825.28
671.808	39791.84
672.157	39726.98
672.507	39655.79
672.856	39693.53
673.205	39669.8
673.554	39685.17
673.904	39502.58
674.253	39837.71
674.602	39707.09
674.951	39153.89
675.3	38978.07
675.649	39535.57
675.998	39365.18
676.346	39489.02
676.695	39654.89
677.044	39350.04
677.393	39410.15
677.741	39657.38
678.09	39415.12
678.438	39387.78
678.787	39428.45
679.135	39524.05
679.484	39194.56
679.832	39401.34
680.181	39034.57
680.529	39279.31
680.877	39099.88
681.225	39058.52
681.573	39237.27
681.922	38962.03
682.27	38938.98
682.618	39035.24
682.966	38820.34
683.314	38807
683.661	38780.34
684.009	38562.04
684.357	38561.36
684.705	38467.12
685.053	38489.72
685.4	38353.68
685.748	38254.47
686.095	38239.33
686.443	38220.35
686.79	38105.33
687.138	38256.06
687.485	38020.36
687.832	38019.45
688.18	37952.34
688.527	37889.74
688.874	37953.47
689.221	37768.61
689.568	37614.94
689.915	37523.42
690.262	37705.34
690.609	37610.65
690.956	37451.78
691.303	37446.36
691.65	37163.66
691.997	37189.87
692.344	36924.34
692.69	37058.12
693.037	37048.4
693.383	36681.41
693.73	36878.69
694.077	36603.9
694.423	36652.26
694.769	36481.87
695.116	36515.54
695.462	36409.1
695.808	36219.27
696.155	36347.63
696.501	36146.96
696.847	36136.79
697.193	35757.36
697.539	35962.33
697.885	35655.67
698.231	35582.23
698.577	35613.87
698.923	35628.1
699.269	35396.7
699.614	35264.04
699.96	35073.54
700.306	35156.93
700.651	35079.42
700.997	35018.18
701.342	34800.55
701.688	34660.22
702.033	34723.95
702.379	34707.45
702.724	34561.69
703.069	34639.65
703.415	34315.59
703.76	34322.15
704.105	34345.42
704.45	34266.1
704.795	33966.23
705.14	33845.32
705.485	33862.95
705.83	33830.86
706.175	33820.24
706.52	33637.65
706.865	33551.55
707.209	33555.84
707.554	33428.39
707.899	33510.42
708.243	33252.35
708.588	33232.01
708.932	33015.52
709.277	33088.73
709.621	32995.4
709.966	32925.35
710.31	32915.41
710.654	32586.15
710.998	32775.75
711.342	32758.12
711.687	32592.25
712.031	32400.84
712.375	32468.19
712.719	32487.62
713.063	32463.44
713.407	32439.71
713.75	32060.06
714.094	32300.51
714.438	32007.86
714.782	32000.63
715.125	31956.33
715.469	31899.84
715.812	31864.36
716.156	31674.99
716.499	31730.8
716.843	31796.34
717.186	31538.49
717.53	31644.25
717.873	31681.31
718.216	31536.68
718.559	31422.11
718.902	31226.41
719.246	31251.95
719.589	31149.8
719.932	31041.78
720.275	31107.32
720.617	31210.82
720.96	30952.97
721.303	31007.66
721.646	30898.96
721.989	30669.36
722.331	30843.37
722.674	30751.17
723.016	30724.28
723.359	30729.02
723.701	30845.18
724.044	30550.27
724.386	30418.07
724.729	30538.07
725.071	30494.9
725.413	30409.48
725.755	30310.73
726.097	30184.4
726.439	30079.55
726.782	30104.63
727.124	30220.56
727.465	30001.81
727.807	29955.03
728.149	29999.78
728.491	29868.93
728.833	29928.59
729.175	29740.35
729.516	29824.64
729.858	29775.83
730.199	29743.96
730.541	29593.69
730.882	29510.75
731.224	29736.28
731.565	29494.03
731.906	29429.85
732.248	29605.44
732.589	29257.42
732.93	29165.45
733.271	29356.63
733.612	29290.19
733.953	29309.62
734.294	29196.18
734.635	29070.08
734.976	29100.36
735.317	29021.72
735.658	29070.31
735.999	29002.74
736.339	28972.23
736.68	28952.12
737.021	28894.72
737.361	28713.03
737.702	28876.19
738.042	28810.2
738.383	28734.05
738.723	28802.52
739.063	28603.43
739.404	28654.73
739.744	28615.18
740.084	28541.06
740.424	28534.05
740.764	28412.7
741.104	28477.78
741.444	28346.94
741.784	28340.61
742.124	28498.8
742.464	28324.34
742.804	28332.02
743.143	28260.39
743.483	28100.17
743.823	27992.82
744.162	27967.97
744.502	27989.89
744.841	27845.48
745.181	27988.53
745.52	27801.87
745.86	27834.64
746.199	27697.01
746.538	27860.4
746.877	27712.6
747.216	27723.9
747.556	27756.67
747.895	27631.02
748.234	27668.99
748.573	27477.36
748.911	27586.28
749.25	27359.17
749.589	27304.48
749.928	27358.49
750.267	27434.42
750.605	27311.26
750.944	27249.57
751.283	27187.87
751.621	27203.92
751.96	27058.38
752.298	27074.66
752.636	27090.7
752.975	26999.63
753.313	26806.64
753.651	26967.54
753.989	26691.16
754.327	26678.28
754.666	26603.93
755.004	26566.87
755.342	26715.12
755.679	26607.1
756.017	26445.07
756.355	26491.62
756.693	26305.18
757.031	26297.95
757.368	26162.14
757.706	26233.77
758.044	26069.03
758.381	26067.22
758.719	26018.19
759.056	26006.89
759.394	25897.74
759.731	25756.95
760.068	25780
760.405	25687.57
760.743	25606.22
761.08	25561.7
761.417	25371.88
761.754	25421.82
762.091	25385.89
762.428	25213.46
762.765	25108.38
763.102	25257.75
763.438	25029.29
763.775	24941.6
764.112	24985.67
764.449	24941.15
764.785	24808.5
765.122	24642.63
765.458	24519.92
765.795	24523.31
766.131	24472.69
766.467	24301.17
766.804	24292.36
767.14	24130.1
767.476	24211
767.812	24078.12
768.148	24039.48
768.485	23800.62
768.821	23815.76
769.157	23875.19
769.492	23734.63
769.828	23659.38
770.164	23567.63
770.5	23446.05
770.836	23555.43
771.171	23235.21
771.507	23157.47
771.842	23050.81
772.178	23088.55
772.513	23039.96
772.849	22919.74
773.184	22830.25
773.519	22832.51
773.855	22714.54
774.19	22634.09
774.525	22530.59
774.86	22464.38
775.195	22398.17
775.53	22334.22
775.865	22240.43
776.2	22069.36
776.535	21853.32
776.87	21934.9
777.205	21936.71
777.539	21778.75
777.874	21799.99
778.209	21557.06
778.543	21517.51
778.878	21515.25
779.212	21430.74
779.547	21209.27
779.881	21309.84
780.215	21118.65
780.55	21154.13
780.884	21055.83
781.218	20929.73
781.552	20939.68
781.886	20786.91
782.22	20652
782.554	20643.64
782.888	20496.52
783.222	20482.51
783.556	20319.35
783.889	20317.77
784.223	20183.99
784.557	20207.27
784.89	20193.93
785.224	19948.74
785.557	19934.96
785.891	19903.77
786.224	19888.4
786.558	19795.07
786.891	19609.09
787.224	19573.61
787.557	19522.09
787.891	19473.95
788.224	19420.62
788.557	19432.37
788.89	19394.18
789.223	19306.72
789.556	19150.57
789.888	19200.51
790.221	19121.19
790.554	18899.96
790.887	18867.19
791.219	18878.03
791.552	18873.97
791.884	18726.4
792.217	18759.85
792.549	18588.32
792.882	18512.39
793.214	18349.46
793.546	18477.59
793.879	18260.2
794.211	18259.07
794.543	18310.82
794.875	18136.13
795.207	18223.81
795.539	18095.23
795.871	18025.63
796.203	17899.53
796.535	17774.11
796.867	17799.64
797.198	17819.98
797.53	17659.08
797.862	17575.92
798.193	17657.28
798.525	17507.45
798.856	17506.32
799.188	17360.33
799.519	17201.69
799.85	17230.39
800.182	17287.57
800.513	17228.59
800.844	17074.92
801.175	17102.94
801.506	17028.82
801.837	17043.73
802.168	16926.45
802.499	16947.46
802.83	16768.49
803.161	16769.16
803.491	16752.44
803.822	16730.29
804.153	16656.4
804.483	16510.87
804.814	16474.48
805.145	16376.18
805.475	16456.63
805.805	16344.77
806.136	16410.53
806.466	16261.83
806.796	16237.65
807.126	16140.48
807.457	16189.97
807.787	16098.9
808.117	15944.55
808.447	15980.94
808.777	15996.08
809.107	15969.86
809.436	15827.72
809.766	15836.98
810.096	15849.64
810.426	15703.2
810.755	15710.21
811.085	15696.65
811.414	15592.7
811.744	15523.09
812.073	15534.17
812.403	15506.15
812.732	15424.79
813.061	15442.87
813.39	15261.18
813.719	15228.19
814.049	15342.08
814.378	15265.02
814.707	15182.09
815.036	15253.05
815.365	15128.53
815.693	14950.91
816.022	15015.99
816.351	14948.42
816.68	14855.77
817.008	14994.97
817.337	14829.55
817.665	14701.87
817.994	14774.64
818.322	14792.27
818.651	14674.3
818.979	14583.23
819.307	14742.1
819.636	14639.95
819.964	14599.73
820.292	14639.28
820.62	14561.09
820.948	14481.54
821.276	14517.7
821.604	14596.57
821.932	14536.68
822.259	14572.39
822.587	14556.57
822.915	14466.85
823.243	14508.43
823.57	14415.33
823.898	14475.44
824.225	14418.94
824.553	14469.34
824.88	14482.22
825.207	14512.05
825.535	14398.6
825.862	14496.91
826.189	14413.07
826.516	14473.86
826.843	14522.67
827.17	14483.57
827.497	14498.94
827.824	14415.33
828.151	14560.86
828.478	14481.99
828.805	14464.59
829.131	14435.44
829.458	14398.38
829.785	14385.05
830.111	14393.63
830.438	14468.21
830.764	14383.69
831.09	14417.81
831.417	14318.38
831.743	14348.44
832.069	14337.36
832.395	14305.27
832.722	14306.86
833.048	14313.18
833.374	14302.11
833.7	14291.94
834.026	14290.81
834.351	14285.39
834.677	14215.11
835.003	14229.12
835.329	14219.4
835.654	14269.34
835.98	14133.98
836.306	14177.14
836.631	14099.63
836.956	14218.95
837.282	14128.33
837.607	14056.01
837.932	14053.08
838.258	14025.28
838.583	14060.99
838.908	13924.27
839.233	14018.73
839.558	13922.01
839.883	13835.68
840.208	13859.86
840.533	13780.99
840.858	13813.54
841.182	13876.58
841.507	13845.62
841.832	13724.95
842.156	13755.01
842.481	13732.63
842.805	13633.2
843.13	13623.03
843.454	13632.97
843.778	13547.55
844.103	13504.39
844.427	13512.07
844.751	13524.05
845.075	13403.6
845.399	13477.72
845.723	13316.37
846.047	13365.19
846.371	13195.47
846.695	13254.23
847.019	13079.54
847.343	13030.05
847.666	13071.86
847.99	12948.47
848.313	12924.07
848.637	12892.88
848.96	12817.86
849.284	12773.11
849.607	12662.38
849.931	12688.14
850.254	12557.52
850.577	12460.12
850.9	12517.98
851.223	12472.33
851.546	12371.09
851.869	12295.38
852.192	12360.01
852.515	12255.16
852.838	12190.75
853.161	12200.47
853.483	12082.28
853.806	12117.08
854.129	12084.32
854.451	12089.29
854.774	11992.79
855.096	11936.97
855.419	11922.74
855.741	11847.94
856.063	11800.03
856.385	11767.04
856.708	11726.81
857.03	11757.54
857.352	11738.11
857.674	11647.49
857.996	11637.55
858.318	11485.69
858.64	11527.49
858.961	11563.42
859.283	11454.95
859.605	11416.99
859.926	11436.87
860.248	11362.53
860.57	11325.24
860.891	11323.66
861.212	11297.44
861.534	11239.37
861.855	11135.19
862.176	11204.34
862.498	11191.01
862.819	11194.17
863.14	11121.18
863.461	11134.06
863.782	11082.76
864.103	11180.84
864.424	11054.74
864.745	11045.02
865.065	11079.37
865.386	10957.34
865.707	10979.03
866.027	10992.82
866.348	10893.84
866.668	10898.58
866.989	10879.37
867.309	10790.56
867.63	10936.77
867.95	10797.34
868.27	10821.07
868.59	10807.51
868.91	10860.39
869.23	10795.76
869.55	10729.32
869.87	10785.59
870.19	10730.68
870.51	10780.39
870.83	10784.69
871.15	10636.67
871.469	10670.34
871.789	10610.68
872.109	10595.77
872.428	10580.85
872.748	10605.94
873.067	10640.96
873.386	10571.36
873.706	10579.27
874.025	10453.17
874.344	10489.55
874.663	10381.53
874.982	10443.91
875.301	10376.11
875.62	10361.42
875.939	10378.37
876.258	10354.64
876.577	10258.83
876.896	10346.73
877.214	10252.05
877.533	10312.61
877.852	10277.36
878.17	10262.44
878.489	10245.95
878.807	10304.47
879.125	10176.34
879.444	10205.95
879.762	10114.88
880.08	10175.66
880.398	10057.7
880.716	10149.9
881.034	10116.68
881.352	10083.92
881.67	10081.88
881.988	10050.7
882.306	10033.3
882.624	9947.2
882.941	9922.56
883.259	9922.34
883.577	9930.25
883.894	9843.02
884.212	9902.68
884.529	9879.18
884.846	9841.44
885.164	9860.64
885.481	9777.26
885.798	9758.5
886.115	9720.76
886.432	9713.98
886.75	9669.69
887.067	9633.08
887.383	9653.19
887.7	9638.96
888.017	9611.39
888.334	9625.62
888.651	9634.44
888.967	9553.31
889.284	9526.64
889.6	9510.82
889.917	9392.63
890.233	9428.79
890.55	9393.54
890.866	9374.78
891.182	9382.69
891.498	9330.49
891.815	9314.44
892.131	9310.6
892.447	9270.6
892.763	9191.06
893.079	9181.11
893.395	9139.31
893.71	9124.17
894.026	9106.77
894.342	9125.52
894.657	8996.94
894.973	9017.73
895.289	8989.26
895.604	8962.59
895.92	8881.91
896.235	8897.96
896.55	8901.8
896.865	8857.96
897.181	8832.65
897.496	8791.07
897.811	8765.31
898.126	8737.06
898.441	8719.21
898.756	8661.81
899.071	8628.36
899.386	8635.14
899.7	8522.37
900.015	8492.77
900.33	8471.98
900.644	8526.44
900.959	8456.16
901.273	8439.89
901.588	8370.74
901.902	8383.62
902.216	8320.12
902.531	8290.06
902.845	8314.7
903.159	8246.68
903.473	8256.85
903.787	8200.12
904.101	8114.93
904.415	8133.68
904.729	8112.89
905.042	8058.88
905.356	8038.32
905.67	8045.55
905.984	7970.75
906.297	7971.88
906.611	7902.05
906.924	7908.15
907.237	7835.39
907.551	7822.28
907.864	7835.39
908.177	7790.19
908.491	7783.64
908.804	7757.42
909.117	7636.07
909.43	7667.93
909.743	7629.97
910.056	7622.74
910.368	7633.58
910.681	7517.43
910.994	7497.99
911.307	7453.7
911.619	7386.13
911.932	7417.32
912.244	7313.82
912.557	7332.35
912.869	7273.59
913.181	7312.92
913.494	7296.42
913.806	7198.79
914.118	7134.84
914.43	7175.74
914.742	7114.05
915.054	7121.28
915.366	7077.22
915.678	6973.71
915.99	7000.61
916.302	6966.71
916.613	6935.98
916.925	6939.82
917.236	6904.34
917.548	6855.53
917.859	6889.42
918.171	6779.6
918.482	6783.44
918.794	6731.91
919.105	6742.31
919.416	6714.06
919.727	6724.46
920.038	6682.88
920.349	6618.47
920.66	6554.74
920.971	6505.25
921.282	6527.85
921.593	6521.75
921.903	6470.9
922.214	6417.57
922.525	6385.26
922.835	6401.3
923.146	6356.78
923.456	6367.18
923.767	6298.03
924.077	6303.22
924.387	6287.41
924.697	6253.28
925.008	6201.98
925.318	6171.93
925.628	6187.29
925.938	6121.76
926.248	6049.9
926.558	6081.08
926.867	6036.79
927.177	6060.29
927.487	6042.67
927.796	5952.95
928.106	5945.95
928.416	5924.03
928.725	5941.65
929.034	5875.21
929.344	5907.75
929.653	5825.95
929.962	5817.14
930.271	5769
930.581	5776.46
930.89	5744.37
931.199	5640.42
931.508	5745.95
931.817	5658.72
932.125	5624.6
932.434	5645.16
932.743	5585.73
933.051	5514.54
933.36	5561.55
933.669	5441.33
933.977	5466.18
934.286	5449.91
934.594	5434.32
934.902	5377.6
935.21	5403.59
935.519	5393.87
935.827	5367.43
936.135	5338.28
936.443	5314.32
936.751	5252.63
937.059	5237.04
937.367	5279.75
937.674	5203.14
937.982	5191.16
938.29	5200.2
938.597	5185.74
938.905	5111.84
939.213	5073.43
939.52	5098.51
939.827	5031.17
940.135	5062.58
940.442	4989.13
940.749	5009.7
941.056	4996.59
941.363	4908.23
941.67	4945.97
941.977	4893.32
942.284	4846.31
942.591	4875.24
942.898	4837.27
943.205	4849.7
943.511	4775.13
943.818	4757.5
944.125	4741.46
944.431	4744.62
944.738	4749.14
945.044	4725.86
945.35	4672.76
945.657	4682.7
945.963	4602.25
946.269	4630.05
946.575	4640.22
946.881	4594.79
947.187	4585.76
947.493	4528.13
947.799	4561.8
948.105	4489.03
948.41	4525.64
948.716	4484.29
949.022	4435.25
949.327	4424.18
949.633	4387.34
949.938	4393.9
950.244	4397.06
950.549	4317.06
950.854	4340.11
951.16	4329.72
951.465	4294.92
951.77	4262.37
952.075	4248.14
952.38	4221.47
952.685	4210.4
952.99	4171.53
953.294	4203.39
953.599	4153.9
953.904	4118.42
954.209	4138.31
954.513	4120.23
954.818	4067.35
955.122	4054.92
955.426	4059.44
955.731	4002.72
956.035	4001.14
956.339	3930.18
956.643	4029.61
956.948	3979.22
957.252	3964.98
957.556	3922.27
957.86	3926.34
958.163	3877.53
958.467	3861.25
958.771	3864.64
959.075	3861.03
959.378	3822.39
959.682	3829.84
959.985	3830.97
960.289	3782.16
960.592	3765.21
960.896	3773.12
961.199	3709.62
961.502	3743.29
961.805	3700.58
962.108	3706.91
962.411	3676.4
962.714	3636.63
963.017	3641.15
963.32	3621.03
963.623	3625.1
963.926	3606.8
964.228	3627.36
964.531	3567.93
964.833	3589.4
965.136	3539.91
965.438	3532
965.741	3492.68
966.043	3488.38
966.345	3492
966.648	3457.88
966.95	3457.2
967.252	3395.73
967.554	3442.73
967.856	3375.62
968.158	3385.11
968.46	3341.27
968.761	3337.88
969.063	3330.19
969.365	3358.44
969.666	3323.19
969.968	3296.07
970.269	3276.19
970.571	3271.44
970.872	3256.98
971.174	3224.66
971.475	3225.56
971.776	3179.46
972.077	3202.06
972.378	3228.95
972.679	3209.97
972.98	3178.56
973.281	3177.43
973.582	3145.79
973.883	3125.91
974.183	3108.96
974.484	3075.51
974.785	3097.21
975.085	3066.93
975.386	3056.53
975.686	3051.56
975.986	3035.97
976.287	3018.11
976.587	2973.37
976.887	2969.98
977.187	2985.57
977.487	2934.05
977.787	2920.71
978.087	2932.69
978.387	2902.41
978.687	2922.07
978.987	2884.33
979.286	2858.57
979.586	2856.08
979.885	2829.87
980.185	2851.56
980.484	2794.39
980.784	2800.72
981.083	2803.88
981.382	2801.17
981.682	2745.8
981.981	2791.9
982.28	2745.8
982.579	2747.39
982.878	2752.58
983.177	2705.58
983.475	2698.35
983.774	2683.43
984.073	2696.09
984.372	2649.08
984.67	2665.81
984.969	2649.08
985.267	2641.4
985.566	2607.5
985.864	2583.55
986.162	2579.03
986.461	2566.15
986.759	2542.19
987.057	2552.59
987.355	2534.96
987.653	2570.21
987.951	2525.7
988.249	2506.49
988.547	2527.28
988.844	2509.65
989.142	2479.37
989.44	2489.09
989.737	2439.82
990.035	2436.89
990.332	2451.12
990.63	2442.08
990.927	2453.38
991.224	2393.27
991.521	2415.87
991.819	2433.95
992.116	2373.38
992.413	2362.08
992.71	2356.66
993.006	2343.78
993.303	2328.87
993.6	2330.22
993.897	2298.36
994.193	2284.35
994.49	2295.42
994.787	2242.77
995.083	2248.64
995.379	2267.85
995.676	2217
995.972	2253.39
996.268	2237.12
996.565	2164.12
996.861	2192.15
997.157	2194.86
997.453	2151.24
997.749	2170.45
998.044	2130.23
998.34	2155.54
998.636	2138.36
998.932	2124.35
999.227	2108.98
999.523	2112.83
999.818	2123.67
1000.114	2078.93
1000.409	2105.59
1000.704	2070.34
1001	2069.66
1001.295	2047.52
1001.59	2043
1001.885	2002.32
1002.18	2026.27
1002.475	1998.48
1002.77	1993.28
1003.065	2013.17
1003.359	1970
1003.654	1967.29
1003.949	1971.81
1004.243	1940.4
1004.538	1955.77
1004.832	1927.97
1005.127	1885.26
1005.421	1883
1005.715	1906.96
1006.009	1892.72
1006.304	1896.33
1006.598	1865.6
1006.892	1838.26
1007.186	1820.63
1007.48	1834.42
1007.773	1819.5
1008.067	1800.07
1008.361	1794.87
1008.655	1798.03
1008.948	1768.88
1009.242	1774.08
1009.535	1720.75
1009.829	1756.9
1010.122	1727.75
1010.415	1734.53
1010.708	1687.98
1011.001	1721.88
1011.295	1697.24
1011.588	1715.77
1011.881	1674.19
1012.173	1678.49
1012.466	1655.44
1012.759	1642.78
1013.052	1642.33
1013.344	1623.8
1013.637	1630.13
1013.93	1597.36
1014.222	1593.07
1014.514	1585.38
1014.807	1571.82
1015.099	1577.25
1015.391	1587.42
1015.683	1541.32
1015.976	1550.81
1016.268	1554.65
1016.56	1546.96
1016.851	1515.78
1017.143	1522.56
1017.435	1490.7
1017.727	1484.14
1018.018	1487.31
1018.31	1485.5
1018.602	1464.71
1018.893	1442.11
1019.185	1441.21
1019.476	1433.3
1019.767	1431.04
1020.058	1431.94
1020.35	1418.61
1020.641	1398.04
1020.932	1395.33
1021.223	1367.99
1021.514	1384.03
1021.804	1358.95
1022.095	1329.57
1022.386	1330.93
1022.677	1339.51
1022.967	1318.27
1023.258	1294.77
1023.548	1293.64
1023.839	1327.76
1024.129	1297.25
1024.419	1321.66
1024.709	1279.4
1025	1279.63
1025.29	1273.75
1025.58	1245.73
1025.87	1240.53
1026.16	1227.43
1026.449	1235.56
1026.739	1241.44
1027.029	1215.9
1027.319	1224.49
1027.608	1194.66
1027.898	1182
1028.187	1184.94
1028.477	1161.21
1028.766	1177.71
1029.055	1171.16
1029.344	1178.84
1029.634	1134.09
1029.923	1142
1030.212	1120.08
1030.501	1146.07
1030.79	1108.33
1031.078	1123.25
1031.367	1087.54
1031.656	1117.37
1031.945	1090.03
1032.233	1076.47
1032.522	1100.88
1032.81	1072.85
1033.099	1043.7
1033.387	1066.98
1033.675	1049.35
1033.963	1040.76
1034.251	1033.76
1034.54	1042.12
1034.828	1018.39
1035.116	1023.14
1035.403	992.4
1035.691	1017.04
1035.979	1001.89
1036.267	984.72
1036.554	987.66
1036.842	973.87
1037.129	988.79
1037.417	954.21
1037.704	958.96
1037.992	949.24
1038.279	937.26
1038.566	958.05
1038.853	958.05
1039.14	958.05
