Data from hue_260_FLMS001491_00078.txt Node
Date: Tue Feb 07 15:59:35 GMT 2017
User: dcchb
Spectrometer: FLMS00149
Trigger mode: 0
Integration Time (sec): 2.000000E-2
Scans to average: 10
Electric dark correction enabled: true
Nonlinearity correction enabled: false
Boxcar width: 0
XAxis mode: Wavelengths
Number of Pixels in Spectrum: 2048
>>>>>Begin Spectral Data<<<<<
341.393	-4.86
341.776	-4.86
342.16	-4.86
342.543	-52.32
342.927	-61.58
343.31	-73.33
343.693	-72.43
344.077	-77.85
344.46	-64.74
344.843	-45.99
345.226	-27
345.61	-21.81
345.993	-30.39
346.376	-7.12
346.759	18.19
347.142	39.66
347.525	37.17
347.908	44.63
348.291	84.18
348.674	88.92
349.057	107.91
349.44	121.47
349.823	143.84
350.206	151.07
350.588	190.84
350.971	187.23
351.354	226.1
351.737	235.81
352.119	248.47
352.502	246.89
352.884	256.38
353.267	267.9
353.65	282.37
354.032	281.24
354.414	295.92
354.797	300.22
355.179	317.62
355.562	301.12
355.944	332.76
356.326	318.07
356.709	329.37
357.091	342.48
357.473	340.89
357.855	318.52
358.238	345.64
358.62	324.85
359.002	321.23
359.384	322.82
359.766	343.61
360.148	339.77
360.53	343.83
360.912	337.73
361.294	351.97
361.676	344.06
362.057	329.37
362.439	311.52
362.821	332.31
363.203	325.75
363.584	302.7
363.966	319.88
364.348	324.17
364.729	322.82
365.111	325.3
365.493	319.88
365.874	309.94
366.256	312.42
366.637	327.34
367.019	292.76
367.4	317.84
367.781	320.78
368.163	290.5
368.544	312.42
368.925	296.83
369.306	298.41
369.688	307.45
370.069	289.14
370.45	326.66
370.831	313.55
371.212	284.85
371.593	334.12
371.974	326.66
372.355	304.51
372.736	298.18
373.117	316.71
373.498	332.31
373.879	313.1
374.26	313.55
374.641	303.61
375.021	318.52
375.402	294.34
375.783	338.18
376.163	323.49
376.544	316.94
376.925	325.53
377.305	322.82
377.686	312.65
378.066	324.62
378.447	349.03
378.827	316.26
379.208	327.56
379.588	340.22
379.968	332.08
380.349	329.6
380.729	317.17
381.109	318.97
381.489	314.23
381.87	320.33
382.25	344.51
382.63	333.21
383.01	351.97
383.39	318.3
383.77	349.26
384.15	342.48
384.53	347.67
384.91	343.15
385.29	334.57
385.67	337.51
386.049	358.75
386.429	362.59
386.809	349.93
387.189	343.61
387.568	355.13
387.948	352.87
388.328	347.67
388.707	364.17
389.087	364.4
389.466	358.97
389.846	358.52
390.225	378.41
390.605	353.32
390.984	345.87
391.363	371.18
391.743	363.49
392.122	372.76
392.501	382.48
392.881	370.72
393.26	373.21
393.639	381.35
394.018	383.15
394.397	407.56
394.776	368.46
395.155	397.62
395.534	378.18
395.913	386.32
396.292	374.57
396.671	382.93
397.05	381.57
397.429	406.2
397.808	401.01
398.186	392.65
398.565	416.83
398.944	412.98
399.323	413.66
399.701	398.75
400.08	411.18
400.458	422.02
400.837	413.21
401.215	438.97
401.594	418.63
401.972	411.63
402.351	432.87
402.729	410.5
403.107	432.42
403.486	430.38
403.864	429.03
404.242	436.49
404.62	443.49
404.999	467.67
405.377	445.07
405.755	463.38
406.133	449.37
406.511	473.09
406.889	468.12
407.267	473.55
407.645	477.61
408.023	475.13
408.401	494.56
408.779	484.85
409.156	491.4
409.534	505.18
409.912	505.18
410.29	502.92
410.667	538.63
411.045	525.75
411.422	509.93
411.8	529.59
412.178	551.51
412.555	546.09
412.933	575.01
413.31	531.85
413.687	562.36
414.065	596.71
414.442	583.37
414.819	589.48
415.197	589.7
415.574	592.41
415.951	622.47
416.328	607.33
416.705	609.59
417.082	624.73
417.46	651.4
417.837	644.39
418.214	645.97
418.591	669.7
418.967	654.11
419.344	671.96
419.721	702.24
420.098	685.74
420.475	690.72
420.852	685.74
421.228	723.03
421.605	728.46
421.982	731.85
422.358	737.27
422.735	763.03
423.111	742.24
423.488	770.49
423.864	763.03
424.241	805.52
424.617	806.42
424.994	810.49
425.37	823.14
425.746	808
426.123	835.35
426.499	835.35
426.875	873.54
427.251	876.25
427.627	877.15
428.003	870.6
428.379	897.26
428.756	911.95
429.132	915.57
429.507	932.74
429.883	933.65
430.259	947.88
430.635	950.37
431.011	963.93
431.387	975.45
431.763	997.83
432.138	1018.84
432.514	1027.88
432.89	1040.76
433.265	1056.36
433.641	1062.68
434.016	1095.9
434.392	1098.39
434.767	1093.42
435.143	1113.3
435.518	1150.14
435.894	1172.74
436.269	1197.6
436.644	1217.48
437.02	1204.6
437.395	1221.1
437.77	1263.58
438.145	1269.68
438.52	1312.39
438.895	1298.61
439.271	1303.58
439.646	1332.51
440.021	1348.78
440.395	1352.62
440.77	1361.43
441.145	1367.31
441.52	1398.04
441.895	1396.23
442.27	1429.23
442.645	1422.45
443.019	1472.62
443.394	1462.45
443.769	1463.35
444.143	1471.94
444.518	1496.34
444.892	1530.47
445.267	1511.26
445.641	1519.62
446.016	1534.54
446.39	1556.68
446.764	1563.91
447.139	1583.12
447.513	1586.51
447.887	1599.84
448.262	1615.89
448.636	1588.09
449.01	1605.49
449.384	1674.19
449.758	1656.34
450.132	1668.77
450.506	1684.59
450.88	1683.68
451.254	1714.87
451.628	1714.19
452.002	1716
452.376	1753.06
452.75	1760.07
453.123	1789.67
453.497	1803
453.871	1806.39
454.244	1869.89
454.618	1863.79
454.992	1846.39
455.365	1843
455.739	1900.18
456.112	1950.12
456.486	1947.41
456.859	1959.61
457.232	2000.29
457.606	1973.85
457.979	2057.01
458.352	2062.43
458.725	2062.43
459.099	2089.78
459.472	2098.14
459.845	2111.92
460.218	2152.15
460.591	2133.16
460.964	2206.38
461.337	2233.27
461.71	2231.24
462.083	2285.48
462.456	2266.04
462.829	2262.43
463.201	2277.79
463.574	2323.44
463.947	2356.44
464.32	2399.82
464.692	2395.98
465.065	2454.51
465.438	2414.96
465.81	2492.48
466.183	2470.78
466.555	2567.05
466.928	2555.53
467.3	2605.92
467.672	2610.67
468.045	2662.87
468.417	2687.5
468.789	2710.32
469.161	2696.09
469.534	2751.45
469.906	2781.51
470.278	2846.59
470.65	2887.49
471.022	2901.73
471.394	2957.78
471.766	2927.49
472.138	2998
472.51	3083.42
472.882	3087.72
473.253	3108.28
473.625	3127.49
473.997	3239.12
474.369	3211.78
474.74	3256.75
475.112	3277.54
475.484	3370.87
475.855	3404.09
476.227	3437.54
476.598	3495.39
476.97	3488.61
477.341	3609.28
477.713	3619.23
478.084	3623.75
478.455	3737.42
478.827	3731.09
479.198	3850.41
479.569	3811.09
479.94	3944.19
480.311	3998.65
480.682	4066.45
481.053	4180.12
481.424	4158.2
481.795	4169.27
482.166	4260.34
482.537	4329.94
482.908	4320.9
483.279	4418.98
483.65	4484.51
484.021	4531.07
484.391	4566.77
484.762	4614
485.133	4725.41
485.503	4676.15
485.874	4781.91
486.244	4837.95
486.615	4907.33
486.985	4906.88
487.356	5024.84
487.726	5034.1
488.097	5159.98
488.467	5138.51
488.837	5215.34
489.207	5292.63
489.578	5376.24
489.948	5376.92
490.318	5484.49
490.688	5489.69
491.058	5541.89
491.428	5619.85
491.798	5671.83
492.168	5689.45
492.538	5683.13
492.908	5735.78
493.278	5822.78
493.648	5838.6
494.017	5872.27
494.387	5986.85
494.757	5938.26
495.126	6030.91
495.496	5988.43
495.866	6110.91
496.235	6137.35
496.605	6181.42
496.974	6206.96
497.344	6229.33
497.713	6298.25
498.082	6312.49
498.452	6369.44
498.821	6379.61
499.19	6423.45
499.559	6425.03
499.928	6422.54
500.298	6443.11
500.667	6506.61
501.036	6494.63
501.405	6634.51
501.774	6578.47
502.143	6610.56
502.512	6629.09
502.88	6726.49
503.249	6670.67
503.618	6746.38
503.987	6696.89
504.356	6734.63
504.724	6783.66
505.093	6788.86
505.462	6854.4
505.83	6891.46
506.199	6863.44
506.567	6992.92
506.936	6881.74
507.304	6936.65
507.672	6992.02
508.041	7021.4
508.409	7041.51
508.777	7049.65
509.145	7131.45
509.514	7123.77
509.882	7119.47
510.25	7140.94
510.618	7120.38
510.986	7126.48
511.354	7252.8
511.722	7248.06
512.09	7274.72
512.458	7260.26
512.826	7278.34
513.193	7332.12
513.561	7300.26
513.929	7305.01
514.297	7380.26
514.664	7462.74
515.032	7388.62
515.4	7386.59
515.767	7458
516.135	7438.11
516.502	7389.3
516.869	7532.8
517.237	7462.29
517.604	7493.25
517.972	7532.34
518.339	7558.33
518.706	7532.8
519.073	7507.03
519.44	7612.34
519.808	7637.65
520.175	7638.78
520.542	7633.13
520.909	7690.76
521.276	7632.45
521.643	7695.05
522.009	7717.88
522.376	7764.2
522.743	7730.76
523.11	7795.61
523.477	7768.5
523.843	7896.63
524.21	7859.12
524.577	7930.75
524.943	7861.38
525.31	7853.24
525.676	7970.98
526.043	7916.29
526.409	7995.16
526.776	7975.27
527.142	8008.94
527.508	8007.36
527.874	8073.12
528.241	8004.2
528.607	8062.27
528.973	8056.17
529.339	8105.21
529.705	8105.66
530.071	8197.41
530.437	8169.62
530.803	8141.82
531.169	8125.55
531.535	8154.7
531.901	8168.49
532.267	8186.34
532.632	8178.43
532.998	8188.37
533.364	8208.26
533.73	8180.24
534.095	8231.99
534.461	8195.6
534.826	8253.23
535.192	8276.05
535.557	8222.27
535.923	8260.91
536.288	8244.19
536.653	8186.79
537.019	8190.41
537.384	8167.81
537.749	8246.22
538.114	8209.84
538.479	8210.29
538.845	8164.42
539.21	8126
539.575	8198.77
539.94	8161.25
540.305	8216.17
540.67	8192.67
541.034	8173.46
541.399	8179.56
541.764	8156.28
542.129	8193.12
542.494	8140.46
542.858	8191.31
543.223	8174.59
543.587	8157.64
543.952	8135.94
544.316	8125.78
544.681	8068.83
545.045	8088.94
545.41	8149.5
545.774	8109.5
546.138	8093.91
546.503	8108.83
546.867	8064.53
547.231	8143.85
547.595	8098.21
547.959	8046
548.324	8071.99
548.688	8086.91
549.052	8070.41
549.416	8088.94
549.779	8070.18
550.143	8040.35
550.507	8065.21
550.871	8015.95
551.235	8066.79
551.599	8079
551.962	8097.3
552.326	8088.94
552.689	8084.19
553.053	8032.9
553.417	8011.43
553.78	8066.79
554.143	8064.99
554.507	8074.02
554.87	8027.25
555.234	8039.9
555.597	8064.31
555.96	8077.19
556.323	8097.98
556.686	8042.84
557.05	8156.73
557.413	8045.78
557.776	8117.87
558.139	8125.32
558.502	8066.12
558.865	8120.58
559.228	8138.88
559.59	8218.43
559.953	8149.05
560.316	8263.4
560.679	8182.27
561.041	8204.87
561.404	8210.29
561.767	8303.4
562.129	8166.68
562.492	8378.42
562.854	8236.51
563.217	8313.34
563.579	8287.13
563.941	8379.33
564.304	8367.58
564.666	8366.22
565.028	8389.04
565.39	8386.56
565.753	8374.13
566.115	8444.86
566.477	8465.88
566.839	8465.88
567.201	8499.78
567.563	8517.4
567.925	8550.4
568.287	8568.25
568.648	8519.21
569.01	8577.29
569.372	8637.85
569.734	8615.48
570.095	8687.57
570.457	8703.61
570.819	8650.28
571.18	8719.21
571.542	8756.49
571.903	8782.25
572.265	8804.85
572.626	8809.37
572.987	8763.95
573.349	8857.73
573.71	8899.54
574.071	8875.59
574.432	8904.51
574.794	8929.14
575.155	8948.35
575.516	8958.97
575.877	9045.3
576.238	9031.51
576.599	9048.91
576.96	9053.66
577.32	9071.51
577.681	9096.82
578.042	9094.56
578.403	9123.26
578.763	9149.7
579.124	9154.67
579.485	9187.22
579.845	9214.33
580.206	9234.9
580.566	9243.71
580.927	9287.78
581.287	9222.92
581.648	9285.52
582.008	9358.96
582.368	9319.42
582.728	9356.03
583.089	9415.46
583.449	9344.73
583.809	9393.31
584.169	9367.55
584.529	9408.68
584.889	9536.36
585.249	9350.6
585.609	9444.84
585.969	9503.82
586.329	9438.73
586.688	9473.76
587.048	9551.5
587.408	9473.99
587.768	9518.51
588.127	9512.86
588.487	9549.24
588.846	9608.22
589.206	9582.91
589.565	9575.68
589.925	9694.1
590.284	9620.88
590.643	9692.51
591.003	9645.96
591.362	9672.63
591.721	9724.83
592.08	9670.37
592.44	9699.07
592.799	9694.55
593.158	9740.2
593.517	9785.62
593.876	9800.99
594.235	9730.03
594.593	9776.58
594.952	9830.59
595.311	9732.29
595.67	9823.58
596.029	9867.65
596.387	9877.59
596.746	9877.14
597.104	9872.85
597.463	9830.14
597.822	9880.98
598.18	9878.27
598.538	9855.45
598.897	9870.81
599.255	9844.15
599.613	9998.27
599.972	9904.94
600.33	9943.58
600.688	9931.6
601.046	9938.61
601.404	9996.46
601.762	9923.69
602.12	10039.85
602.478	10048.21
602.836	9996.01
603.194	9957.82
603.552	9995.33
603.91	9945.16
604.268	10010.47
604.625	10026.74
604.983	10018.61
605.341	9986.29
605.698	9972.96
606.056	10125.04
606.413	10091.6
606.771	10080.98
607.128	10080.07
607.485	10113.29
607.843	10087.31
608.2	10094.31
608.557	10141.09
608.914	10096.34
609.272	10111.49
609.629	10133.41
609.986	10156.23
610.343	10097.25
610.7	10264.25
611.057	10191.71
611.414	10181.54
611.771	10209.79
612.127	10175.89
612.484	10304.7
612.841	10237.81
613.198	10217.47
613.554	10259.73
613.911	10318.71
614.267	10293.63
614.624	10278.71
614.98	10299.73
615.337	10295.44
615.693	10362.33
616.05	10322.33
616.406	10330.91
616.762	10280.97
617.118	10333.85
617.475	10384.02
617.831	10406.39
618.187	10334.98
618.543	10398.26
618.899	10424.92
619.255	10426.73
619.611	10414.98
619.967	10400.29
620.323	10469.22
620.678	10356.9
621.034	10321.65
621.39	10387.41
621.746	10307.64
622.101	10454.75
622.457	10435.54
622.812	10412.04
623.168	10434.19
623.523	10455.43
623.879	10525.94
624.234	10446.17
624.589	10503.79
624.945	10390.57
625.3	10380.63
625.655	10420.86
626.01	10405.04
626.365	10361.2
626.72	10412.04
627.075	10400.74
627.43	10445.94
627.785	10353.97
628.14	10398.48
628.495	10407.75
628.85	10399.84
629.205	10354.64
629.559	10411.59
629.914	10357.58
630.269	10388.77
630.623	10296.79
630.978	10343.57
631.332	10353.29
631.687	10359.16
632.041	10311.48
632.396	10344.25
632.75	10304.7
633.104	10310.35
633.459	10226.06
633.813	10312.16
634.167	10292.72
634.521	10248.66
634.875	10266.28
635.229	10140.19
635.583	10175.89
635.937	10214.08
636.291	10195.78
636.645	10137.47
636.999	10106.51
637.352	10107.64
637.706	10118.04
638.06	10160.52
638.413	10135.89
638.767	10152.16
639.121	10155.55
639.474	10011.6
639.828	10036.91
640.181	10028.78
640.534	10034.88
640.888	9997.36
641.241	9985.16
641.594	9962.56
641.947	10050.02
642.301	9958.72
642.654	9969.79
643.007	9973.86
643.36	9982.22
643.713	9932.73
644.066	10039.17
644.419	9977.25
644.771	9904.94
645.124	9753.08
645.477	9777.93
645.83	9732.51
646.182	9630.82
646.535	9644.83
646.888	9680.76
647.24	9639.18
647.593	9737.71
647.945	9660.65
648.298	9641.22
648.65	9633.08
649.002	9588.79
649.355	9625.17
649.707	9544.04
650.059	9618.62
650.411	9701.1
650.763	9647.99
651.115	9863.36
651.467	9855.22
651.819	9822.45
652.171	9825.84
652.523	9736.13
652.875	9809.57
653.227	9748.11
653.578	9773.19
653.93	9786.75
654.282	9790.36
654.633	9797.14
654.985	9765.51
655.337	9751.5
655.688	9833.3
656.039	9831.49
656.391	9805.73
656.742	9743.13
657.094	9741.55
657.445	9855.67
657.796	9809.57
658.147	9796.47
658.498	9756.24
658.849	9751.5
659.2	9747.2
659.551	9808.67
659.902	9764.38
660.253	9795.79
660.604	9822.91
660.955	9744.04
661.306	9811.83
661.656	9751.04
662.007	9751.5
662.358	9697.03
662.708	9805.96
663.059	9756.69
663.409	9734.09
663.76	9814.09
664.11	9743.59
664.461	9814.32
664.811	9833.53
665.161	9836.01
665.511	9800.99
665.862	9810.7
666.212	9802.34
666.562	9803.92
666.912	9833.53
667.262	9796.47
667.612	9761.44
667.962	9818.84
668.312	9773.64
668.662	9797.37
669.011	9767.77
669.361	9734.55
669.711	9782.23
670.06	9732.74
670.41	9729.35
670.76	9706.75
671.109	9802.34
671.459	9803.7
671.808	9716.47
672.157	9710.82
672.507	9702.91
672.856	9629.46
673.205	9702.23
673.554	9703.13
673.904	9662.91
674.253	9687.77
674.602	9681.44
674.951	9565.06
675.3	9574.55
675.649	9692.29
675.998	9639.86
676.346	9655.68
676.695	9685.28
677.044	9543.59
677.393	9661.1
677.741	9599.18
678.09	9585.62
678.438	9536.59
678.787	9623.81
679.135	9521.44
679.484	9539.07
679.832	9532.29
680.181	9453.42
680.529	9537.26
680.877	9453.42
681.225	9475.34
681.573	9504.5
681.922	9439.86
682.27	9363.03
682.618	9394.44
682.966	9400.77
683.314	9450.71
683.661	9393.09
684.009	9259.76
684.357	9351.05
684.705	9307.44
685.053	9275.8
685.4	9232.19
685.748	9234.22
686.095	9247.1
686.443	9184.73
686.79	9144.73
687.138	9096.15
687.485	9183.83
687.832	9143.6
688.18	9087.78
688.527	9057.28
688.874	9028.8
689.221	9050.5
689.568	8990.61
689.915	9011.63
690.262	8904.96
690.609	9003.94
690.956	8915.13
691.303	8942.7
691.65	8837.39
691.997	8821.8
692.344	8854.8
692.69	8786.1
693.037	8750.17
693.383	8640.34
693.73	8682.14
694.077	8684.18
694.423	8644.41
694.769	8606.89
695.116	8612.77
695.462	8576.84
695.808	8537.97
696.155	8510.62
696.501	8530.96
696.847	8536.16
697.193	8405.09
697.539	8401.7
697.885	8337.97
698.231	8354.47
698.577	8293.45
698.923	8293.91
699.269	8251.87
699.614	8225.21
699.96	8255.49
700.306	8174.59
700.651	8142.5
700.997	8161.48
701.342	8050.52
701.688	8096.17
702.033	8061.82
702.379	8019.56
702.724	7964.2
703.069	8042.16
703.415	7859.57
703.76	7915.84
704.105	7884.43
704.45	7898.66
704.795	7836.97
705.14	7777.08
705.485	7800.36
705.83	7760.36
706.175	7712.23
706.52	7734.37
706.865	7721.49
707.209	7644.21
707.554	7701.61
707.899	7620.7
708.243	7608.5
708.588	7601.27
708.932	7512.46
709.277	7577.99
709.621	7545.9
709.966	7529.18
710.31	7519.01
710.654	7424.78
710.998	7442.63
711.342	7485.57
711.687	7476.53
712.031	7432.91
712.375	7432.46
712.719	7366.92
713.063	7340.26
713.407	7380.03
713.75	7408.51
714.094	7299.81
714.438	7323.31
714.782	7302.29
715.125	7256.19
715.469	7336.87
715.812	7229.75
716.156	7224.33
716.499	7229.98
716.843	7206.48
717.186	7154.05
717.53	7235.63
717.873	7234.5
718.216	7138.91
718.559	7192.01
718.902	7147.95
719.246	7088.97
719.589	7120.6
719.932	7104.78
720.275	7107.04
720.617	7115.41
720.96	7095.52
721.303	7072.47
721.646	7006.26
721.989	7063.2
722.331	7039.02
722.674	7026.14
723.016	6982.08
723.359	7052.36
723.701	7034.73
724.044	7006.71
724.386	7004.9
724.729	7027.05
725.071	7001.28
725.413	6929.65
725.755	6987.27
726.097	6937.56
726.439	6942.08
726.782	6980.04
727.124	6992.02
727.465	6945.24
727.807	6928.74
728.149	6923.55
728.491	6919.93
728.833	6851.23
729.175	6858.01
729.516	6915.86
729.858	6836.09
730.199	6851.01
730.541	6873.83
730.882	6922.19
731.224	6891.23
731.565	6814.62
731.906	6855.07
732.248	6874.51
732.589	6915.19
732.93	6825.47
733.271	6881.29
733.612	6784.12
733.953	6846.71
734.294	6801.29
734.635	6786.6
734.976	6848.75
735.317	6837.22
735.658	6816.88
735.999	6860.5
736.339	6850.33
736.68	6861.85
737.021	6818.01
737.361	6808.3
737.702	6800.61
738.042	6777.34
738.383	6846.71
738.723	6836.09
739.063	6870.44
739.404	6832.25
739.744	6808.07
740.084	6844.45
740.424	6854.85
740.764	6843.32
741.104	6945.47
741.444	6872.25
741.784	6895.75
742.124	6936.65
742.464	6989.99
742.804	6903.66
743.143	6911.12
743.483	6938.24
743.823	6953.15
744.162	6941.63
744.502	7005.58
744.841	6984.34
745.181	6987.27
745.52	7024.11
745.86	7048.06
746.199	7112.47
746.538	7113.15
746.877	7150.21
747.216	7184.1
747.556	7171.68
747.895	7268.62
748.234	7252.35
748.573	7342.07
748.911	7330.77
749.25	7397.88
749.589	7415.29
749.928	7522.85
750.267	7536.41
750.605	7593.36
750.944	7653.47
751.283	7682.85
751.621	7783.19
751.96	7784.32
752.298	7910.41
752.636	7966.01
752.975	7982.28
753.313	8074.02
753.651	8169.84
753.989	8232.66
754.327	8319.89
754.666	8419.1
755.004	8471.53
755.342	8577.06
755.679	8667
756.017	8729.83
756.355	8848.92
756.693	8936.38
757.031	9109.93
757.368	9118.97
757.706	9235.8
758.044	9372.97
758.381	9511.73
758.719	9591.73
759.056	9838.05
759.394	9833.3
759.731	9946.74
760.068	10043.46
760.405	10127.3
760.743	10267.41
761.08	10440.97
761.417	10557.12
761.754	10725.71
762.091	10818.13
762.428	10842.54
762.765	11035.3
763.102	11204.11
763.438	11270.1
763.775	11331.11
764.112	11582.63
764.449	11647.72
764.785	11779.46
765.122	11848.62
765.458	12027.37
765.795	12134.03
766.131	12227.36
766.467	12364.53
766.804	12410.41
767.14	12498.09
767.476	12677.52
767.812	12709.61
768.148	12836.16
768.485	12863.28
768.821	13007.68
769.157	13058.75
769.492	13229.82
769.828	13313.89
770.164	13317.73
770.5	13470.49
770.836	13590.72
771.171	13560.21
771.507	13634.33
771.842	13690.37
772.178	13776.02
772.513	13889.69
772.849	13981.67
773.184	13925.85
773.519	14047.65
773.855	14044.94
774.19	14132.4
774.525	14124.04
774.86	14240.42
775.195	14263.24
775.53	14242.45
775.865	14328.78
776.2	14270.25
776.535	14267.99
776.87	14429.11
777.205	14402.22
777.539	14353.18
777.874	14512.5
778.209	14458.72
778.543	14462.33
778.878	14420.75
779.212	14465.5
779.547	14469.11
779.881	14563.8
780.215	14525.61
780.55	14556.79
780.884	14549.11
781.218	14596.34
781.552	14576.45
781.886	14486.96
782.22	14571.71
782.554	14524.25
782.888	14483.8
783.222	14397.25
783.556	14394.54
783.889	14427.98
784.223	14375.78
784.557	14430.47
784.89	14513.4
785.224	14451.94
785.557	14340.07
785.891	14458.72
786.224	14381.2
786.558	14410.58
786.891	14345.05
787.224	14262.56
787.557	14322.9
787.891	14252.39
788.224	14193.86
788.557	14280.19
788.89	14270.7
789.223	14302.34
789.556	14261.66
789.888	14158.61
790.221	14138.05
790.554	14072.96
790.887	14147.99
791.219	14037.94
791.552	14064.15
791.884	14045.17
792.217	14059.86
792.549	13958.39
792.882	13894.89
793.214	13913.87
793.546	13871.61
793.879	13835.23
794.211	13823.7
794.543	13825.06
794.875	13828
795.207	13846.53
795.539	13732.18
795.871	13711.62
796.203	13587.78
796.535	13528.8
796.867	13529.7
797.198	13538.29
797.53	13605.4
797.862	13477.05
798.193	13530.38
798.525	13445.86
798.856	13418.29
799.188	13298.52
799.519	13287.22
799.85	13197.96
800.182	13220.33
800.513	13316.82
800.844	13205.19
801.175	13219.65
801.506	13266.88
801.837	13162.25
802.168	13102.14
802.499	13088.36
802.83	13062.14
803.161	13032.76
803.491	13026.44
803.822	13079.09
804.153	12903.05
804.483	12853.79
804.814	12767.01
805.145	12814.47
805.475	12808.59
805.805	12841.81
806.136	12845.88
806.466	12770.85
806.796	12749.16
807.126	12656.73
807.457	12600.46
807.787	12630.52
808.117	12559.33
808.447	12541.03
808.777	12575.38
809.107	12538.54
809.436	12563.4
809.766	12490.63
810.096	12424.42
810.426	12419
810.755	12435.49
811.085	12416.74
811.414	12350.52
811.744	12279.56
812.073	12237.76
812.403	12239.34
812.732	12204.99
813.061	12230.53
813.39	12161.38
813.719	12129.29
814.049	12210.41
814.378	12193.01
814.707	12022.4
815.036	12093.58
815.365	12103.07
815.693	11957.09
816.022	11937.43
816.351	11974.94
816.68	11854.04
817.008	11912.79
817.337	11757.77
817.665	11762.29
817.994	11847.03
818.322	11783.76
818.651	11662.41
818.979	11602.52
819.307	11813.14
819.636	11784.21
819.964	11673.48
820.292	11708.28
820.62	11670.09
820.948	11693.59
821.276	11730.2
821.604	11602.97
821.932	11736.53
822.259	11714.83
822.587	11635.97
822.915	11664.21
823.243	11703.53
823.57	11607.72
823.898	11635.06
824.225	11558.91
824.553	11651.56
824.88	11670.31
825.207	11742.86
825.535	11636.64
825.862	11699.24
826.189	11602.97
826.516	11683.42
826.843	11656.98
827.17	11744.44
827.497	11724.55
827.824	11762.29
828.151	11745.11
828.478	11720.71
828.805	11713.48
829.131	11633.71
829.458	11631.45
829.785	11549.64
830.111	11696.08
830.438	11753.02
830.764	11656.98
831.09	11709.86
831.417	11629.19
831.743	11709.18
832.069	11753.02
832.395	11614.72
832.722	11626.02
833.048	11611.56
833.374	11601.84
833.7	11539.02
834.026	11627.6
834.351	11552.35
834.677	11595.74
835.003	11553.71
835.329	11527.27
835.654	11577.44
835.98	11525.23
836.306	11486.59
836.631	11433.71
836.956	11457.66
837.282	11499.92
837.607	11480.94
837.932	11482.07
838.258	11486.59
838.583	11419.02
838.908	11358.68
839.233	11364.11
839.558	11371.11
839.883	11354.39
840.208	11332.7
840.533	11289.99
840.858	11308.52
841.182	11271
841.507	11226.26
841.832	11195.98
842.156	11190.55
842.481	11178.35
842.805	11129.99
843.13	11153.27
843.454	11081.86
843.778	11020.39
844.103	11017.45
844.427	10972.25
844.751	11002.08
845.075	10960.73
845.399	10994.85
845.723	10887.51
846.047	10883.89
846.371	10801.18
846.695	10852.71
847.019	10701.98
847.343	10785.14
847.666	10612.49
847.99	10633.28
848.313	10599.83
848.637	10393.96
848.96	10460.4
849.284	10478.03
849.607	10398.94
849.931	10393.06
850.254	10339.05
850.577	10262.67
850.9	10180.41
851.223	10158.26
851.546	10143.35
851.869	10087.76
852.192	10049.34
852.515	10017.48
852.838	10001.43
853.161	10010.25
853.483	9885.73
853.806	9869.23
854.129	9882.57
854.451	9853.19
854.774	9846.41
855.096	9703.81
855.419	9746.3
855.741	9772.29
856.063	9652.51
856.385	9666.07
856.708	9694.77
857.03	9613.87
857.352	9587.43
857.674	9554.44
857.996	9582.01
858.318	9465.63
858.64	9497.72
858.961	9407.78
859.283	9497.72
859.605	9378.17
859.926	9467.89
860.248	9408.91
860.57	9358.29
860.891	9326.2
861.212	9226.31
861.534	9234.67
861.855	9233.54
862.176	9248.91
862.498	9162.58
862.819	9178.18
863.14	9182.02
863.461	9229.47
863.782	9170.27
864.103	9136.37
864.424	9080.55
864.745	9182.02
865.065	9071.74
865.386	9091.63
865.707	9071.74
866.027	9014.34
866.348	9024.96
866.668	8990.84
866.989	8977.5
867.309	8935.7
867.63	8962.14
867.95	8895.47
868.27	8886.21
868.59	8904.06
868.91	8901.12
869.23	8904.74
869.55	8831.75
869.87	8894.57
870.19	8862.25
870.51	8841.91
870.83	8856.15
871.15	8794.46
871.469	8824.51
871.789	8830.16
872.109	8784.06
872.428	8711.97
872.748	8758.75
873.067	8751.07
873.386	8819.99
873.706	8756.49
874.025	8667.23
874.344	8641.47
874.663	8719.21
874.982	8592.66
875.301	8561.92
875.62	8614.35
875.939	8612.09
876.258	8624.97
876.577	8489.38
876.896	8556.05
877.214	8541.81
877.533	8540.68
877.852	8549.49
878.17	8538.65
878.489	8551.07
878.807	8501.36
879.125	8533.22
879.444	8444.64
879.762	8414.81
880.08	8414.36
880.398	8432.89
880.716	8389.95
881.034	8399.21
881.352	8318.09
881.67	8343.17
881.988	8355.15
882.306	8339.78
882.624	8269.27
882.941	8288.71
883.259	8281.7
883.577	8181.37
883.894	8222.72
884.212	8179.78
884.529	8228.82
884.846	8200.8
885.164	8085.32
885.481	8149.5
885.798	8120.35
886.115	8111.09
886.432	8083.74
886.75	7993.8
887.067	8123.29
887.383	7975.95
887.7	8039.22
888.017	7962.62
888.334	7997.19
888.651	7911.09
888.967	7902.05
889.284	7894.59
889.6	7829.74
889.917	7799.23
890.233	7790.42
890.55	7753.36
890.866	7765.78
891.182	7768.27
891.498	7665.9
891.815	7705.9
892.131	7629.29
892.447	7623.64
892.763	7613.02
893.079	7613.92
893.395	7535.96
893.71	7544.32
894.026	7529.41
894.342	7550.87
894.657	7411.22
894.973	7493.02
895.289	7487.83
895.604	7431.1
895.92	7320.15
896.235	7372.57
896.55	7363.54
896.865	7288.28
897.181	7325.8
897.496	7299.81
897.811	7198.57
898.126	7180.49
898.441	7212.35
898.756	7165.8
899.071	7099.36
899.386	7141.85
899.7	7090.32
900.015	7066.14
900.33	7035.86
900.644	7026.37
900.959	6979.82
901.273	6940.5
901.588	6920.83
901.902	6916.32
902.216	6886.49
902.531	6841.52
902.845	6868.86
903.159	6811.69
903.473	6770.78
903.787	6783.44
904.101	6735.08
904.415	6729.88
904.729	6691.69
905.042	6614.85
905.356	6622.99
905.67	6637.9
905.984	6601.3
906.297	6582.09
906.611	6559.49
906.924	6585.48
907.237	6538.47
907.551	6484.69
907.864	6436.1
908.177	6445.59
908.491	6414.63
908.804	6385.71
909.117	6321.53
909.43	6311.59
909.743	6279.72
910.056	6276.33
910.368	6252.83
910.681	6232.72
910.994	6182.32
911.307	6141.65
911.619	6108.43
911.932	6138.26
912.244	6090.12
912.557	6078.15
912.869	6059.16
913.181	6049.9
913.494	6034.53
913.806	5965.61
914.118	5897.13
914.43	5910.69
914.742	5872.27
915.054	5860.07
915.366	5874.76
915.678	5818.94
915.99	5825.27
916.302	5786.63
916.613	5741.66
916.925	5742.33
917.236	5708.44
917.548	5700.75
917.859	5695.78
918.171	5646.97
918.482	5617.14
918.794	5638.16
919.105	5545.73
919.416	5543.02
919.727	5551.15
920.038	5579.18
920.349	5442.91
920.66	5467.54
920.971	5468.44
921.282	5430.93
921.593	5425.73
921.903	5326.98
922.214	5356.58
922.525	5361.33
922.835	5318.39
923.146	5334.21
923.456	5330.14
923.767	5271.16
924.077	5250.14
924.387	5274.32
924.697	5211.73
925.008	5167.43
925.318	5126.76
925.628	5168.11
925.938	5154.33
926.248	5049.02
926.558	5113.42
926.867	5061.67
927.177	5046.53
927.487	4987.55
927.796	5004.28
928.106	4969.25
928.416	4885.63
928.725	4923.37
929.034	4894.67
929.344	4846.31
929.653	4890.83
929.962	4840.89
930.271	4825.75
930.581	4830.95
930.89	4790.95
931.199	4774.9
931.508	4717.05
931.817	4799.53
932.125	4731.51
932.434	4682.7
932.743	4662.59
933.051	4645.87
933.36	4625.98
933.669	4645.87
933.977	4570.16
934.286	4587.79
934.594	4588.47
934.902	4521.58
935.21	4515.93
935.519	4510.28
935.827	4462.37
936.135	4456.94
936.443	4489.03
936.751	4436.61
937.059	4408.36
937.367	4381.24
937.674	4376.27
937.982	4407.45
938.29	4342.6
938.597	4351.64
938.905	4307.8
939.213	4259.89
939.52	4263.5
939.827	4266.89
940.135	4200.45
940.442	4189.83
940.749	4237.97
941.056	4154.35
941.363	4126.56
941.67	4147.57
941.977	4144.18
942.284	4095.82
942.591	4102.6
942.898	4062.61
943.205	4071.42
943.511	4025.32
943.818	3994.81
944.125	3985.77
944.431	4017.41
944.738	3964.3
945.044	3953.68
945.35	3962.27
945.657	3921.59
945.963	3907.81
946.269	3893.8
946.575	3851.09
946.881	3853.8
947.187	3858.09
947.493	3796.62
947.799	3803.4
948.105	3796.17
948.41	3773.57
948.716	3808.15
949.022	3728.38
949.327	3734.48
949.633	3662.62
949.938	3694.93
950.244	3723.4
950.549	3663.29
950.854	3682.05
951.16	3642.28
951.465	3649.96
951.77	3597.31
952.075	3572
952.38	3587.14
952.685	3555.05
952.99	3516.18
953.294	3552.11
953.599	3529.74
953.904	3484.32
954.209	3449.74
954.513	3512.56
954.818	3450.87
955.122	3426.92
955.426	3434.37
955.731	3439.12
956.035	3425.79
956.339	3432.34
956.643	3398.44
956.948	3357.54
957.252	3357.09
957.556	3330.87
957.86	3316.86
958.163	3281.16
958.467	3283.87
958.771	3254.94
959.075	3309.4
959.378	3232.8
959.682	3284.32
959.985	3212.01
960.289	3205
960.592	3187.15
960.896	3192.57
961.199	3188.73
961.502	3123.65
961.805	3155.51
962.108	3113.7
962.411	3110.54
962.714	3108.05
963.017	3104.44
963.32	3097.43
963.623	3096.53
963.926	3060.15
964.228	3040.71
964.531	3044.1
964.833	3029.19
965.136	3007.04
965.438	2997.55
965.741	2964.78
966.043	2963.65
966.345	2941.05
966.648	2954.39
966.95	2957.55
967.252	2916.65
967.554	2875.52
967.856	2880.49
968.158	2871.68
968.46	2856.99
968.761	2869.19
969.063	2830.32
969.365	2849.76
969.666	2826.93
969.968	2810.43
970.269	2794.84
970.571	2788.29
970.872	2788.97
971.174	2771.57
971.475	2761.85
971.776	2756.88
972.077	2716.88
972.378	2699.03
972.679	2668.07
972.98	2676.65
973.281	2701.06
973.582	2664.22
973.883	2654.05
974.183	2672.36
974.484	2666.48
974.785	2636.65
975.085	2598.01
975.386	2588.52
975.686	2567.5
975.986	2603.43
976.287	2548.07
976.587	2574.96
976.887	2569.76
977.187	2542.19
977.487	2526.83
977.787	2494.74
978.087	2506.94
978.387	2493.15
978.687	2464.23
978.987	2473.72
979.286	2449.99
979.586	2438.01
979.885	2426.04
980.185	2477.56
980.484	2440.27
980.784	2402.54
981.083	2398.69
981.382	2403.89
981.682	2374.06
981.981	2355.53
982.28	2344.91
982.579	2317.34
982.878	2334.29
983.177	2309.43
983.475	2312.14
983.774	2306.94
984.073	2301.75
984.372	2293.84
984.67	2273.5
984.969	2285.48
985.267	2280.51
985.566	2273.73
985.864	2221.3
986.162	2205.7
986.461	2214.07
986.759	2195.31
987.057	2184.91
987.355	2162.77
987.653	2166.16
987.951	2178.36
988.249	2147.85
988.547	2154.41
988.844	2170.23
989.142	2111.92
989.44	2074.18
989.737	2113.73
990.035	2078.93
990.332	2069.89
990.63	2065.6
990.927	2054.52
991.224	2060.62
991.521	2049.78
991.819	2053.62
992.116	2039.61
992.413	2001.42
992.71	2024.69
993.006	1999.16
993.303	2005.26
993.6	1974.75
993.897	1971.81
994.193	1979.95
994.49	1955.54
994.787	1934.07
995.083	1965.26
995.379	1953.06
995.676	1931.14
995.972	1913.96
996.268	1892.94
996.565	1887.52
996.861	1879.16
997.157	1849.78
997.453	1880.74
997.749	1865.15
998.044	1831.93
998.34	1825.6
998.636	1790.12
998.932	1864.02
999.227	1808.43
999.523	1814.98
999.818	1799.61
1000.114	1776.56
1000.409	1788.31
1000.704	1788.09
1001	1764.81
1001.295	1719.62
1001.59	1751.25
1001.885	1745.83
1002.18	1718.71
1002.475	1728.66
1002.77	1708.09
1003.065	1696.57
1003.359	1708.54
1003.654	1679.39
1003.949	1664.7
1004.243	1671.03
1004.538	1652.72
1004.832	1638.04
1005.127	1643.46
1005.421	1597.81
1005.715	1614.99
1006.009	1605.04
1006.304	1636
1006.598	1597.13
1006.892	1584.7
1007.186	1568.21
1007.48	1570.24
1007.773	1549
1008.067	1571.82
1008.361	1521.88
1008.655	1530.02
1008.948	1518.72
1009.242	1535.21
1009.535	1499.73
1009.829	1501.32
1010.122	1479.62
1010.415	1500.41
1010.708	1466.74
1011.001	1443.69
1011.295	1476.23
1011.588	1438.72
1011.881	1429.45
1012.173	1449.11
1012.466	1454.54
1012.759	1396.91
1013.052	1406.4
1013.344	1420.64
1013.637	1391.26
1013.93	1388.78
1014.222	1389.45
1014.514	1378.16
1014.807	1366.86
1015.099	1368.21
1015.391	1354.43
1015.683	1357.59
1015.976	1359.63
1016.268	1303.36
1016.56	1307.65
1016.851	1314.2
1017.143	1305.62
1017.435	1302.45
1017.727	1285.73
1018.018	1303.58
1018.31	1266.75
1018.602	1276.46
1018.893	1253.87
1019.185	1246.18
1019.476	1261.77
1019.767	1222.68
1020.058	1245.5
1020.35	1202.34
1020.641	1202.34
1020.932	1204.15
1021.223	1197.14
1021.514	1194.21
1021.804	1177.71
1022.095	1181.32
1022.386	1191.04
1022.677	1177.03
1022.967	1143.81
1023.258	1155.56
1023.548	1122.34
1023.839	1140.2
1024.129	1115.56
1024.419	1122.57
1024.709	1101.55
1025	1111.72
1025.29	1088.45
1025.58	1101.33
1025.87	1072.4
1026.16	1065.85
1026.449	1088.22
1026.739	1048.45
1027.029	1085.73
1027.319	1031.27
1027.608	1028.56
1027.898	1031.95
1028.187	1037.15
1028.477	1016.58
1028.766	1013.42
1029.055	1020.88
1029.344	1008
1029.634	993.76
1029.923	1003.48
1030.212	983.14
1030.501	980.65
1030.79	962.57
1031.078	976.13
1031.367	965.74
1031.656	947.66
1031.945	954.44
1032.233	936.13
1032.522	936.59
1032.81	910.82
1033.099	924.38
1033.387	905.85
1033.675	920.31
1033.963	910.37
1034.251	920.31
1034.54	901.33
1034.828	879.41
1035.116	876.47
1035.403	904.5
1035.691	895.46
1035.979	861.79
1036.267	884.38
1036.554	863.82
1036.842	824.05
1037.129	859.98
1037.417	834.67
1037.704	848
1037.992	859.3
1038.279	842.12
1038.566	817.04
1038.853	817.04
1039.14	817.04
