Data from hue_210_FLMS001491_00090.txt Node
Date: Tue Feb 07 16:41:53 GMT 2017
User: dcchb
Spectrometer: FLMS00149
Trigger mode: 0
Integration Time (sec): 2.000000E-2
Scans to average: 10
Electric dark correction enabled: true
Nonlinearity correction enabled: false
Boxcar width: 0
XAxis mode: Wavelengths
Number of Pixels in Spectrum: 2048
>>>>>Begin Spectral Data<<<<<
341.393	-0.62
341.776	-0.62
342.16	-0.62
342.543	-48.3
342.927	-51.24
343.31	-90.11
343.693	-56.21
344.077	-77.68
344.46	-48.08
344.843	-53.05
345.226	-31.58
345.61	-18.7
345.993	-34.97
346.376	-14.18
346.759	14.97
347.142	32.15
347.525	42.54
347.908	46.61
348.291	71.69
348.674	92.94
349.057	123.67
349.44	113.5
349.823	163.89
350.206	138.13
350.588	195.31
350.971	214.51
351.354	222.88
351.737	249.32
352.119	242.99
352.502	271.91
352.884	261.29
353.267	301.07
353.65	273.04
354.032	309.2
354.414	304.23
354.797	308.97
355.179	299.48
355.562	299.03
355.944	323.89
356.326	330.9
356.709	342.87
357.091	348.75
357.473	337.9
357.855	338.35
358.238	335.87
358.62	359.37
359.002	354.4
359.384	344
359.766	330.67
360.148	342.42
360.53	348.52
360.912	342.42
361.294	332.93
361.676	332.93
362.057	343.32
362.439	319.14
362.821	351.69
363.203	323.44
363.584	321.18
363.966	322.99
364.348	339.48
364.729	328.41
365.111	336.32
365.493	348.97
365.874	322.53
366.256	315.08
366.637	316.66
367.019	306.26
367.4	318.92
367.781	309.65
368.163	323.44
368.544	299.48
368.925	308.75
369.306	334.06
369.688	325.02
370.069	313.49
370.45	326.83
370.831	300.39
371.212	332.03
371.593	298.81
371.974	312.14
372.355	313.49
372.736	320.27
373.117	340.84
373.498	298.13
373.879	308.3
374.26	327.73
374.641	305.13
375.021	312.59
375.402	318.24
375.783	327.05
376.163	340.61
376.544	351.69
376.925	344.91
377.305	333.61
377.686	314.85
378.066	339.71
378.447	330.22
378.827	323.21
379.208	317.56
379.588	321.4
379.968	322.76
380.349	333.16
380.729	344
381.109	341.06
381.489	340.16
381.87	329.99
382.25	322.53
382.63	335.41
383.01	326.15
383.39	346.49
383.77	353.95
384.15	341.52
384.53	345.81
384.91	339.93
385.29	332.48
385.67	348.3
386.049	371.35
386.429	363.66
386.809	353.27
387.189	368.18
387.568	377.9
387.948	347.39
388.328	359.37
388.707	378.13
389.087	365.7
389.466	383.1
389.846	361.4
390.225	363.44
390.605	383.78
390.984	386.71
391.363	371.8
391.743	375.64
392.122	349.43
392.501	378.35
392.881	393.04
393.26	374.28
393.639	400.5
394.018	386.71
394.397	367.73
394.776	379.26
395.155	400.5
395.534	410.44
395.913	399.37
396.292	381.52
396.671	418.8
397.05	409.76
397.429	389.88
397.808	394.85
398.186	399.59
398.565	400.95
398.944	435.53
399.323	414.06
399.701	419.25
400.08	429.88
400.458	416.54
400.837	435.53
401.215	421.97
401.594	437.11
401.972	432.14
402.351	457.45
402.729	446.37
403.107	441.63
403.486	448.18
403.864	463.1
404.242	461.29
404.62	424
404.999	454.96
405.377	463.77
405.755	478.91
406.133	480.95
406.511	486.15
406.889	494.28
407.267	493.6
407.645	489.08
408.023	515.98
408.401	517.78
408.779	487.95
409.156	538.35
409.534	498.8
409.912	540.38
410.29	529.08
410.667	549.42
411.045	531.79
411.422	560.49
411.8	594.17
412.178	575.41
412.555	577.44
412.933	568.86
413.31	613.37
413.687	623.99
414.065	629.87
414.442	621.28
414.819	623.54
415.197	643.2
415.574	641.4
415.951	665.12
416.328	648.18
416.705	652.47
417.082	670.55
417.46	701.28
417.837	692.92
418.214	715.07
418.591	729.3
418.967	715.52
419.344	745.35
419.721	745.57
420.098	762.52
420.475	769.98
420.852	791.22
421.228	794.16
421.605	796.87
421.982	808.62
422.358	821.73
422.735	844.1
423.111	870.09
423.488	869.41
423.864	887.04
424.241	898.11
424.617	907.15
424.994	926.81
425.37	931.56
425.746	942.63
426.123	939.47
426.499	979.24
426.875	965
427.251	987.15
427.627	1017.88
428.003	1037.32
428.379	1034.15
428.756	1042.97
429.132	1069.41
429.507	1074.38
429.883	1075.51
430.259	1104.89
430.635	1115.51
431.011	1152.34
431.387	1160.7
431.763	1139.69
432.138	1167.48
432.514	1214.94
432.89	1211.1
433.265	1233.02
433.641	1233.92
434.016	1273.47
434.392	1321.6
434.767	1321.83
435.143	1309.17
435.518	1357.53
435.894	1378.78
436.269	1429.62
436.644	1407.48
437.02	1456.52
437.395	1461.71
437.77	1487.93
438.145	1511.43
438.52	1560.47
438.895	1574.25
439.271	1600.47
439.646	1641.82
440.021	1645.44
440.395	1672.55
440.77	1640.24
441.145	1706.68
441.52	1704.87
441.895	1732.44
442.27	1749.16
442.645	1735.15
443.019	1804.08
443.394	1808.37
443.769	1831.65
444.143	1841.36
444.518	1849.73
444.892	1856.5
445.267	1881.59
445.641	1899.22
446.016	1891.53
446.39	1919.78
446.764	1941.47
447.139	1934.92
447.513	1918.65
447.887	2007.24
448.262	1987.57
448.636	2021.02
449.01	2048.59
449.384	2043.17
449.758	2091.07
450.132	2083.62
450.506	2095.37
450.88	2127.46
451.254	2116.39
451.628	2153.67
452.002	2201.81
452.376	2181.47
452.75	2224.4
453.123	2211.07
453.497	2294.23
453.871	2294.91
454.244	2329.71
454.618	2358.19
454.992	2363.16
455.365	2364.74
455.739	2437.73
456.112	2485.19
456.486	2470.27
456.859	2495.13
457.232	2535.81
457.606	2508.01
457.979	2545.98
458.352	2607.22
458.725	2638.41
459.099	2659.65
459.472	2689.48
459.845	2731.74
460.218	2738.74
460.591	2750.27
460.964	2772.19
461.337	2813.32
461.71	2874.78
462.083	2924.27
462.456	2915.46
462.829	2914.56
463.201	2997.04
463.574	2994.1
463.947	3047.66
464.32	3104.61
464.692	3163.14
465.065	3171.05
465.438	3200.88
465.81	3257.6
466.183	3238.16
466.555	3345.96
466.928	3355.22
467.3	3337.6
467.672	3400.19
468.045	3506.18
468.417	3468.44
468.789	3506.18
469.161	3559.51
469.534	3599.06
469.906	3663.91
470.278	3674.76
470.65	3719.73
471.022	3809.22
471.394	3859.84
471.766	3875.66
472.138	3898.03
472.51	4015.77
472.882	4027.97
473.253	4080.85
473.625	4131.47
473.997	4200.62
474.369	4258.7
474.74	4263.9
475.112	4381.86
475.484	4443.33
475.855	4488.07
476.227	4472.26
476.598	4599.48
476.97	4669.09
477.341	4783.66
477.713	4792.25
478.084	4851
478.455	4945.01
478.827	4946.37
479.198	5113.37
479.569	5108.85
479.94	5256.42
480.311	5253.48
480.682	5404.21
481.053	5495.51
481.424	5556.29
481.795	5556.52
482.166	5651.43
482.537	5765.55
482.908	5881.03
483.279	5962.39
483.65	5992.89
484.021	6076.28
484.391	6147.69
484.762	6193.57
485.133	6237.41
485.503	6295.03
485.874	6447.12
486.244	6462.49
486.615	6639.88
486.985	6687.79
487.356	6737.73
487.726	6819.54
488.097	6905.19
488.467	6934.56
488.837	7057.27
489.207	7148.8
489.578	7179.53
489.948	7269.47
490.318	7354.44
490.688	7410.94
491.058	7515.34
491.428	7558.73
491.798	7671.72
492.168	7761.66
492.538	7712.85
492.908	7840.75
493.278	7917.36
493.648	7928.44
494.017	8053.18
494.387	8112.39
494.757	8146.73
495.126	8195.77
495.496	8194.19
495.866	8294.75
496.235	8323
496.605	8369.78
496.974	8437.8
497.344	8492.94
497.713	8536.33
498.082	8603.45
498.452	8666.95
498.821	8664.69
499.19	8703.1
499.559	8705.82
499.928	8814.74
500.298	8840.5
500.667	8862.2
501.036	8874.4
501.405	8958.24
501.774	8986.03
502.143	8972.48
502.512	9015.64
502.88	9124.79
503.249	9040.04
503.618	9166.82
503.987	9101.96
504.356	9219.93
504.724	9241.62
505.093	9248.4
505.462	9286.14
505.83	9283.65
506.199	9321.17
506.567	9393.26
506.936	9454.27
507.304	9469.86
507.672	9423.09
508.041	9471.45
508.409	9555.96
508.777	9599.8
509.145	9590.31
509.514	9640.25
509.882	9653.59
510.25	9691.55
510.618	9718.67
510.986	9749.86
511.354	9765.9
511.722	9805.22
512.09	9825.11
512.458	9797.76
512.826	9852.23
513.193	9864.66
513.561	9803.41
513.929	9895.39
514.297	9986.69
514.664	9915.73
515.032	10061.03
515.4	10016.97
515.767	10057.19
516.135	10041.83
516.502	9915.95
516.869	10039.57
517.237	10120.92
517.604	10019.45
517.972	10075.27
518.339	10159.79
518.706	10074.14
519.073	10102.84
519.44	10174.93
519.808	10249.5
520.175	10195.27
520.542	10285.66
520.909	10250.18
521.276	10214.7
521.643	10298.77
522.009	10297.41
522.376	10301.71
522.743	10427.58
523.11	10378.77
523.477	10489.72
523.843	10446.79
524.21	10431.19
524.577	10498.99
524.943	10470.74
525.31	10458.09
525.676	10515.03
526.043	10580.12
526.409	10580.12
526.776	10620.34
527.142	10573.79
527.508	10573.11
527.874	10634.81
528.241	10602.04
528.607	10628.93
528.973	10687.01
529.339	10601.81
529.705	10713
530.071	10648.59
530.437	10695.14
530.803	10616.73
531.169	10694.92
531.535	10668.7
531.901	10671.64
532.267	10582.38
532.632	10607.46
532.998	10675.93
533.364	10601.59
533.73	10634.13
534.095	10646.1
534.461	10630.74
534.826	10617.18
535.192	10661.47
535.557	10586.67
535.923	10547.58
536.288	10529.27
536.653	10612.88
537.019	10507.12
537.384	10503.96
537.749	10481.59
538.114	10454.02
538.479	10354.36
538.845	10415.6
539.21	10339.45
539.575	10395.94
539.94	10346.23
540.305	10433.23
540.67	10319.56
541.034	10241.37
541.399	10345.77
541.764	10291.76
542.129	10186.46
542.494	10198.43
542.858	10243.63
543.223	10214.03
543.587	10193.01
543.952	10126.8
544.316	10132.45
544.681	10118.21
545.045	10087.25
545.41	10087.02
545.774	10092.22
546.138	10050.19
546.503	10002.05
546.867	9945.56
547.231	10058.32
547.595	9919.8
547.959	9903.75
548.324	9878.89
548.688	9850.64
549.052	9838.89
549.416	9859.01
549.779	9758.22
550.143	9797.99
550.507	9730.87
550.871	9730.2
551.235	9723.64
551.599	9686.58
551.962	9711.67
552.326	9622.18
552.689	9647.03
553.053	9537.66
553.417	9561.16
553.78	9709.41
554.143	9550.99
554.507	9579.47
554.87	9559.81
555.234	9578.56
555.597	9527.94
555.96	9423.31
556.323	9512.57
556.686	9471.9
557.05	9487.04
557.413	9463.31
557.776	9412.92
558.139	9521.84
558.502	9460.82
558.865	9486.81
559.228	9563.87
559.59	9480.49
559.953	9448.4
560.316	9455.85
560.679	9527.26
561.041	9535.62
561.404	9508.06
561.767	9544.21
562.129	9474.38
562.492	9542.63
562.854	9494.5
563.217	9497.66
563.579	9524.78
563.941	9494.04
564.304	9559.13
564.666	9502.63
565.028	9500.37
565.39	9579.47
565.753	9602.29
566.115	9563.65
566.477	9604.55
566.839	9576.98
567.201	9634.61
567.563	9637.54
567.925	9686.58
568.287	9634.61
568.648	9608.17
569.01	9660.37
569.372	9697.65
569.734	9735.17
570.095	9681.38
570.457	9790.76
570.819	9752.12
571.18	9687.71
571.542	9788.95
571.903	9816.75
572.265	9766.58
572.626	9850.19
572.987	9762.51
573.349	9874.6
573.71	9874.83
574.071	9899.46
574.432	9992.34
574.794	9966.8
575.155	9993.01
575.516	9891.77
575.877	9905.56
576.238	9906.24
576.599	9988.95
576.96	9960.02
577.32	10076.85
577.681	10056.29
578.042	10019.45
578.403	10070.75
578.763	10062.39
579.124	10049.51
579.485	10087.02
579.845	10101.03
580.206	10095.38
580.566	10033.46
580.927	10049.51
581.287	10181.03
581.648	10089.96
582.008	10200.92
582.368	10178.55
582.728	10113.46
583.089	10104.2
583.449	10162.28
583.809	10199.79
584.169	10222.16
584.529	10188.72
584.889	10141.48
585.249	10148.26
585.609	10162.95
585.969	10215.16
586.329	10199.34
586.688	10217.41
587.048	10217.87
587.408	10181.94
587.768	10196.17
588.127	10213.8
588.487	10197.98
588.846	10257.87
589.206	10175.38
589.565	10193.23
589.925	10271.88
590.284	10178.09
590.643	10271.88
591.003	10291.31
591.362	10385.77
591.721	10288.15
592.08	10281.82
592.44	10334.93
592.799	10291.31
593.158	10322.27
593.517	10311.65
593.876	10342.38
594.235	10340.58
594.593	10288.83
594.952	10337.86
595.311	10338.99
595.67	10378.54
596.029	10362.27
596.387	10370.18
596.746	10414.02
597.104	10365.89
597.463	10363.85
597.822	10407.92
598.18	10335.15
598.538	10298.09
598.897	10412.89
599.255	10350.29
599.613	10532.21
599.972	10373.57
600.33	10447.01
600.688	10386.22
601.046	10396.85
601.404	10451.53
601.762	10391.2
602.12	10499.44
602.478	10458.31
602.836	10405.21
603.194	10458.31
603.552	10456.5
603.91	10388.03
604.268	10384.87
604.625	10442.49
604.983	10426.45
605.341	10440.01
605.698	10406.79
606.056	10458.09
606.413	10452.89
606.771	10459.89
607.128	10523.85
607.485	10423.29
607.843	10536.28
608.2	10495.6
608.557	10566.56
608.914	10528.37
609.272	10467.13
609.629	10598.2
609.986	10552.55
610.343	10519.1
610.7	10654.69
611.057	10607.69
611.414	10616.27
611.771	10552.55
612.127	10681.13
612.484	10655.6
612.841	10665.09
613.198	10601.36
613.554	10600
613.911	10707.57
614.267	10712.32
614.624	10637.29
614.98	10719.55
615.337	10703.28
615.693	10685.88
616.05	10708.7
616.406	10764.07
616.762	10682.49
617.118	10771.75
617.475	10689.49
617.831	10748.93
618.187	10783.5
618.543	10726.1
618.899	10766.78
619.255	10806.1
619.611	10722.03
619.967	10810.39
620.323	10800.22
620.678	10742.37
621.034	10770.17
621.39	10789.83
621.746	10727.46
622.101	10812.65
622.457	10802.26
622.812	10786.44
623.168	10815.59
623.523	10811.3
623.879	10836.83
624.234	10756.61
624.589	10855.59
624.945	10800.9
625.3	10807.46
625.655	10783.05
626.01	10830.05
626.365	10842.71
626.72	10762.94
627.075	10778.08
627.43	10717.51
627.785	10789.6
628.14	10694.46
628.495	10797.51
628.85	10728.81
629.205	10719.77
629.559	10706.22
629.914	10683.17
630.269	10684.3
630.623	10733.56
630.978	10636.84
631.332	10766.33
631.687	10686.1
632.041	10641.81
632.396	10685.43
632.75	10616.05
633.104	10565.43
633.459	10564.98
633.813	10629.16
634.167	10580.57
634.521	10593.45
634.875	10599.55
635.229	10528.59
635.583	10488.37
635.937	10564.3
636.291	10486.11
636.645	10512.55
636.999	10433.68
637.352	10454.02
637.706	10379.9
638.06	10522.94
638.413	10398.2
638.767	10395.04
639.121	10381.93
639.474	10366.34
639.828	10313.46
640.181	10380.35
640.534	10380.8
640.888	10355.94
641.241	10297.41
641.594	10325.66
641.947	10343.51
642.301	10309.84
642.654	10311.88
643.007	10306.23
643.36	10263.52
643.713	10317.07
644.066	10293.12
644.419	10282.95
644.771	10164.31
645.124	10153.46
645.477	10084.54
645.83	10006.35
646.182	10000.92
646.535	9944.88
646.888	9972.22
647.24	9904.65
647.593	9906.01
647.945	9915.05
648.298	9843.87
648.65	9842.96
649.002	9857.2
649.355	9921.15
649.707	9921.38
650.059	9927.71
650.411	10093.12
650.763	10129.73
651.115	10116.17
651.467	10108.49
651.819	10132.67
652.171	10084.31
652.523	10058.1
652.875	10084.76
653.227	10107.81
653.578	10148.72
653.93	10143.29
654.282	10036.4
654.633	10037.98
654.985	10128.6
655.337	10068.94
655.688	10023.52
656.039	10184.87
656.391	10050.19
656.742	10048.15
657.094	10128.15
657.445	10102.16
657.796	10100.58
658.147	10084.09
658.498	10023.3
658.849	10018.32
659.2	10133.58
659.551	10075.05
659.902	10107.14
660.253	10109.4
660.604	10103.29
660.955	10076.18
661.306	10115.72
661.656	10079.57
662.007	10097.87
662.358	10151.65
662.708	10163.63
663.059	10106.01
663.409	10082.96
663.76	10141.03
664.11	10119.79
664.461	10097.64
664.811	10133.35
665.161	10169.28
665.511	10098.77
665.862	10121.15
666.212	10205.66
666.562	10106.46
666.912	10116.17
667.262	10061.49
667.612	10104.88
667.962	10214.7
668.312	10128.38
668.662	10226.45
669.011	10080.7
669.361	10134.25
669.711	10134.48
670.06	10086.34
670.41	10073.01
670.76	10083.41
671.109	10056.29
671.459	10048.61
671.808	9975.16
672.157	10105.78
672.507	10021.04
672.856	9960.7
673.205	10059.23
673.554	10062.16
673.904	9951.66
674.253	10039.11
674.602	9997.53
674.951	9822.62
675.3	9738.78
675.649	9980.36
675.998	9977.65
676.346	9941.04
676.695	10066.91
677.044	9875.5
677.393	9892.45
677.741	9898.78
678.09	9989.17
678.438	9870.08
678.787	9860.36
679.135	9895.39
679.484	9796.18
679.832	9956.63
680.181	9799.57
680.529	9797.31
680.877	9834.37
681.225	9762.51
681.573	9760.25
681.922	9787.14
682.27	9693.36
682.618	9716.19
682.966	9708.5
683.314	9780.59
683.661	9649.07
684.009	9617.2
684.357	9604.55
684.705	9636.41
685.053	9622.63
685.4	9573.14
685.748	9570.65
686.095	9526.81
686.443	9493.14
686.79	9445.01
687.138	9433.71
687.485	9482.29
687.832	9490.43
688.18	9415.63
688.527	9341.51
688.874	9275.29
689.221	9347.16
689.568	9231.23
689.915	9240.94
690.262	9271.45
690.609	9241.4
690.956	9216.99
691.303	9133.6
691.65	9109.42
691.997	9093.83
692.344	9105.35
692.69	9064.22
693.037	9099.25
693.383	8935.64
693.73	9047.05
694.077	8941.74
694.423	8894.74
694.769	8906.49
695.116	8929.09
695.462	8829.88
695.808	8774.06
696.155	8824.01
696.501	8767.28
696.847	8753.95
697.193	8728.87
697.539	8716.66
697.885	8612.94
698.231	8578.14
698.577	8610.45
698.923	8534.97
699.269	8494.75
699.614	8432.15
699.96	8396.9
700.306	8500.17
700.651	8391.25
700.997	8373.4
701.342	8393.51
701.688	8347.18
702.033	8330.01
702.379	8277.8
702.724	8218.6
703.069	8235.55
703.415	8163.91
703.76	8154.19
704.105	8144.7
704.45	8109
704.795	8043.46
705.14	8049.56
705.485	8030.58
705.83	7958.04
706.175	7915.78
706.52	7903.35
706.865	7935.89
707.209	7968.89
707.554	7861.32
707.899	7875.56
708.243	7833.3
708.588	7792.85
708.932	7794.65
709.277	7767.76
709.621	7721.44
709.966	7651.83
710.31	7682.79
710.654	7640.08
710.998	7664.94
711.342	7629.01
711.687	7601.66
712.031	7562.57
712.375	7599.4
712.719	7569.8
713.063	7502.46
713.407	7603.92
713.75	7531.61
714.094	7498.84
714.438	7452.52
714.782	7475.79
715.125	7471.95
715.469	7441.89
715.812	7454.78
716.156	7390.82
716.499	7386.98
716.843	7361.67
717.186	7386.98
717.53	7356.25
717.873	7377.49
718.216	7333.2
718.559	7332.75
718.902	7272.18
719.246	7334.55
719.589	7262.92
719.932	7234.44
720.275	7219.53
720.617	7190.38
720.96	7263.14
721.303	7210.94
721.646	7216.59
721.989	7241
722.331	7250.71
722.674	7224.95
723.016	7219.08
723.359	7148.12
723.701	7235.35
724.044	7165.74
724.386	7134.78
724.729	7176.14
725.071	7136.14
725.413	7209.81
725.755	7098.63
726.097	7094.56
726.439	7073.32
726.782	7051.17
727.124	7097.95
727.465	7101.11
727.807	7040.55
728.149	7092.98
728.491	7042.36
728.833	6981.57
729.175	7058.85
729.516	7043.04
729.858	7010.49
730.199	6962.81
730.541	7039.19
730.882	7020.89
731.224	7028.57
731.565	6957.16
731.906	6989.48
732.248	7006.43
732.589	7028.35
732.93	6970.27
733.271	6995.35
733.612	7062.02
733.953	6990.61
734.294	7005.52
734.635	6979.99
734.976	7045.97
735.317	6975.92
735.658	7039.42
735.999	6993.32
736.339	7004.39
736.68	6997.61
737.021	7027.44
737.361	6959.42
737.702	7055.01
738.042	6989.48
738.383	6975.69
738.723	7020.66
739.063	7011.62
739.404	7031.96
739.744	7100.89
740.084	7035.13
740.424	7066.31
740.764	7095.24
741.104	7134.11
741.444	7065.18
741.784	7066.76
742.124	7104.28
742.464	7172.07
742.804	7118.29
743.143	7135.01
743.483	7169.81
743.823	7124.84
744.162	7205.52
744.502	7227.66
744.841	7253.88
745.181	7320.99
745.52	7272.18
745.86	7382.91
746.199	7382.01
746.538	7432.18
746.877	7407.09
747.216	7494.77
747.556	7475.57
747.895	7535.68
748.234	7538.62
748.573	7612.51
748.911	7662.45
749.25	7775.22
749.589	7738.61
749.928	7882.11
750.267	7914.42
750.605	8016.57
750.944	8031.94
751.283	8020.41
751.621	8158.03
751.96	8237.13
752.298	8276.68
752.636	8458.82
752.975	8460.17
753.313	8563.67
753.651	8704.46
753.989	8751.46
754.327	8798.24
754.666	8927.96
755.004	9056.09
755.342	9240.72
755.679	9259.47
756.017	9387.83
756.355	9607.26
756.693	9663.31
757.031	9872.34
757.368	9907.59
757.706	10075.72
758.044	10151.2
758.381	10372.89
758.719	10494.92
759.056	10661.02
759.394	10688.59
759.731	10852.65
760.068	11058.97
760.405	11182.36
760.743	11373.32
761.08	11585.97
761.417	11662.8
761.754	11792.74
762.091	12047.42
762.428	12195.44
762.765	12282.67
763.102	12539.16
763.438	12691.25
763.775	12722.43
764.112	12982.54
764.449	13162.65
764.785	13274.96
765.122	13359.93
765.458	13451.45
765.795	13657.32
766.131	13837.66
766.467	14036.3
766.804	14188.38
767.14	14273.81
767.476	14440.58
767.812	14481.26
768.148	14751.31
768.485	14824.53
768.821	14909.95
769.157	15043.73
769.492	15235.36
769.828	15347.22
770.164	15386.77
770.5	15497.05
770.836	15626.76
771.171	15752.86
771.507	15791.73
771.842	15891.16
772.178	16040.54
772.513	16080.54
772.849	16149.69
773.184	16191.72
773.519	16349.01
773.855	16452.51
774.19	16527.08
774.525	16640.97
774.86	16740.18
775.195	16702.89
775.53	16803
775.865	16798.03
776.2	16818.37
776.535	16908.54
776.87	16942.89
777.205	16986.95
777.539	16946.96
777.874	17148.53
778.209	17081.87
778.543	17128.65
778.878	17092.94
779.212	17218.13
779.547	17180.85
779.881	17325.7
780.215	17263.33
780.55	17405.02
780.884	17303.56
781.218	17365.02
781.552	17412.93
781.886	17318.47
782.22	17307.4
782.554	17358.24
782.888	17242.77
783.222	17358.7
783.556	17257.68
783.889	17320.96
784.223	17175.88
784.557	17260.17
784.89	17358.7
785.224	17218.59
785.557	17238.02
785.891	17318.47
786.224	17229.89
786.558	17289.32
786.891	17240.96
787.224	17113.73
787.557	17207.74
787.891	17166.61
788.224	17166.61
788.557	17199.6
788.89	17209.32
789.223	17176.1
789.556	17094.97
789.888	17098.36
790.221	17078.25
790.554	16977.92
790.887	17060.17
791.219	16913.51
791.552	16984.24
791.884	16890.23
792.217	16836.9
792.549	16802.55
792.882	16793.74
793.214	16797.35
793.546	16843.91
793.879	16793.51
794.211	16717.58
794.543	16757.58
794.875	16635.33
795.207	16699.05
795.539	16687.08
795.871	16638.26
796.203	16523.24
796.535	16543.8
796.867	16467.65
797.198	16485.27
797.53	16369.57
797.862	16335.45
798.193	16411.15
798.525	16277.82
798.856	16316.92
799.188	16176.81
799.519	16161.21
799.85	16072.4
800.182	16081.22
800.513	16096.13
800.844	15982.69
801.175	16125.96
801.506	16017.94
801.837	15952.18
802.168	15967.09
802.499	15981.56
802.83	15888.45
803.161	15755.8
803.491	15905.63
803.822	15817.49
804.153	15758.06
804.483	15633.54
804.814	15624.28
805.145	15573.21
805.475	15568.91
805.805	15543.6
806.136	15533.21
806.466	15465.64
806.796	15511.06
807.126	15446.43
807.457	15400.56
807.787	15440.1
808.117	15281.69
808.447	15315.36
808.777	15337.05
809.107	15226.55
809.436	15132.99
809.766	15140.22
810.096	15115.59
810.426	15013.67
810.755	15136.83
811.085	15067.68
811.414	15039.21
811.744	14939.32
812.073	15010.96
812.403	14997.18
812.732	14888.25
813.061	14936.39
813.39	14780.46
813.719	14782.72
814.049	14770.74
814.378	14779.33
814.707	14779.33
815.036	14636.96
815.365	14620.01
815.693	14543.18
816.022	14580.01
816.351	14521.71
816.68	14495.72
817.008	14492.56
817.337	14367.81
817.665	14353.13
817.994	14422.95
818.322	14403.29
818.651	14295.05
818.979	14313.35
819.307	14297.76
819.636	14288.49
819.964	14233.35
820.292	14312.9
820.62	14267.93
820.948	14210.98
821.276	14242.62
821.604	14241.72
821.932	14182.96
822.259	14244.2
822.587	14113.36
822.915	14211.43
823.243	14193.58
823.57	14265.67
823.898	14191.32
824.225	14142.74
824.553	14148.61
824.88	14234.03
825.207	14250.98
825.535	14266.57
825.862	14216.86
826.189	14219.12
826.516	14287.82
826.843	14304.54
827.17	14260.02
827.497	14229.06
827.824	14262.05
828.151	14305.44
828.478	14241.72
828.805	14340.47
829.131	14208.04
829.458	14201.04
829.785	14236.07
830.111	14241.49
830.438	14335.5
830.764	14223.41
831.09	14299.57
831.417	14219.12
831.743	14261.38
832.069	14260.7
832.395	14158.55
832.722	14219.34
833.048	14203.98
833.374	14200.59
833.7	14098.67
834.026	14132.57
834.351	14196.52
834.677	14187.25
835.003	14151.1
835.329	14104.32
835.654	14168.27
835.98	14027.03
836.306	14065
836.631	13992.46
836.956	14138.44
837.282	14036.75
837.607	14009.41
837.932	13975.73
838.258	13928.05
838.583	14009.86
838.908	13839.24
839.233	13870.43
839.558	13853.7
839.883	13877.66
840.208	13790.65
840.533	13798.56
840.858	13823.87
841.182	13725.35
841.507	13816.64
841.832	13679.24
842.156	13588.85
842.481	13593.37
842.805	13607.38
843.13	13594.05
843.454	13601.51
843.778	13542.75
844.103	13520.38
844.427	13480.15
844.751	13502.75
845.075	13463.21
845.399	13345.02
845.723	13198.81
846.047	13258.01
846.371	13235.19
846.695	13187.73
847.019	13082.65
847.343	13117.68
847.666	12992.71
847.99	12905.93
848.313	12966.27
848.637	12811.47
848.96	12802.88
849.284	12781.19
849.607	12679.95
849.931	12677.24
850.254	12627.3
850.577	12561.99
850.9	12486.51
851.223	12465.27
851.546	12443.8
851.869	12287.42
852.192	12337.59
852.515	12269.11
852.838	12220.98
853.161	12208.1
853.483	12069.34
853.806	12079.06
854.129	12000.64
854.451	12043.13
854.774	11922.23
855.096	11915.22
855.419	11965.39
855.741	11824.83
856.063	11839.29
856.385	11827.32
856.708	11761.1
857.03	11683.82
857.352	11670.48
857.674	11705.06
857.996	11662.57
858.318	11574.22
858.64	11606.3
858.961	11526.31
859.283	11516.36
859.605	11457.16
859.926	11462.35
860.248	11405.63
860.57	11294.67
860.891	11415.8
861.212	11297.84
861.534	11264.85
861.855	11303.26
862.176	11236.37
862.498	11168.58
862.819	11247.9
863.14	11175.81
863.461	11162.02
863.782	11105.75
864.103	11123.38
864.424	11082.7
864.745	11139.2
865.065	11031.18
865.386	10995.47
865.707	10978.98
866.027	10988.92
866.348	10986.89
866.668	10963.38
866.989	10969.03
867.309	10840.45
867.63	10940.56
867.95	10855.82
868.27	10804.52
868.59	10843.61
868.91	10796.61
869.23	10750.96
869.55	10773.56
869.87	10797.29
870.19	10728.36
870.51	10721.81
870.83	10790.51
871.15	10643.84
871.469	10667.57
871.789	10721.13
872.109	10664.18
872.428	10621.7
872.748	10586.22
873.067	10630.51
873.386	10590.51
873.706	10573.11
874.025	10529.5
874.344	10526.33
874.663	10531.53
874.982	10475.04
875.301	10442.04
875.62	10414.92
875.939	10383.06
876.258	10409.05
876.577	10394.36
876.896	10414.47
877.214	10372.67
877.533	10289.73
877.852	10319.33
878.17	10334.25
878.489	10329.73
878.807	10301.03
879.125	10228.04
879.444	10233.23
879.762	10267.13
880.08	10242.73
880.398	10238.43
880.716	10137.64
881.034	10103.07
881.352	10136.74
881.67	10113.69
881.988	10119.34
882.306	10142.84
882.624	10067.14
882.941	9992.79
883.259	9969.51
883.577	10021.71
883.894	9924.99
884.212	9950.3
884.529	9905.11
884.846	9909.17
885.164	9847.03
885.481	9891.1
885.798	9817.88
886.115	9746.24
886.432	9773.58
886.75	9729.97
887.067	9763.19
887.383	9633.93
887.7	9666.02
888.017	9664.44
888.334	9767.48
888.651	9609.75
888.967	9669.86
889.284	9551.67
889.6	9489.07
889.917	9441.62
890.233	9529.52
890.55	9483.87
890.866	9501.73
891.182	9433.25
891.498	9401.84
891.815	9287.04
892.131	9353.26
892.447	9339.47
892.763	9277.1
893.079	9233.71
893.395	9232.36
893.71	9195.97
894.026	9195.52
894.342	9182.19
894.657	9052.7
894.973	8994.4
895.289	9075.75
895.604	9041.85
895.92	8949.43
896.235	8909.43
896.55	8905.59
896.865	8850.45
897.181	8875.76
897.496	8882.76
897.811	8776.77
898.126	8738.36
898.441	8759.37
898.756	8668.76
899.071	8616.78
899.386	8618.13
899.7	8573.84
900.015	8566.38
900.33	8472.6
900.644	8495.88
900.959	8551.02
901.273	8450.91
901.588	8401.19
901.902	8318.48
902.216	8360.74
902.531	8387.18
902.845	8293.85
903.159	8188.32
903.473	8172.27
903.787	8185.15
904.101	8096.34
904.415	8155.1
904.729	8093.85
905.042	8014.31
905.356	8089.79
905.67	8029.22
905.984	7986.29
906.297	7949
906.611	7938.83
906.924	7883.92
907.237	7856.12
907.551	7912.84
907.864	7816.8
908.177	7734.99
908.491	7770.93
908.804	7734.32
909.117	7623.13
909.43	7621.1
909.743	7610.03
910.056	7559.41
910.368	7544.49
910.681	7518.28
910.994	7457.26
911.307	7537.49
911.619	7452.97
911.932	7445.06
912.244	7353.76
912.557	7341.33
912.869	7306.98
913.181	7232.63
913.494	7226.53
913.806	7184.27
914.118	7170.26
914.43	7166.65
914.742	7112.41
915.054	7112.64
915.366	7123.94
915.678	7016.14
915.99	6930.27
916.302	7005.3
916.613	6953.09
916.925	6939.08
917.236	6963.26
917.548	6819.31
917.859	6847.79
918.171	6836.71
918.482	6774.34
918.794	6756.49
919.105	6711.52
919.416	6687.79
919.727	6691.18
920.038	6671.97
920.349	6617.28
920.66	6589.04
920.971	6557.17
921.282	6585.87
921.593	6509.26
921.903	6458.87
922.214	6458.42
922.525	6468.14
922.835	6413.67
923.146	6348.14
923.456	6403.73
923.767	6330.51
924.077	6323.96
924.387	6300
924.697	6266.11
925.008	6197.86
925.318	6239.67
925.628	6184.3
925.938	6134.13
926.248	6093.23
926.558	6119.44
926.867	6123.51
927.177	6026.11
927.487	6017.53
927.796	5995.83
928.106	5983.85
928.416	5949.5
928.725	5941.82
929.034	5880.13
929.344	5901.37
929.653	5873.8
929.962	5792.9
930.271	5796.29
930.581	5784.31
930.89	5763.29
931.199	5763.75
931.508	5726.69
931.817	5707.48
932.125	5650.3
932.434	5673.58
932.743	5593.13
933.051	5613.02
933.36	5564.43
933.669	5559.91
933.977	5492.12
934.286	5518.33
934.594	5482.17
934.902	5442.85
935.21	5446.92
935.519	5462.29
935.827	5432
936.135	5379.12
936.443	5334.83
936.751	5360.82
937.059	5361.05
937.367	5293.48
937.674	5300.93
937.982	5266.81
938.29	5257.09
938.597	5220.03
938.905	5147.49
939.213	5133.25
939.52	5162.41
939.827	5136.87
940.135	5101.17
940.442	5032.01
940.749	5076.76
941.056	5071.11
941.363	5018.68
941.67	4986.59
941.977	4983.88
942.284	4937.78
942.591	4901.62
942.898	4898.01
943.205	4913.37
943.511	4877.89
943.818	4832.02
944.125	4794.28
944.431	4818.69
944.738	4761.29
945.044	4762.19
945.35	4691.01
945.657	4692.36
945.963	4707.28
946.269	4692.14
946.575	4663.66
946.881	4630.9
947.187	4621.63
947.493	4635.87
947.799	4549.32
948.105	4603.55
948.41	4528.98
948.716	4554.51
949.022	4483.1
949.327	4493.5
949.633	4425.7
949.938	4435.65
950.244	4444.91
950.549	4393.61
950.854	4395.65
951.16	4338.93
951.465	4355.42
951.77	4352.94
952.075	4354.97
952.38	4331.02
952.685	4291.24
952.99	4311.13
953.294	4237.46
953.599	4211.47
953.904	4193.39
954.209	4194.07
954.513	4179.16
954.818	4159.5
955.122	4161.98
955.426	4135.31
955.731	4065.71
956.035	4064.36
956.339	4087.63
956.643	4032.49
956.948	4030.01
957.252	4015.77
957.556	4030.91
957.86	3987.07
958.163	3977.13
958.467	3970.8
958.771	3939.61
959.075	3932.16
959.378	3890.8
959.682	3892.84
959.985	3840.41
960.289	3835.21
960.592	3859.62
960.896	3783.46
961.199	3790.47
961.502	3758.6
961.805	3738.26
962.108	3725.16
962.411	3781.43
962.714	3730.13
963.017	3718.15
963.32	3715.44
963.623	3674.54
963.926	3650.58
964.228	3639.96
964.531	3636.57
964.833	3617.36
965.136	3609
965.438	3542.11
965.741	3570.36
966.043	3573.75
966.345	3530.13
966.648	3501.89
966.95	3509.57
967.252	3468.21
967.554	3446.75
967.856	3417.82
968.158	3414.88
968.46	3400.65
968.761	3385.5
969.063	3405.39
969.365	3413.3
969.666	3369.23
969.968	3366.3
970.269	3354.09
970.571	3327.65
970.872	3284.94
971.174	3292.63
971.475	3282.46
971.776	3243.14
972.077	3248.33
972.378	3251.5
972.679	3228.9
972.98	3215.11
973.281	3185.28
973.582	3181.89
973.883	3187.77
974.183	3154.78
974.484	3160.2
974.785	3151.16
975.085	3108.68
975.386	3142.35
975.686	3100.09
975.986	3086.53
976.287	3079.75
976.587	3011.28
976.887	3014.21
977.187	3020.99
977.487	3007.44
977.787	3006.53
978.087	2980.32
978.387	2962.01
978.687	2963.14
978.987	2919.98
979.286	2916.36
979.586	2952.97
979.885	2899.64
980.185	2884.5
980.484	2831.85
980.784	2858.51
981.083	2828.91
981.382	2828
981.682	2849.25
981.981	2831.39
982.28	2834.78
982.579	2799.53
982.878	2750.94
983.177	2760.44
983.475	2734.9
983.774	2739.42
984.073	2739.19
984.372	2683.83
984.67	2722.7
984.969	2670.04
985.267	2653.09
985.566	2627.56
985.864	2679.31
986.162	2642.47
986.461	2597.5
986.759	2637.95
987.057	2591.17
987.355	2592.08
987.653	2561.35
987.951	2547.11
988.249	2562.93
988.547	2559.76
988.844	2523.83
989.142	2546.43
989.44	2545.07
989.737	2501.91
990.035	2481.35
990.332	2495.58
990.63	2477.73
990.927	2437.51
991.224	2434.34
991.521	2425.3
991.819	2409.03
992.116	2416.49
992.413	2405.19
992.71	2362.25
993.006	2361.8
993.303	2361.35
993.6	2380.33
993.897	2396.83
994.193	2346.44
994.49	2327.9
994.787	2298.98
995.083	2275.02
995.379	2276.38
995.676	2251.97
995.972	2302.14
996.268	2269.6
996.565	2262.14
996.861	2209.94
997.157	2218.53
997.453	2201.58
997.749	2206.33
998.044	2214.24
998.34	2180.34
998.636	2144.41
998.932	2152.09
999.227	2133.11
999.523	2146.89
999.818	2122.49
1000.114	2125.2
1000.409	2101.47
1000.704	2061.02
1001	2088.59
1001.295	2073.45
1001.59	2067.8
1001.885	2053.79
1002.18	2042.04
1002.475	2047.91
1002.77	2009.5
1003.065	1999.33
1003.359	1979.21
1003.654	1970.63
1003.949	1967.01
1004.243	1976.95
1004.538	1943.73
1004.832	1953.9
1005.127	1934.02
1005.421	1941.93
1005.715	1907.12
1006.009	1904.41
1006.304	1852.89
1006.598	1874.13
1006.892	1828.48
1007.186	1844.08
1007.48	1866.67
1007.773	1807.47
1008.067	1833.23
1008.361	1819.67
1008.655	1846.56
1008.948	1760.91
1009.242	1807.01
1009.535	1783.29
1009.829	1745.55
1010.122	1728.37
1010.415	1768.37
1010.708	1716.17
1011.001	1704.19
1011.295	1708.94
1011.588	1706.68
1011.881	1736.96
1012.173	1683.4
1012.466	1652.22
1012.759	1670.52
1013.052	1652.44
1013.344	1644.76
1013.637	1669.39
1013.93	1613.35
1014.222	1607.02
1014.514	1598.66
1014.807	1576.06
1015.099	1602.5
1015.391	1586
1015.683	1571.09
1015.976	1543.07
1016.268	1556.63
1016.56	1529.96
1016.851	1508.27
1017.143	1541.71
1017.435	1536.06
1017.727	1497.64
1018.018	1482.5
1018.31	1489.96
1018.602	1458.78
1018.893	1471.88
1019.185	1478.44
1019.476	1466.91
1019.767	1445.22
1020.058	1434.37
1020.35	1416.74
1020.641	1405.44
1020.932	1376.52
1021.223	1414.48
1021.514	1374.48
1021.804	1364.54
1022.095	1360.47
1022.386	1347.14
1022.677	1342.39
1022.967	1343.75
1023.258	1313.92
1023.548	1337.87
1023.839	1301.04
1024.129	1315.05
1024.419	1299.46
1024.709	1258.78
1025	1266.92
1025.29	1279.34
1025.58	1268.95
1025.87	1228.05
1026.16	1242.06
1026.449	1260.81
1026.739	1225.79
1027.029	1219.46
1027.319	1209.06
1027.608	1209.52
1027.898	1198.9
1028.187	1178.1
1028.477	1192.57
1028.766	1180.36
1029.055	1162.51
1029.344	1160.25
1029.634	1163.64
1029.923	1177.88
1030.212	1124.77
1030.501	1147.37
1030.79	1139.91
1031.078	1142.85
1031.367	1115.28
1031.656	1099.91
1031.945	1087.26
1032.233	1106.92
1032.522	1090.42
1032.81	1066.24
1033.099	1072.12
1033.387	1067.15
1033.675	1055.62
1033.963	1079.8
1034.251	1027.6
1034.54	1037.54
1034.828	1025.79
1035.116	1020.59
1035.403	1006.81
1035.691	1038
1035.979	1012.01
1036.267	1012.01
1036.554	996.87
1036.842	988.05
1037.129	1005.23
1037.417	980.37
1037.704	970.43
1037.992	968.84
1038.279	946.47
1038.566	958
1038.853	958
1039.14	958
