Data from hue_32_FLMS001491_00009.txt Node
Date: Tue Feb 07 17:22:50 GMT 2017
User: dcchb
Spectrometer: FLMS00149
Trigger mode: 0
Integration Time (sec): 2.000000E-2
Scans to average: 10
Electric dark correction enabled: true
Nonlinearity correction enabled: false
Boxcar width: 0
XAxis mode: Wavelengths
Number of Pixels in Spectrum: 2048
>>>>>Begin Spectral Data<<<<<
341.393	-30.52
341.776	-30.52
342.16	-30.52
342.543	-51.99
342.927	-76.85
343.31	-63.74
343.693	-59.67
344.077	-70.97
344.46	-71.2
344.843	-56.96
345.226	-33.91
345.61	-18.09
345.993	-26.23
346.376	-22.84
346.759	-2.73
347.142	14.45
347.525	42.02
347.908	69.14
348.291	89.7
348.674	90.83
349.057	120.21
349.44	109.14
349.823	151.62
350.206	167.67
350.588	194.56
350.971	225.29
351.354	231.84
351.737	229.13
352.119	247.21
352.502	282.46
352.884	272.75
353.267	285.63
353.65	290.15
354.032	303.48
354.414	322.24
354.797	297.15
355.179	311.84
355.562	308.68
355.944	330.15
356.326	338.06
356.709	339.64
357.091	339.86
357.473	336.25
357.855	333.08
358.238	327.43
358.62	354.78
359.002	332.63
359.384	349.36
359.766	331.28
360.148	345.06
360.53	336.47
360.912	335.34
361.294	339.19
361.676	314.55
362.057	344.84
362.439	343.03
362.821	330.37
363.203	341.45
363.584	352.29
363.966	314.1
364.348	332.18
364.729	335.8
365.111	312.52
365.493	341.9
365.874	312.75
366.256	349.13
366.637	302.58
367.019	315.01
367.4	316.81
367.781	326.53
368.163	328.56
368.544	318.85
368.925	322.46
369.306	319.53
369.688	319.98
370.069	299.41
370.45	326.3
370.831	292.18
371.212	317.27
371.593	324.27
371.974	345.06
372.355	327.21
372.736	310.71
373.117	315.68
373.498	338.28
373.879	328.79
374.26	334.44
374.641	323.14
375.021	338.51
375.402	335.8
375.783	342.35
376.163	337.15
376.544	329.47
376.925	319.3
377.305	327.21
377.686	322.69
378.066	303.93
378.447	339.41
378.827	318.62
379.208	345.51
379.588	335.12
379.968	326.53
380.349	330.82
380.729	337.15
381.109	344.38
381.489	358.39
381.87	334.67
382.25	359.3
382.63	354.1
383.01	341.45
383.39	308
383.77	341.22
384.15	350.03
384.53	349.81
384.91	333.54
385.29	357.94
385.67	367.43
386.049	336.7
386.429	359.3
386.809	356.59
387.189	354.78
387.568	348.45
387.948	361.78
388.328	355
388.707	359.98
389.087	354.55
389.466	359.98
389.846	378.28
390.225	374.44
390.605	369.24
390.984	382.57
391.363	354.33
391.743	357.26
392.122	379.86
392.501	380.09
392.881	370.82
393.26	366.98
393.639	392.52
394.018	335.8
394.397	372.41
394.776	376.02
395.155	387.32
395.534	387.77
395.913	361.11
396.292	370.37
396.671	378.51
397.05	377.6
397.429	383.25
397.808	374.67
398.186	409.24
398.565	413.08
398.944	389.81
399.323	419.18
399.701	420.54
400.08	399.3
400.458	409.92
400.837	406.75
401.215	418.51
401.594	423.7
401.972	425.51
402.351	416.92
402.729	418.05
403.107	418.28
403.486	404.04
403.864	398.17
404.242	414.44
404.62	425.06
404.999	417.83
405.377	423.7
405.755	452.18
406.133	446.75
406.511	432.52
406.889	436.13
407.267	435
407.645	432.06
408.023	451.73
408.401	457.37
408.779	448.56
409.156	462.57
409.534	448.56
409.912	456.7
410.29	463.93
410.667	446.75
411.045	459.86
411.422	476.36
411.8	470.71
412.178	467.77
412.555	477.04
412.933	463.02
413.31	481.56
413.687	482.01
414.065	480.43
414.442	478.17
414.819	496.02
415.197	492.85
415.574	503.48
415.951	517.03
416.328	498.28
416.705	478.84
417.082	528.11
417.46	514.32
417.837	519.97
418.214	539.63
418.591	508
418.967	512.97
419.344	541.44
419.721	546.64
420.098	531.5
420.475	539.86
420.852	534.44
421.228	528.33
421.605	556.58
421.982	545.51
422.358	568.78
422.735	567.43
423.111	573.98
423.488	555.23
423.864	538.28
424.241	558.84
424.617	564.49
424.994	550.25
425.37	581.44
425.746	582.34
426.123	579.86
426.499	582.34
426.875	620.99
427.251	598.61
427.627	622.79
428.003	599.07
428.379	599.29
428.756	616.24
429.132	619.18
429.507	628.22
429.883	622.79
430.259	637.03
430.635	627.54
431.011	633.64
431.387	653.08
431.763	665.28
432.138	646.97
432.514	669.12
432.89	654.66
433.265	675.9
433.641	683.36
434.016	672.74
434.392	723.81
434.767	691.04
435.143	699.4
435.518	719.29
435.894	694.43
436.269	714.77
436.644	712.51
437.02	730.14
437.395	732.4
437.77	735.79
438.145	747.76
438.52	745.5
438.895	759.97
439.271	762.45
439.646	789.8
440.021	765.39
440.395	774.43
440.77	784.82
441.145	784.37
441.52	809.91
441.895	777.59
442.27	790.93
442.645	781.43
443.019	812.62
443.394	808.1
443.769	790.02
444.143	811.94
444.518	822.11
444.892	808.55
445.267	800.87
445.641	837.48
446.016	843.58
446.39	843.35
446.764	841.09
447.139	858.95
447.513	841.77
447.887	855.1
448.262	858.72
448.636	893.75
449.01	866.86
449.384	891.26
449.758	892.84
450.132	874.54
450.506	888.32
450.88	923.8
451.254	916.8
451.628	924.71
452.002	928.32
452.376	943.01
452.75	927.87
453.123	945.95
453.497	941.66
453.871	942.33
454.244	971.03
454.618	1009.68
454.992	983.91
455.365	1018.26
455.739	1014.42
456.112	1011.03
456.486	1031.6
456.859	1044.93
457.232	1062.1
457.606	1048.55
457.979	1062.1
458.352	1086.51
458.725	1093.06
459.099	1063.69
459.472	1107.53
459.845	1137.81
460.218	1109.56
460.591	1140.75
460.964	1143.01
461.337	1158.37
461.71	1206.28
462.083	1232.04
462.456	1196.56
462.829	1207.86
463.201	1238.37
463.574	1221.87
463.947	1262.1
464.32	1266.85
464.692	1284.7
465.065	1312.27
465.438	1277.24
465.81	1347.52
466.183	1312.04
466.555	1371.25
466.928	1377.35
467.3	1347.07
467.672	1413.96
468.045	1457.12
468.417	1424.81
468.789	1480.85
469.161	1517.46
469.534	1541.19
469.906	1526.27
470.278	1550.23
470.65	1563.56
471.022	1604.24
471.394	1623.9
471.766	1617.12
472.138	1652.82
472.51	1708.87
472.882	1717.91
473.253	1765.82
473.625	1810.11
473.997	1852.59
474.369	1854.63
474.74	1881.07
475.112	1956.54
475.484	1945.02
475.855	2006.49
476.227	2006.49
476.598	2077.22
476.97	2099.37
477.341	2191.79
477.713	2191.34
478.084	2246.03
478.455	2327.83
478.827	2336.87
479.198	2400.15
479.569	2465.01
479.94	2528.05
480.311	2575.06
480.682	2598.79
481.053	2673.36
481.424	2751.55
481.795	2793.13
482.166	2844.2
482.537	2918.55
482.908	2992
483.279	3044.88
483.65	3087.81
484.021	3194.7
484.391	3247.58
484.762	3344.76
485.133	3351.08
485.503	3472.44
485.874	3579.33
486.244	3602.83
486.615	3689.83
486.985	3782.94
487.356	3834.46
487.726	3968.92
488.097	4106.54
488.467	4068.13
488.837	4208.69
489.207	4333.66
489.578	4323.26
489.948	4438.74
490.318	4524.16
490.688	4568.68
491.058	4655.68
491.428	4778.17
491.798	4859.29
492.168	4993.53
492.538	5078.04
492.908	5106.52
493.278	5223.8
493.648	5243.92
494.017	5389.22
494.387	5457.92
494.757	5524.81
495.126	5572.49
495.496	5652.94
495.866	5747.86
496.235	5793.28
496.605	5918.47
496.974	5976.55
497.344	6071.46
497.713	6109.88
498.082	6222.65
498.452	6310.1
498.821	6321.63
499.19	6328.86
499.559	6527.27
499.928	6552.58
500.298	6621.96
500.667	6687.04
501.036	6770.88
501.405	6786.02
501.774	6886.13
502.143	6970.88
502.512	7024.89
502.88	7050.42
503.249	7135.39
503.618	7187.37
503.987	7207.25
504.356	7286.8
504.724	7298.55
505.093	7390.53
505.462	7466.68
505.83	7521.37
506.199	7558.43
506.567	7705.09
506.936	7698.99
507.304	7870.51
507.672	7841.36
508.041	7908.93
508.409	7946.67
508.777	8080.9
509.145	8152.99
509.514	8160.68
509.882	8221.01
510.25	8219.2
510.618	8338.52
510.986	8322.7
511.354	8438.18
511.722	8478.63
512.09	8599.99
512.458	8583.26
512.826	8627.56
513.193	8757.04
513.561	8689.02
513.929	8828.68
514.297	8881.33
514.664	8943.25
515.032	8965.17
515.4	9063.02
515.767	9088.79
516.135	9084.27
516.502	9090.14
516.869	9275.22
517.237	9262.57
517.604	9294.88
517.972	9363.36
518.339	9407.42
518.706	9368.55
519.073	9503.46
519.44	9531.26
519.808	9601.99
520.175	9620.3
520.542	9733.97
520.909	9773.51
521.276	9801.54
521.643	9810.35
522.009	9951.36
522.376	10013.28
522.743	10131.47
523.11	10110
523.477	10189.1
523.843	10265.03
524.21	10376.44
524.577	10412.82
524.943	10493.95
525.31	10493.95
525.676	10640.16
526.043	10678.12
526.409	10701.85
526.776	10796.09
527.142	10846.71
527.508	10826.82
527.874	11000.6
528.241	11009.19
528.607	11042.18
528.973	11227.49
529.339	11176.64
529.705	11287.82
530.071	11374.38
530.437	11413.25
530.803	11531.66
531.169	11483.53
531.535	11596.97
531.901	11548.38
532.267	11680.36
532.632	11711.77
532.998	11725.1
533.364	11850.07
533.73	11918.32
534.095	11980.91
534.461	11909.73
534.826	11988.82
535.192	12163.28
535.557	12183.39
535.923	12169.84
536.288	12227.69
536.653	12238.08
537.019	12348.14
537.384	12329.38
537.749	12420.68
538.114	12452.54
538.479	12585.64
538.845	12611.86
539.21	12593.33
539.575	12679.65
539.94	12686.66
540.305	12798.07
540.67	12785.19
541.034	12846.2
541.399	12893.43
541.764	12939.76
542.129	13001.23
542.494	13060.43
542.858	13026.54
543.223	13212.97
543.587	13239.19
543.952	13178.62
544.316	13350.82
544.681	13296.36
545.045	13411.84
545.41	13461.78
545.774	13512.4
546.138	13573.41
546.503	13579.29
546.867	13632.17
547.231	13776.12
547.595	13766.86
547.959	13813.18
548.324	13808.89
548.688	13878.72
549.052	13918.26
549.416	14028.09
549.779	14042.1
550.143	14096.79
550.507	14127.75
550.871	14167.3
551.235	14187.41
551.599	14287.75
551.962	14255.66
552.326	14301.53
552.689	14383.11
553.053	14466.95
553.417	14435.99
553.78	14678.92
554.143	14563.9
554.507	14669.88
554.87	14725.93
555.234	14795.3
555.597	14762.08
555.96	14831.01
556.323	14855.87
556.686	14961.17
557.05	15098.12
557.413	15068.52
557.776	14953.04
558.139	15196.87
558.502	15170.43
558.865	15289.08
559.228	15339.02
559.59	15455.85
559.953	15436.64
560.316	15591.21
560.679	15496.53
561.041	15587.6
561.404	15616.52
561.767	15731.32
562.129	15723.19
562.492	15850.19
562.854	15925.44
563.217	15897.42
563.579	16054.7
563.941	15916.63
564.304	16122.5
564.666	16122.27
565.028	16225.55
565.39	16159.79
565.753	16344.87
566.115	16270.97
566.477	16435.94
566.839	16449.5
567.201	16534.47
567.563	16610.4
567.925	16650.62
568.287	16680.23
568.648	16753.9
569.01	16852.42
569.372	17011.06
569.734	16961.12
570.095	17027.33
570.457	17115.47
570.819	17173.55
571.18	17312.3
571.542	17322.24
571.903	17353.43
572.265	17488.79
572.626	17574.44
572.987	17638.62
573.349	17637.71
573.71	17717.71
574.071	17856.92
574.432	18027.53
574.794	18073.86
575.155	18109.34
575.516	18132.84
575.877	18385.49
576.238	18379.84
576.599	18443.12
576.96	18621.19
577.32	18653.96
577.681	18939.37
578.042	18912.48
578.403	19144.34
578.763	19253.72
579.124	19331.23
579.485	19624.55
579.845	19758.56
580.206	19793.59
580.566	19952
580.927	20133.24
581.287	20330.52
581.648	20472.22
582.008	20578.88
582.368	20739.1
582.728	20954.46
583.089	21130.5
583.449	21184.97
583.809	21533.66
584.169	21685.97
584.529	21878.05
584.889	22203.92
585.249	22244.15
585.609	22374.54
585.969	22830.35
586.329	22947.18
586.688	23328.86
587.048	23394.85
587.408	23618.12
587.768	23876.42
588.127	24081.61
588.487	24303.3
588.846	24706.23
589.206	24772.22
589.565	24928.14
589.925	25283.39
590.284	25504.85
590.643	25804.05
591.003	26160.88
591.362	26424.38
591.721	26686.06
592.08	26975.1
592.44	27204.92
592.799	27510.67
593.158	27709.99
593.517	28002.19
593.876	28141.17
594.235	28390.43
594.593	28725.78
594.952	29010.75
595.311	29080.58
595.67	29473.79
596.029	29859.77
596.387	30128.01
596.746	30397.38
597.104	30593.08
597.463	30765.96
597.822	31058.6
598.18	31143.12
598.538	31479.84
598.897	31988.52
599.255	31796.89
599.613	32521.39
599.972	32563.88
600.33	32875.05
600.688	32889.74
601.046	33204.54
601.404	33666.45
601.762	33638.88
602.12	33965.87
602.478	34268.46
602.836	34371.51
603.194	34419.87
603.552	34733.99
603.91	34779.41
604.268	35093.98
604.625	35309.57
604.983	35612.83
605.341	35638.14
605.698	35965.14
606.056	36249.43
606.413	36342.31
606.771	36582.3
607.128	36781.17
607.485	36753.6
607.843	37145.68
608.2	37394.03
608.557	37560.58
608.914	37420.7
609.272	37829.5
609.629	38088.25
609.986	38231.97
610.343	38341.58
610.7	38684.17
611.057	38671.74
611.414	38874.44
611.771	38909.92
612.127	39224.04
612.484	39318.05
612.841	39424.49
613.198	39615.22
613.554	39703.12
613.911	40019.05
614.267	40103.79
614.624	40172.26
614.98	40328.19
615.337	40432.37
615.693	40625.13
616.05	40686.37
616.406	40848.4
616.762	40924.33
617.118	40918.46
617.475	41153.48
617.831	41205.68
618.187	41448.39
618.543	41489.74
618.899	41725.44
619.255	41729.51
619.611	41805.67
619.967	41939.67
620.323	42245.88
620.678	41986
621.034	42035.26
621.39	42105.55
621.746	42228.71
622.101	42780.78
622.457	42584.63
622.812	42587.34
623.168	42717.51
623.523	42718.41
623.879	43044.5
624.234	42830.27
624.589	42915.02
624.945	43004.73
625.3	43058.74
625.655	43155.69
626.01	43134.9
626.365	43305.51
626.72	43332.63
627.075	43209.7
627.43	43170.83
627.785	43198.85
628.14	43372.18
628.495	43373.76
628.85	43498.28
629.205	43352.74
629.559	43630.93
629.914	43418.28
630.269	43563.59
630.623	43320.2
630.978	43528.78
631.332	43616.47
631.687	43822.79
632.041	43615.34
632.396	43771.94
632.75	43455.57
633.104	43632.96
633.459	43479.29
633.813	43526.53
634.167	43580.76
634.521	43354.1
634.875	43573.76
635.229	43560.87
635.583	43382.8
635.937	43510.48
636.291	43470.93
636.645	43566.98
636.999	43304.16
637.352	43522.46
637.706	43278.4
638.06	43529.91
638.413	43300.32
638.767	43336.93
639.121	43455.11
639.474	43232.75
639.828	43216.7
640.181	43307.77
640.534	43252.86
640.888	43276.59
641.241	43136.25
641.594	43185.74
641.947	43307.55
642.301	43169.47
642.654	43326.08
643.007	43207.44
643.36	43140.77
643.713	43097.61
644.066	43282.46
644.419	43098.74
644.771	42718.64
645.124	42444.07
645.477	42239.1
645.83	42137.41
646.182	42008.6
646.535	41799.34
646.888	41967.92
647.24	41815.16
647.593	42016.51
647.945	42010.63
648.298	41798.89
648.65	41676.86
649.002	41622.62
649.355	41775.38
649.707	41821.94
650.059	41948.94
650.411	42278.87
650.763	42423.05
651.115	42796.83
651.467	42611.97
651.819	42734.23
652.171	42529.04
652.523	42571.75
652.875	42382.15
653.227	42315.71
653.578	42581.01
653.93	42560.9
654.282	42421.47
654.633	42463.05
654.985	42477.51
655.337	42362.04
655.688	42464.63
656.039	42377.63
656.391	42223.73
656.742	42269.83
657.094	42198.65
657.445	42381.7
657.796	42178.76
658.147	42204.53
658.498	42147.58
658.849	42293.11
659.2	42171.98
659.551	42140.12
659.902	42340.34
660.253	42170.63
660.604	42311.64
660.955	42184.19
661.306	42276.16
661.656	42099.44
662.007	42158.88
662.358	42182.38
662.708	42125.21
663.059	42183.06
663.409	41998.2
663.76	42199.55
664.11	42168.37
664.461	42200.46
664.811	42118.2
665.161	42144.19
665.511	42103.06
665.862	42050.86
666.212	42176.05
666.562	42190.06
666.912	42041.37
667.262	41892.9
667.612	42020.8
667.962	42036.85
668.312	42026.23
668.662	42246.78
669.011	41944.87
669.361	41952.56
669.711	42118.2
670.06	41797.08
670.41	41817.64
670.76	41811.99
671.109	41959.33
671.459	41905.1
671.808	41802.5
672.157	41887.02
672.507	41541.04
672.856	41688.16
673.205	41793.01
673.554	41837.08
673.904	41737.42
674.253	41888.38
674.602	41738.1
674.951	41224.44
675.3	40968.17
675.649	41740.81
675.998	41545.11
676.346	41677.53
676.695	41696.29
677.044	41523.41
677.393	41609.06
677.741	41524.77
678.09	41643.86
678.438	41424.21
678.787	41418.11
679.135	41539.46
679.484	41145.12
679.832	41458.33
680.181	41122.29
680.529	41259.47
680.877	41070.54
681.225	41088.62
681.573	41407.26
681.922	41123.42
682.27	40879.81
682.618	40948.97
682.966	40710.78
683.314	40947.16
683.661	40795.07
684.009	40742.19
684.357	40565.92
684.705	40576.09
685.053	40581.74
685.4	40525.25
685.748	40327.74
686.095	40287.29
686.443	40377.23
686.79	40119.61
687.138	40431.24
687.485	40119.61
687.832	40098.82
688.18	40183.79
688.527	39945.6
688.874	39864.02
689.221	39876
689.568	39661.77
689.915	39690.24
690.262	39596.68
690.609	39556.46
690.956	39346.75
691.303	39332.96
691.65	39105.62
691.997	39166.19
692.344	38962.8
692.69	38950.37
693.037	38986.53
693.383	38698.86
693.73	38749.93
694.077	38557.39
694.423	38523.94
694.769	38336.83
695.116	38206.89
695.462	38371.86
695.808	38114.01
696.155	38205.08
696.501	37886.22
696.847	37929.38
697.193	37612.56
697.539	37815.71
697.885	37566.91
698.231	37530.75
698.577	37523.52
698.923	37385.9
699.269	37374.6
699.614	37046.92
699.96	37090.54
700.306	37040.59
700.651	36816.87
700.997	36789.98
701.342	36685.35
701.688	36462.08
702.033	36490.33
702.379	36550.89
702.724	36418.24
703.069	36533.49
703.415	36088.98
703.76	36079.49
704.105	36215.76
704.45	35914.3
704.795	35768.08
705.14	35783
705.485	35738.26
705.83	35612.16
706.175	35559.5
706.52	35522.89
706.865	35344.37
707.209	35424.82
707.554	35109.35
707.899	35261.88
708.243	35116.35
708.588	35028.67
708.932	34907.09
709.277	34762.01
709.621	34864.61
709.966	34700.32
710.31	34796.36
710.654	34487.89
710.998	34511.17
711.342	34617.61
711.687	34329.03
712.031	34230.27
712.375	34243.61
712.719	34236.6
713.063	34186.88
713.407	34274.79
713.75	34111.86
714.094	33922.03
714.438	33823.5
714.782	33957.06
715.125	33873.45
715.469	33714.13
715.812	33535.6
716.156	33509.39
716.499	33382.16
716.843	33414.7
717.186	33206.8
717.53	33461.93
717.873	33349.17
718.216	33241.37
718.559	33075.05
718.902	32802.97
719.246	32952.11
719.589	32808.84
719.932	32649.3
720.275	32776.75
720.617	32804.1
720.96	32627.38
721.303	32555.51
721.646	32556.42
721.989	32359.59
722.331	32552.12
722.674	32529.07
723.016	32394.16
723.359	32376.31
723.701	32322.53
724.044	32164.34
724.386	32167.05
724.729	32137.22
725.071	32075.75
725.413	32032.14
725.755	31976.77
726.097	31858.13
726.439	31814.52
726.782	31896.1
727.124	31906.94
727.465	31705.82
727.807	31652.49
728.149	31560.06
728.491	31557.8
728.833	31516.22
729.175	31464.47
729.516	31319.16
729.858	31399.61
730.199	31393.28
730.541	31333.17
730.882	31344.7
731.224	31399.39
731.565	31186.28
731.906	31096.12
732.248	31197.81
732.589	30993.52
732.93	30820.19
733.271	31045.5
733.612	30982
733.953	31015.89
734.294	30831.49
734.635	30835.33
734.976	30816.12
735.317	30716.92
735.658	30592.85
735.999	30621.78
736.339	30525.06
736.68	30595.57
737.021	30497.72
737.361	30276.25
737.702	30353.31
738.042	30318.28
738.383	30302.69
738.723	30314.44
739.063	30396.02
739.404	30350.83
739.744	30168.68
740.084	30050.04
740.424	30138.63
740.764	30067.44
741.104	30134.11
741.444	29994.68
741.784	29808.69
742.124	29864.29
742.464	29982.02
742.804	29777.06
743.143	29698.87
743.483	29745.19
743.823	29636.49
744.162	29494.35
744.502	29598.08
744.841	29391.53
745.181	29657.51
745.52	29437.86
745.86	29425.43
746.199	29526.89
746.538	29495.26
746.877	29454.35
747.216	29430.85
747.556	29441.25
747.895	29272.66
748.234	29177.07
748.573	29230.86
748.911	29136.17
749.25	29124.42
749.589	28845.33
749.928	29099.79
750.267	29002.61
750.605	28927.59
750.944	28830.41
751.283	28748.16
751.621	28793.13
751.96	28580.7
752.298	28653.7
752.636	28564.66
752.975	28497.99
753.313	28488.73
753.651	28489.63
753.989	28246.47
754.327	28274.04
754.666	28187.95
755.004	28210.54
755.342	28180.49
755.679	28098.91
756.017	27930.78
756.355	28079.7
756.693	27842.19
757.031	27972.13
757.368	27760.84
757.706	27790.22
758.044	27639.49
758.381	27656.21
758.719	27611.92
759.056	27601.75
759.394	27480.62
759.731	27238.14
760.068	27230.23
760.405	27228.2
760.743	27107.52
761.08	27160.85
761.417	26969.45
761.754	26894.65
762.091	26934.19
762.428	26828.43
762.765	26618.04
763.102	26801.54
763.438	26517.25
763.775	26459.4
764.112	26561.1
764.449	26465.5
764.785	26340.31
765.122	26196.81
765.458	26063.93
765.795	26031.17
766.131	26028.91
766.467	25920.43
766.804	25774
767.14	25709.14
767.476	25743.04
767.812	25616.26
768.148	25553.66
768.485	25356.38
768.821	25282.71
769.157	25245.88
769.492	25158.87
769.828	25251.75
770.164	24920.46
770.5	24935.6
770.836	24867.35
771.171	24729.28
771.507	24682.27
771.842	24530.19
772.178	24633.69
772.513	24394.37
772.849	24388.72
773.184	24330.19
773.519	24232.8
773.855	24144.21
774.19	24041.39
774.525	24048.39
774.86	23914.16
775.195	23859.7
775.53	23704.67
775.865	23572.47
776.2	23411.35
776.535	23345.81
776.87	23431.23
777.205	23208.64
777.539	23125.71
777.874	23066.95
778.209	22880.51
778.543	22916.45
778.878	22796.45
779.212	22791.7
779.547	22678.94
779.881	22705.83
780.215	22593.29
780.55	22540.64
780.884	22382
781.218	22295.44
781.552	22278.72
781.886	22188.33
782.22	22121.89
782.554	22023.81
782.888	21812.97
783.222	21698.85
783.556	21661.34
783.889	21616.14
784.223	21423.38
784.557	21409.82
784.89	21589.47
785.224	21388.8
785.557	21215.25
785.891	21267.68
786.224	21090.73
786.558	21101.58
786.891	20898.19
787.224	20895.93
787.557	20796.73
787.891	20737.52
788.224	20763.96
788.557	20633.57
788.89	20559.67
789.223	20516.28
789.556	20350.19
789.888	20326.68
790.221	20346.8
790.554	20061.38
790.887	20144.54
791.219	20073.81
791.552	19993.81
791.884	19925.56
792.217	19913.59
792.549	19780.48
792.882	19665.23
793.214	19482.41
793.546	19624.55
793.879	19458.68
794.211	19277.45
794.543	19294.85
794.875	19347.95
795.207	19266.6
795.539	19251.91
795.871	19199.48
796.203	19055.08
796.535	18945.93
796.867	19006.04
797.198	18775.76
797.53	18830.68
797.862	18697.35
798.193	18715.88
798.525	18587.52
798.856	18674.07
799.188	18441.31
799.519	18435.89
799.85	18346.62
800.182	18277.92
800.513	18219.17
800.844	18055.1
801.175	18142.79
801.506	18149.79
801.837	18028.66
802.168	18054.65
802.499	17920.42
802.83	17845.84
803.161	17839.74
803.491	17840.42
803.822	17797.94
804.153	17681.78
804.483	17611.73
804.814	17510.03
805.145	17414.22
805.475	17566.3
805.805	17324.73
806.136	17387.33
806.466	17407.66
806.796	17340.32
807.126	17146.43
807.457	17173.55
807.787	17128.8
808.117	17095.13
808.447	16905.76
808.777	16976.94
809.107	16899.2
809.436	16760.22
809.766	16841.8
810.096	16727.91
810.426	16672.77
810.755	16761.13
811.085	16699.66
811.414	16623.96
811.744	16525.65
812.073	16496.73
812.403	16489.95
812.732	16398.88
813.061	16428.48
813.39	16341.03
813.719	16288.37
814.049	16325.66
814.378	16265.32
814.707	16128.83
815.036	16162.72
815.365	16009.73
815.693	15891.77
816.022	16071.88
816.351	15873.69
816.68	15820.13
817.008	15901.94
817.337	15774.94
817.665	15699.23
817.994	15703.3
818.322	15746.24
818.651	15553.93
818.979	15586.47
819.307	15592.34
819.636	15618.33
819.964	15450.65
820.292	15568.39
820.62	15488.62
820.948	15416.76
821.276	15429.86
821.604	15499.92
821.932	15534.04
822.259	15533.81
822.587	15433.48
822.915	15381.95
823.243	15438.22
823.57	15371.79
823.898	15370.2
824.225	15269.64
824.553	15288.85
824.88	15383.31
825.207	15445.68
825.535	15393.71
825.862	15395.97
826.189	15348.06
826.516	15389.64
826.843	15415.4
827.17	15341.28
827.497	15389.41
827.824	15295.85
828.151	15328.4
828.478	15403.2
828.805	15346.93
829.131	15363.88
829.458	15375.4
829.785	15385.8
830.111	15296.98
830.438	15375.17
830.764	15295.63
831.09	15331.11
831.417	15228.06
831.743	15297.44
832.069	15224.9
832.395	15212.47
832.722	15243.43
833.048	15178.34
833.374	15212.24
833.7	15172.92
834.026	15167.95
834.351	15120.49
834.677	15162.3
835.003	15181.73
835.329	15106.71
835.654	15202.07
835.98	15088.85
836.306	15084.11
836.631	15029.42
836.956	15095.63
837.282	15078.46
837.607	14968.41
837.932	14976.54
838.258	14891.57
838.583	14877.11
838.908	14817.22
839.233	14841.63
839.558	14756.43
839.883	14796.21
840.208	14687.96
840.533	14708.53
840.858	14708.3
841.182	14659.49
841.507	14731.35
841.832	14544.46
842.156	14556.21
842.481	14572.94
842.805	14519.38
843.13	14454.97
843.454	14490.9
843.778	14400.96
844.103	14341.3
844.427	14350.57
844.751	14340.4
845.075	14269.67
845.399	14235.77
845.723	14156.45
846.047	14126.85
846.371	14042.33
846.695	14000.07
847.019	13946.96
847.343	13920.07
847.666	13883.01
847.99	13771.6
848.313	13782.22
848.637	13633.3
848.96	13655.45
849.284	13556.47
849.607	13526.18
849.931	13492.29
850.254	13443.7
850.577	13369.35
850.9	13353.76
851.223	13233.31
851.546	13178.17
851.869	13026.99
852.192	13245.51
852.515	13023.82
852.838	12948.8
853.161	12981.79
853.483	12856.6
853.806	12879.65
854.129	12832.19
854.451	12802.14
854.774	12716.94
855.096	12677.62
855.419	12667.68
855.741	12575.7
856.063	12542.48
856.385	12542.25
856.708	12467
857.03	12471.97
857.352	12473.56
857.674	12410.51
857.996	12303.62
858.318	12276.05
858.64	12245.99
858.961	12271.3
859.283	12211.64
859.605	12124.19
859.926	12122.6
860.248	12128.25
860.57	12127.12
860.891	12123.51
861.212	11971.2
861.534	12016.17
861.855	11883.06
862.176	11864.08
862.498	11868.83
862.819	11868.83
863.14	11843.29
863.461	11821.82
863.782	11749.96
864.103	11794.93
864.424	11754.25
864.745	11757.87
865.065	11724.2
865.386	11671.09
865.707	11606.46
866.027	11669.06
866.348	11589.51
866.668	11576.86
866.989	11583.41
867.309	11558.33
867.63	11519.46
867.95	11587.03
868.27	11423.19
868.59	11406.47
868.91	11403.08
869.23	11465.45
869.55	11346.58
869.87	11359.46
870.19	11405.34
870.51	11325.34
870.83	11418.89
871.15	11256.64
871.469	11278.56
871.789	11357.65
872.109	11322.85
872.428	11199.69
872.748	11220.93
873.067	11201.95
873.386	11176.87
873.706	11194.04
874.025	11107.72
874.344	11129.64
874.663	11112.91
874.982	11118.79
875.301	11058.68
875.62	11097.1
875.939	11027.49
876.258	11027.27
876.577	10933.71
876.896	11003.31
877.214	10980.04
877.533	10953.37
877.852	10923.31
878.17	10956.08
878.489	10885.35
878.807	10906.14
879.125	10850.1
879.444	10774.17
879.762	10895.74
880.08	10837.44
880.398	10802.64
880.716	10778.69
881.034	10747.05
881.352	10765.13
881.67	10686.48
881.988	10700.95
882.306	10648.75
882.624	10638.35
882.941	10577.33
883.259	10572.14
883.577	10513.83
883.894	10591.12
884.212	10510.22
884.529	10474.96
884.846	10480.61
885.164	10465.7
885.481	10335.31
885.798	10399.26
886.115	10354.29
886.432	10345.02
886.75	10279.49
887.067	10269.09
887.383	10217.12
887.7	10241.98
888.017	10232.03
888.334	10290.34
888.651	10122.66
888.967	10178.7
889.284	10135.54
889.6	10099.83
889.917	10004.02
890.233	10012.6
890.55	9957.01
890.866	9971.48
891.182	9944.13
891.498	9924.7
891.815	9869.78
892.131	9818.26
892.447	9816.22
892.763	9751.59
893.079	9743.68
893.395	9671.37
893.71	9740.75
894.026	9721.54
894.342	9666.62
894.657	9578.49
894.973	9540.53
895.289	9583.91
895.604	9494.88
895.92	9452.39
896.235	9438.16
896.55	9414.65
896.865	9415.56
897.181	9371.49
897.496	9352.51
897.811	9278.39
898.126	9278.61
898.441	9217.6
898.756	9197.03
899.071	9162
899.386	9131.5
899.7	9107.32
900.015	9079.97
900.33	8961.33
900.644	8981.44
900.959	8967.89
901.273	8971.28
901.588	8921.79
901.902	8826.19
902.216	8812.41
902.531	8815.57
902.845	8793.43
903.159	8724.5
903.473	8779.19
903.787	8649.93
904.101	8654.45
904.415	8611.96
904.729	8634.11
905.042	8551.85
905.356	8506.2
905.67	8493.77
905.984	8495.13
906.297	8459.2
906.611	8361.12
906.924	8384.17
907.237	8351.18
907.551	8311.86
907.864	8246.1
908.177	8268.24
908.491	8199.09
908.804	8196.61
909.117	8164.52
909.43	8101.47
909.743	8101.69
910.056	8078.19
910.368	7982.83
910.681	8024.86
910.994	7925.65
911.307	7916.61
911.619	7912.55
911.932	7879.1
912.244	7800.01
912.557	7900.12
912.869	7741.48
913.181	7743.51
913.494	7728.37
913.806	7728.37
914.118	7615.15
914.43	7609.73
914.742	7617.19
915.054	7556.62
915.366	7480.24
915.678	7433.24
915.99	7431.43
916.302	7391.88
916.613	7337.65
916.925	7411.32
917.236	7293.58
917.548	7271.66
917.859	7298.1
918.171	7205.9
918.482	7202.73
918.794	7201.15
919.105	7173.13
919.416	7059.91
919.727	7077.54
920.038	7107.6
920.349	6997.32
920.66	6965.23
920.971	6993.7
921.282	6932.91
921.593	6850.88
921.903	6857.88
922.214	6801.84
922.525	6818.79
922.835	6764.55
923.146	6733.59
923.456	6724.55
923.767	6638.68
924.077	6607.04
924.387	6618.12
924.697	6586.71
925.008	6606.82
925.318	6547.84
925.628	6536.99
925.938	6518.01
926.248	6413.38
926.558	6398.69
926.867	6390.33
927.177	6441.17
927.487	6334.06
927.796	6300.84
928.106	6297.45
928.416	6259.26
928.725	6269.43
929.034	6196.43
929.344	6226.26
929.653	6195.76
929.962	6085.25
930.271	6101.29
930.581	6046.15
930.89	6064.01
931.199	6010.45
931.508	5973.16
931.817	5992.37
932.125	5967.51
932.434	5937
932.743	5855.88
933.051	5864.92
933.36	5865.14
933.669	5825.14
933.977	5793.51
934.286	5807.74
934.594	5783.79
934.902	5720.97
935.21	5724.81
935.519	5699.95
935.827	5656.56
936.135	5674.86
936.443	5575.88
936.751	5611.59
937.059	5613.17
937.367	5555.55
937.674	5555.55
937.982	5527.07
938.29	5458.6
938.597	5450.46
938.905	5413.63
939.213	5373.4
939.52	5288.43
939.827	5383.35
940.135	5325.5
940.442	5318.72
940.749	5306.51
941.056	5268.1
941.363	5249.34
941.67	5154.88
941.977	5212.73
942.284	5159.85
942.591	5112.85
942.898	5104.71
943.205	5146.29
943.511	5073.52
943.818	5074.88
944.125	5015.9
944.431	5021.77
944.738	5010.25
945.044	4954.66
945.35	4926.64
945.657	4919.18
945.963	4876.92
946.269	4908.56
946.575	4878.5
946.881	4848.67
947.187	4806.64
947.493	4801.67
947.799	4827.88
948.105	4767.09
948.41	4748.56
948.716	4750.82
949.022	4710.82
949.327	4692.29
949.633	4663.82
949.938	4600.54
950.244	4626.3
950.549	4600.09
950.854	4543.37
951.16	4553.31
951.465	4556.25
951.77	4522.13
952.075	4499.08
952.38	4474.22
952.685	4443.26
952.99	4454.11
953.294	4404.39
953.599	4419.98
953.904	4342.24
954.209	4336.14
954.513	4370.94
954.818	4348.12
955.122	4328.23
955.426	4291.17
955.731	4239.2
956.035	4217.5
956.339	4274.45
956.643	4206.43
956.948	4183.83
957.252	4156.26
957.556	4189.93
957.86	4128.46
958.163	4156.71
958.467	4124.17
958.771	4115.13
959.075	4052.53
959.378	4055.7
959.682	4059.31
959.985	4037.17
960.289	3977.96
960.592	4004.63
960.896	3967.79
961.199	3936.83
961.502	3947.45
961.805	3888.02
962.108	3938.64
962.411	3875.14
962.714	3871.97
963.017	3855.7
963.32	3883.05
963.623	3817.96
963.926	3812.99
964.228	3758.76
964.531	3755.14
964.833	3751.3
965.136	3740.23
965.438	3716.27
965.741	3679.66
966.043	3704.97
966.345	3673.34
966.648	3647.8
966.95	3658.19
967.252	3598.99
967.554	3618.65
967.856	3598.08
968.158	3538.65
968.46	3537.75
968.761	3552.43
969.063	3510.85
969.365	3499.78
969.666	3493.45
969.968	3487.13
970.269	3441.93
970.571	3443.74
970.872	3442.61
971.174	3404.64
971.475	3383.17
971.776	3390.63
972.077	3373
972.378	3364.19
972.679	3344.53
972.98	3313.35
973.281	3287.81
973.582	3300.01
973.883	3307.7
974.183	3273.8
974.484	3256.4
974.785	3237.19
975.085	3181.82
975.386	3241.93
975.686	3256.62
975.986	3175.5
976.287	3182.95
976.587	3150.41
976.887	3136.63
977.187	3162.84
977.487	3122.84
977.787	3104.31
978.087	3069.28
978.387	3066.57
978.687	3059.34
978.987	3104.99
979.286	3069.74
979.586	3023.18
979.885	3019.57
980.185	2994.48
980.484	2962.85
980.784	2972.11
981.083	2950.19
981.382	2934.15
981.682	2917.65
981.981	2920.59
982.28	2922.39
982.579	2877.65
982.878	2883.75
983.177	2864.09
983.475	2879.46
983.774	2809.63
984.073	2822.06
984.372	2817.76
984.67	2783.64
984.969	2801.04
985.267	2771.21
985.566	2811.21
985.864	2770.53
986.162	2770.53
986.461	2736.64
986.759	2734.15
987.057	2683.08
987.355	2706.36
987.653	2709.97
987.951	2650.99
988.249	2652.35
988.547	2641.05
988.844	2651.22
989.142	2623.42
989.44	2596.75
989.737	2550.88
990.035	2582.97
990.332	2541.84
990.63	2538.22
990.927	2540.71
991.224	2542.97
991.521	2519.02
991.819	2497.1
992.116	2517.89
992.413	2494.61
992.71	2480.15
993.006	2466.81
993.303	2436.76
993.6	2455.29
993.897	2433.82
994.193	2426.81
994.49	2415.74
994.787	2362.64
995.083	2406.93
995.379	2394.27
995.676	2342.07
995.972	2354.27
996.268	2332.58
996.565	2347.27
996.861	2308.85
997.157	2294.16
997.453	2307.95
997.749	2282.64
998.044	2269.53
998.34	2256.42
998.636	2232.92
998.932	2234.5
999.227	2218.91
999.523	2216.88
999.818	2180.72
1000.114	2179.82
1000.409	2186.6
1000.704	2168.97
1001	2169.19
1001.295	2138.46
1001.59	2098.01
1001.885	2091
1002.18	2094.17
1002.475	2092.36
1002.77	2074.73
1003.065	2055.3
1003.359	2057.56
1003.654	2050.55
1003.949	2069.08
1004.243	2013.49
1004.538	2011.01
1004.832	2015.75
1005.127	1968.75
1005.421	1978.01
1005.715	1970.56
1006.009	1978.01
1006.304	1962.87
1006.598	1916.09
1006.892	1963.32
1007.186	1892.82
1007.48	1941.4
1007.773	1932.36
1008.067	1898.24
1008.361	1879.71
1008.655	1883.78
1008.948	1865.93
1009.242	1841.29
1009.535	1852.59
1009.829	1808.75
1010.122	1822.99
1010.415	1812.59
1010.708	1790.9
1011.001	1784.12
1011.295	1800.62
1011.588	1759.04
1011.881	1733.73
1012.173	1732.82
1012.466	1768.75
1012.759	1732.6
1013.052	1720.84
1013.344	1703.67
1013.637	1686.27
1013.93	1686.27
1014.222	1685.14
1014.514	1662.32
1014.807	1676.55
1015.099	1616.89
1015.391	1638.59
1015.683	1630.23
1015.976	1634.75
1016.268	1625.03
1016.56	1586.61
1016.851	1567.63
1017.143	1562.2
1017.435	1543.45
1017.727	1556.78
1018.018	1540.51
1018.31	1551.36
1018.602	1533.5
1018.893	1520.17
1019.185	1508.87
1019.476	1514.75
1019.767	1483.79
1020.058	1494.41
1020.35	1454.18
1020.641	1450.34
1020.932	1464.81
1021.223	1447.41
1021.514	1423.68
1021.804	1399.95
1022.095	1410.8
1022.386	1404.92
1022.677	1401.08
1022.967	1387.75
1023.258	1362.89
1023.548	1363.11
1023.839	1346.17
1024.129	1358.59
1024.419	1347.3
1024.709	1370.57
1025	1329.44
1025.29	1344.58
1025.58	1299.84
1025.87	1294.19
1026.16	1295.09
1026.449	1318.82
1026.739	1256
1027.029	1269.56
1027.319	1263.91
1027.608	1250.57
1027.898	1246.96
1028.187	1254.42
1028.477	1214.87
1028.766	1234.08
1029.055	1232.27
1029.344	1183.23
1029.634	1210.8
1029.923	1176
1030.212	1170.12
1030.501	1164.93
1030.79	1151.14
1031.078	1153.85
1031.367	1166.28
1031.656	1147.53
1031.945	1128.77
1032.233	1145.72
1032.522	1110.24
1032.81	1090.58
1033.099	1099.39
1033.387	1109.79
1033.675	1097.13
1033.963	1091.48
1034.251	1065.27
1034.54	1095.1
1034.828	1057.59
1035.116	1044.7
1035.403	1042.67
1035.691	1045.38
1035.979	1032.05
1036.267	1022.56
1036.554	1037.7
1036.842	1025.72
1037.129	978.04
1037.417	979.4
1037.704	975.33
1037.992	986.17
1038.279	963.8
1038.566	977.36
1038.853	977.36
1039.14	977.36
