Data from hue_22_FLMS001491_00048.txt Node
Date: Tue Feb 07 17:10:11 GMT 2017
User: dcchb
Spectrometer: FLMS00149
Trigger mode: 0
Integration Time (sec): 2.000000E-2
Scans to average: 10
Electric dark correction enabled: true
Nonlinearity correction enabled: false
Boxcar width: 0
XAxis mode: Wavelengths
Number of Pixels in Spectrum: 2048
>>>>>Begin Spectral Data<<<<<
341.393	-8.08
341.776	-8.08
342.16	-8.08
342.543	-70.68
342.927	-77
343.31	-64.57
343.693	-75.42
344.077	-66.83
344.46	-53.28
344.843	-62.77
345.226	-50.11
345.61	-37.46
345.993	-10.79
346.376	7.51
346.759	11.13
347.142	35.08
347.525	40.06
347.908	61.98
348.291	69.21
348.674	97.46
349.057	98.81
349.44	131.8
349.823	135.19
350.206	183.55
350.588	208.64
350.971	234.63
351.354	218.58
351.737	237.56
352.119	258.13
352.502	254.97
352.884	255.64
353.267	281.86
353.65	287.73
354.032	308.97
354.414	296.32
354.797	300.16
355.179	313.72
355.562	321.86
355.944	313.04
356.326	322.31
356.709	332.25
357.091	331.57
357.473	334.06
357.855	347.62
358.238	351.23
358.62	340.84
359.002	343.78
359.384	349.2
359.766	350.33
360.148	328.86
360.53	327.96
360.912	330.44
361.294	330.22
361.676	334.51
362.057	340.84
362.439	347.84
362.821	335.64
363.203	330.9
363.584	338.58
363.966	325.47
364.348	325.92
364.729	311.23
365.111	332.93
365.493	320.27
365.874	327.96
366.256	329.77
366.637	317.34
367.019	333.83
367.4	314.17
367.781	296.55
368.163	302.65
368.544	291.8
368.925	313.95
369.306	322.53
369.688	305.36
370.069	315.08
370.45	311.69
370.831	307.17
371.212	319.6
371.593	308.97
371.974	321.86
372.355	323.66
372.736	318.01
373.117	312.36
373.498	336.32
373.879	330.9
374.26	312.59
374.641	319.82
375.021	320.05
375.402	318.47
375.783	324.57
376.163	330.22
376.544	321.18
376.925	331.8
377.305	309.2
377.686	326.6
378.066	327.51
378.447	308.75
378.827	318.01
379.208	332.03
379.588	325.7
379.968	320.27
380.349	332.7
380.729	326.6
381.109	336.09
381.489	335.19
381.87	327.96
382.25	346.26
382.63	319.6
383.01	331.8
383.39	344.23
383.77	342.87
384.15	336.32
384.53	339.48
384.91	322.99
385.29	335.19
385.67	329.09
386.049	358.69
386.429	342.19
386.809	347.39
387.189	371.8
387.568	353.27
387.948	358.47
388.328	355.53
388.707	351.23
389.087	360.5
389.466	360.05
389.846	342.19
390.225	349.2
390.605	339.03
390.984	368.86
391.363	352.59
391.743	375.19
392.122	365.7
392.501	348.3
392.881	369.76
393.26	382.65
393.639	385.13
394.018	364.57
394.397	374.96
394.776	366.15
395.155	375.64
395.534	373.15
395.913	371.12
396.292	363.89
396.671	398.46
397.05	373.83
397.429	367.96
397.808	389.88
398.186	385.36
398.565	381.74
398.944	395.53
399.323	377.67
399.701	393.27
400.08	391.23
400.458	378.13
400.837	364.79
401.215	383.55
401.594	417.22
401.972	401.4
402.351	400.5
402.729	407.05
403.107	407.96
403.486	410.44
403.864	426.49
404.242	421.97
404.62	410.67
404.999	412.48
405.377	409.76
405.755	418.8
406.133	413.83
406.511	413.6
406.889	422.64
407.267	419.48
407.645	422.42
408.023	433.49
408.401	419.48
408.779	453.15
409.156	438.24
409.534	428.29
409.912	426.71
410.29	445.02
410.667	444.34
411.045	437.56
411.422	468.29
411.8	459.48
412.178	435.53
412.555	462.64
412.933	472.81
413.31	460.84
413.687	451.8
414.065	456.77
414.442	476.65
414.819	472.81
415.197	479.14
415.574	476.88
415.951	499.03
416.328	492.47
416.705	496.54
417.082	468.07
417.46	496.77
417.837	501.29
418.214	496.31
418.591	496.54
418.967	521.62
419.344	512.81
419.721	508.52
420.098	522.53
420.475	515.75
420.852	499.48
421.228	505.81
421.605	528.63
421.982	529.53
422.358	546.93
422.735	541.74
423.111	523.43
423.488	537.9
423.864	532.92
424.241	529.08
424.617	570.89
424.994	548.74
425.37	546.03
425.746	557.78
426.123	560.04
426.499	562.3
426.875	578.57
427.251	578.35
427.627	540.61
428.003	567.27
428.379	580.15
428.756	592.58
429.132	577.89
429.507	589.65
429.883	583.54
430.259	598.46
430.635	609.53
431.011	604.56
431.387	596.65
431.763	624.45
432.138	641.4
432.514	632.81
432.89	636.65
433.265	653.37
433.641	633.71
434.016	678.23
434.392	636.2
434.767	669.64
435.143	676.87
435.518	692.02
435.894	664.67
436.269	680.04
436.644	691.79
437.02	706.25
437.395	696.54
437.77	737.89
438.145	700.38
438.52	697.44
438.895	719.81
439.271	716.42
439.646	748.74
440.021	725.69
440.395	738.57
440.77	726.59
441.145	722.98
441.52	744.9
441.895	758.68
442.27	774.5
442.645	747.38
443.019	774.27
443.394	779.02
443.769	778.79
444.143	753.71
444.518	776.76
444.892	756.19
445.267	785.8
445.641	780.6
446.016	798
446.39	810.66
446.764	784.44
447.139	782.63
447.513	787.83
447.887	808.62
448.262	801.17
448.636	799.81
449.01	823.76
449.384	823.76
449.758	843.2
450.132	855.85
450.506	837.77
450.88	815.4
451.254	844.33
451.628	864.44
452.002	844.78
452.376	875.51
452.75	876.64
453.123	874.38
453.497	902.41
453.871	900.82
454.244	892.69
454.618	919.13
454.992	926.59
455.365	914.16
455.739	944.21
456.112	932.46
456.486	967.49
456.859	940.6
457.232	971.33
457.606	981.05
457.979	989.63
458.352	975.17
458.725	1004.55
459.099	1027.83
459.472	1026.47
459.845	1054.72
460.218	1058.79
460.591	1050.65
460.964	1063.31
461.337	1057.2
461.71	1087.03
462.083	1116.41
462.456	1149.86
462.829	1115.28
463.201	1162.74
463.574	1140.82
463.947	1144.43
464.32	1155.51
464.692	1171.78
465.065	1181.72
465.438	1234.15
465.81	1221.49
466.183	1242.96
466.555	1250.19
466.928	1250.87
467.3	1275.96
467.672	1282.73
468.045	1304.65
468.417	1321.15
468.789	1332
469.161	1313.69
469.534	1347.37
469.906	1407.93
470.278	1420.58
470.65	1408.16
471.022	1433.24
471.394	1460.36
471.766	1447.48
472.138	1481.15
472.51	1495.38
472.882	1547.59
473.253	1591.88
473.625	1587.59
473.997	1613.35
474.369	1612.22
474.74	1655.15
475.112	1668.04
475.484	1723.63
475.855	1736.28
476.227	1756.17
476.598	1818.54
476.97	1800.91
477.341	1844.3
477.713	1904.87
478.084	1931.98
478.455	1969.27
478.827	1976.5
479.198	2036.84
479.569	2048.59
479.94	2105.99
480.311	2117.29
480.682	2153.67
481.053	2178.98
481.424	2251.52
481.795	2291.75
482.166	2311.86
482.537	2331.07
482.908	2396.38
483.279	2428.69
483.65	2484.06
484.021	2563.6
484.391	2579.2
484.762	2600.89
485.133	2682.7
485.503	2673.21
485.874	2740.1
486.244	2782.13
486.615	2819.87
486.985	2878.62
487.356	2953.88
487.726	2926.99
488.097	2992.97
488.467	3037.49
488.837	3087.43
489.207	3115
489.578	3170.37
489.948	3254.66
490.318	3258.05
490.688	3309.12
491.058	3375.79
491.428	3431.83
491.798	3419.63
492.168	3486.74
492.538	3519.29
492.908	3593.63
493.278	3615.33
493.648	3665.72
494.017	3676.12
494.387	3715.44
494.757	3755.44
495.126	3831.37
495.496	3818.49
495.866	3853.74
496.235	3900.29
496.605	3961.76
496.974	3976.68
497.344	4025.04
497.713	4033.62
498.082	4074.3
498.452	4108.42
498.821	4171.92
499.19	4138.93
499.559	4158.59
499.928	4256.67
500.298	4244.92
500.667	4278.36
501.036	4324.24
501.405	4365.14
501.774	4381.18
502.143	4396.33
502.512	4415.76
502.88	4446.49
503.249	4506.6
503.618	4515.87
503.987	4502.99
504.356	4537.79
504.724	4565.13
505.093	4567.85
505.462	4605.81
505.83	4613.49
506.199	4671.8
506.567	4727.16
506.936	4734.62
507.304	4792.02
507.672	4849.87
508.041	4773.72
508.409	4830.21
508.777	4861.17
509.145	4943.2
509.514	4942.98
509.882	4911.57
510.25	4898.91
510.618	4977.33
510.986	4961.73
511.354	5003.99
511.722	5042.64
512.09	5152.24
512.458	5118.79
512.826	5175.29
513.193	5169.64
513.561	5143.88
513.929	5206.47
514.297	5260.71
514.664	5208.51
515.032	5285.57
515.4	5302.29
515.767	5337.77
516.135	5366.7
516.502	5319.69
516.869	5383.19
517.237	5364.66
517.604	5390.2
517.972	5466.58
518.339	5456.41
518.706	5450.99
519.073	5494.38
519.44	5492.34
519.808	5516.3
520.175	5557.42
520.542	5621.38
520.909	5648.72
521.276	5660.02
521.643	5723.75
522.009	5730.3
522.376	5765.78
522.743	5747.93
523.11	5814.82
523.477	5864.99
523.843	5894.36
524.21	5943.4
524.577	5999.9
524.943	5929.39
525.31	5991.31
525.676	6038.09
526.043	6094.36
526.409	6073.8
526.776	6150.4
527.142	6185.66
527.508	6164.41
527.874	6235.82
528.241	6229.5
528.607	6327.12
528.973	6323.28
529.339	6301.59
529.705	6387.69
530.071	6464.97
530.437	6466.55
530.803	6487.57
531.169	6549.71
531.535	6529.6
531.901	6545.2
532.267	6598.75
532.632	6658.86
532.998	6615.48
533.364	6624.29
533.73	6714
534.095	6749.94
534.461	6773.66
534.826	6825.64
535.192	6820.89
535.557	6878.52
535.923	6860.67
536.288	6895.92
536.653	6937.95
537.019	6963.49
537.384	6949.93
537.749	7008.46
538.114	7010.49
538.479	7052.75
538.845	7076.71
539.21	7121.68
539.575	7116.71
539.94	7134.33
540.305	7207.55
540.67	7249.36
541.034	7237.38
541.399	7288.45
541.764	7286.42
542.129	7320.99
542.494	7335.46
542.858	7381.78
543.223	7411.61
543.587	7451.39
543.952	7410.94
544.316	7488
544.681	7551.95
545.045	7523.02
545.41	7647.31
545.774	7591.5
546.138	7624.04
546.503	7625.17
546.867	7653.41
547.231	7727.99
547.595	7730.93
547.959	7778.84
548.324	7778.61
548.688	7825.84
549.052	7858.61
549.416	7864.93
549.779	7850.47
550.143	7944.48
550.507	7974.76
550.871	7977.93
551.235	7928.89
551.599	8058.15
551.962	8092.05
552.326	8054.31
552.689	8074.42
553.053	8039.39
553.417	8185.15
553.78	8242.55
554.143	8259.73
554.507	8251.82
554.87	8256.79
555.234	8384.24
555.597	8359.84
555.96	8336.11
556.323	8346.73
556.686	8366.62
557.05	8427.41
557.413	8494.07
557.776	8460.4
558.139	8587.18
558.502	8553.73
558.865	8568.19
559.228	8545.37
559.59	8636.21
559.953	8619.04
560.316	8739.26
560.679	8691.13
561.041	8747.4
561.404	8807.06
561.767	8853.83
562.129	8827.4
562.492	8948.07
562.854	8898.35
563.217	8876.21
563.579	8919.37
563.941	8984.68
564.304	9064.45
564.666	9056.32
565.028	9132.7
565.39	9115.07
565.753	9246.37
566.115	9180.83
566.477	9235.29
566.839	9243.2
567.201	9325.01
567.563	9303.31
567.925	9420.83
568.287	9396.19
568.648	9400.94
569.01	9529.52
569.372	9484.78
569.734	9563.87
570.095	9540.82
570.457	9661.5
570.819	9673.02
571.18	9641.61
571.542	9766.58
571.903	9750.99
572.265	9807.26
572.626	9803.87
572.987	9890.87
573.349	9922.28
573.71	10058.1
574.071	10013.8
574.432	10089.96
574.794	10179.45
575.155	10180.81
575.516	10261.48
575.877	10350.74
576.238	10327.92
576.599	10433.45
576.96	10524.98
577.32	10624.18
577.681	10683.17
578.042	10776.95
578.403	10745.76
578.763	10883.84
579.124	10969.03
579.485	11078.18
579.845	11124.74
580.206	11320.89
580.566	11388.23
580.927	11513.43
581.287	11656.25
581.648	11735.34
582.008	11849.91
582.368	11974.2
582.728	12148.89
583.089	12271.37
583.449	12434.08
583.809	12624.58
584.169	12719.27
584.529	12898.25
584.889	13179.37
585.249	13281.06
585.609	13456.88
585.969	13719.47
586.329	13876.53
586.688	14078.1
587.048	14333.01
587.408	14410.53
587.768	14681.93
588.127	14928.03
588.487	15144.29
588.846	15537.05
589.206	15528.46
589.565	15928
589.925	16198.05
590.284	16401.43
590.643	16683.69
591.003	16876.45
591.362	17237.12
591.721	17468.07
592.08	17811.34
592.44	18124.55
592.799	18387.37
593.158	18620.81
593.517	19019.9
593.876	19187.57
594.235	19515.48
594.593	19828.24
594.952	20187.55
595.311	20404.04
595.67	20679.96
596.029	21147.52
596.387	21453.96
596.746	21708.19
597.104	22018.91
597.463	22373.48
597.822	22649.86
598.18	22843.3
598.538	23182.5
598.897	23661.58
599.255	23780.9
599.613	24422.01
599.972	24652.97
600.33	24814.77
600.688	25127.76
601.046	25441.87
601.404	25819.72
601.762	26150.78
602.12	26511.9
602.478	26809.75
602.836	27015.39
603.194	27207.25
603.552	27575.83
603.91	27704.41
604.268	28335.81
604.625	28268.01
604.983	28757.94
605.341	28846.76
605.698	29283.81
606.056	29493.74
606.413	29758.6
606.771	30190.9
607.128	30290.33
607.485	30472.02
607.843	30816.42
608.2	31269.74
608.557	31555.84
608.914	31612.33
609.272	32054.35
609.629	32195.37
609.986	32519.88
610.343	32638.29
610.7	33066.08
611.057	33233.53
611.414	33222.91
611.771	33694.09
612.127	33891.82
612.484	33948.09
612.841	34349.66
613.198	34522.54
613.554	34606.15
613.911	34968.85
614.267	35147.15
614.624	35195.74
614.98	35450.88
615.337	35826.46
615.693	35905.78
616.05	36003.86
616.406	36256.96
616.762	36377.18
617.118	36479.32
617.475	36722.03
617.831	36910.95
618.187	37067.33
618.543	37260.09
618.899	37597.94
619.255	37454.44
619.611	37776.24
619.967	37882.45
620.323	37943.01
620.678	38071.82
621.034	38131.48
621.39	38270.91
621.746	38416.9
622.101	38816.89
622.457	38666.16
622.812	38819.83
623.168	39131.91
623.523	39086.71
623.879	39373.48
624.234	39271.34
624.589	39462.3
624.945	39570.32
625.3	39656.64
625.655	39552.69
626.01	39844.21
626.365	39802.85
626.72	39730.76
627.075	39823.64
627.43	40082.39
627.785	40071.32
628.14	40359.9
628.495	40282.61
628.85	40281.71
629.205	40262.5
629.559	40396.28
629.914	40355.15
630.269	40392.67
630.623	40483.96
630.978	40289.39
631.332	40556.28
631.687	40760.79
632.041	40601.93
632.396	40777.06
632.75	40668.82
633.104	40625.43
633.459	40584.53
633.813	40715.6
634.167	40718.99
634.521	40680.34
634.875	40810.73
635.229	40855.03
635.583	40776.39
635.937	40624.07
636.291	40685.77
636.645	40793.11
636.999	40687.35
637.352	40820.68
637.706	40617.75
638.06	40765.76
638.413	40712.88
638.767	40690.51
639.121	40659.1
639.474	40744.75
639.828	40609.61
640.181	40726.22
640.534	40739.78
640.888	40666.33
641.241	40610.74
641.594	40605.09
641.947	40734.58
642.301	40721.02
642.654	40796.72
643.007	40794.24
643.36	40693.22
643.713	40622.49
644.066	40880.79
644.419	40574.58
644.771	40326.91
645.124	40007.14
645.477	39913.36
645.83	39700.71
646.182	39700.26
646.535	39459.13
646.888	39590.2
647.24	39468.85
647.593	39656.64
647.945	39584.55
648.298	39301.4
648.65	39382.52
649.002	39189.53
649.355	39472.24
649.707	39455.52
650.059	39503.42
650.411	40040.36
650.763	39962.62
651.115	40514.25
651.467	40177.98
651.819	40287.81
652.171	40150.41
652.523	40267.25
652.875	40232.44
653.227	39982.96
653.578	40348.83
653.93	40120.36
654.282	40104.54
654.633	39910.42
654.985	40128.49
655.337	40058.89
655.688	40134.14
656.039	40282.39
656.391	39974.6
656.742	39875.84
657.094	39993.36
657.445	40163.07
657.796	40148.15
658.147	39997.87
658.498	39911.1
658.849	39982.28
659.2	39938.44
659.551	39857.09
659.902	39918.33
660.253	39964.66
660.604	39935.73
660.955	39790.2
661.306	39999.91
661.656	40022.73
662.007	39914.71
662.358	40013.69
662.708	40014.6
663.059	39828.84
663.409	39672.91
663.76	40009.4
664.11	39876.52
664.461	39887.37
664.811	39893.7
665.161	39913.36
665.511	39826.35
665.862	39816.18
666.212	40008.5
666.562	39944.54
666.912	39794.26
667.262	39800.59
667.612	39755.4
667.962	39897.54
668.312	39661.61
668.662	39918.55
669.011	39865.9
669.361	39665
669.711	39732.35
670.06	39776.19
670.41	39655.28
670.76	39598.79
671.109	39766.92
671.459	39672.23
671.808	39690.31
672.157	39758.11
672.507	39516.08
672.856	39543.88
673.205	39455.52
673.554	39703.42
673.904	39557.89
674.253	39827.71
674.602	39736.41
674.951	38978.69
675.3	38882.65
675.649	39520.83
675.998	39512.24
676.346	39412.58
676.695	39453.26
677.044	39232.02
677.393	39322.19
677.741	39460.26
678.09	39353.15
678.438	39218.46
678.787	39334.62
679.135	39309.76
679.484	39205.35
679.832	39142.53
680.181	39002.42
680.529	39143.66
680.877	38846.49
681.225	38996.55
681.573	39204.68
681.922	38919.26
682.27	38848.07
682.618	38867.74
682.966	38790.22
683.314	38740.05
683.661	38647.63
684.009	38568.08
684.357	38465.03
684.705	38453.06
685.053	38530.79
685.4	38423.45
685.748	38164.7
686.095	38302.78
686.443	38126.74
686.79	38023.24
687.138	38205.83
687.485	38034.54
687.832	37956.8
688.18	38044.25
688.527	37790.48
688.874	37706.41
689.221	37768.33
689.568	37546.87
689.915	37438.62
690.262	37522.23
690.609	37392.97
690.956	37260.32
691.303	37231.39
691.65	36965.41
691.997	37196.82
692.344	36890.84
692.69	36794.57
693.037	36831.86
693.383	36723.38
693.73	36796.83
694.077	36576.27
694.423	36570.62
694.769	36396.39
695.116	36240.23
695.462	36235.26
695.808	36304.19
696.155	36270.06
696.501	35858.32
696.847	35896.51
697.193	35696.52
697.539	35737.87
697.885	35674.15
698.231	35504.66
698.577	35481.16
698.923	35400.26
699.269	35383.31
699.614	35181.05
699.96	34966.82
700.306	34951.68
700.651	34925.69
700.997	34710.56
701.342	34884.79
701.688	34656.77
702.033	34448.64
702.379	34519.15
702.724	34536.55
703.069	34577.9
703.415	34203.22
703.76	34186.5
704.105	34149.89
704.45	34171.59
704.795	33862.44
705.14	33825.61
705.485	33799.17
705.83	33728.89
706.175	33766.17
706.52	33646.86
706.865	33372.29
707.209	33438.5
707.554	33299.75
707.899	33304.27
708.243	33193.53
708.588	33145.17
708.932	32941.34
709.277	33001.9
709.621	32937.5
709.966	32755.58
710.31	32907.44
710.654	32569.82
710.998	32637.16
711.342	32621.12
711.687	32533.21
712.031	32270.17
712.375	32266.1
712.719	32409.6
713.063	32291.41
713.407	32451.18
713.75	32067.46
714.094	32054.58
714.438	32083.05
714.782	32110.17
715.125	31899.56
715.469	31897.07
715.812	31712.44
716.156	31645.55
716.499	31628.83
716.843	31552.9
717.186	31416.18
717.53	31669.05
717.873	31545.67
718.216	31479.45
718.559	31366.24
718.902	31133.25
719.246	31243.75
719.589	31177.32
719.932	30970.54
720.275	30950.66
720.617	30880.83
720.96	30927.6
721.303	30971.67
721.646	30843.77
721.989	30797.89
722.331	30824.56
722.674	30671.57
723.016	30753.15
723.359	30586.14
723.701	30812.13
724.044	30570.55
724.386	30282.42
724.729	30491.46
725.071	30361.52
725.413	30342.54
725.755	30278.81
726.097	30128.76
726.439	30053.05
726.782	30016.44
727.124	30022.09
727.465	30049.21
727.807	30063.45
728.149	29876.56
728.491	29883.79
728.833	29856.45
729.175	29796.56
729.516	29632.05
729.858	29718.6
730.199	29714.3
730.541	29560.64
730.882	29643.12
731.224	29623.46
731.565	29543.91
731.906	29377.59
732.248	29491.26
732.589	29294.2
732.93	29356.35
733.271	29201.55
733.612	29191.83
733.953	29256.24
734.294	29144.15
734.635	28998.84
734.976	29162.68
735.317	28952.74
735.658	29074.32
735.999	28976.24
736.339	28765.18
736.68	28937.83
737.021	28813.99
737.361	28686.53
737.702	28876.81
738.042	28834.78
738.383	28745.74
738.723	28840.2
739.063	28641.34
739.404	28668.68
739.744	28652.86
740.084	28529.02
740.424	28508.46
740.764	28408.58
741.104	28570.15
741.444	28424.62
741.784	28381.01
742.124	28393.66
742.464	28456.03
742.804	28336.94
743.143	28098.07
743.483	28212.2
743.823	28054.23
744.162	28127
744.502	28053.78
744.841	27954.35
745.181	28120.67
745.52	27971.07
745.86	27984.18
746.199	28000.9
746.538	27897.4
746.877	27931.53
747.216	27919.32
747.556	27739.89
747.895	27758.42
748.234	27570.86
748.573	27621.7
748.911	27507.13
749.25	27621.7
749.589	27452.44
749.928	27480.46
750.267	27488.6
750.605	27447.24
750.944	27502.16
751.283	27306.46
751.621	27336.96
751.96	27297.42
752.298	27261.49
752.636	27320.69
752.975	27126.8
753.313	26944.21
753.651	27117.31
753.989	26904.43
754.327	26933.59
754.666	26816.98
755.004	26836.86
755.342	26848.84
755.679	26803.65
756.017	26648.4
756.355	26761.16
756.693	26539.92
757.031	26633.03
757.368	26448.4
757.706	26410.21
758.044	26354.17
758.381	26359.82
758.719	26272.59
759.056	26269.87
759.394	26205.7
759.731	26040.5
760.068	26101.29
760.405	25944.23
760.743	25788.98
761.08	25796.67
761.417	25741.07
761.754	25706.95
762.091	25742.2
762.428	25649.55
762.765	25408.65
763.102	25472.83
763.438	25332.5
763.775	25205.5
764.112	25278.04
764.449	25255.66
764.785	25191.48
765.122	24997.14
765.458	24889.57
765.795	24764.38
766.131	24777.71
766.467	24787.2
766.804	24631.95
767.14	24500.66
767.476	24517.6
767.812	24504.27
768.148	24421.11
768.485	24267.22
768.821	24159.87
769.157	24132.76
769.492	24046.43
769.828	23967.79
770.164	23843.27
770.5	23790.84
770.836	23787.45
771.171	23540.68
771.507	23688.7
771.842	23414.36
772.178	23428.37
772.513	23399.22
772.849	23228.6
773.184	23210.52
773.519	23147.47
773.855	23034.93
774.19	22932.56
774.525	22853.47
774.86	22846.01
775.195	22778.21
775.53	22676.3
775.865	22743.64
776.2	22439.47
776.535	22370.77
776.87	22290.09
777.205	22236.99
777.539	22137.78
777.874	22141.4
778.209	21827.05
778.543	21886.94
778.878	21874.06
779.212	21765.36
779.547	21601.3
779.881	21707.96
780.215	21577.57
780.55	21620.05
780.884	21453.28
781.218	21393.84
781.552	21300.06
781.886	21271.81
782.22	21114.3
782.554	21098.71
782.888	20883.35
783.222	20806.74
783.556	20712.28
783.889	20718.83
784.223	20608.33
784.557	20510.93
784.89	20614.66
785.224	20363.59
785.557	20355.91
785.891	20205.4
786.224	20183.93
786.558	20092.64
786.891	20000.66
787.224	19957.95
787.557	19835.47
787.891	19797.05
788.224	19817.84
788.557	19816.48
788.89	19663.04
789.223	19669.6
789.556	19595.02
789.888	19434.57
790.221	19419.66
790.554	19226.67
790.887	19293.79
791.219	19275.26
791.552	19091.76
791.884	18970.86
792.217	18997.98
792.549	18973.12
792.882	18746.46
793.214	18708.72
793.546	18827.13
793.879	18624.2
794.211	18563.86
794.543	18521.83
794.875	18502.85
795.207	18561.83
795.539	18421.04
795.871	18288.16
796.203	18280.71
796.535	18100.6
796.867	18146.7
797.198	18040.26
797.53	18027.38
797.862	17969.98
798.193	17886.14
798.525	17813.83
798.856	17801.17
799.188	17624.9
799.519	17620.38
799.85	17487.05
800.182	17530.89
800.513	17574.96
800.844	17432.14
801.175	17432.82
801.506	17458.58
801.837	17209.1
802.168	17236.21
802.499	17216.33
802.83	17092.71
803.161	17090.91
803.491	17108.08
803.822	16993.28
804.153	16836
804.483	16826.05
804.814	16795.77
805.145	16680.52
805.475	16781.31
805.805	16636.46
806.136	16618.83
806.466	16622.22
806.796	16596
807.126	16434.65
807.457	16426.52
807.787	16472.39
808.117	16313.75
808.447	16215.9
808.777	16287.54
809.107	16163.25
809.436	16188.33
809.766	16135.9
810.096	16151.95
810.426	16024.95
810.755	16074.66
811.085	15958.73
811.414	15947.89
811.744	15756.7
812.073	15729.59
812.403	15767.1
812.732	15637.84
813.061	15751.96
813.39	15635.8
813.719	15492.76
814.049	15676.93
814.378	15564.39
814.707	15405.08
815.036	15446.43
815.365	15405.3
815.693	15308.81
816.022	15375.25
816.351	15238.3
816.68	15223.84
817.008	15181.13
817.337	15113.56
817.665	15090.28
817.994	15107
818.322	15080.34
818.651	14994.01
818.979	14983.62
819.307	15006.44
819.636	14898.87
819.964	14813
820.292	14830.85
820.62	14898.2
820.948	14781.81
821.276	14841.47
821.604	14765.09
821.932	14835.15
822.259	14742.49
822.587	14788.59
822.915	14754.24
823.243	14761.7
823.57	14719.22
823.898	14740.23
824.225	14562.84
824.553	14666.56
824.88	14671.31
825.207	14786.33
825.535	14684.87
825.862	14791.76
826.189	14658.43
826.516	14803.28
826.843	14831.76
827.17	14597.64
827.497	14708.37
827.824	14728.71
828.151	14655.26
828.478	14724.19
828.805	14721.48
829.131	14720.35
829.458	14641.25
829.785	14593.8
830.111	14666.56
830.438	14647.35
830.764	14761.7
831.09	14693.23
831.417	14667.92
831.743	14641.03
832.069	14683.51
832.395	14563.29
832.722	14697.52
833.048	14613.01
833.374	14610.52
833.7	14500.69
834.026	14519.45
834.351	14553.8
834.677	14493.01
835.003	14511.99
835.329	14474.7
835.654	14447.36
835.98	14397.19
836.306	14383.63
836.631	14355.84
836.956	14408.27
837.282	14421.6
837.607	14271.32
837.932	14340.02
838.258	14332.11
838.583	14305.22
838.908	14163.07
839.233	14220.25
839.558	14130.76
839.883	14168.5
840.208	14130.08
840.533	14148.84
840.858	14096.41
841.182	14095.28
841.507	14065.22
841.832	13991.78
842.156	13935.96
842.481	13942.51
842.805	13922.18
843.13	13933.02
843.454	13886.25
843.778	13791.78
844.103	13740.71
844.427	13762.18
844.751	13719.7
845.075	13686.7
845.399	13677.66
845.723	13566.03
846.047	13578
846.371	13386.37
846.695	13567.38
847.019	13328.75
847.343	13315.41
847.666	13284.9
847.99	13131.01
848.313	13117.68
848.637	13138.02
848.96	13124.23
849.284	13106.15
849.607	12886.95
849.931	12960.85
850.254	12907.29
850.577	12707.97
850.9	12750
851.223	12751.36
851.546	12664.58
851.869	12583.68
852.192	12583.23
852.515	12533.29
852.838	12519.73
853.161	12548.43
853.483	12363.57
853.806	12392.72
854.129	12262.33
854.451	12219.17
854.774	12148.21
855.096	12140.3
855.419	12163.8
855.741	12084.03
856.063	11963.36
856.385	11993.87
856.708	12044.94
857.03	11956.8
857.352	11959.74
857.674	11883.81
857.996	11828.9
858.318	11761.33
858.64	11751.39
858.961	11705.74
859.283	11753.65
859.605	11582.58
859.926	11632.74
860.248	11617.15
860.57	11503.03
860.891	11541.22
861.212	11427.33
861.534	11475.91
861.855	11446.31
862.176	11477.49
862.498	11423.03
862.819	11404.73
863.14	11348.46
863.461	11314.79
863.782	11285.18
864.103	11398.17
864.424	11230.95
864.745	11291.96
865.065	11241.12
865.386	11172.42
865.707	11197.28
866.027	11151.85
866.348	11072.53
866.668	11116.15
866.989	11049.26
867.309	11087
867.63	11081.57
867.95	11050.61
868.27	10997.06
868.59	10888.58
868.91	10937.4
869.23	10935.14
869.55	10887.23
869.87	11015.13
870.19	10866.66
870.51	10981.01
870.83	10853.56
871.15	10811.75
871.469	10808.81
871.789	10818.53
872.109	10794.8
872.428	10772.65
872.748	10739.21
873.067	10774.46
873.386	10792.32
873.706	10685.88
874.025	10654.01
874.344	10597.07
874.663	10681.36
874.982	10601.59
875.301	10596.16
875.62	10621.92
875.939	10598.2
876.258	10525.66
876.577	10555.94
876.896	10545.99
877.214	10465.32
877.533	10496.96
877.852	10416.05
878.17	10451.76
878.489	10499.89
878.807	10437.75
879.125	10381.7
879.444	10366.56
879.762	10383.06
880.08	10404.98
880.398	10318.43
880.716	10352.55
881.034	10261.03
881.352	10360.24
881.67	10258.54
881.988	10214.7
882.306	10249.96
882.624	10234.36
882.941	10159.34
883.259	10136.97
883.577	10113.46
883.894	10109.17
884.212	10070.75
884.529	10070.3
884.846	9951.89
885.164	10026.69
885.481	9987.14
885.798	9933.58
886.115	9889.29
886.432	9921.38
886.75	9849.52
887.067	9918.89
887.383	9786.47
887.7	9816.75
888.017	9834.37
888.334	9796.41
888.651	9755.05
888.967	9760.25
889.284	9670.99
889.6	9659.46
889.917	9679.8
890.233	9653.81
890.55	9638.22
890.866	9586.92
891.182	9531.56
891.498	9507.15
891.815	9485.23
892.131	9436.64
892.447	9394.39
892.763	9389.19
893.079	9368.62
893.395	9356.19
893.71	9308.06
894.026	9337.21
894.342	9257.21
894.657	9229.19
894.973	9193.71
895.289	9223.09
895.604	9194.84
895.92	9127.27
896.235	9000.05
896.55	9060.16
896.865	9033.27
897.181	8929.77
897.496	9009.31
897.811	8937.22
898.126	8935.87
898.441	8880.5
898.756	8826.72
899.071	8766.15
899.386	8736.1
899.7	8713.95
900.015	8705.82
900.33	8645.25
900.644	8606.38
900.959	8631.24
901.273	8593.05
901.588	8519.61
901.902	8462.21
902.216	8425.6
902.531	8407.75
902.845	8504.01
903.159	8353.74
903.473	8403.68
903.787	8324.13
904.101	8287.75
904.415	8260.63
904.729	8197.36
905.042	8175.21
905.356	8165.04
905.67	8182.44
905.984	8179.28
906.297	8097.02
906.611	8061.77
906.924	8064.93
907.237	7996.46
907.551	7949
907.864	7977.02
908.177	7936.12
908.491	7943.58
908.804	7817.93
909.117	7825.39
909.43	7707.88
909.743	7692.96
910.056	7782.22
910.368	7732.96
910.681	7643.92
910.994	7638.95
911.307	7617.48
911.619	7542.46
911.932	7549.01
912.244	7501.33
912.557	7438.73
912.869	7429.69
913.181	7378.39
913.494	7359.19
913.806	7315.34
914.118	7313.31
914.43	7289.36
914.742	7271.28
915.054	7197.16
915.366	7188.79
915.678	7177.04
915.99	7144.95
916.302	7073.77
916.613	7149.25
916.925	7064.28
917.236	6970.72
917.548	6968.46
917.859	6997.16
918.171	6917.84
918.482	6857.73
918.794	6879.2
919.105	6868.8
919.416	6850.5
919.727	6830.39
920.038	6812.31
920.349	6744.96
920.66	6738.64
920.971	6709.71
921.282	6708.13
921.593	6610.5
921.903	6586.78
922.214	6557.17
922.525	6518.3
922.835	6503.84
923.146	6462.71
923.456	6515.59
923.767	6403.5
924.077	6383.39
924.387	6394.24
924.697	6321.7
925.008	6344.07
925.318	6283.51
925.628	6278.99
925.938	6222.27
926.248	6156.5
926.558	6166.45
926.867	6153.79
927.177	6147.69
927.487	6135.71
927.796	6058.43
928.106	6078.09
928.416	6029.28
928.725	5998.77
929.034	5950.41
929.344	6001.48
929.653	5958.32
929.962	5879.45
930.271	5853.69
930.581	5841.48
930.89	5841.26
931.199	5822.28
931.508	5775.95
931.817	5761.49
932.125	5771.43
932.434	5740.92
932.743	5677.65
933.051	5630.87
933.36	5616.86
933.669	5638.78
933.977	5622.06
934.286	5595.62
934.594	5541.83
934.902	5488.95
935.21	5482.85
935.519	5432.46
935.827	5441.27
936.135	5396.07
936.443	5420.48
936.751	5414.83
937.059	5367.37
937.367	5337.77
937.674	5329.18
937.982	5304.32
938.29	5274.72
938.597	5284.89
938.905	5182.29
939.213	5213.03
939.52	5119.02
939.827	5181.16
940.135	5129.41
940.442	5082.63
940.749	5104.56
941.056	5107.49
941.363	5040.83
941.67	5062.07
941.977	5022.3
942.284	4941.17
942.591	4931.45
942.898	4914.5
943.205	4941.85
943.511	4857.78
943.818	4874.05
944.125	4846.71
944.431	4863.66
944.738	4806.26
945.044	4798.12
945.35	4740.5
945.657	4727.39
945.963	4714.51
946.269	4735.07
946.575	4725.36
946.881	4696.2
947.187	4655.3
947.493	4628.64
947.799	4635.87
948.105	4581.18
948.41	4580.05
948.716	4540.5
949.022	4510.67
949.327	4508.19
949.633	4444.69
949.938	4488.98
950.244	4446.27
950.549	4432.48
950.854	4422.54
951.16	4431.35
951.465	4366.72
951.77	4337.12
952.075	4328.53
952.38	4299.15
952.685	4316.1
952.99	4283.56
953.294	4291.02
953.599	4283.33
953.904	4233.62
954.209	4197.69
954.513	4179.83
954.818	4208.99
955.122	4133.28
955.426	4122.66
955.731	4084.24
956.035	4072.04
956.339	4112.72
956.643	4052.15
956.948	4031.36
957.252	4011.48
957.556	4024.13
957.86	4006.5
958.163	3945.26
958.467	3953.62
958.771	3928.99
959.075	3927.18
959.378	3957.01
959.682	3894.19
959.985	3818.94
960.289	3860.29
960.592	3850.35
960.896	3823.23
961.199	3790.47
961.502	3776.23
961.805	3775.78
962.108	3721.99
962.411	3710.02
962.714	3714.31
963.017	3697.36
963.32	3699.62
963.623	3687.42
963.926	3697.81
964.228	3635.44
964.531	3663.46
964.833	3603.13
965.136	3564.03
965.438	3563.35
965.741	3543.69
966.043	3542.56
966.345	3561.77
966.648	3513.64
966.95	3504.37
967.252	3491.26
967.554	3444.94
967.856	3439.51
968.158	3392.74
968.46	3409.91
968.761	3387.54
969.063	3371.72
969.365	3385.05
969.666	3378.95
969.968	3343.47
970.269	3322
970.571	3315
970.872	3332.62
971.174	3312.29
971.475	3272.74
971.776	3277.94
972.077	3222.57
972.378	3260.08
972.679	3220.31
972.98	3233.87
973.281	3201.78
973.582	3159.75
973.883	3172.63
974.183	3180.76
974.484	3090.6
974.785	3110.71
975.085	3119.52
975.386	3114.78
975.686	3041.33
975.986	3091.73
976.287	3035.68
976.587	3058.96
976.887	3026.42
977.187	3042.24
977.487	3006.31
977.787	3010.6
978.087	2968.11
978.387	2970.15
978.687	2939.64
978.987	2971.96
979.286	2907.1
979.586	2966.98
979.885	2893.77
980.185	2890.6
980.484	2917.95
980.784	2873.2
981.083	2848.12
981.382	2842.69
981.682	2827.1
981.981	2810.38
982.28	2781.45
982.579	2771.51
982.878	2775.35
983.177	2739.19
983.475	2762.47
983.774	2746.65
984.073	2693.32
984.372	2691.29
984.67	2694.9
984.969	2671.4
985.267	2696.26
985.566	2686.09
985.864	2634.11
986.162	2654
986.461	2646.09
986.759	2600.21
987.057	2563.15
987.355	2611.06
987.653	2590.04
987.951	2567.22
988.249	2558.41
988.547	2549.14
988.844	2538.75
989.142	2538.97
989.44	2517.05
989.737	2517.5
990.035	2497.39
990.332	2455.13
990.63	2457.39
990.927	2464.17
991.224	2432.08
991.521	2449.26
991.819	2439.09
992.116	2387.34
992.413	2382.37
992.71	2389.15
993.006	2351.18
993.303	2360.45
993.6	2368.13
993.897	2364.74
994.193	2339.88
994.49	2326.1
994.787	2302.37
995.083	2323.16
995.379	2281.35
995.676	2298.53
995.972	2263.27
996.268	2200
996.565	2258.75
996.861	2261.01
997.157	2205.87
997.453	2188.02
997.749	2198.19
998.044	2195.03
998.34	2207.46
998.636	2130.4
998.932	2118.19
999.227	2171.75
999.523	2131.75
999.818	2116.61
1000.114	2117.06
1000.409	2105.99
1000.704	2093.11
1001	2063.05
1001.295	2049.49
1001.59	2063.96
1001.885	2049.49
1002.18	2048.36
1002.475	2026.22
1002.77	2000.68
1003.065	1983.51
1003.359	1999.78
1003.654	1998.87
1003.949	2002.26
1004.243	1950.06
1004.538	1965.43
1004.832	1950.06
1005.127	1929.27
1005.421	1945.99
1005.715	1915.26
1006.009	1889.05
1006.304	1876.17
1006.598	1861.48
1006.892	1872.32
1007.186	1843.4
1007.48	1846.79
1007.773	1842.04
1008.067	1847.24
1008.361	1800.01
1008.655	1782.61
1008.948	1788.48
1009.242	1797.3
1009.535	1780.8
1009.829	1755.49
1010.122	1770.18
1010.415	1755.49
1010.708	1769.28
1011.001	1721.82
1011.295	1689.05
1011.588	1698.77
1011.881	1682.05
1012.173	1694.25
1012.466	1709.62
1012.759	1632.56
1013.052	1674.81
1013.344	1646.79
1013.637	1650.18
1013.93	1633.91
1014.222	1612.44
1014.514	1583.74
1014.807	1618.09
1015.099	1596.4
1015.391	1582.16
1015.683	1586.23
1015.976	1578.09
1016.268	1568.6
1016.56	1548.72
1016.851	1531.09
1017.143	1525.44
1017.435	1530.64
1017.727	1511.2
1018.018	1485.44
1018.31	1475.95
1018.602	1507.36
1018.893	1474.14
1019.185	1461.26
1019.476	1459.23
1019.767	1455.61
1020.058	1439.79
1020.35	1424.65
1020.641	1395.5
1020.932	1393.24
1021.223	1362.96
1021.514	1369.51
1021.804	1357.76
1022.095	1373.13
1022.386	1360.47
1022.677	1374.26
1022.967	1350.3
1023.258	1324.99
1023.548	1327.93
1023.839	1323.64
1024.129	1311.89
1024.419	1328.38
1024.709	1289.74
1025	1303.98
1025.29	1256.29
1025.58	1251.1
1025.87	1240.25
1026.16	1239.12
1026.449	1238.44
1026.739	1251.1
1027.029	1218.33
1027.319	1223.75
1027.608	1226.69
1027.898	1200.48
1028.187	1193.7
1028.477	1191.89
1028.766	1186.69
1029.055	1197.77
1029.344	1166.13
1029.634	1164.77
1029.923	1163.42
1030.212	1136.52
1030.501	1148.73
1030.79	1130.2
1031.078	1121.61
1031.367	1122.29
1031.656	1098.33
1031.945	1109.18
1032.233	1113.47
1032.522	1105.79
1032.81	1071.89
1033.099	1068.28
1033.387	1056.53
1033.675	1058.11
1033.963	1049.75
1034.251	1036.87
1034.54	1010.65
1034.828	1032.12
1035.116	1026.92
1035.403	1021.27
1035.691	1022.63
1035.979	1029.63
1036.267	983.76
1036.554	1007.94
1036.842	997.54
1037.129	983.99
1037.417	969.75
1037.704	985.79
1037.992	969.52
1038.279	953.7
1038.566	928.85
1038.853	928.85
1039.14	928.85
