Data from hue_340_FLMS001491_86.txt Node
Date: Mon Feb 06 15:43:44 GMT 2017
User: dcchb
Spectrometer: FLMS00149
Trigger mode: 0
Integration Time (sec): 2.000000E-2
Scans to average: 10
Electric dark correction enabled: true
Nonlinearity correction enabled: false
Boxcar width: 0
XAxis mode: Wavelengths
Number of Pixels in Spectrum: 2048
>>>>>Begin Spectral Data<<<<<
341.393	-26.81
341.776	-26.81
342.16	-26.81
342.543	-47.37
342.927	-93.92
343.31	-56.64
343.693	-44.66
344.077	-82.17
344.46	-49.18
344.843	-44.66
345.226	-43.53
345.61	-35.39
345.993	-26.36
346.376	-16.64
346.759	20.65
347.142	32.63
347.525	28.11
347.908	55.45
348.291	75.11
348.674	85.96
349.057	101.33
349.44	130.25
349.823	151.27
350.206	133.19
350.588	196.69
350.971	217.25
351.354	212.06
351.737	219.74
352.119	264.03
352.502	255.45
352.884	272.85
353.267	265.84
353.65	303.13
354.032	299.06
354.414	290.02
354.797	295.9
355.179	312.84
355.562	308.1
355.944	323.69
356.326	321.88
356.709	312.39
357.091	321.88
357.473	332.05
357.855	317.82
358.238	324.82
358.62	339.74
359.002	336.35
359.384	349.45
359.766	366.4
360.148	345.84
360.53	339.74
360.912	330.02
361.294	318.95
361.676	320.53
362.057	351.04
362.439	311.04
362.821	327.53
363.203	321.88
363.584	308.1
363.966	315.1
364.348	306.74
364.729	306.52
365.111	313.52
365.493	314.65
365.874	305.39
366.256	300.64
366.637	307.2
367.019	300.19
367.4	288.89
367.781	307.2
368.163	301.55
368.544	305.16
368.925	293.18
369.306	304.03
369.688	280.98
370.069	312.17
370.45	302.22
370.831	282.34
371.212	297.25
371.593	320.75
371.974	285.5
372.355	322.56
372.736	307.2
373.117	299.51
373.498	299.96
373.879	293.18
374.26	337.03
374.641	307.2
375.021	323.92
375.402	295.44
375.783	302.9
376.163	321.43
376.544	323.24
376.925	321.43
377.305	320.53
377.686	305.84
378.066	317.14
378.447	315.1
378.827	334.09
379.208	344.03
379.588	325.5
379.968	326.4
380.349	321.88
380.729	333.18
381.109	325.5
381.489	329.57
381.87	351.71
382.25	333.18
382.63	314.65
383.01	349.91
383.39	320.53
383.77	320.53
384.15	339.28
384.53	323.92
384.91	337.48
385.29	327.76
385.67	337.25
386.049	333.86
386.429	326.18
386.809	323.69
387.189	333.41
387.568	339.74
387.948	327.31
388.328	349.45
388.707	349.91
389.087	352.62
389.466	349
389.846	329.57
390.225	356.23
390.605	350.36
390.984	323.69
391.363	360.75
391.743	352.17
392.122	355.78
392.501	366.4
392.881	376.8
393.26	371.83
393.639	361.88
394.018	358.72
394.397	370.7
394.776	374.54
395.155	373.41
395.534	364.82
395.913	347.65
396.292	355.78
396.671	379.51
397.05	367.31
397.429	367.53
397.808	382.45
398.186	371.6
398.565	373.41
398.944	387.42
399.323	388.32
399.701	402.33
400.08	374.76
400.458	374.31
400.837	374.54
401.215	394.88
401.594	384.93
401.972	404.14
402.351	400.07
402.729	376.35
403.107	400.98
403.486	394.88
403.864	383.35
404.242	390.36
404.62	407.31
404.999	393.52
405.377	403.01
405.755	399.62
406.133	421.54
406.511	426.51
406.889	419.06
407.267	405.05
407.645	414.54
408.023	430.81
408.401	419.96
408.779	431.71
409.156	421.09
409.534	425.61
409.912	453.18
410.29	424.71
410.667	450.47
411.045	414.99
411.422	447.98
411.8	449.56
412.178	436.01
412.555	482.56
412.933	467.64
413.31	470.35
413.687	479.62
414.065	463.8
414.442	489.11
414.819	505.83
415.197	488.21
415.574	489.79
415.951	481.65
416.328	504.03
416.705	510.81
417.082	508.55
417.46	530.92
417.837	518.72
418.214	529.56
418.591	527.08
418.967	533.4
419.344	521.88
419.721	514.65
420.098	538.38
420.475	555.78
420.852	576.11
421.228	546.96
421.605	560.97
421.982	563.01
422.358	563.46
422.735	553.97
423.111	581.76
423.488	563.69
423.864	577.02
424.241	580.18
424.617	583.12
424.994	590.13
425.37	586.06
425.746	613.63
426.123	607.3
426.499	600.52
426.875	627.64
427.251	618.15
427.627	593.06
428.003	620.41
428.379	632.38
428.756	628.77
429.132	639.62
429.507	654.08
429.883	670.12
430.259	650.01
430.635	653.85
431.011	642.55
431.387	690.01
431.763	675.1
432.138	697.47
432.514	698.6
432.89	697.92
433.265	735.43
433.641	723.68
434.016	723
434.392	728.65
434.767	737.24
435.143	735.88
435.518	736.34
435.894	751.03
436.269	761.19
436.644	781.76
437.02	768.88
437.395	752.83
437.77	771.14
438.145	776.79
438.52	791.48
438.895	806.17
439.271	791.02
439.646	827.41
440.021	804.13
440.395	815.2
440.77	815.88
441.145	805.71
441.52	835.77
441.895	820.18
442.27	852.27
442.645	852.04
443.019	829.89
443.394	848.2
443.769	866.5
444.143	856.79
444.518	885.03
444.892	867.18
445.267	882.55
445.641	876.22
446.016	896.11
446.39	886.62
446.764	881.19
447.139	873.51
447.513	884.81
447.887	879.84
448.262	874.41
448.636	901.53
449.01	925.03
449.384	946.27
449.758	927.74
450.132	932.26
450.506	914.86
450.88	932.04
451.254	938.14
451.628	951.02
452.002	969.1
452.376	969.78
452.75	990.12
453.123	995.99
453.497	984.01
453.871	983.34
454.244	1021.07
454.618	1002.54
454.992	1013.84
455.365	1031.92
455.739	1023.33
456.112	1069.44
456.486	1037.8
456.859	1032.37
457.232	1048.64
457.606	1053.62
457.979	1057.23
458.352	1102.43
458.725	1100.85
459.099	1111.24
459.472	1122.77
459.845	1140.39
460.218	1127.29
460.591	1153.95
460.964	1134.74
461.337	1159.6
461.71	1165.03
462.083	1193.27
462.456	1205.7
462.829	1201.86
463.201	1184.46
463.574	1204.57
463.947	1219.94
464.32	1240.73
464.692	1251.58
465.065	1239.37
465.438	1257.45
465.81	1297.23
466.183	1299.94
466.555	1348.75
466.928	1343.55
467.3	1327.73
467.672	1339.71
468.045	1362.99
468.417	1373.83
468.789	1382.65
469.161	1369.31
469.534	1421.74
469.906	1440.27
470.278	1442.53
470.65	1448.63
471.022	1456.54
471.394	1543.32
471.766	1499.93
472.138	1543.55
472.51	1559.59
472.882	1568.41
473.253	1606.37
473.625	1610.44
473.997	1638.46
474.369	1655.18
474.74	1641.62
475.112	1687.95
475.484	1707.84
475.855	1748.74
476.227	1748.29
476.598	1778.12
476.97	1794.84
477.341	1816.53
477.713	1828.74
478.084	1903.09
478.455	1946.7
478.827	1965
479.198	2004.55
479.569	1982.41
479.94	2034.16
480.311	2070.76
480.682	2085.45
481.053	2121.84
481.424	2123.42
481.795	2152.12
482.166	2207.94
482.537	2247.26
482.908	2278.44
483.279	2285.45
483.65	2362.28
484.021	2410.87
484.391	2372.68
484.762	2412.45
485.133	2434.37
485.503	2482.73
485.874	2526.12
486.244	2512.34
486.615	2593.01
486.985	2604.99
487.356	2667.81
487.726	2669.39
488.097	2737.19
488.467	2717.98
488.837	2778.77
489.207	2800.46
489.578	2845.89
489.948	2853.57
490.318	2934.92
490.688	2946.9
491.058	2993.23
491.428	3015.82
491.798	3049.27
492.168	3079.33
492.538	3073
492.908	3126.78
493.278	3194.13
493.648	3171.75
494.017	3221.02
494.387	3223.28
494.757	3250.17
495.126	3302.37
495.496	3272.32
495.866	3319.32
496.235	3354.8
496.605	3370.39
496.974	3405.19
497.344	3397.06
497.713	3442.71
498.082	3462.82
498.452	3508.02
498.821	3521.12
499.19	3520.44
499.559	3604.96
499.928	3569.03
500.298	3594.79
500.667	3616.94
501.036	3611.52
501.405	3613.55
501.774	3641.8
502.143	3693.32
502.512	3712.76
502.88	3728.12
503.249	3740.55
503.618	3767.44
503.987	3791.62
504.356	3817.39
504.724	3794.79
505.093	3849.93
505.462	3851.51
505.83	3863.03
506.199	3892.19
506.567	3921.11
506.936	3912.07
507.304	3916.14
507.672	3988.45
508.041	3957.95
508.409	4049.47
508.777	3988.45
509.145	4021.67
509.514	4043.14
509.882	4044.72
510.25	4107.1
510.618	4043.59
510.986	4093.08
511.354	4090.15
511.722	4159.98
512.09	4164.72
512.458	4118.85
512.826	4165.62
513.193	4197.94
513.561	4199.97
513.929	4204.27
514.297	4256.92
514.664	4263.02
515.032	4308.45
515.4	4276.13
515.767	4311.38
516.135	4315.23
516.502	4326.75
516.869	4412.17
517.237	4357.94
517.604	4396.35
517.972	4381.21
518.339	4415.34
518.706	4428.44
519.073	4449.23
519.44	4430.93
519.808	4442.68
520.175	4511.38
520.542	4535.78
520.909	4504.6
521.276	4516.35
521.643	4548.44
522.009	4583.24
522.376	4571.94
522.743	4613.07
523.11	4612.17
523.477	4695.78
523.843	4688.32
524.21	4699.17
524.577	4759.28
524.943	4771.03
525.31	4765.38
525.676	4827.08
526.043	4813.74
526.409	4822.1
526.776	4854.65
527.142	4892.39
527.508	4949.79
527.874	4898.71
528.241	5014.42
528.607	4981.65
528.973	4991.59
529.339	5027.75
529.705	5081.53
530.071	5105.94
530.437	5118.59
530.803	5146.62
531.169	5172.38
531.535	5199.95
531.901	5232.72
532.267	5166.73
532.632	5245.37
532.998	5246.5
533.364	5278.36
533.73	5327.4
534.095	5340.28
534.461	5284.24
534.826	5369.44
535.192	5398.81
535.557	5403.11
535.923	5441.52
536.288	5467.06
536.653	5477.68
537.019	5450.11
537.384	5495.31
537.749	5533.95
538.114	5578.7
538.479	5556.1
538.845	5632.93
539.21	5605.36
539.575	5637.45
539.94	5696.88
540.305	5700.95
540.67	5714.51
541.034	5722.19
541.399	5746.37
541.764	5736.66
542.129	5771.01
542.494	5844
542.858	5806.03
543.223	5853.26
543.587	5917.22
543.952	5857.78
544.316	5937.56
544.681	5906.82
545.045	5949.31
545.41	5970.32
545.774	5986.59
546.138	6002.86
546.503	6071.56
546.867	6045.58
547.231	6121.05
547.595	6107.49
547.959	6135.74
548.324	6200.37
548.688	6153.37
549.052	6167.15
549.416	6199.02
549.779	6307.26
550.143	6218.23
550.507	6302.29
550.871	6283.54
551.235	6309.07
551.599	6344.32
551.962	6309.75
552.326	6369.86
552.689	6431.1
553.053	6374.83
553.417	6419.58
553.78	6519.46
554.143	6501.83
554.507	6535.96
554.87	6527.14
555.234	6593.13
555.597	6573.25
555.96	6591.78
556.323	6595.39
556.686	6604.88
557.05	6686.24
557.413	6695.95
557.776	6632.9
558.139	6743.41
558.502	6669.97
558.865	6764.88
559.228	6764.65
559.59	6812.56
559.953	6807.14
560.316	6813.69
560.679	6872.67
561.041	6880.36
561.404	6982.95
561.767	6936.17
562.129	6935.95
562.492	7021.14
562.854	7011.88
563.217	6961.71
563.579	7035.15
563.941	6998.77
564.304	7041.71
564.666	7081.93
565.028	7124.42
565.39	7158.54
565.753	7107.69
566.115	7210.06
566.477	7181.59
566.839	7232.44
567.201	7311.08
567.563	7230.4
567.925	7315.37
568.287	7347.01
568.648	7400.12
569.01	7429.95
569.372	7485.31
569.734	7443.73
570.095	7481.92
570.457	7559.89
570.819	7541.81
571.18	7539.77
571.542	7564.18
571.903	7669.94
572.265	7718.3
572.626	7738.86
572.987	7759.88
573.349	7845.08
573.71	7871.06
574.071	7930.05
574.432	7969.59
574.794	8056.37
575.155	8071.06
575.516	8021.12
575.877	8191.73
576.238	8234.22
576.599	8259.98
576.96	8288.91
577.32	8389.02
577.681	8441.67
578.042	8551.27
578.403	8647.54
578.763	8729.35
579.124	8777.71
579.485	8927.53
579.845	8985.84
580.206	9048.89
580.566	9129.11
580.927	9322.33
581.287	9395.77
581.648	9448.2
582.008	9708.08
582.368	9767.74
582.728	9894.51
583.089	10012.48
583.449	10205.92
583.809	10313.26
584.169	10464.89
584.529	10589.41
584.889	10857.65
585.249	10941.04
585.609	11128.83
585.969	11360.92
586.329	11436.62
586.688	11655.6
587.048	11880.9
587.408	12076.83
587.768	12202.02
588.127	12456.25
588.487	12589.13
588.846	12997.03
589.206	13070.25
589.565	13391.37
589.925	13669.56
590.284	13848.31
590.643	14205.59
591.003	14401.74
591.362	14778.23
591.721	14852.8
592.08	15181.15
592.44	15410.08
592.799	15678.54
593.158	15906.33
593.517	16208.25
593.876	16501.12
594.235	16722.58
594.593	17080.09
594.952	17326.86
595.311	17627.87
595.67	17785.38
596.029	18205.26
596.387	18535.42
596.746	18786.94
597.104	19033.93
597.463	19247.04
597.822	19604.54
598.18	19870.07
598.538	20050.41
598.897	20441.58
599.255	20702.14
599.613	21147.1
599.972	21228.68
600.33	21486.07
600.688	21769.91
601.046	22129.45
601.404	22512.49
601.762	22658.02
602.12	23039.48
602.478	23280.38
602.836	23532.57
603.194	23681.27
603.552	24019.11
603.91	24152.9
604.268	24437.41
604.625	24669.27
604.983	24923.05
605.341	25054.57
605.698	25501.34
606.056	25788.33
606.413	25892.96
606.771	26216.34
607.128	26452.72
607.485	26492.72
607.843	26821.3
608.2	27111.01
608.557	27419.48
608.914	27457.44
609.272	27784.21
609.629	28131.77
609.986	28321.37
610.343	28359.57
610.7	28701.7
611.057	28887.46
611.414	29067.57
611.771	29341.01
612.127	29576.26
612.484	29587.33
612.841	29880.43
613.198	29957.49
613.554	30175.56
613.911	30461.43
614.267	30500.98
614.624	30634.76
614.98	30927.18
615.337	31087.18
615.693	31205.82
616.05	31413.27
616.406	31718.35
616.762	31662.76
617.118	31856.65
617.475	31908.85
617.831	32151.78
618.187	32226.58
618.543	32435.84
618.899	32608.27
619.255	32723.07
619.611	32857.75
619.967	33054.13
620.323	33126.9
620.678	33245.09
621.034	33280.34
621.39	33457.51
621.746	33580.9
622.101	33891.4
622.457	33695.02
622.812	33886.43
623.168	33970.72
623.523	34134.1
623.879	34203.25
624.234	34125.97
624.589	34243.25
624.945	34337.71
625.3	34482.57
625.655	34530.25
626.01	34704.03
626.365	34730.92
626.72	34706.06
627.075	34765.05
627.43	34712.62
627.785	34845.04
628.14	34989.22
628.495	35033.29
628.85	35192.15
629.205	35054.76
629.559	35346.5
629.914	35169.78
630.269	35338.14
630.623	35294.98
630.978	35192.61
631.332	35399.15
631.687	35444.12
632.041	35367.97
632.396	35472.37
632.75	35429.44
633.104	35519.6
633.459	35238.03
633.813	35513.5
634.167	35412.26
634.521	35446.84
634.875	35565.7
635.229	35495.42
635.583	35469.66
635.937	35503.33
636.291	35411.81
636.645	35559.83
636.999	35402.54
637.352	35474.41
637.706	35311.47
638.06	35595.08
638.413	35553.5
638.767	35381.08
639.121	35464.46
639.474	35434.63
639.828	35394.41
640.181	35472.15
640.534	35521.64
640.888	35323.22
641.241	35320.51
641.594	35348.76
641.947	35451.58
642.301	35439.15
642.654	35450.68
643.007	35313.05
643.36	35382.88
643.713	35403.9
644.066	35453.16
644.419	35165.94
644.771	35106.05
645.124	34684.14
645.477	34624.03
645.83	34460.65
646.182	34320.99
646.535	34219.3
646.888	34367.54
647.24	34258.62
647.593	34482.12
647.945	34368.9
648.298	34182.46
648.65	34094.33
649.002	34164.38
649.355	34275.12
649.707	34147.89
650.059	34281.44
650.411	34780.87
650.763	34676.91
651.115	35138.82
651.467	34939.51
651.819	35064.02
652.171	35097.02
652.523	34999.84
652.875	34810.69
653.227	34801.43
653.578	35023.34
653.93	34901.99
654.282	34864.48
654.633	34766.63
654.985	34799.17
655.337	34802.11
655.688	34792.84
656.039	34831.49
656.391	34561.44
656.742	34675.11
657.094	34734.54
657.445	34779.96
657.796	34718.72
658.147	34678.49
658.498	34638.04
658.849	34737.25
659.2	34689.79
659.551	34642.11
659.902	34767.76
660.253	34670.13
660.604	34674.2
660.955	34463.81
661.306	34657.7
661.656	34660.87
662.007	34601.89
662.358	34527.54
662.708	34470.36
663.059	34597.14
663.409	34462.91
663.76	34541.32
664.11	34647.54
664.461	34560.31
664.811	34612.73
665.161	34580.19
665.511	34503.36
665.862	34560.53
666.212	34563.24
666.562	34588.1
666.912	34624.26
667.262	34556.46
667.612	34501.55
667.962	34639.85
668.312	34503.58
668.662	34641.21
669.011	34554.88
669.361	34498.84
669.711	34357.83
670.06	34333.19
670.41	34313.53
670.76	34318.05
671.109	34457.03
671.459	34379.75
671.808	34182.46
672.157	34463.59
672.507	34224.27
672.856	34272.63
673.205	34331.39
673.554	34301.33
673.904	34248.45
674.253	34514.66
674.602	34509.91
674.951	33809.37
675.3	33655.92
675.649	34136.81
675.998	34126.65
676.346	34186.3
676.695	34282.12
677.044	33921.23
677.393	34151.05
677.741	34132.29
678.09	34109.02
678.438	34009.59
678.787	34014.56
679.135	34109.7
679.484	33864.96
679.832	33905.41
680.181	33837.39
680.529	33955.12
680.877	33818.63
681.225	33741.34
681.573	33985.86
681.922	33644.17
682.27	33564.63
682.618	33629.26
682.966	33573.89
683.314	33655.02
683.661	33436.95
684.009	33287.12
684.357	33195.37
684.705	33304.75
685.053	33279.66
685.4	33326.44
685.748	33087.8
686.095	33220.91
686.443	32878.99
686.79	32897.98
687.138	33003.51
687.485	32981.14
687.832	32855.04
688.18	32892.55
688.527	32658.66
688.874	32648.04
689.221	32591.77
689.568	32587.25
689.915	32413.7
690.262	32450.3
690.609	32234.94
690.956	32174.15
691.303	32145
691.65	32126.47
691.997	32091.44
692.344	31905.46
692.69	31940.26
693.037	31928.74
693.383	31658.91
693.73	31725.35
694.077	31551.8
694.423	31517.45
694.769	31628.63
695.116	31441.07
695.462	31485.36
695.808	31401.52
696.155	31359.49
696.501	31185.71
696.847	31043.11
697.193	30875.66
697.539	30983
697.885	30698.49
698.231	30620.07
698.577	30707.53
698.923	30535.1
699.269	30521.32
699.614	30261.89
699.96	30449
700.306	30363.13
700.651	30177.37
700.997	30069.12
701.342	30023.48
701.688	30056.7
702.033	29808.11
702.379	29885.4
702.724	29816.25
703.069	29877.72
703.415	29581
703.76	29605.86
704.105	29518.86
704.45	29530.61
704.795	29257.85
705.14	29288.13
705.485	29284.96
705.83	29054.46
706.175	29073.9
706.52	28952.32
706.865	28911.19
707.209	28930.85
707.554	28947.35
707.899	28853.11
708.243	28716.17
708.588	28625.09
708.932	28544.64
709.277	28539
709.621	28533.35
709.966	28259.91
710.31	28348.27
710.654	28244.77
710.998	28237.31
711.342	28099.91
711.687	28078.89
712.031	28073.24
712.375	27965.9
712.719	28040.25
713.063	27762.74
713.407	27945.56
713.75	27808.17
714.094	27844.78
714.438	27665.8
714.782	27690.43
715.125	27495.86
715.469	27637.1
715.812	27326.37
716.156	27395.97
716.499	27278.24
716.843	27329.08
717.186	27357.56
717.53	27400.04
717.873	27245.92
718.216	27084.34
718.559	27064.23
718.902	26870.11
719.246	26959.38
719.589	26751.02
719.932	26718.7
720.275	26730.91
720.617	26659.72
720.96	26704.47
721.303	26718.25
721.646	26704.24
721.989	26509.22
722.331	26568.65
722.674	26543.12
723.016	26529.33
723.359	26570.46
723.701	26403.91
724.044	26161.2
724.386	26203.24
724.729	26253.86
725.071	26146.52
725.413	26211.37
725.755	26187.19
726.097	26094.77
726.439	25928.22
726.782	25978.84
727.124	26065.39
727.465	25935.67
727.807	25864.04
728.149	25813.19
728.491	25860.42
728.833	25832.17
729.175	25726.19
729.516	25589.47
729.858	25568.23
730.199	25596.47
730.541	25525.06
730.882	25598.96
731.224	25561.45
731.565	25392.64
731.906	25418.4
732.248	25508.57
732.589	25224.51
732.93	25150.61
733.271	25402.13
733.612	25314.45
733.953	25285.97
734.294	25143.83
734.635	25116.71
734.976	25196.03
735.317	25023.61
735.658	25043.49
735.999	24973.21
736.339	24951.07
736.68	24989.94
737.021	24885.08
737.361	24768.7
737.702	24952.2
738.042	24808.7
738.383	24684.63
738.723	24697.97
739.063	24587.01
739.404	24702.49
739.744	24576.16
740.084	24558.08
740.424	24520.34
740.764	24445.77
741.104	24666.55
741.444	24457.97
741.784	24326
742.124	24430.4
742.464	24370.97
742.804	24380.01
743.143	24330.74
743.483	24251.2
743.823	24224.76
744.162	24185.44
744.502	24161.71
744.841	24033.13
745.181	24053.46
745.52	24008.94
745.86	23982.28
746.199	23941.38
746.538	23976.63
746.877	24044.88
747.216	23954.94
747.556	23896.41
747.895	23825
748.234	23776.86
748.573	23674.49
748.911	23757.2
749.25	23684.89
749.589	23510.2
749.928	23590.65
750.267	23565.34
750.605	23502.52
750.944	23431.79
751.283	23361.5
751.621	23393.59
751.96	23395.18
752.298	23265.46
752.636	23262.3
752.975	23094.62
753.313	23182.07
753.651	23175.52
753.989	23136.43
754.327	23026.15
754.666	22961.29
755.004	22965.58
755.342	22972.81
755.679	22827.96
756.017	22723.56
756.355	22864.12
756.693	22633.39
757.031	22723.33
757.368	22571.47
757.706	22550.68
758.044	22437.01
758.381	22516.78
758.719	22446.05
759.056	22388.2
759.394	22301.42
759.731	22310.68
760.068	22247.86
760.405	22124.7
760.743	21974.87
761.08	22103.91
761.417	21909.34
761.754	21805.61
762.091	21983.69
762.428	21788.89
762.765	21697.14
763.102	21712.51
763.438	21532.4
763.775	21358.85
764.112	21512.97
764.449	21443.81
764.785	21257.15
765.122	21246.98
765.458	21089.02
765.795	21143.94
766.131	21094.45
766.467	20978.97
766.804	20855.36
767.14	20854.45
767.476	20825.98
767.812	20677.06
768.148	20817.16
768.485	20623.95
768.821	20522.26
769.157	20545.31
769.492	20427.57
769.828	20376.72
770.164	20241.36
770.5	20169.95
770.836	20202.72
771.171	20144.87
771.507	20020.58
771.842	19881.6
772.178	19974.25
772.513	19801.82
772.849	19713.01
773.184	19654.03
773.519	19696.97
773.855	19543.75
774.19	19479.12
774.525	19421.04
774.86	19388.28
775.195	19403.19
775.53	19277.54
775.865	19142.63
776.2	19070.09
776.535	18920.94
776.87	18982.86
777.205	18849.31
777.539	18802.08
777.874	18764.34
778.209	18600.27
778.543	18629.43
778.878	18571.57
779.212	18411.58
779.547	18344.24
779.881	18368.42
780.215	18155.09
780.55	18318.93
780.884	18166.84
781.218	18049.55
781.552	18217.46
781.886	18088.87
782.22	17795.32
782.554	17805.27
782.888	17722.78
783.222	17659.51
783.556	17572.96
783.889	17579.74
784.223	17411.83
784.557	17417.71
784.89	17363.24
785.224	17385.62
785.557	17321.66
785.891	17179.29
786.224	17107.66
786.558	17125.74
786.891	16940.66
787.224	16900.66
787.557	16869.47
787.891	16840.32
788.224	16858.4
788.557	16744.73
788.89	16729.81
789.223	16721.23
789.556	16469.93
789.888	16509.48
790.221	16468.8
790.554	16285.08
790.887	16290.73
791.219	16248.47
791.552	16284.4
791.884	16167.12
792.217	16219.77
792.549	16085.09
792.882	15953.79
793.214	15901.59
793.546	15925.09
793.879	15795.6
794.211	15706.34
794.543	15737.98
794.875	15646.68
795.207	15687.81
795.539	15596.74
795.871	15516.96
796.203	15447.14
796.535	15355.39
796.867	15249.4
797.198	15255.95
797.53	15208.05
797.862	15153.13
798.193	15203.75
798.525	15050.76
798.856	15015.06
799.188	14956.75
799.519	14920.6
799.85	14804.22
800.182	14784.33
800.513	14803.31
800.844	14612.58
801.175	14728.74
801.506	14737.32
801.837	14553.83
802.168	14645.35
802.499	14513.15
802.83	14475.86
803.161	14389.76
803.491	14394.51
803.822	14379.82
804.153	14348.63
804.483	14171.46
804.814	14222.08
805.145	14162.88
805.475	14133.72
805.805	14211.24
806.136	14015.76
806.466	14049.66
806.796	14046.72
807.126	13909.55
807.457	13858.48
807.787	13835.88
808.117	13882.21
808.447	13701.42
808.777	13799.95
809.107	13789.55
809.436	13637.92
809.766	13732.61
810.096	13652.38
810.426	13522.67
810.755	13505.04
811.085	13455.32
811.414	13515.66
811.744	13362.67
812.073	13402.22
812.403	13380.07
812.732	13265.95
813.061	13311.37
813.39	13224.37
813.719	13133.75
814.049	13186.63
814.378	13140.53
814.707	13182.11
815.036	13072.06
815.365	12991.16
815.693	12846.98
816.022	12906.64
816.351	12864.38
816.68	12897.15
817.008	12834.55
817.337	12775.57
817.665	12784.83
817.994	12757.49
818.322	12757.26
818.651	12639.07
818.979	12651.96
819.307	12654.89
819.636	12668.23
819.964	12628
820.292	12559.75
820.62	12592.97
820.948	12528.79
821.276	12565.63
821.604	12486.31
821.932	12552.07
822.259	12617.83
822.587	12461.45
822.915	12522.02
823.243	12464.84
823.57	12482.69
823.898	12435.46
824.225	12425.29
824.553	12381.45
824.88	12444.73
825.207	12549.59
825.535	12488.57
825.862	12502.13
826.189	12428.91
826.516	12491.28
826.843	12421.68
827.17	12518.63
827.497	12482.69
827.824	12401.34
828.151	12479.08
828.478	12383.49
828.805	12449.47
829.131	12463.71
829.458	12474.56
829.785	12284.06
830.111	12399.98
830.438	12475.46
830.764	12460.77
831.09	12393.21
831.417	12354.34
831.743	12414.67
832.069	12352.98
832.395	12287.67
832.722	12360.44
833.048	12319.31
833.374	12304.39
833.7	12261.01
834.026	12277.28
834.351	12391.85
834.677	12228.92
835.003	12308.91
835.329	12303.26
835.654	12282.93
835.98	12170.84
836.306	12196.83
836.631	12193.89
836.956	12134
837.282	12143.04
837.607	12140.78
837.932	12105.08
838.258	12098.3
838.583	12050.84
838.908	12028.7
839.233	12096.94
839.558	11973.33
839.883	12045.42
840.208	11904.18
840.533	11931.52
840.858	11927.45
841.182	11910.28
841.507	11874.8
841.832	11832.54
842.156	11881.81
842.481	11778.76
842.805	11723.84
843.13	11762.71
843.454	11732.43
843.778	11661.7
844.103	11623.96
844.427	11588.93
844.751	11641.13
845.075	11608.82
845.399	11515.26
845.723	11489.5
846.047	11439.78
846.371	11420.8
846.695	11468.48
847.019	11354.36
847.343	11353.68
847.666	11211.32
847.99	11151.88
848.313	11201.37
848.637	11073.92
848.96	11060.58
849.284	11029.85
849.607	10917.99
849.931	10944.2
850.254	10905.79
850.577	10823.08
850.9	10691.1
851.223	10732.46
851.546	10656.75
851.869	10579.92
852.192	10746.69
852.515	10555.29
852.838	10511.67
853.161	10513.71
853.483	10422.41
853.806	10426.25
854.129	10449.98
854.451	10388.29
854.774	10350.1
855.096	10257.89
855.419	10199.59
855.741	10249.76
856.063	10243.43
856.385	10140.16
856.708	10091.57
857.03	10109.42
857.352	10105.36
857.674	10059.93
857.996	9991.23
858.318	9938.58
858.64	9918.02
858.961	9959.14
859.283	9953.95
859.605	9855.87
859.926	9894.97
860.248	9854.51
860.57	9793.73
860.891	9800.96
861.212	9707.85
861.534	9754.63
861.855	9661.98
862.176	9651.36
862.498	9703.56
862.819	9689.77
863.14	9629.66
863.461	9580.17
863.782	9528.87
864.103	9530.91
864.424	9529.33
864.745	9555.09
865.065	9522.77
865.386	9442.1
865.707	9454.3
866.027	9477.8
866.348	9428.09
866.668	9429.22
866.989	9406.39
867.309	9328.65
867.63	9396.67
867.95	9362.55
868.27	9304.92
868.59	9315.32
868.91	9307.18
869.23	9228.32
869.55	9259.05
869.87	9315.32
870.19	9232.84
870.51	9257.69
870.83	9280.74
871.15	9110.58
871.469	9197.81
871.789	9237.36
872.109	9165.95
872.428	9167.3
872.748	9137.02
873.067	9091.15
873.386	9145.16
873.706	9124.59
874.025	8995.1
874.344	9026.29
874.663	9029.45
874.982	9012.73
875.301	9035.1
875.62	8927.31
875.939	8951.04
876.258	8978.61
876.577	8873.75
876.896	8888.89
877.214	8906.07
877.533	8918.27
877.852	8937.02
878.17	8902.22
878.489	8856.58
878.807	8867.65
879.125	8791.94
879.444	8864.71
879.762	8851.38
880.08	8824.03
880.398	8812.96
880.716	8768.89
881.034	8695.22
881.352	8648.9
881.67	8662.68
881.988	8674.21
882.306	8649.57
882.624	8634.43
882.941	8593.53
883.259	8599.63
883.577	8631.5
883.894	8501.33
884.212	8517.15
884.529	8480.54
884.846	8534.78
885.164	8466.98
885.481	8433.54
885.798	8508.56
886.115	8433.76
886.432	8396.7
886.75	8360.09
887.067	8410.26
887.383	8335.01
887.7	8363.03
888.017	8319.41
888.334	8308.57
888.651	8321.67
888.967	8272.64
889.284	8190.38
889.6	8205.74
889.917	8152.86
890.233	8156.03
890.55	8145.63
890.866	8197.38
891.182	8104.05
891.498	8058.63
891.815	8010.27
892.131	8022.47
892.447	7982.7
892.763	7983.15
893.079	7944.51
893.395	7919.65
893.71	7908.35
894.026	7909.48
894.342	7863.61
894.657	7780.9
894.973	7753.55
895.289	7759.2
895.604	7743.84
895.92	7750.62
896.235	7695.48
896.55	7691.41
896.865	7673.56
897.181	7601.69
897.496	7645.99
897.811	7578.87
898.126	7617.96
898.441	7491.64
898.756	7481.92
899.071	7399.89
899.386	7429.04
899.7	7415.03
900.015	7367.8
900.33	7335.71
900.644	7312.66
900.959	7331.64
901.273	7294.36
901.588	7252.78
901.902	7223.85
902.216	7184.08
902.531	7192.66
902.845	7131.42
903.159	7092.33
903.473	7098.2
903.787	7119.22
904.101	7003.06
904.415	6978.66
904.729	6972.78
905.042	6934.14
905.356	6920.81
905.67	6908.15
905.984	6936.17
906.297	6904.99
906.611	6840.58
906.924	6847.81
907.237	6820.47
907.551	6771.21
907.864	6793.13
908.177	6717.87
908.491	6720.59
908.804	6694.37
909.117	6624.09
909.43	6650.31
909.743	6613.92
910.056	6625.9
910.368	6587.48
910.681	6545.9
910.994	6462.97
911.307	6492.34
911.619	6412.57
911.932	6457.54
912.244	6411.67
912.557	6421.16
912.869	6323.31
913.181	6304.55
913.494	6322.4
913.806	6236.53
914.118	6229.53
914.43	6213.03
914.742	6174.39
915.054	6161.28
915.366	6118.79
915.678	6144.33
915.99	6020.04
916.302	6080.6
916.613	6038.34
916.925	6016.65
917.236	6034.28
917.548	5924.67
917.859	5983.43
918.171	5913.38
918.482	5901.85
918.794	5846.71
919.105	5844.22
919.416	5835.41
919.727	5773.94
920.038	5761.29
920.349	5754.28
920.66	5706.6
920.971	5729.2
921.282	5706.15
921.593	5658.47
921.903	5599.03
922.214	5602.88
922.525	5588.41
922.835	5576.21
923.146	5541.41
923.456	5539.15
923.767	5510.22
924.077	5523.78
924.387	5471.81
924.697	5368.31
925.008	5397.68
925.318	5342.09
925.628	5357.46
925.938	5350
926.248	5311.58
926.558	5311.13
926.867	5286.5
927.177	5227.74
927.487	5202.66
927.796	5199.95
928.106	5164.92
928.416	5173.96
928.725	5159.27
929.034	5090.35
929.344	5177.35
929.653	5092.15
929.962	5036.34
930.271	4992.95
930.581	4975.77
930.89	4943.68
931.199	4922.44
931.508	4924.7
931.817	4899.39
932.125	4912.5
932.434	4922.89
932.743	4814.65
933.051	4848.09
933.36	4792.5
933.669	4740.98
933.977	4735.55
934.286	4723.12
934.594	4716.57
934.902	4677.02
935.21	4719.73
935.519	4678.38
935.827	4686.06
936.135	4592.73
936.443	4594.99
936.751	4533.98
937.059	4600.64
937.367	4563.81
937.674	4540.98
937.982	4534.2
938.29	4472.74
938.597	4446.52
938.905	4444.26
939.213	4432.06
939.52	4397.03
939.827	4442.68
940.135	4390.7
940.442	4326.3
940.749	4354.77
941.056	4344.15
941.363	4296.92
941.67	4295.79
941.977	4236.13
942.284	4252.4
942.591	4209.24
942.898	4219.18
943.205	4177.38
943.511	4168.79
943.818	4178.73
944.125	4144.16
944.431	4116.36
944.738	4136.93
945.044	4096.02
945.35	4066.42
945.657	4079.98
945.963	4051.96
946.269	4015.12
946.575	4016.02
946.881	3983.48
947.187	3976.25
947.493	3975.8
947.799	3969.7
948.105	3921.79
948.41	3924.73
948.716	3905.97
949.022	3867.33
949.327	3854.22
949.633	3810.83
949.938	3819.19
950.244	3817.61
950.549	3784.17
950.854	3771.96
951.16	3765.86
951.465	3780.55
951.77	3738.97
952.075	3714.11
952.38	3694.45
952.685	3696.03
952.99	3654
953.294	3683.83
953.599	3631.4
953.904	3631.18
954.209	3564.28
954.513	3599.31
954.818	3562.7
955.122	3576.49
955.426	3523.16
955.731	3497.62
956.035	3511.86
956.339	3496.26
956.643	3482.71
956.948	3478.41
957.252	3433.67
957.556	3451.52
957.86	3429.37
958.163	3403.84
958.467	3409.26
958.771	3428.47
959.075	3379.66
959.378	3365.42
959.682	3356.38
959.985	3339.88
960.289	3331.97
960.592	3304.18
960.896	3297.85
961.199	3284.97
961.502	3258.98
961.805	3259.21
962.108	3232.77
962.411	3205.42
962.714	3195.48
963.017	3173.56
963.32	3177.4
963.623	3156.16
963.926	3147.8
964.228	3127.69
964.531	3135.6
964.833	3124.52
965.136	3084.98
965.438	3063.51
965.741	3056.5
966.043	3013.34
966.345	3028.93
966.648	3018.31
966.95	3027.8
967.252	2984.19
967.554	3011.98
967.856	2969.95
968.158	2931.53
968.46	2929.95
968.761	2891.99
969.063	2933.11
969.365	2903.06
969.666	2899.9
969.968	2865.09
970.269	2845.21
970.571	2845.21
970.872	2839.78
971.174	2821.03
971.475	2859.9
971.776	2838.65
972.077	2786.68
972.378	2836.39
972.679	2784.87
972.98	2750.97
973.281	2737.87
973.582	2713.23
973.883	2706.91
974.183	2744.42
974.484	2735.38
974.785	2673.23
975.085	2687.25
975.386	2689.51
975.686	2644.31
975.986	2676.85
976.287	2643.41
976.587	2596.85
976.887	2617.87
977.187	2631.88
977.487	2579
977.787	2599.11
978.087	2575.61
978.387	2560.24
978.687	2541.03
978.987	2524.31
979.286	2536.06
979.586	2498.1
979.885	2510.3
980.185	2486.57
980.484	2489.28
980.784	2463.97
981.083	2488.15
981.382	2454.03
981.682	2429.63
981.981	2416.07
982.28	2427.14
982.579	2436.18
982.878	2408.61
983.177	2410.42
983.475	2407.03
983.774	2330.64
984.073	2353.7
984.372	2317.54
984.67	2335.16
984.969	2326.58
985.267	2319.35
985.566	2333.81
985.864	2303.98
986.162	2295.17
986.461	2256.75
986.759	2248.84
987.057	2246.13
987.355	2237.99
987.653	2230.31
987.951	2227.37
988.249	2178.56
988.547	2192.8
988.844	2203.64
989.142	2222.63
989.44	2180.59
989.737	2157.77
990.035	2139.46
990.332	2173.36
990.63	2114.61
990.927	2108.5
991.224	2110.31
991.521	2101.27
991.819	2102.18
992.116	2089.07
992.413	2089.97
992.71	2063.99
993.006	2027.83
993.303	2063.76
993.6	2028.28
993.897	2034.61
994.193	2014.5
994.49	2006.59
994.787	2007.49
995.083	1975.17
995.379	1995.29
995.676	1972.24
995.972	1969.75
996.268	1946.47
996.565	1950.77
996.861	1934.05
997.157	1942.41
997.453	1936.08
997.749	1937.43
998.044	1906.7
998.34	1926.81
998.636	1896.53
998.932	1847.72
999.227	1869.64
999.523	1873.26
999.818	1839.13
1000.114	1810.66
1000.409	1808.4
1000.704	1844.1
1001	1787.61
1001.295	1809.75
1001.59	1783.09
1001.885	1774.95
1002.18	1768.63
1002.475	1755.52
1002.77	1774.05
1003.065	1754.84
1003.359	1740.15
1003.654	1736.99
1003.949	1698.8
1004.243	1703.32
1004.538	1701.73
1004.832	1721.4
1005.127	1690.21
1005.421	1678.01
1005.715	1668.97
1006.009	1697.89
1006.304	1651.57
1006.598	1637.33
1006.892	1615.64
1007.186	1623.09
1007.48	1601.4
1007.773	1612.25
1008.067	1611.34
1008.361	1587.84
1008.655	1558.46
1008.948	1564.79
1009.242	1554.39
1009.535	1523.89
1009.829	1517.33
1010.122	1537.67
1010.415	1513.72
1010.708	1494.06
1011.001	1501.51
1011.295	1506.94
1011.588	1498.8
1011.881	1495.41
1012.173	1495.64
1012.466	1490.67
1012.759	1485.92
1013.052	1478.01
1013.344	1437.79
1013.637	1440.5
1013.93	1412.25
1014.222	1438.47
1014.514	1420.61
1014.807	1427.84
1015.099	1379.48
1015.391	1392.59
1015.683	1410.22
1015.976	1365.7
1016.268	1369.99
1016.56	1332.03
1016.851	1351.24
1017.143	1345.36
1017.435	1309.88
1017.727	1345.59
1018.018	1338.58
1018.31	1297.45
1018.602	1315.76
1018.893	1291.8
1019.185	1274.63
1019.476	1275.08
1019.767	1272.37
1020.058	1266.27
1020.35	1284.34
1020.641	1254.97
1020.932	1222.2
1021.223	1245.02
1021.514	1247.28
1021.804	1227.62
1022.095	1207.74
1022.386	1209.32
1022.677	1209.54
1022.967	1177
1023.258	1187.85
1023.548	1184.46
1023.839	1167.06
1024.129	1162.77
1024.419	1148.98
1024.709	1117.12
1025	1164.8
1025.29	1112.6
1025.58	1112.6
1025.87	1113.28
1026.16	1106.04
1026.449	1101.3
1026.739	1093.62
1027.029	1067.4
1027.319	1088.19
1027.608	1090.23
1027.898	1064.92
1028.187	1047.74
1028.477	1052.94
1028.766	1058.59
1029.055	1032.37
1029.344	1031.92
1029.634	1033.96
1029.923	1050.23
1030.212	1004.8
1030.501	989.21
1030.79	1008.19
1031.078	997.35
1031.367	994.18
1031.656	968.42
1031.945	976.78
1032.233	997.12
1032.522	977.46
1032.81	966.39
1033.099	944.47
1033.387	959.83
1033.675	951.92
1033.963	934.07
1034.251	938.14
1034.54	931.81
1034.828	936.78
1035.116	915.31
1035.403	914.41
1035.691	879.38
1035.979	889.78
1036.267	899.72
1036.554	880.51
1036.842	884.58
1037.129	863.79
1037.417	857.24
1037.704	880.06
1037.992	890.46
1038.279	897.01
1038.566	871.7
1038.853	871.7
1039.14	871.7
