Data from hue_40_FLMS001491_44.txt Node
Date: Mon Feb 06 15:07:57 GMT 2017
User: dcchb
Spectrometer: FLMS00149
Trigger mode: 0
Integration Time (sec): 2.000000E-2
Scans to average: 10
Electric dark correction enabled: true
Nonlinearity correction enabled: false
Boxcar width: 0
XAxis mode: Wavelengths
Number of Pixels in Spectrum: 2048
>>>>>Begin Spectral Data<<<<<
341.393	-27.94
341.776	-27.94
342.16	-27.94
342.543	-60.03
342.927	-72
343.31	-59.8
343.693	-76.07
344.077	-76.75
344.46	-49.63
344.843	-77.88
345.226	-51.21
345.61	-19.8
345.993	-18.9
346.376	-12.8
346.759	22.46
347.142	31.04
347.525	27.88
347.908	59.97
348.291	101.33
348.674	100.42
349.057	99.74
349.44	118.27
349.823	121.21
350.206	166.18
350.588	209.12
350.971	217.48
351.354	229.01
351.737	243.02
352.119	242.11
352.502	255.22
352.884	277.37
353.267	280.76
353.65	280.08
354.032	308.33
354.414	323.47
354.797	324.6
355.179	312.17
355.562	312.17
355.944	311.04
356.326	340.41
356.709	328.44
357.091	328.44
357.473	325.05
357.855	366.85
358.238	346.74
358.62	341.32
359.002	323.69
359.384	359.4
359.766	361.66
360.148	332.28
360.53	330.25
360.912	337.7
361.294	344.03
361.676	351.49
362.057	353.52
362.439	325.73
362.821	332.51
363.203	337.03
363.584	338.83
363.966	328.21
364.348	327.76
364.729	330.7
365.111	308.33
365.493	319.85
365.874	328.21
366.256	295.67
366.637	305.84
367.019	334.99
367.4	332.51
367.781	306.52
368.163	311.04
368.544	313.75
368.925	330.7
369.306	321.88
369.688	301.09
370.069	312.39
370.45	325.5
370.831	299.51
371.212	320.98
371.593	306.74
371.974	311.94
372.355	341.54
372.736	308.55
373.117	306.07
373.498	332.28
373.879	296.8
374.26	296.8
374.641	319.62
375.021	338.15
375.402	325.5
375.783	326.63
376.163	330.25
376.544	334.09
376.925	307.65
377.305	318.49
377.686	322.79
378.066	325.05
378.447	365.05
378.827	339.06
379.208	308.1
379.588	331.38
379.968	332.05
380.349	343.8
380.729	326.18
381.109	333.64
381.489	351.71
381.87	324.82
382.25	339.51
382.63	351.04
383.01	334.99
383.39	337.03
383.77	337.93
384.15	340.19
384.53	326.18
384.91	323.24
385.29	335.9
385.67	342.22
386.049	372.5
386.429	350.58
386.809	345.84
387.189	350.36
387.568	362.79
387.948	356.01
388.328	373.18
388.707	361.21
389.087	338.83
389.466	353.75
389.846	337.48
390.225	364.82
390.605	384.71
390.984	346.52
391.363	374.99
391.743	384.03
392.122	382.9
392.501	370.92
392.881	377.93
393.26	370.92
393.639	382.67
394.018	370.47
394.397	389.23
394.776	388.55
395.155	375.22
395.534	377.93
395.913	377.48
396.292	394.42
396.671	385.39
397.05	393.97
397.429	380.64
397.808	385.61
398.186	383.58
398.565	403.92
398.944	382.67
399.323	392.84
399.701	391.26
400.08	413.41
400.458	411.15
400.837	378.83
401.215	413.41
401.594	394.42
401.972	402.79
402.351	407.08
402.729	389.91
403.107	378.83
403.486	405.72
403.864	411.37
404.242	409.79
404.62	387.65
404.999	414.76
405.377	431.03
405.755	425.61
406.133	418.83
406.511	405.95
406.889	417.47
407.267	426.97
407.645	411.6
408.023	416.34
408.401	426.29
408.779	426.51
409.156	452.73
409.534	447.08
409.912	461.99
410.29	442.56
410.667	433.52
411.045	456.12
411.422	447.53
411.8	457.47
412.178	462.67
412.555	450.02
412.933	456.12
413.31	480.75
413.687	488.21
414.065	467.42
414.442	464.25
414.819	486.63
415.197	490.92
415.574	467.42
415.951	497.02
416.328	479.85
416.705	471.26
417.082	496.34
417.46	506.96
417.837	491.37
418.214	490.24
418.591	532.27
418.967	518.94
419.344	501.31
419.721	483.69
420.098	504.03
420.475	492.5
420.852	525.95
421.228	531.14
421.605	522.1
421.982	532.73
422.358	518.94
422.735	512.84
423.111	530.92
423.488	545.16
423.864	540.18
424.241	533.86
424.617	551.26
424.994	538.15
425.37	549
425.746	560.52
426.123	535.44
426.499	559.39
426.875	562.33
427.251	575.44
427.627	563.46
428.003	589.22
428.379	593.97
428.756	613.63
429.132	603.68
429.507	586.28
429.883	596.45
430.259	594.87
430.635	612.05
431.011	616.79
431.387	605.72
431.763	625.15
432.138	645.72
432.514	620.41
432.89	645.27
433.265	645.27
433.641	648.43
434.016	652.95
434.392	690.24
434.767	666.28
435.143	675.32
435.518	676.45
435.894	684.36
436.269	661.54
436.644	682.55
437.02	698.37
437.395	687.52
437.77	726.85
438.145	723.68
438.52	695.89
438.895	706.51
439.271	687.98
439.646	740.86
440.021	725.49
440.395	730.46
440.77	736.56
441.145	752.83
441.52	769.78
441.895	761.19
442.27	742.66
442.645	779.95
443.019	771.82
443.394	790.8
443.769	778.6
444.143	777.47
444.518	786.28
444.892	756
445.267	781.08
445.641	801.65
446.016	775.66
446.39	796.9
446.764	786.73
447.139	802.78
447.513	817.69
447.887	800.29
448.262	820.4
448.636	807.3
449.01	832.83
449.384	827.86
449.758	848.42
450.132	845.94
450.506	840.97
450.88	854.98
451.254	846.39
451.628	860.4
452.002	885.94
452.376	877.12
452.75	877.8
453.123	881.42
453.497	937.01
453.871	905.37
454.244	919.16
454.618	912.6
454.992	947.86
455.365	927.07
455.739	946.5
456.112	955.09
456.486	969.55
456.859	976.78
457.232	988.99
457.606	991.02
457.979	986.73
458.352	1015.2
458.725	1031.47
459.099	1027.63
459.472	1065.82
459.845	1066.27
460.218	1070.11
460.591	1069.89
460.964	1088.64
461.337	1109.66
461.71	1103.11
462.083	1118.25
462.456	1162.31
462.829	1128.64
463.201	1167.06
463.574	1171.81
463.947	1175.65
464.32	1213.61
464.692	1201.86
465.065	1224.91
465.438	1259.26
465.81	1257.68
466.183	1270.56
466.555	1292.25
466.928	1323.21
467.3	1306.04
467.672	1322.08
468.045	1342.87
468.417	1358.69
468.789	1365.92
469.161	1380.16
469.534	1461.52
469.906	1466.03
470.278	1484.11
470.65	1474.62
471.022	1487.73
471.394	1579.25
471.766	1548.52
472.138	1617.22
472.51	1647.05
472.882	1684.79
473.253	1671.91
473.625	1704.9
473.997	1749.42
474.369	1784.44
474.74	1869.41
475.112	1876.65
475.484	1927.94
475.855	1979.24
476.227	1993.93
476.598	2030.54
476.97	2063.76
477.341	2091.56
477.713	2196.41
478.084	2211.78
478.455	2269.86
478.827	2302.4
479.198	2440.7
479.569	2436.4
479.94	2496.06
480.311	2539.45
480.682	2649.51
481.053	2722.95
481.424	2797.3
481.795	2865.55
482.166	2950.97
482.537	2988.48
482.908	3088.37
483.279	3142.83
483.65	3228.7
484.021	3323.84
484.391	3398.64
484.762	3448.13
485.133	3572.42
485.503	3629.37
485.874	3754.56
486.244	3809.48
486.615	3942.35
486.985	4009.7
487.356	4140.77
487.726	4228
488.097	4341.44
488.467	4466.63
488.837	4529.46
489.207	4616.91
489.578	4761.77
489.948	4851.03
490.318	4935.77
490.688	5050.8
491.058	5171.02
491.428	5253.96
491.798	5367.4
492.168	5509.54
492.538	5589.54
492.908	5696.88
493.278	5845.35
493.648	5883.55
494.017	6011.23
494.387	6133.03
494.757	6214.38
495.126	6341.39
495.496	6430.2
495.866	6513.81
496.235	6670.64
496.605	6691.89
496.974	6835.61
497.344	6919.45
497.713	7037.19
498.082	7113.34
498.452	7258.88
498.821	7307.24
499.19	7400.57
499.559	7623.84
499.928	7649.83
500.298	7732.76
500.667	7859.99
501.036	7874.68
501.405	8006.2
501.774	8008.24
502.143	8081
502.512	8302.01
502.88	8387.21
503.249	8324.61
503.618	8448.45
503.987	8531.61
504.356	8660.42
504.724	8711.72
505.093	8794.88
505.462	8931.6
505.83	8979.74
506.199	9046.85
506.567	9225.6
506.936	9237.13
507.304	9366.84
507.672	9437.35
508.041	9506.28
508.409	9631.92
508.777	9720.73
509.145	9734.29
509.514	9767.96
509.882	9901.29
510.25	9878.02
510.618	10128.86
510.986	10065.13
511.354	10158.91
511.722	10248.85
512.09	10345.35
512.458	10364.56
512.826	10517.55
513.193	10492.69
513.561	10596.42
513.929	10710.76
514.297	10830.76
514.664	10890.42
515.032	10862.85
515.4	11004.99
515.767	11087.48
516.135	11206.8
516.502	11096.06
516.869	11324.53
517.237	11328.83
517.604	11361.59
517.972	11458.99
518.339	11514.81
518.706	11553.91
519.073	11652.89
519.44	11774.01
519.808	11891.52
520.175	11890.85
520.542	11995.7
520.909	12052.42
521.276	12022.37
521.643	12209.48
522.009	12287.9
522.376	12343.71
522.743	12498.06
523.11	12572.18
523.477	12630.04
523.843	12770.82
524.21	12846.75
524.577	12914.32
524.943	12944.15
525.31	13051.49
525.676	13209
526.043	13275.89
526.409	13315.67
526.776	13453.97
527.142	13526.96
527.508	13566.96
527.874	13674.3
528.241	13761.76
528.607	13723.34
528.973	13957.68
529.339	13911.13
529.705	14017.8
530.071	14165.59
530.437	14104.12
530.803	14307.28
531.169	14339.14
531.535	14361.06
531.901	14491.68
532.267	14599.25
532.632	14635.63
532.998	14617.78
533.364	14848.06
533.73	14719.25
534.095	14945.68
534.461	15001.95
534.826	15027.49
535.192	15107.71
535.557	15179.8
535.923	15261.83
536.288	15302.06
536.653	15403.07
537.019	15310.42
537.384	15444.42
537.749	15529.85
538.114	15580.24
538.479	15653.01
538.845	15672.67
539.21	15657.98
539.575	15698.43
539.94	15785.43
540.305	15923.96
540.67	15982.26
541.034	15993.34
541.399	16179.32
541.764	16139.32
542.129	16127.8
542.494	16210.05
542.858	16287.11
543.223	16285.98
543.587	16374.57
543.952	16530.95
544.316	16563.27
544.681	16530.72
545.045	16668.8
545.41	16729.14
545.774	16802.58
546.138	16791.96
546.503	16904.27
546.867	16922.13
547.231	17089.8
547.595	17084.61
547.959	17127.54
548.324	17214.32
548.688	17261.55
549.052	17299.06
549.416	17330.25
549.779	17345.39
550.143	17442.56
550.507	17546.29
550.871	17562.11
551.235	17665.16
551.599	17725.72
551.962	17718.26
552.326	17828.54
552.689	17954.64
553.053	17964.81
553.417	17943.12
553.78	18139.04
554.143	18139.49
554.507	18181.98
554.87	18253.84
555.234	18393.73
555.597	18326.38
555.96	18406.15
556.323	18434.63
556.686	18441.41
557.05	18741.51
557.413	18763.66
557.776	18718.01
558.139	18881.62
558.502	18933.82
558.865	18868.06
559.228	19169.52
559.59	19302.63
559.953	19182.63
560.316	19393.7
560.679	19378.33
561.041	19470.99
561.404	19568.16
561.767	19656.52
562.129	19652.68
562.492	19835.27
562.854	19772.67
563.217	19860.58
563.579	19946.9
563.941	20059.22
564.304	20124.53
564.666	20205.88
565.028	20236.39
565.39	20350.28
565.753	20324.97
566.115	20468.25
566.477	20491.52
566.839	20523.39
567.201	20698.3
567.563	20721.8
567.925	20839.31
568.287	20920.66
568.648	21080.89
569.01	21204.95
569.372	21301.22
569.734	21359.3
570.095	21393.87
570.457	21546.64
570.819	21439.52
571.18	21540.76
571.542	21674.54
571.903	21801.09
572.265	21900.98
572.626	22035.66
572.987	21985.95
573.349	22001.09
573.71	22246.96
574.071	22303.68
574.432	22392.94
574.794	22599.26
575.155	22625.48
575.516	22549.32
575.877	22776.44
576.238	22832.93
576.599	23027.5
576.96	23093.26
577.32	23104.11
577.681	23256.87
578.042	23433.14
578.403	23518.56
578.763	23654.83
579.124	23749.97
579.485	23937.99
579.845	24128.26
580.206	24140.47
580.566	24209.17
580.927	24395.83
581.287	24679.44
581.648	24655.48
582.008	24902.93
582.368	24977.06
582.728	25199.2
583.089	25332.3
583.449	25458.4
583.809	25683.48
584.169	25697.04
584.529	25936.13
584.889	26259.73
585.249	26289.11
585.609	26359.39
585.969	26684.58
586.329	26762.77
586.688	26918.02
587.048	27068.3
587.408	27291.57
587.768	27506.03
588.127	27609.3
588.487	27715.06
588.846	28162.06
589.206	28116.18
589.565	28330.87
589.925	28913.22
590.284	28818.08
590.643	28982.83
591.003	29199.77
591.362	29516.6
591.721	29631.62
592.08	29741.22
592.44	29996.58
592.799	30259.63
593.158	30338.72
593.517	30595.66
593.876	30779.39
594.235	30955.65
594.593	31184.35
594.952	31383.67
595.311	31459.6
595.67	31722.19
596.029	32091.44
596.387	32113.14
596.746	32470.87
597.104	32420.25
597.463	32616.4
597.822	32780.24
598.18	32887.36
598.538	32962.61
598.897	33427.91
599.255	33242.83
599.613	33912.64
599.972	33850.49
600.33	34116.7
600.688	33998.06
601.046	34354.89
601.404	34641.66
601.762	34610.25
602.12	34948.32
602.478	34959.84
602.836	35158.48
603.194	35162.55
603.552	35436.44
603.91	35431.47
604.268	35729.31
604.625	35645.93
604.983	36043.66
605.341	35904.9
605.698	36182.86
606.056	36432.35
606.413	36495.4
606.771	36665.79
607.128	36844.54
607.485	36685.22
607.843	36888.15
608.2	37114.82
608.557	37377.63
608.914	37337.86
609.272	37576.72
609.629	37670.28
609.986	37864.85
610.343	37830.05
610.7	38343.03
611.057	38260.77
611.414	38271.39
611.771	38437.49
612.127	38613.76
612.484	38606.75
612.841	38869.35
613.198	38836.8
613.554	38855.56
613.911	39202.22
614.267	39307.75
614.624	39265.72
614.98	39421.42
615.337	39629.33
615.693	39489.67
616.05	39575.99
616.406	39897.79
616.762	39693.05
617.118	39871.58
617.475	39935.53
617.831	40004
618.187	40245.13
618.543	40251
618.899	40621.84
619.255	40502.3
619.611	40455.07
619.967	40658
620.323	40764.21
620.678	40742.74
621.034	40655.51
621.39	40711.1
621.746	40764.44
622.101	41223.86
622.457	40934.38
622.812	41013.24
623.168	41159.45
623.523	41159.91
623.879	41321.03
624.234	41095.5
624.589	41391.99
624.945	41337.75
625.3	41288.72
625.655	41599.89
626.01	41338.43
626.365	41565.09
626.72	41470.18
627.075	41387.92
627.43	41540.01
627.785	41516.28
628.14	41658.42
628.495	41577.07
628.85	41578.43
629.205	41534.59
629.559	41779.33
629.914	41728.48
630.269	41742.26
630.623	41580.23
630.978	41456.4
631.332	41813.67
631.687	41776.16
632.041	41614.58
632.396	41817.52
632.75	41597.64
633.104	41625.88
633.459	41601.25
633.813	41460.92
634.167	41548.14
634.521	41472.44
634.875	41634.02
635.229	41521.03
635.583	41426.34
635.937	41396.28
636.291	41467.92
636.645	41445.1
636.999	41266.8
637.352	41542.27
637.706	41283.52
638.06	41534.59
638.413	41349.28
638.767	41230.64
639.121	41366.23
639.474	41223.18
639.828	41264.99
640.181	41358.32
640.534	41210.75
640.888	41168.27
641.241	41002.62
641.594	41078.1
641.947	41349.96
642.301	41072.9
642.654	41217.53
643.007	41032.68
643.36	41170.53
643.713	40921.49
644.066	41147.25
644.419	40890.08
644.771	40747.71
645.124	40323.32
645.477	40283.09
645.83	40041.29
646.182	39932.59
646.535	39784.35
646.888	39917
647.24	39715.65
647.593	39850.79
647.945	39798.59
648.298	39631.81
648.65	39485.15
649.002	39392.5
649.355	39697.35
649.707	39630.68
650.059	39778.7
650.411	40208.07
650.763	40308.18
651.115	40483.09
651.467	40415.75
651.819	40376.2
652.171	40260.04
652.523	40255.98
652.875	40229.54
653.227	40074.96
653.578	40377.33
653.93	40167.39
654.282	40044
654.633	40086.71
654.985	40092.14
655.337	40174.85
655.688	40164.45
656.039	40318.35
656.391	39843.56
656.742	39918.81
657.094	40018.47
657.445	40105.7
657.796	40053.04
658.147	40065.02
658.498	39895.98
658.849	40050.33
659.2	39898.02
659.551	39801.75
659.902	40071.12
660.253	39896.66
660.604	39899.83
660.955	39785.03
661.306	39982.54
661.656	39875.42
662.007	39906.15
662.358	39746.38
662.708	39867.74
663.059	39901.18
663.409	39571.47
663.76	39986.6
664.11	39881.07
664.461	39853.27
664.811	39942.31
665.161	39724.24
665.511	39728.31
665.862	39737.8
666.212	39808.3
666.562	39905.02
666.912	39692.83
667.262	39750.23
667.612	39792.03
667.962	39701.19
668.312	39599.5
668.662	39903.67
669.011	39773.05
669.361	39651.47
669.711	39676.33
670.06	39498.48
670.41	39454.41
670.76	39425.04
671.109	39557.46
671.459	39500.97
671.808	39463.68
672.157	39593.85
672.507	39347.75
672.856	39329.22
673.205	39421.65
673.554	39424.36
673.904	39287.19
674.253	39570.57
674.602	39394.53
674.951	38853.07
675.3	38809.46
675.649	39291.48
675.998	39236.34
676.346	39262.33
676.695	39347.75
677.044	39009.68
677.393	39164.7
677.741	39098.49
678.09	39177.81
678.438	39025.5
678.787	39112.95
679.135	39159.73
679.484	38870.25
679.832	38977.36
680.181	38792.74
680.529	39008.55
680.877	38737.15
681.225	38721.1
681.573	39038.61
681.922	38659.63
682.27	38625.06
682.618	38585.06
682.966	38438.85
683.314	38660.76
683.661	38466.42
684.009	38350.26
684.357	38337.38
684.705	38199.98
685.053	38329.02
685.4	38049.48
685.748	38044.28
686.095	38075.92
686.443	37780.79
686.79	37781.24
687.138	37874.57
687.485	37857.62
687.832	37705.76
688.18	37892.87
688.527	37508.93
688.874	37611.98
689.221	37551.87
689.568	37368.82
689.915	37283.4
690.262	37178.54
690.609	37152.78
690.956	36999.79
691.303	36966.12
691.65	36816.74
691.997	36799.34
692.344	36675.96
692.69	36680.7
693.037	36701.49
693.383	36233.93
693.73	36442.97
694.077	36112.36
694.423	36174.05
694.769	36125.91
695.116	35999.59
695.462	35990.55
695.808	35860.61
696.155	36068.51
696.501	35714.63
696.847	35817.22
697.193	35478.93
697.539	35557.57
697.885	35274.64
698.231	35243
698.577	35213.4
698.923	35214.98
699.269	35033.97
699.614	34784.48
699.96	34724.6
700.306	34766.18
700.651	34643.92
700.997	34534.32
701.342	34560.08
701.688	34441.44
702.033	34248
702.379	34351.95
702.724	34273.31
703.069	34121.22
703.415	33986.54
703.76	33855.24
704.105	33815.47
704.45	33792.19
704.795	33672.19
705.14	33608.92
705.485	33512.65
705.83	33253.9
706.175	33353.56
706.52	33375.48
706.865	33177.74
707.209	33173
707.554	33124.19
707.899	33137.97
708.243	32830.41
708.588	32925.32
708.932	32792.89
709.277	32673.12
709.621	32742.95
709.966	32534.6
710.31	32556.06
710.654	32281.5
710.998	32376.86
711.342	32316.52
711.687	32264.32
712.031	32062.52
712.375	31888.06
712.719	32180.93
713.063	32047.83
713.407	32102.97
713.75	31789.98
714.094	31859.36
714.438	31680.83
714.782	31645.13
715.125	31608.29
715.469	31413.5
715.812	31456.88
716.156	31234.07
716.499	31359.94
716.843	31234.97
717.186	31232.94
717.53	31365.36
717.873	31233.61
718.216	31103.9
718.559	30974.64
718.902	30961.53
719.246	30942.1
719.589	30804.47
719.932	30641.09
720.275	30628.21
720.617	30616.45
720.96	30618.71
721.303	30538.49
721.646	30545.27
721.989	30396.57
722.331	30473.18
722.674	30361.09
723.016	30402.22
723.359	30267.99
723.701	30233.87
724.044	30170.82
724.386	29978.96
724.729	30075.45
725.071	30016.02
725.413	29935.12
725.755	30068.22
726.097	29911.39
726.439	29745.29
726.782	29673.88
727.124	29991.84
727.465	29605.18
727.807	29617.16
728.149	29553.21
728.491	29560.66
728.833	29601.79
729.175	29330.61
729.516	29473.89
729.858	29505.07
730.199	29439.54
730.541	29240.22
730.882	29341.23
731.224	29368.13
731.565	29075.93
731.906	29181.46
732.248	29139.43
732.589	28967.68
732.93	28992.32
733.271	28823.73
733.612	28940.57
733.953	28827.35
734.294	28791.87
734.635	28636.17
734.976	28748.26
735.317	28666.68
735.658	28654.47
735.999	28620.58
736.339	28590.52
736.68	28700.12
737.021	28342.39
737.361	28335.61
737.702	28485.21
738.042	28346.91
738.383	28208.38
738.723	28334.71
739.063	28269.4
739.404	28343.52
739.744	28134.03
740.084	28086.35
740.424	28093.13
740.764	28123.87
741.104	28106.92
741.444	28007.48
741.784	27878.9
742.124	27903.76
742.464	27960.93
742.804	27794.16
743.143	27815.62
743.483	27856.75
743.823	27543.54
744.162	27607.04
744.502	27691.33
744.841	27497.21
745.181	27581.96
745.52	27448.85
745.86	27489.31
746.199	27361.17
746.538	27380.38
746.877	27296.99
747.216	27229.65
747.556	27319.59
747.895	27170.9
748.234	27173.83
748.573	27068.07
748.911	27027.85
749.25	27052.03
749.589	26827.63
749.928	26850
750.267	26984.01
750.605	26761.41
750.944	26840.73
751.283	26656.78
751.621	26709.21
751.96	26580.18
752.298	26635.54
752.636	26485.49
752.975	26419.5
753.313	26254.54
753.651	26364.36
753.989	26277.13
754.327	26217.02
754.666	25986.29
755.004	26152.84
755.342	26149.45
755.679	26031.26
756.017	25914.66
756.355	25967.99
756.693	25913.75
757.031	25981.32
757.368	25776.36
757.706	25730.26
758.044	25699.97
758.381	25645.74
758.719	25450.26
759.056	25473.99
759.394	25429.7
759.731	25255.92
760.068	25144.73
760.405	25328.91
760.743	25135.7
761.08	25116.71
761.417	25029.03
761.754	24997.39
762.091	24927.56
762.428	24889.83
762.765	24838.53
763.102	24684.86
763.438	24686.44
763.775	24474.24
764.112	24515.15
764.449	24472.44
764.785	24366.45
765.122	24191.54
765.458	24189.96
765.795	24069.51
766.131	24022.73
766.467	23909.06
766.804	23860.7
767.14	23641.05
767.476	23727.6
767.812	23620.71
768.148	23622.97
768.485	23449.41
768.821	23366.02
769.157	23436.3
769.492	23230.89
769.828	23299.36
770.164	23017.56
770.5	23013.72
770.836	22992.02
771.171	22850.11
771.507	22789.32
771.842	22633.39
772.178	22646.95
772.513	22494.86
772.849	22487.63
773.184	22430.68
773.519	22348.65
773.855	22313.85
774.19	22163.12
774.525	22158.37
774.86	22104.14
775.195	21952.95
775.53	21935.33
775.865	21763.81
776.2	21627.76
776.535	21550.25
776.87	21571.27
777.205	21481.78
777.539	21381.9
777.874	21331.73
778.209	21192.75
778.543	21154.56
778.878	21033.43
779.212	20993.21
779.547	20816.03
779.881	20904.17
780.215	20682.25
780.55	20740.1
780.884	20586.44
781.218	20642.48
781.552	20557.28
781.886	20355.26
782.22	20227.8
782.554	20207.91
782.888	20146.22
783.222	19927.7
783.556	19995.72
783.889	19884.76
784.223	19782.62
784.557	19701.71
784.89	19723.18
785.224	19574.26
785.557	19611.55
785.891	19468.05
786.224	19446.35
786.558	19464.66
786.891	19191.44
787.224	19206.36
787.557	19071.67
787.891	19171.11
788.224	19015.18
788.557	19052.69
788.89	19122.52
789.223	18992.35
789.556	18831.45
789.888	18735.86
790.221	18766.82
790.554	18562.76
790.887	18505.59
791.219	18521.86
791.552	18488.64
791.884	18265.14
792.217	18335.2
792.549	18290.68
792.882	18090.68
793.214	18040.06
793.546	18057.46
793.879	17900.63
794.211	17906.51
794.543	17914.19
794.875	17842.55
795.207	17875.77
795.539	17715.33
795.871	17703.57
796.203	17648.21
796.535	17471.04
796.867	17454.32
797.198	17330.93
797.53	17379.06
797.862	17344.94
798.193	17400.08
798.525	17148.56
798.856	17155.34
799.188	17013.42
799.519	16992.18
799.85	16854.78
800.182	16909.47
800.513	16840.77
800.844	16723.71
801.175	16764.62
801.506	16714
801.837	16575.92
802.168	16566.2
802.499	16490.05
802.83	16402.82
803.161	16379.54
803.491	16391.29
803.822	16422.48
804.153	16283.72
804.483	16090.51
804.814	16172.99
805.145	16168.25
805.475	16032.21
805.805	16004.64
806.136	16017.06
806.466	16062.71
806.796	16037.18
807.126	15855.49
807.457	15733.46
807.787	15775.04
808.117	15801.25
808.447	15646.9
808.777	15636.51
809.107	15556.29
809.436	15561.26
809.766	15528.94
810.096	15422.05
810.426	15469.06
810.755	15405.56
811.085	15396.52
811.414	15298.67
811.744	15180.48
812.073	15222.74
812.403	15138.44
812.732	15118.78
813.061	15080.59
813.39	15012.35
813.719	14982.52
814.049	15139.57
814.378	14909.3
814.707	14850.54
815.036	14850.77
815.365	14793.82
815.693	14715.86
816.022	14614.16
816.351	14615.75
816.68	14625.01
817.008	14572.81
817.337	14543.43
817.665	14377.11
817.994	14517.67
818.322	14439.25
818.651	14356.32
818.979	14339.59
819.307	14371.01
819.636	14334.85
819.964	14221.41
820.292	14261.18
820.62	14223.44
820.948	14160.84
821.276	14268.86
821.604	14155.64
821.932	14213.5
822.259	14237
822.587	14145.48
822.915	14120.39
823.243	14173.5
823.57	14151.58
823.898	14191.35
824.225	14134.18
824.553	14055.31
824.88	14147.74
825.207	14193.61
825.535	14065.03
825.862	14152.03
826.189	14103.22
826.516	14115.42
826.843	14212.82
827.17	14198.81
827.497	14157.9
827.824	14197.9
828.151	14198.58
828.478	14123.56
828.805	14158.36
829.131	14165.36
829.458	14139.6
829.785	14056.89
830.111	14071.58
830.438	14072.71
830.764	14059.15
831.09	14142.54
831.417	14009.66
831.743	14036.33
832.069	14091.69
832.395	13994.52
832.722	14085.36
833.048	14034.74
833.374	13985.71
833.7	13974.18
834.026	13903.22
834.351	14005.82
834.677	13917.01
835.003	13999.72
835.329	13940.28
835.654	13931.47
835.98	13829.55
836.306	13839.04
836.631	13790.68
836.956	13806.5
837.282	13867.06
837.607	13801.3
837.932	13816.22
838.258	13760.17
838.583	13655.09
838.908	13571.03
839.233	13721.53
839.558	13652.83
839.883	13602.21
840.208	13540.07
840.533	13613.51
840.858	13536
841.182	13457.36
841.507	13580.97
841.832	13405.61
842.156	13467.53
842.481	13388.66
842.805	13357.47
843.13	13431.82
843.454	13306.4
843.778	13235.22
844.103	13209.68
844.427	13194.31
844.751	13157.48
845.075	13179.17
845.399	13112.73
845.723	13104.6
846.047	13045.84
846.371	12990.7
846.695	12911.38
847.019	12856.24
847.343	12821.22
847.666	12751.84
847.99	12721.78
848.313	12652.86
848.637	12582.35
848.96	12608.79
849.284	12608.34
849.607	12402.7
849.931	12432.07
850.254	12314.79
850.577	12226.66
850.9	12208.35
851.223	12135.58
851.546	12162.48
851.869	12058.07
852.192	12081.8
852.515	11933.56
852.838	11963.61
853.161	11894.91
853.483	11851.52
853.806	11796.61
854.129	11747.8
854.451	11786.44
854.774	11757.06
855.096	11700.79
855.419	11660.57
855.741	11617.86
856.063	11523.85
856.385	11609.05
856.708	11484.75
857.03	11428.94
857.352	11490.18
857.674	11389.84
857.996	11295.15
858.318	11298.54
858.64	11308.26
858.961	11161.15
859.283	11253.12
859.605	11109.62
859.926	11190.3
860.248	11220.81
860.57	11128.61
860.891	11084.77
861.212	11011.09
861.534	10960.7
861.855	11005.22
862.176	11056.97
862.498	11032.79
862.819	10904.66
863.14	10909.85
863.461	10873.92
863.782	10857.43
864.103	10847.26
864.424	10834.15
864.745	10868.05
865.065	10770.42
865.386	10746.02
865.707	10708.28
866.027	10692.46
866.348	10690.65
866.668	10659.01
866.989	10677.54
867.309	10593.03
867.63	10676.87
867.95	10561.39
868.27	10540.82
868.59	10529.75
868.91	10551.67
869.23	10508.06
869.55	10442.52
869.87	10542.41
870.19	10475.52
870.51	10460.15
870.83	10462.41
871.15	10400.94
871.469	10402.52
871.789	10403.2
872.109	10366.37
872.428	10353.26
872.748	10428.06
873.067	10325.01
873.386	10361.62
873.706	10312.13
874.025	10196.43
874.344	10242.08
874.663	10299.25
874.982	10256.54
875.301	10183.55
875.62	10180.38
875.939	10136.99
876.258	10131.12
876.577	10176.09
876.896	10155.52
877.214	10072.59
877.533	10069.42
877.852	10142.64
878.17	10011.57
878.489	10065.13
878.807	10035.53
879.125	9975.19
879.444	9993.49
879.762	9934.74
880.08	9919.6
880.398	9948.98
880.716	9916.43
881.034	9882.99
881.352	9894.29
881.67	9820.17
881.988	9870.11
882.306	9843.67
882.624	9803.67
882.941	9699.49
883.259	9685.71
883.577	9687.29
883.894	9698.81
884.212	9706.27
884.529	9617.01
884.846	9625.82
885.164	9580.4
885.481	9582.88
885.798	9603
886.115	9540.85
886.432	9464.47
886.75	9535.2
887.067	9504.92
887.383	9445.03
887.7	9511.02
888.017	9366.17
888.334	9347.64
888.651	9386.5
888.967	9384.47
889.284	9306.96
889.6	9281.42
889.917	9211.37
890.233	9275.1
890.55	9228.99
890.866	9106.51
891.182	9205.49
891.498	9140.41
891.815	9135.44
892.131	9073.97
892.447	9093.86
892.763	8988.55
893.079	8979.51
893.395	8987.87
893.71	8947.65
894.026	8919.4
894.342	8919.62
894.657	8874.65
894.973	8816.12
895.289	8797.37
895.604	8759.4
895.92	8738.61
896.235	8668.33
896.55	8716.01
896.865	8705.84
897.181	8635.11
897.496	8613.19
897.811	8579.75
898.126	8585.17
898.441	8524.61
898.756	8465.4
899.071	8408.45
899.386	8444.61
899.7	8391.73
900.015	8365.97
900.33	8333.2
900.644	8269.92
900.959	8327.55
901.273	8272.86
901.588	8206.65
901.902	8177.27
902.216	8124.84
902.531	8172.53
902.845	8102.24
903.159	8031.29
903.473	8070.38
903.787	7966.2
904.101	7948.58
904.415	7983.38
904.729	7946.99
905.042	7884.85
905.356	7827.22
905.67	7827.68
905.984	7822.7
906.297	7716.94
906.611	7755.81
906.924	7786.09
907.237	7682.82
907.551	7646.21
907.864	7618.87
908.177	7598.76
908.491	7570.51
908.804	7523.73
909.117	7470.85
909.43	7400.79
909.743	7385.65
910.056	7424.52
910.368	7401.47
910.681	7289.84
910.994	7323.28
911.307	7251.65
911.619	7248.48
911.932	7264.53
912.244	7166.68
912.557	7215.71
912.869	7122.38
913.181	7136.62
913.494	7071.99
913.806	7017.75
914.118	7019.34
914.43	6995.83
914.742	6965.33
915.054	6948.15
915.366	6921.26
915.678	6884.65
915.99	6827.02
916.302	6818.21
916.613	6762.62
916.925	6777.08
917.236	6712.45
917.548	6727.59
917.859	6740.7
918.171	6654.6
918.482	6649.63
918.794	6583.87
919.105	6587.03
919.416	6520.82
919.727	6523.98
920.038	6538.9
920.349	6473.59
920.66	6454.83
920.971	6416.87
921.282	6363.99
921.593	6331.67
921.903	6307.94
922.214	6318.56
922.525	6252.35
922.835	6258
923.146	6207.38
923.456	6198.34
923.767	6167.38
924.077	6137.78
924.387	6135.29
924.697	6105.46
925.008	6070.43
925.318	6039.47
925.628	6041.51
925.938	5976.65
926.248	5942.98
926.558	5939.59
926.867	5915.18
927.177	5875.41
927.487	5886.94
927.796	5805.13
928.106	5774.62
928.416	5836.99
928.725	5782.98
929.034	5746.15
929.344	5737.11
929.653	5728.97
929.962	5665.92
930.271	5678.35
930.581	5655.76
930.89	5606.27
931.199	5548.19
931.508	5568.75
931.817	5551.13
932.125	5517.68
932.434	5466.38
932.743	5462.77
933.051	5416.21
933.36	5400.39
933.669	5373.05
933.977	5346.16
934.286	5359.72
934.594	5372.37
934.902	5313.39
935.21	5250.79
935.519	5314.3
935.827	5282.21
936.135	5211.7
936.443	5144.58
936.751	5135.99
937.059	5147.97
937.367	5103.68
937.674	5112.72
937.982	5059.84
938.29	5054.64
938.597	5082.44
938.905	4993.17
939.213	4982.78
939.52	4952.04
939.827	4967.41
940.135	4889.9
940.442	4885.15
940.749	4931.03
941.056	4909.33
941.363	4812.84
941.67	4835.89
941.977	4795.44
942.284	4759.96
942.591	4786.85
942.898	4740.98
943.205	4755.44
943.511	4693.97
943.818	4663.01
944.125	4667.31
944.431	4632.96
944.738	4576.69
945.044	4623.92
945.35	4591.6
945.657	4576.91
945.963	4570.81
946.269	4496.46
946.575	4491.72
946.881	4490.59
947.187	4451.04
947.493	4463.47
947.799	4440.19
948.105	4411.27
948.41	4353.64
948.716	4394.55
949.022	4358.39
949.327	4370.82
949.633	4318.84
949.938	4302.34
950.244	4307.99
950.549	4255.11
950.854	4235.45
951.16	4191.61
951.465	4211.5
951.77	4147.32
952.075	4162.91
952.38	4142.12
952.685	4133.54
952.99	4119.07
953.294	4057.61
953.599	4062.12
953.904	4035.46
954.209	4006.08
954.513	4076.59
954.818	3991.84
955.122	3990.04
955.426	3973.31
955.731	3998.17
956.035	3940.77
956.339	3899.42
956.643	3943.03
956.948	3890.15
957.252	3867.1
957.556	3873.43
957.86	3843.83
958.163	3831.17
958.467	3813.32
958.771	3813.54
959.075	3796.82
959.378	3764.28
959.682	3732.42
959.985	3717.95
960.289	3714.34
960.592	3686.77
960.896	3641.12
961.199	3688.12
961.502	3674.79
961.805	3645.86
962.108	3602.48
962.411	3566.54
962.714	3539.88
963.017	3555.02
963.32	3562.48
963.623	3536.71
963.926	3553.66
964.228	3509.15
964.531	3519.31
964.833	3479.99
965.136	3410.16
965.438	3416.04
965.741	3398.87
966.043	3431.18
966.345	3367.91
966.648	3389.15
966.95	3388.24
967.252	3371.3
967.554	3329.71
967.856	3336.49
968.158	3279.77
968.46	3304.63
968.761	3323.16
969.063	3277.51
969.365	3228.7
969.666	3244.29
969.968	3212.2
970.269	3199.1
970.571	3249.72
970.872	3200.9
971.174	3160.91
971.475	3126.33
971.776	3148.48
972.077	3105.31
972.378	3095.82
972.679	3122.04
972.98	3130.17
973.281	3072.32
973.582	3039.55
973.883	3041.13
974.183	3015.82
974.484	3010.4
974.785	3021.25
975.085	2972.89
975.386	3015.82
975.686	2951.42
975.986	2955.04
976.287	2934.47
976.587	2932.21
976.887	2891.99
977.187	2898.54
977.487	2908.93
977.787	2874.36
978.087	2867.35
978.387	2840.69
978.687	2838.43
978.987	2833.23
979.286	2808.37
979.586	2808.6
979.885	2811.31
980.185	2772.67
980.484	2779.67
980.784	2762.95
981.083	2750.97
981.382	2725.89
981.682	2731.76
981.981	2722.73
982.28	2682.73
982.579	2646.12
982.878	2670.3
983.177	2628.04
983.475	2625.78
983.774	2616.74
984.073	2657.87
984.372	2618.77
984.67	2578.55
984.969	2616.97
985.267	2609.51
985.566	2578.77
985.864	2535.84
986.162	2513.01
986.461	2531.32
986.759	2538.78
987.057	2483.18
987.355	2494.93
987.653	2499.91
987.951	2508.49
988.249	2472.34
988.547	2454.48
988.844	2429.17
989.142	2426.91
989.44	2412.22
989.737	2405.9
990.035	2410.87
990.332	2390.76
990.63	2414.94
990.927	2379.01
991.224	2372.23
991.521	2344.2
991.819	2353.7
992.116	2325.22
992.413	2314.83
992.71	2292.68
993.006	2308.27
993.303	2295.39
993.6	2268.05
993.897	2285.45
994.193	2276.64
994.49	2254.49
994.787	2205.22
995.083	2190.99
995.379	2189.63
995.676	2197.77
995.972	2200.93
996.268	2148.5
996.565	2167.03
996.861	2133.59
997.157	2146.92
997.453	2139.46
997.749	2116.64
998.044	2124.1
998.34	2105.79
998.636	2064.21
998.932	2076.41
999.227	2096.3
999.523	2061.27
999.818	2044.32
1000.114	2012.91
1000.409	2022.86
1000.704	2013.37
1001	2013.14
1001.295	1969.52
1001.59	1978.11
1001.885	1990.77
1002.18	1929.75
1002.475	1956.64
1002.77	1959.81
1003.065	1956.64
1003.359	1925.91
1003.654	1891.79
1003.949	1917.32
1004.243	1882.3
1004.538	1859.7
1004.832	1852.92
1005.127	1867.15
1005.421	1858.79
1005.715	1824.67
1006.009	1812.24
1006.304	1816.08
1006.598	1811.34
1006.892	1771.79
1007.186	1793.71
1007.48	1769.76
1007.773	1778.12
1008.067	1736.54
1008.361	1737.67
1008.655	1740.15
1008.948	1753.03
1009.242	1700.61
1009.535	1714.62
1009.829	1683.2
1010.122	1673.49
1010.415	1680.94
1010.708	1654.05
1011.001	1680.49
1011.295	1648.18
1011.588	1613.38
1011.881	1628.97
1012.173	1607.5
1012.466	1614.28
1012.759	1610.21
1013.052	1595.75
1013.344	1600.72
1013.637	1589.42
1013.93	1587.39
1014.222	1583.77
1014.514	1572.7
1014.807	1551.68
1015.099	1523.21
1015.391	1548.29
1015.683	1536.77
1015.976	1510.78
1016.268	1518.01
1016.56	1459.93
1016.851	1487.28
1017.143	1476.88
1017.435	1472.36
1017.727	1444.79
1018.018	1457.67
1018.31	1424.23
1018.602	1421.97
1018.893	1407.05
1019.185	1424.91
1019.476	1391.23
1019.767	1388.07
1020.058	1379.94
1020.35	1334.51
1020.641	1362.99
1020.932	1354.63
1021.223	1348.3
1021.514	1334.74
1021.804	1337
1022.095	1313.04
1022.386	1330.45
1022.677	1322.54
1022.967	1312.14
1023.258	1277.79
1023.548	1264.68
1023.839	1264.46
1024.129	1289.54
1024.419	1264.46
1024.709	1251.35
1025	1265.81
1025.29	1238.92
1025.58	1219.71
1025.87	1218.13
1026.16	1224.01
1026.449	1200.73
1026.739	1201.18
1027.029	1179.94
1027.319	1199.6
1027.608	1194.4
1027.898	1170.45
1028.187	1162.09
1028.477	1153.5
1028.766	1154.63
1029.055	1130.45
1029.344	1128.19
1029.634	1135.65
1029.923	1112.82
1030.212	1093.62
1030.501	1091.58
1030.79	1075.54
1031.078	1087.51
1031.367	1108.53
1031.656	1072.82
1031.945	1058.14
1032.233	1052.49
1032.522	1046.38
1032.81	1034.18
1033.099	1059.27
1033.387	1059.27
1033.675	1032.15
1033.963	1036.89
1034.251	1023.33
1034.54	998.02
1034.828	1011.36
1035.116	987.63
1035.403	993.96
1035.691	988.53
1035.979	997.12
1036.267	981.3
1036.554	976.56
1036.842	960.29
1037.129	981.08
1037.417	917.35
1037.704	946.73
1037.992	918.93
1038.279	932.94
1038.566	933.85
1038.853	933.85
1039.14	933.85
