Data from hue_150_FLMS001491_00087.txt Node
Date: Tue Feb 07 16:54:39 GMT 2017
User: dcchb
Spectrometer: FLMS00149
Trigger mode: 0
Integration Time (sec): 2.000000E-2
Scans to average: 10
Electric dark correction enabled: true
Nonlinearity correction enabled: false
Boxcar width: 0
XAxis mode: Wavelengths
Number of Pixels in Spectrum: 2048
>>>>>Begin Spectral Data<<<<<
341.393	-18.21
341.776	-18.21
342.16	-18.21
342.543	-62.5
342.927	-63.18
343.31	-72.22
343.693	-69.96
344.077	-62.05
344.46	-59.11
344.843	-69.05
345.226	-62.05
345.61	-21.6
345.993	-5.78
346.376	-21.82
346.759	12.08
347.142	45.75
347.525	59.53
347.908	51.62
348.291	75.35
348.674	89.59
349.057	109.7
349.44	115.8
349.823	141.34
350.206	159.42
350.588	200.32
350.971	218.85
351.354	247.1
351.737	245.06
352.119	255.23
352.502	249.81
352.884	261.79
353.267	291.62
353.65	291.16
354.032	301.56
354.414	308.79
354.797	312.86
355.179	330.26
355.562	330.49
355.944	311.96
356.326	338.85
356.709	328.9
357.091	326.19
357.473	355.12
357.855	342.91
358.238	331.16
358.62	352.18
359.002	348.11
359.384	335.68
359.766	340.88
360.148	350.82
360.53	342.01
360.912	344.5
361.294	331.39
361.676	331.62
362.057	342.01
362.439	326.87
362.821	335.46
363.203	323.25
363.584	325.29
363.966	338.62
364.348	298.4
364.729	298.85
365.111	311.73
365.493	326.64
365.874	328.68
366.256	320.99
366.637	328.68
367.019	321.67
367.4	326.64
367.781	314.67
368.163	320.54
368.544	301.11
368.925	324.61
369.306	348.56
369.688	304.72
370.069	333.65
370.45	331.16
370.831	303.37
371.212	312.18
371.593	306.76
371.974	322.58
372.355	323.71
372.736	324.16
373.117	314.44
373.498	322.58
373.879	328.45
374.26	334.55
374.641	323.93
375.021	309.92
375.402	316.7
375.783	323.03
376.163	316.02
376.544	328.45
376.925	331.16
377.305	349.47
377.686	331.84
378.066	336.81
378.447	334.1
378.827	313.99
379.208	344.5
379.588	331.16
379.968	334.1
380.349	331.62
380.729	317.6
381.109	334.78
381.489	337.72
381.87	322.58
382.25	323.48
382.63	342.01
383.01	331.84
383.39	337.27
383.77	366.87
384.15	345.4
384.53	341.11
384.91	351.73
385.29	359.41
385.67	353.54
386.049	340.65
386.429	363.25
386.809	353.08
387.189	345.63
387.568	352.18
387.948	354.21
388.328	382.69
388.707	377.26
389.087	365.74
389.466	363.71
389.846	395.79
390.225	381.56
390.605	375.68
390.984	367.77
391.363	371.39
391.743	361.9
392.122	397.83
392.501	390.6
392.881	372.29
393.26	361.45
393.639	397.38
394.018	380.43
394.397	385.4
394.776	377.26
395.155	377.49
395.534	401.9
395.913	379.52
396.292	404.83
396.671	374.33
397.05	404.83
397.429	411.61
397.808	413.65
398.186	400.09
398.565	407.77
398.944	420.65
399.323	395.57
399.701	405.29
400.08	409.35
400.458	406.64
400.837	427.88
401.215	406.87
401.594	424.72
401.972	416.81
402.351	430.37
402.729	427.66
403.107	438.28
403.486	409.35
403.864	403.93
404.242	434.44
404.62	420.2
404.999	405.51
405.377	424.49
405.755	445.74
406.133	454.32
406.511	431.5
406.889	453.65
407.267	447.77
407.645	461.1
408.023	453.19
408.401	469.69
408.779	462.69
409.156	449.8
409.534	468.11
409.912	488.67
410.29	464.49
410.667	465.62
411.045	459.52
411.422	475.79
411.8	473.08
412.178	483.48
412.555	489.35
412.933	489.13
413.31	487.09
413.687	466.53
414.065	488.45
414.442	517.15
414.819	517.37
415.197	478.05
415.574	517.83
415.951	531.84
416.328	537.03
416.705	524.15
417.082	528.67
417.46	523.25
417.837	538.62
418.214	535.9
418.591	532.29
418.967	545.4
419.344	546.75
419.721	542.46
420.098	559.41
420.475	537.94
420.852	568.67
421.228	571.61
421.605	566.41
421.982	575.68
422.358	587.88
422.735	565.73
423.111	594.21
423.488	584.04
423.864	613.64
424.241	612.06
424.617	621.78
424.994	603.47
425.37	597.6
425.746	611.38
426.123	600.31
426.499	598.95
426.875	624.72
427.251	617.03
427.627	645.51
428.003	657.93
428.379	631.49
428.756	645.73
429.132	665.84
429.507	651.38
429.883	673.08
430.259	688.67
430.635	704.26
431.011	676.47
431.387	695.67
431.763	729.35
432.138	702
432.514	716.24
432.89	734.32
433.265	746.97
433.641	709.23
434.016	733.64
434.392	744.03
434.767	763.02
435.143	758.72
435.518	774.77
435.894	808.21
436.269	777.25
436.644	784.71
437.02	796.24
437.395	807.99
437.77	820.87
438.145	843.69
438.52	821.09
438.895	839.4
439.271	817.93
439.646	856.35
440.021	833.75
440.395	850.02
440.77	869.91
441.145	835.33
441.52	883.92
441.895	879.4
442.27	861.32
442.645	882.11
443.019	875.56
443.394	919.17
443.769	876.01
444.143	917.59
444.518	923.46
444.892	891.37
445.267	924.14
445.641	932.05
446.016	932.05
446.39	963.24
446.764	953.75
447.139	936.12
447.513	957.36
447.887	959.62
448.262	990.13
448.636	978.6
449.01	1011.15
449.384	960.75
449.758	1003.01
450.132	994.87
450.506	1040.75
450.88	1021.09
451.254	1010.02
451.628	1064.48
452.002	1068.32
452.376	1056.79
452.75	1054.76
453.123	1080.75
453.497	1090.92
453.871	1093.4
454.244	1083.46
454.618	1138.37
454.992	1134.08
455.365	1159.84
455.739	1169.33
456.112	1167.53
456.486	1184.47
456.859	1194.64
457.232	1191.48
457.606	1206.39
457.979	1231.7
458.352	1230.35
458.725	1254.76
459.099	1280.07
459.472	1281.65
459.845	1305.6
460.218	1319.16
460.591	1381.98
460.964	1354.41
461.337	1385.6
461.71	1395.99
462.083	1400.51
462.456	1411.14
462.829	1455.88
463.201	1466.73
463.574	1459.5
463.947	1488.65
464.32	1518.7
464.692	1515.77
465.065	1551.24
465.438	1567.52
465.81	1595.31
466.183	1609.55
466.555	1646.16
466.928	1674.63
467.3	1666.5
467.672	1690.68
468.045	1739.04
468.417	1761.63
468.789	1774.06
469.161	1828.3
469.534	1829.66
469.906	1889.77
470.278	1899.26
470.65	1937.9
471.022	1978.58
471.394	2025.13
471.766	2052.93
472.138	2073.49
472.51	2157.33
472.882	2156.65
473.253	2153.94
473.625	2230.55
473.997	2295.63
474.369	2322.75
474.74	2370.66
475.112	2441.84
475.484	2490.88
475.855	2525.91
476.227	2582.4
476.598	2667.83
476.97	2715.73
477.341	2774.94
477.713	2838.22
478.084	2895.39
478.455	3016.06
478.827	3033.92
479.198	3126.57
479.569	3212.9
479.94	3312.33
480.311	3349.16
480.682	3468.71
481.053	3579.44
481.424	3678.19
481.795	3741.47
482.166	3827.12
482.537	3949.15
482.908	4037.96
483.279	4110.95
483.65	4243.6
484.021	4361.79
484.391	4432.52
484.762	4534.44
485.133	4597.04
485.503	4718.17
485.874	4887.65
486.244	4997.26
486.615	5098.5
486.985	5212.17
487.356	5348.88
487.726	5466.85
488.097	5615.77
488.467	5752.49
488.837	5855.76
489.207	6024.35
489.578	6148.64
489.948	6245.58
490.318	6380.04
490.688	6520.38
491.058	6615.97
491.428	6810.32
491.798	6938.45
492.168	7123.75
492.538	7199.23
492.908	7290.98
493.278	7491.2
493.648	7519
494.017	7687.35
494.387	7833.34
494.757	7961.25
495.126	8086.21
495.496	8219.54
495.866	8244.85
496.235	8408.01
496.605	8509.71
496.974	8646.43
497.344	8813.43
497.713	8858.4
498.082	9012.07
498.452	9150.14
498.821	9227.65
499.19	9266.52
499.559	9414.09
499.928	9542.9
500.298	9599.62
500.667	9777.69
501.036	9813.63
501.405	9853.85
501.774	9954.41
502.143	10102.43
502.512	10146.27
502.88	10224.24
503.249	10268.08
503.618	10362.54
503.987	10408.19
504.356	10558.92
504.724	10651.57
505.093	10701.51
505.462	10781.74
505.83	10823.54
506.199	10908.74
506.567	11085.01
506.936	11066.93
507.304	11174.95
507.672	11273.02
508.041	11270.99
508.409	11352.57
508.777	11488.84
509.145	11548.27
509.514	11595.05
509.882	11620.58
510.25	11646.8
510.618	11744.42
510.986	11774.7
511.354	11846.79
511.722	11943.97
512.09	12030.07
512.458	11981.03
512.826	12155.94
513.193	12170.63
513.561	12211.3
513.929	12207.01
514.297	12437.51
514.664	12457.17
515.032	12394.58
515.4	12477.96
515.767	12493.78
516.135	12667.11
516.502	12465.31
516.869	12715.47
517.237	12625.98
517.604	12646.77
517.972	12754.79
518.339	12754.57
518.706	12864.62
519.073	12895.58
519.44	12891.74
519.808	12967.67
520.175	12870.27
520.542	13035.69
520.909	13102.13
521.276	13050.6
521.643	13147.1
522.009	13148.23
522.376	13219.41
522.743	13323.14
523.11	13346.19
523.477	13437.71
523.843	13444.27
524.21	13597.93
524.577	13545.51
524.943	13515.45
525.31	13597.03
525.676	13685.39
526.043	13625.96
526.409	13689.46
526.776	13686.07
527.142	13714.31
527.508	13786.18
527.874	13763.35
528.241	13835.22
528.607	13803.8
528.973	13870.24
529.339	13855.1
529.705	13883.35
530.071	13954.99
530.437	13877.02
530.803	13862.11
531.169	13893.52
531.535	13921.09
531.901	13814.42
532.267	13983.01
532.632	14010.35
532.998	13918.15
533.364	13996.12
533.73	13901.43
534.095	14021.65
534.461	13919.96
534.826	13962.9
535.192	13940.3
535.557	13945.95
535.923	13811.26
536.288	13946.17
536.653	13924.7
537.019	13850.36
537.384	13840.19
537.749	13808.55
538.114	13897.81
538.479	13791.15
538.845	13818.49
539.21	13673.86
539.575	13736.46
539.94	13665.95
540.305	13765.16
540.67	13651.04
541.034	13663.24
541.399	13630.47
541.764	13664.82
542.129	13616.01
542.494	13564.26
542.858	13582.57
543.223	13519.74
543.587	13569.69
543.952	13422.34
544.316	13454.21
544.681	13418.96
545.045	13402.01
545.41	13303.48
545.774	13379.18
546.138	13287.89
546.503	13321.56
546.867	13194.33
547.231	13257.38
547.595	13212.41
547.959	13118.62
548.324	13044.73
548.688	13126.53
549.052	13135.57
549.416	13067.33
549.779	12985.75
550.143	13032.75
550.507	13047.67
550.871	13060.09
551.235	12975.12
551.599	13014.9
551.962	13023.26
552.326	12969.25
552.689	13011.96
553.053	12924.96
553.417	12906.65
553.78	12971.51
554.143	12862.36
554.507	12902.36
554.87	12872.53
555.234	12936.03
555.597	12845.18
555.96	12821.23
556.323	12806.77
556.686	12746.88
557.05	12816.26
557.413	12835.92
557.776	12733.1
558.139	12811.29
558.502	12740.78
558.865	12741.23
559.228	12766.09
559.59	12801.34
559.953	12782.81
560.316	12833.66
560.679	12775.13
561.041	12851.06
561.404	12789.14
561.767	12873.66
562.129	12773.77
562.492	12890.83
562.854	12866.65
563.217	12808.35
563.579	12755.24
563.941	12889.93
564.304	12924.5
564.666	12937.84
565.028	12924.96
565.39	12904.84
565.753	12999.76
566.115	12976.48
566.477	12947.78
566.839	12938.97
567.201	13016.25
567.563	13009.02
567.925	13034.33
568.287	13038.63
568.648	13081.79
569.01	13176.7
569.372	13222.58
569.734	13070.04
570.095	13202.46
570.457	13234.55
570.819	13161.11
571.18	13156.14
571.542	13146.42
571.903	13251.95
572.265	13277.49
572.626	13259.41
572.987	13289.47
573.349	13238.85
573.71	13319.07
574.071	13327.66
574.432	13352.52
574.794	13478.39
575.155	13391.39
575.516	13349.13
575.877	13385.06
576.238	13285.4
576.599	13443.36
576.96	13390.03
577.32	13426.64
577.681	13435.68
578.042	13428.45
578.403	13398.84
578.763	13458.5
579.124	13478.39
579.485	13509.8
579.845	13554.54
580.206	13442.23
580.566	13479.97
580.927	13450.14
581.287	13589.57
581.648	13419.41
582.008	13464.83
582.368	13439.07
582.728	13483.81
583.089	13437.49
583.449	13373.98
583.809	13489.69
584.169	13553.41
584.529	13434.55
584.889	13492.17
585.249	13400.2
585.609	13365.17
585.969	13401.33
586.329	13352.74
586.688	13374.44
587.048	13271.84
587.408	13327.43
587.768	13343.25
588.127	13318.62
588.487	13296.47
588.846	13431.61
589.206	13284.27
589.565	13261.22
589.925	13272.74
590.284	13342.12
590.643	13301.22
591.003	13309.81
591.362	13329.92
591.721	13282.01
592.08	13236.59
592.44	13301.9
592.799	13266.42
593.158	13194.33
593.517	13280.43
593.876	13183.93
594.235	13238.62
594.593	13259.64
594.952	13293.53
595.311	13201.11
595.67	13292.4
596.029	13348.67
596.387	13316.58
596.746	13384.83
597.104	13202.01
597.463	13280.2
597.822	13278.62
598.18	13167.66
598.538	13138.06
598.897	13284.72
599.255	13173.09
599.613	13250.15
599.972	13160.43
600.33	13230.94
600.688	13166.53
601.046	13165.18
601.404	13244.72
601.762	13202.24
602.12	13277.04
602.478	13205.63
602.836	13308.45
603.194	13178.96
603.552	13133.09
603.91	13094.9
604.268	13193.65
604.625	13213.99
604.983	13194.1
605.341	13122.24
605.698	13217.38
606.056	13310.48
606.413	13205.4
606.771	13255.12
607.128	13370.14
607.485	13204.27
607.843	13261.22
608.2	13295.57
608.557	13276.59
608.914	13199.53
609.272	13357.71
609.629	13359.75
609.986	13416.92
610.343	13278.17
610.7	13399.07
611.057	13372.4
611.414	13337.38
611.771	13428.67
612.127	13380.31
612.484	13394.55
612.841	13402.01
613.198	13400.42
613.554	13388.45
613.911	13505.05
614.267	13503.47
614.624	13434.1
614.98	13444.72
615.337	13500.99
615.693	13568.33
616.05	13533.75
616.406	13553.19
616.762	13510.93
617.118	13574.66
617.475	13489.46
617.831	13602
618.187	13594.77
618.543	13627.76
618.899	13651.04
619.255	13574.88
619.611	13606.29
619.967	13712.51
620.323	13647.88
620.678	13613.75
621.034	13622.57
621.39	13618.5
621.746	13564.94
622.101	13710.92
622.457	13569.46
622.812	13634.32
623.168	13665.5
623.523	13687.87
623.879	13676.58
624.234	13660.53
624.589	13693.75
624.945	13716.57
625.3	13663.02
625.655	13618.95
626.01	13698.95
626.365	13609.23
626.72	13620.31
627.075	13625.05
627.43	13534.88
627.785	13530.14
628.14	13636.12
628.495	13593.64
628.85	13644.94
629.205	13585.73
629.559	13681.55
629.914	13570.59
630.269	13614.43
630.623	13591.83
630.978	13471.61
631.332	13596.13
631.687	13668.67
632.041	13517.94
632.396	13514.77
632.75	13452.17
633.104	13455.34
633.459	13369.01
633.813	13484.49
634.167	13439.29
634.521	13455.11
634.875	13423.25
635.229	13362.23
635.583	13274.55
635.937	13332.86
636.291	13251.28
636.645	13381.44
636.999	13292.63
637.352	13313.87
637.706	13251.05
638.06	13287.66
638.413	13244.27
638.767	13282.46
639.121	13166.53
639.474	13201.11
639.828	13092.41
640.181	13084.05
640.534	13157.72
640.888	13081.11
641.241	13079.75
641.594	13096.48
641.947	13154.33
642.301	13114.1
642.654	13160.2
643.007	13079.75
643.36	13096.48
643.713	13117.49
644.066	13132.18
644.419	12994.33
644.771	12975.58
645.124	12903.94
645.477	12762.48
645.83	12729.71
646.182	12656.04
646.535	12631.86
646.888	12691.74
647.24	12584.4
647.593	12614.23
647.945	12649.94
648.298	12616.72
648.65	12604.06
649.002	12584.85
649.355	12576.72
649.707	12627.11
650.059	12667.34
650.411	12800.21
650.763	12751.4
651.115	12929.02
651.467	12895.35
651.819	12937.61
652.171	12810.61
652.523	12820.55
652.875	12841.34
653.227	12817.84
653.578	12884.28
653.93	12852.87
654.282	12788.46
654.633	12803.83
654.985	12795.92
655.337	12779.88
655.688	12756.6
656.039	12831.17
656.391	12783.27
656.742	12736.49
657.094	12823.49
657.445	12783.04
657.796	12772.42
658.147	12860.55
658.498	12795.24
658.849	12814.68
659.2	12846.09
659.551	12757.73
659.902	12814.68
660.253	12843.38
660.604	12873.43
660.955	12879.31
661.306	12867.11
661.656	12819.87
662.007	12925.41
662.358	12900.1
662.708	12840.44
663.059	12800.21
663.409	12797.28
663.76	12919.08
664.11	12918.4
664.461	12887.22
664.811	12909.14
665.161	12914.79
665.511	12799.54
665.862	12873.43
666.212	12866.65
666.562	12827.11
666.912	12850.83
667.262	12849.48
667.612	12806.99
667.962	12873.88
668.312	12853.09
668.662	12883.83
669.011	12833.43
669.361	12805.86
669.711	12820.55
670.06	12822.81
670.41	12751.63
670.76	12707.56
671.109	12813.55
671.459	12890.16
671.808	12747.56
672.157	12822.81
672.507	12755.02
672.856	12710.73
673.205	12744.62
673.554	12801.57
673.904	12733.55
674.253	12819.65
674.602	12752.31
674.951	12605.42
675.3	12506.66
675.649	12733.78
675.998	12577.4
676.346	12715.7
676.695	12714.11
677.044	12547.34
677.393	12670.5
677.741	12542.37
678.09	12579.66
678.438	12601.35
678.787	12557.28
679.135	12621.46
679.484	12501.69
679.832	12512.09
680.181	12508.24
680.529	12526.55
680.877	12426.44
681.225	12473.9
681.573	12494.46
681.922	12447.68
682.27	12391.19
682.618	12374.69
682.966	12368.81
683.314	12284.52
683.661	12302.15
684.009	12324.52
684.357	12207.01
684.705	12253.11
685.053	12212.66
685.4	12214.47
685.748	12097.63
686.095	12080.23
686.443	12126.79
686.79	12050.18
687.138	12115.71
687.485	12036.84
687.832	11956.62
688.18	12031.87
688.527	11985.55
688.874	11939.22
689.221	11897.19
689.568	11929.73
689.915	11791.88
690.262	11799.56
690.609	11796.17
690.956	11693.8
691.303	11633.92
691.65	11617.87
691.997	11647.93
692.344	11535.84
692.69	11525.45
693.037	11537.2
693.383	11472.79
693.73	11490.42
694.077	11411.78
694.423	11415.39
694.769	11359.57
695.116	11254.94
695.462	11315.06
695.808	11215.85
696.155	11260.14
696.501	11136.76
696.847	11133.37
697.193	11049.98
697.539	11076.42
697.885	10987.38
698.231	10965.91
698.577	10987.83
698.923	10925.24
699.269	10913.94
699.614	10752.13
699.96	10766.37
700.306	10740.38
700.651	10783.54
700.997	10625.13
701.342	10704.22
701.688	10636.43
702.033	10598.69
702.379	10574.96
702.724	10522.76
703.069	10621.29
703.415	10484.34
703.76	10431.24
704.105	10419.03
704.45	10379.71
704.795	10305.36
705.14	10292.94
705.485	10201.86
705.83	10266.95
706.175	10205.48
706.52	10155.09
706.865	10096.1
707.209	10085.94
707.554	10096.78
707.899	10051.36
708.243	10058.37
708.588	10084.58
708.932	9923.91
709.277	9937.69
709.621	9966.16
709.966	9864.25
710.31	9934.53
710.654	9845.72
710.998	9798.49
711.342	9809.33
711.687	9806.62
712.031	9696.34
712.375	9699.5
712.719	9719.17
713.063	9678.71
713.407	9744.02
713.75	9639.85
714.094	9704.48
714.438	9587.64
714.782	9584.25
715.125	9521.66
715.469	9557.36
715.812	9504.03
716.156	9509.91
716.499	9513.52
716.843	9481.88
717.186	9423.58
717.53	9470.58
717.873	9440.3
718.216	9439.62
718.559	9411.6
718.902	9335.9
719.246	9349.68
719.589	9345.84
719.932	9269.01
720.275	9256.58
720.617	9324.6
720.96	9266.52
721.303	9332.51
721.646	9248.22
721.989	9186.75
722.331	9290.25
722.674	9247.54
723.016	9199.41
723.359	9228.56
723.701	9122.57
724.044	9228.33
724.386	9135.68
724.729	9177.71
725.071	9166.86
725.413	9135.23
725.755	9111.95
726.097	9083.02
726.439	9025.4
726.782	9062.91
727.124	9078.96
727.465	9059.75
727.807	9021.33
728.149	9071.5
728.491	9057.71
728.833	9056.13
729.175	8972.97
729.516	9058.62
729.858	9046.41
730.199	9012.07
730.541	8944.5
730.882	8974.1
731.224	9025.62
731.565	9000.54
731.906	8961.9
732.248	8950.37
732.589	8943.59
732.93	8941.78
733.271	8932.07
733.612	8958.28
733.953	8979.3
734.294	8905.4
734.635	8957.6
734.976	8967.09
735.317	8978.39
735.658	9016.13
735.999	8864.27
736.339	8902.92
736.68	8994.21
737.021	9006.42
737.361	8895.46
737.702	8974.55
738.042	8930.26
738.383	8984.72
738.723	8988.34
739.063	8960.32
739.404	9020.88
739.744	8971.39
740.084	8966.64
740.424	8986.76
740.764	9015.68
741.104	9018.39
741.444	9006.42
741.784	9010.94
742.124	9059.97
742.464	9103.14
742.804	9129.12
743.143	9145.4
743.483	9148.11
743.823	9114.89
744.162	9102.91
744.502	9189.69
744.841	9186.07
745.181	9233.53
745.52	9207.77
745.86	9295.9
746.199	9284.6
746.538	9325.28
746.877	9397.82
747.216	9464.03
747.556	9418.16
747.895	9452.73
748.234	9506.74
748.573	9543.58
748.911	9631.71
749.25	9632.61
749.589	9710.58
749.928	9787.41
750.267	9824.25
750.605	9924.81
750.944	9941.76
751.283	10046.61
751.621	10128.65
751.96	10155.31
752.298	10259.49
752.636	10360.5
752.975	10442.76
753.313	10491.12
753.651	10639.82
753.989	10633.49
754.327	10757.1
754.666	10885.69
755.004	11066.25
755.342	11078
755.679	11235.74
756.017	11289.07
756.355	11435.73
756.693	11477.54
757.031	11671.43
757.368	11778.09
757.706	11911.2
758.044	12082.95
758.381	12227.35
758.719	12421.02
759.056	12538.07
759.394	12577.62
759.731	12809.71
760.068	12881.12
760.405	12990.49
760.743	13188.23
761.08	13258.96
761.417	13401.78
761.754	13482.91
762.091	13724.03
762.428	13891.94
762.765	14004.7
763.102	14166.73
763.438	14331.47
763.775	14443.79
764.112	14612.6
764.449	14863.44
764.785	14906.15
765.122	15042.64
765.458	15140.72
765.795	15371.45
766.131	15480.37
766.467	15585.68
766.804	15668.39
767.14	15783.64
767.476	15987.02
767.812	16108.38
768.148	16214.59
768.485	16250.07
768.821	16349.5
769.157	16550.62
769.492	16568.7
769.828	16839.66
770.164	16861.35
770.5	16983.83
770.836	17080.1
771.171	17117.16
771.507	17217.05
771.842	17254.79
772.178	17412.07
772.513	17377.5
772.849	17451.17
773.184	17571.39
773.519	17644.61
773.855	17634.21
774.19	17738.84
774.525	17739.75
774.86	17944.03
775.195	17985.39
775.53	17931.6
775.865	17952.17
776.2	17952.4
776.535	17949.68
776.87	18060.64
777.205	18098.38
777.539	18026.52
777.874	18272.84
778.209	18147.87
778.543	18156.91
778.878	18175.89
779.212	18262.9
779.547	18158.49
779.881	18278.94
780.215	18248.88
780.55	18312.61
780.884	18259.96
781.218	18310.58
781.552	18340.63
781.886	18346.96
782.22	18290.92
782.554	18296.79
782.888	18138.15
783.222	18137.93
783.556	18132.05
783.889	18249.11
784.223	18114.42
784.557	18217.92
784.89	18160.98
785.224	18090.7
785.557	18075.78
785.891	18103.35
786.224	18030.59
786.558	18106.06
786.891	18051.83
787.224	17934.54
787.557	17987.42
787.891	17898.84
788.224	17877.59
788.557	17947.42
788.89	17949.91
789.223	18018.38
789.556	17830.82
789.888	17827.88
790.221	17772.29
790.554	17740.88
790.887	17763.47
791.219	17605.74
791.552	17662.91
791.884	17533.65
792.217	17544.04
792.549	17560.54
792.882	17394.22
793.214	17426.76
793.546	17405.29
793.879	17342.92
794.211	17300.43
794.543	17419.98
794.875	17291.62
795.207	17445.29
795.539	17295.46
795.871	17268.12
796.203	17135.02
796.535	17052.98
796.867	17091.17
797.198	16973.21
797.53	17014.11
797.862	16937.05
798.193	16937.28
798.525	16760.56
798.856	16850.5
799.188	16703.16
799.519	16709.49
799.85	16634.46
800.182	16644.86
800.513	16655.71
800.844	16446.45
801.175	16555.82
801.506	16650.28
801.837	16497.52
802.168	16380.91
802.499	16274.7
802.83	16367.35
803.161	16345.43
803.491	16287.35
803.822	16317.18
804.153	16192.89
804.483	16122.16
804.814	16040.36
805.145	16042.16
805.475	15956.97
805.805	16047.59
806.136	16043.29
806.466	16073.8
806.796	16010.98
807.126	15805.33
807.457	15899.34
807.787	15780.02
808.117	15686.47
808.447	15638.11
808.777	15742.06
809.107	15698.22
809.436	15635.85
809.766	15543.64
810.096	15568.96
810.426	15507.71
810.755	15522.4
811.085	15453.25
811.414	15413.7
811.744	15335.97
812.073	15349.53
812.403	15341.84
812.732	15285.35
813.061	15195.63
813.39	15222.98
813.719	15175.97
814.049	15303.2
814.378	15136.2
814.707	15092.13
815.036	15215.52
815.365	15098.91
815.693	14909.99
816.022	14978.69
816.351	14971.46
816.68	14800.16
817.008	14946.6
817.337	14852.59
817.665	14700.5
817.994	14779.37
818.322	14725.59
818.651	14688.98
818.979	14678.36
819.307	14775.08
819.636	14708.41
819.964	14588.19
820.292	14671.13
820.62	14585.48
820.948	14551.13
821.276	14606.72
821.604	14518.59
821.932	14614.63
822.259	14556.55
822.587	14590.68
822.915	14585.48
823.243	14609.43
823.57	14488.76
823.898	14532.6
824.225	14424.13
824.553	14470.68
824.88	14520.17
825.207	14571.92
825.535	14455.31
825.862	14591.58
826.189	14517.91
826.516	14614.18
826.843	14643.33
827.17	14543.67
827.497	14573.73
827.824	14557.91
828.151	14625.25
828.478	14576.21
828.805	14632.48
829.131	14545.03
829.458	14571.92
829.785	14500.73
830.111	14555.87
830.438	14631.58
830.764	14465.93
831.09	14608.98
831.417	14512.71
831.743	14537.57
832.069	14582.09
832.395	14535.31
832.722	14551.13
833.048	14378.48
833.374	14489.89
833.7	14441.08
834.026	14423.9
834.351	14463.45
834.677	14441.98
835.003	14501.41
835.329	14493.96
835.654	14484.01
835.98	14323.79
836.306	14389.55
836.631	14285.15
836.956	14418.48
837.282	14445.37
837.607	14326.5
837.932	14201.31
838.258	14258.03
838.583	14324.69
838.908	14135.55
839.233	14164.92
839.558	14211.25
839.883	14148.88
840.208	14022.1
840.533	14081.31
840.858	14027.53
841.182	14101.65
841.507	14009.9
841.832	14013.74
842.156	14058.71
842.481	13977.81
842.805	13941.43
843.13	13817.14
843.454	13893.97
843.778	13770.13
844.103	13823.24
844.427	13698.95
844.751	13722.45
845.075	13703.47
845.399	13688.55
845.723	13583.02
846.047	13545.28
846.371	13564.94
846.695	13535.56
847.019	13385.74
847.343	13347.54
847.666	13291.27
847.99	13148
848.313	13261.67
848.637	13169.02
848.96	13103.71
849.284	13037.95
849.607	12967.44
849.931	12986.42
850.254	12856.94
850.577	12891.29
850.9	12755.92
851.223	12714.57
851.546	12585.76
851.869	12554.12
852.192	12644.74
852.515	12447.68
852.838	12462.82
853.161	12428.7
853.483	12470.05
853.806	12293.11
854.129	12389.83
854.451	12270.96
854.774	12187.58
855.096	12205.88
855.419	12106
855.741	12107.58
856.063	12074.81
856.385	12035.94
856.708	11959.11
857.03	11856.74
857.352	11935.83
857.674	11976.96
857.996	11915.72
858.318	11884.98
858.64	11768.83
858.961	11695.38
859.283	11735.16
859.605	11633.92
859.926	11668.94
860.248	11630.53
860.57	11576.52
860.891	11570.64
861.212	11506.24
861.534	11474.83
861.855	11460.81
862.176	11409.52
862.498	11452.91
862.819	11418.56
863.14	11360.25
863.461	11399.57
863.782	11315.73
864.103	11381.72
864.424	11347.82
864.745	11348.73
865.065	11199.13
865.386	11223.53
865.707	11203.65
866.027	11232.57
866.348	11159.35
866.668	11189.64
866.989	11156.19
867.309	11055.85
867.63	11175.4
867.95	11109.64
868.27	11057.89
868.59	11087.72
868.91	10999.13
869.23	11042.97
869.55	10912.58
869.87	10956.87
870.19	11000.94
870.51	11016.76
870.83	10979.02
871.15	10880.49
871.469	10880.04
871.789	10938.12
872.109	10853.15
872.428	10870.32
872.748	10873.49
873.067	10881.62
873.386	10831.45
873.706	10846.82
874.025	10727.5
874.344	10760.49
874.663	10738.57
874.982	10709.42
875.301	10703.77
875.62	10689.99
875.939	10673.49
876.258	10712.13
876.577	10607.05
876.896	10590.78
877.214	10612.25
877.533	10564.57
877.852	10550.78
878.17	10570.89
878.489	10529.31
878.807	10495.42
879.125	10478.69
879.444	10456.1
879.762	10515.08
880.08	10474.4
880.398	10361.41
880.716	10434.17
881.034	10347.85
881.352	10393.95
881.67	10369.32
881.988	10325.7
882.306	10271.24
882.624	10230.11
882.941	10253.61
883.259	10191.24
883.577	10169.55
883.894	10186.5
884.212	10170.68
884.529	10144.46
884.846	10121.64
885.164	10103.11
885.481	10004.36
885.798	10090
886.115	9919.84
886.432	10045.94
886.75	9930.46
887.067	9958.93
887.383	9861.31
887.7	9911.7
888.017	9828.09
888.334	9892.72
888.651	9782.21
888.967	9846.17
889.284	9696.79
889.6	9766.62
889.917	9682.33
890.233	9701.09
890.55	9683.91
890.866	9664.25
891.182	9576.57
891.498	9619.96
891.815	9526.4
892.131	9515.1
892.447	9417.7
892.763	9471.94
893.079	9390.36
893.395	9354.43
893.71	9319.18
894.026	9314.43
894.342	9314.88
894.657	9215.9
894.973	9239.4
895.289	9263.81
895.604	9219.97
895.92	9137.49
896.235	9076.7
896.55	9091.61
896.865	9098.39
897.181	9082.57
897.496	8988.79
897.811	9024.04
898.126	8928.45
898.441	8937.04
898.756	8908.34
899.071	8810.26
899.386	8886.42
899.7	8833.99
900.015	8712.19
900.33	8676.48
900.644	8634
900.959	8689.59
901.273	8649.14
901.588	8607.1
901.902	8535.92
902.216	8527.78
902.531	8497.05
902.845	8487.33
903.159	8439.65
903.473	8347
903.787	8380.67
904.101	8303.16
904.415	8246.44
904.729	8279.88
905.042	8223.16
905.356	8179.54
905.67	8183.84
905.984	8190.39
906.297	8124.18
906.611	8132.54
906.924	8061.81
907.237	8072.43
907.551	8048.02
907.864	7983.62
908.177	7937.74
908.491	7913.79
908.804	7859.78
909.117	7809.84
909.43	7794.92
909.743	7776.39
910.056	7718.77
910.368	7735.04
910.681	7662.27
910.994	7622.05
911.307	7638.54
911.619	7480.13
911.932	7595.83
912.244	7493.69
912.557	7489.85
912.869	7467.25
913.181	7391.32
913.494	7370.53
913.806	7380.02
914.118	7308.16
914.43	7292.56
914.742	7278.55
915.054	7217.08
915.366	7168.27
915.678	7128.5
915.99	7081.04
916.302	7120.82
916.613	7069.97
916.925	7053.25
917.236	6979.58
917.548	6993.14
917.859	7009.63
918.171	7023.42
918.482	6954.49
918.794	6852.8
919.105	6907.26
919.416	6847.6
919.727	6794.72
920.038	6814.61
920.349	6793.14
920.66	6696.42
920.971	6683.76
921.282	6716.98
921.593	6652.81
921.903	6604.44
922.214	6578.46
922.525	6543.2
922.835	6586.59
923.146	6531
923.456	6483.32
923.767	6453.94
924.077	6472.92
924.387	6371
924.697	6369.87
925.008	6313.15
925.318	6324.23
925.628	6323.1
925.938	6283.78
926.248	6294.4
926.558	6237
926.867	6229.54
927.177	6166.94
927.487	6193.61
927.796	6066.15
928.106	6109.09
928.416	6077.45
928.725	6001.52
929.034	6015.53
929.344	6030.9
929.653	5981.18
929.962	5951.13
930.271	5912.94
930.581	5881.3
930.89	5841.08
931.199	5891.7
931.508	5801.08
931.817	5835.65
932.125	5779.16
932.434	5797.69
932.743	5668.2
933.051	5717.91
933.36	5670.68
933.669	5667.29
933.977	5637.01
934.286	5578.71
934.594	5644.02
934.902	5557.92
935.21	5603.12
935.519	5572.38
935.827	5480.18
936.135	5463.91
936.443	5428.2
936.751	5407.64
937.059	5446.74
937.367	5403.35
937.674	5357.47
937.982	5312.95
938.29	5339.85
938.597	5329.22
938.905	5260.98
939.213	5267.53
939.52	5224.14
939.827	5212.84
940.135	5214.88
940.442	5160.19
940.749	5150.25
941.056	5123.35
941.363	5109.8
941.67	5049.46
941.977	5086.52
942.284	5045.62
942.591	5039.97
942.898	5049.01
943.205	5006.97
943.511	4934.43
943.818	4898.95
944.125	4890.37
944.431	4889.46
944.738	4846.53
945.044	4846.75
945.35	4801.55
945.657	4802.23
945.963	4789.13
946.269	4755.91
946.575	4762.69
946.881	4742.8
947.187	4707.09
947.493	4704.83
947.799	4665.96
948.105	4649.24
948.41	4673.42
948.716	4633.88
949.022	4573.09
949.327	4549.58
949.633	4468.23
949.938	4525.4
950.244	4519.53
950.549	4465.07
950.854	4495.8
951.16	4425.52
951.465	4445.18
951.77	4372.19
952.075	4404.73
952.38	4380.55
952.685	4316.6
952.99	4319.08
953.294	4352.3
953.599	4266.43
953.904	4271.62
954.209	4240.89
954.513	4256.26
954.818	4208.8
955.122	4227.56
955.426	4188.01
955.731	4226.2
956.035	4180.78
956.339	4144.85
956.643	4129.48
956.948	4098.3
957.252	4094
957.556	4051.74
957.86	4035.25
958.163	4028.92
958.467	4036.83
958.771	3994.12
959.075	3997.73
959.378	3965.64
959.682	3942.37
959.985	3908.47
960.289	3911.86
960.592	3881.13
960.896	3908.02
961.199	3858.3
961.502	3910.05
961.805	3795.03
962.108	3824.18
962.411	3805.87
962.714	3802.26
963.017	3762.03
963.32	3738.31
963.623	3732.2
963.926	3739.89
964.228	3724.29
964.531	3677.97
964.833	3698.98
965.136	3612.66
965.438	3686.33
965.741	3668.25
966.043	3640.91
966.345	3587.12
966.648	3588.03
966.95	3584.19
967.252	3553.23
967.554	3549.84
967.856	3528.82
968.158	3457.18
968.46	3503.74
968.761	3499.44
969.063	3476.39
969.365	3420.57
969.666	3483.62
969.968	3371.08
970.269	3392.55
970.571	3408.37
970.872	3346
971.174	3365.89
971.475	3293.35
971.776	3336.06
972.077	3301.93
972.378	3263.74
972.679	3282.05
972.98	3253.57
973.281	3256.28
973.582	3222.84
973.883	3239.34
974.183	3183.07
974.484	3230.97
974.785	3188.04
975.085	3149.85
975.386	3174.7
975.686	3166.34
975.986	3088.83
976.287	3134.03
976.587	3041.83
976.887	3050.41
977.187	3065.55
977.487	3062.39
977.787	3055.39
978.087	3040.7
978.387	3021.04
978.687	3002.28
978.987	2994.14
979.286	2961.15
979.586	2992.11
979.885	2934.94
980.185	2929.29
980.484	2957.99
980.784	2899.91
981.083	2884.54
981.382	2870.76
981.682	2860.81
981.981	2878.89
982.28	2842.06
982.579	2852.45
982.878	2828.95
983.177	2828.27
983.475	2790.53
983.774	2768.61
984.073	2794.83
984.372	2722.74
984.67	2764.77
984.969	2744.21
985.267	2746.92
985.566	2673.47
985.864	2695.4
986.162	2695.85
986.461	2671.67
986.759	2654.27
987.057	2642.52
987.355	2633.48
987.653	2625.11
987.951	2637.32
988.249	2619.92
988.547	2590.99
988.844	2574.72
989.142	2570.2
989.44	2530.43
989.737	2550.31
990.035	2511.67
990.332	2536.76
990.63	2503.99
990.927	2493.59
991.224	2492.91
991.521	2475.06
991.819	2473.93
992.116	2470.54
992.413	2405.46
992.71	2406.82
993.006	2437.55
993.303	2404.1
993.6	2386.02
993.897	2405.23
994.193	2399.36
994.49	2370.43
994.787	2361.17
995.083	2332.92
995.379	2314.84
995.676	2310.09
995.972	2292.47
996.268	2319.13
996.565	2298.57
996.861	2278.46
997.157	2287.72
997.453	2240.04
997.749	2254.95
998.044	2235.52
998.34	2171.12
998.636	2179.25
998.932	2218.35
999.227	2189.19
999.523	2188.97
999.818	2179.02
1000.114	2156.88
1000.409	2087.05
1000.704	2124.11
1001	2128.18
1001.295	2061.29
1001.59	2088.18
1001.885	2096.77
1002.18	2081.4
1002.475	2058.12
1002.77	2066.26
1003.065	2030.55
1003.359	2035.75
1003.654	2004.34
1003.949	1969.99
1004.243	1999.14
1004.538	1974.51
1004.832	1959.6
1005.127	1924.79
1005.421	1946.71
1005.715	1933.61
1006.009	1905.81
1006.304	1916.43
1006.598	1920.73
1006.892	1898.13
1007.186	1878.24
1007.48	1904
1007.773	1883.44
1008.067	1845.25
1008.361	1847.51
1008.655	1855.19
1008.948	1830.33
1009.242	1801.86
1009.535	1793.27
1009.829	1794.63
1010.122	1760.96
1010.415	1752.37
1010.708	1771.8
1011.001	1761.41
1011.295	1739.26
1011.588	1719.15
1011.881	1696.55
1012.173	1705.14
1012.466	1690
1012.759	1669.66
1013.052	1674.86
1013.344	1667.85
1013.637	1661.75
1013.93	1643.45
1014.222	1652.71
1014.514	1617.68
1014.807	1619.94
1015.099	1629.21
1015.391	1608.19
1015.683	1599.6
1015.976	1560.74
1016.268	1580.62
1016.56	1565.48
1016.851	1556.89
1017.143	1558.7
1017.435	1550.34
1017.727	1526.84
1018.018	1490.91
1018.31	1524.8
1018.602	1475.99
1018.893	1480.51
1019.185	1477.35
1019.476	1456.78
1019.767	1470.79
1020.058	1454.3
1020.35	1454.3
1020.641	1454.75
1020.932	1452.04
1021.223	1418.37
1021.514	1428.31
1021.804	1372.27
1022.095	1384.47
1022.386	1378.37
1022.677	1350.57
1022.967	1323.23
1023.258	1337.24
1023.548	1324.13
1023.839	1319.16
1024.129	1323.68
1024.419	1302.66
1024.709	1296.11
1025	1301.99
1025.29	1277.35
1025.58	1278.26
1025.87	1278.94
1026.16	1248.65
1026.449	1267.86
1026.739	1248.2
1027.029	1237.35
1027.319	1238.48
1027.608	1224.25
1027.898	1225.6
1028.187	1207.07
1028.477	1208.65
1028.766	1190.8
1029.055	1182.44
1029.344	1173.63
1029.634	1177.02
1029.923	1182.21
1030.212	1168.43
1030.501	1167.07
1030.79	1123.46
1031.078	1125.04
1031.367	1144.02
1031.656	1131.82
1031.945	1097.7
1032.233	1092.05
1032.522	1085.49
1032.81	1077.58
1033.099	1079.84
1033.387	1075.78
1033.675	1059.05
1033.963	1046.85
1034.251	1080.3
1034.54	1070.13
1034.828	1060.64
1035.116	1051.82
1035.403	1039.39
1035.691	1043.46
1035.979	1039.39
1036.267	1011.82
1036.554	1019.06
1036.842	1002.11
1037.129	997.13
1037.417	986.74
1037.704	966.4
1037.992	968.89
1038.279	934.09
1038.566	952.84
1038.853	952.84
1039.14	952.84
