Data from hue_00_FLMS001491_6.txt Node
Date: Mon Feb 06 15:29:11 GMT 2017
User: dcchb
Spectrometer: FLMS00149
Trigger mode: 0
Integration Time (sec): 2.000000E-2
Scans to average: 10
Electric dark correction enabled: true
Nonlinearity correction enabled: false
Boxcar width: 0
XAxis mode: Wavelengths
Number of Pixels in Spectrum: 2048
>>>>>Begin Spectral Data<<<<<
341.393	-4.56
341.776	-4.56
342.16	-4.56
342.543	-55.41
342.927	-82.3
343.31	-105.12
343.693	-58.12
344.077	-62.41
344.46	-54.05
344.843	-59.93
345.226	-23.77
345.61	-15.86
345.993	-28.97
346.376	-7.5
346.759	26.85
347.142	25.04
347.525	44.48
347.908	48.54
348.291	73.63
348.674	88.54
349.057	108.66
349.44	116.34
349.823	122.21
350.206	156.79
350.588	199.95
350.971	215.09
351.354	221.19
351.737	232.95
352.119	252.83
352.502	253.28
352.884	267.3
353.267	260.97
353.65	288.76
354.032	299.61
354.414	308.65
354.797	303.45
355.179	293.28
355.562	324.92
355.944	315.2
356.326	338.71
356.709	329.44
357.091	323.56
357.473	343.23
357.855	338.48
358.238	349.78
358.62	335.32
359.002	312.94
359.384	355.2
359.766	336.67
360.148	322.89
360.53	337.58
360.912	343.23
361.294	333.73
361.676	346.39
362.057	348.42
362.439	342.1
362.821	308.2
363.203	331.7
363.584	315.66
363.966	324.69
364.348	319.27
364.729	319.5
365.111	317.01
365.493	325.37
365.874	314.3
366.256	307.07
366.637	313.4
367.019	321.76
367.4	306.84
367.781	303
368.163	314.75
368.544	309.33
368.925	312.04
369.306	326.73
369.688	305.71
370.069	300.06
370.45	314.53
370.831	307.75
371.212	326.73
371.593	317.01
371.974	329.44
372.355	341.64
372.736	319.5
373.117	308.65
373.498	307.07
373.879	296
374.26	298.25
374.641	305.71
375.021	305.49
375.402	310.01
375.783	321.31
376.163	321.53
376.544	325.37
376.925	312.72
377.305	309.33
377.686	296
378.066	343.68
378.447	327.63
378.827	316.11
379.208	325.37
379.588	325.15
379.968	325.82
380.349	342.32
380.729	335.54
381.109	342.1
381.489	322.89
381.87	317.69
382.25	338.25
382.63	346.39
383.01	336.9
383.39	337.35
383.77	313.85
384.15	340.74
384.53	327.18
384.91	324.24
385.29	350.91
385.67	338.71
386.049	355.43
386.429	334.86
386.809	350.68
387.189	355.2
387.568	367.86
387.948	351.13
388.328	322.66
388.707	351.13
389.087	354.07
389.466	372.6
389.846	366.73
390.225	344.81
390.605	352.04
390.984	349.1
391.363	373.73
391.743	347.29
392.122	337.35
392.501	371.02
392.881	354.3
393.26	385.71
393.639	354.3
394.018	359.72
394.397	380.29
394.776	352.49
395.155	386.84
395.534	369.67
395.913	361.3
396.292	375.77
396.671	385.26
397.05	372.15
397.429	384.13
397.808	350.23
398.186	360.63
398.565	398.59
398.944	382.77
399.323	373.06
399.701	396.11
400.08	365.6
400.458	385.26
400.837	386.16
401.215	396.78
401.594	392.04
401.972	404.69
402.351	371.25
402.729	399.72
403.107	387.97
403.486	414.18
403.864	410.34
404.242	399.5
404.62	404.47
404.999	423.9
405.377	401.08
405.755	418.48
406.133	393.62
406.511	411.7
406.889	430.45
407.267	428.65
407.645	411.7
408.023	432.94
408.401	440.85
408.779	439.95
409.156	429.1
409.534	425.48
409.912	421.42
410.29	453.05
410.667	431.58
411.045	437.23
411.422	456.22
411.8	440.4
412.178	453.73
412.555	453.73
412.933	474.07
413.31	459.38
413.687	473.62
414.065	442.66
414.442	452.6
414.819	472.71
415.197	494.41
415.574	467.29
415.951	484.24
416.328	479.95
416.705	490.57
417.082	471.36
417.46	500.74
417.837	493.28
418.214	475.2
418.591	500.51
418.967	504.35
419.344	517.23
419.721	515.88
420.098	510.68
420.475	521.98
420.852	504.8
421.228	515.65
421.605	535.99
421.982	535.76
422.358	535.54
422.735	536.67
423.111	552.94
423.488	531.47
423.864	531.47
424.241	545.93
424.617	556.1
424.994	575.31
425.37	573.95
425.746	549.32
426.123	552.94
426.499	530.57
426.875	574.86
427.251	561.3
427.627	578.7
428.003	601.75
428.379	585.93
428.756	592.03
429.132	610.56
429.507	577.34
429.883	599.49
430.259	632.26
430.635	592.26
431.011	606.95
431.387	628.87
431.763	616.21
432.138	643.56
432.514	646.72
432.89	647.17
433.265	681.75
433.641	664.12
434.016	663.22
434.392	676.55
434.767	668.64
435.143	683.78
435.518	685.14
435.894	670.67
436.269	698.7
436.644	708.19
437.02	705.48
437.395	719.49
437.77	731.01
438.145	726.72
438.52	723.78
438.895	725.14
439.271	727.62
439.646	754.74
440.021	724.23
440.395	738.7
440.77	743.89
441.145	749.32
441.52	757
441.895	774.63
442.27	764.68
442.645	770.11
443.019	757.23
443.394	791.35
443.769	797.45
444.143	789.09
444.518	806.04
444.892	792.48
445.267	791.12
445.641	799.26
446.016	797.68
446.39	806.94
446.764	821.63
447.139	802.87
447.513	798.81
447.887	821.63
448.262	811.01
448.636	818.02
449.01	846.72
449.384	831.57
449.758	852.82
450.132	846.72
450.506	859.82
450.88	855.3
451.254	858.69
451.628	868.86
452.002	891.23
452.376	888.07
452.75	896.21
453.123	906.37
453.497	902.08
453.871	914.06
454.244	908.41
454.618	938.46
454.992	949.09
455.365	907.05
455.739	956.09
456.112	945.7
456.486	961.06
456.859	965.81
457.232	981.63
457.606	982.08
457.979	1008.97
458.352	1016.65
458.725	1001.51
459.099	1028.18
459.472	1074.73
459.845	1048.29
460.218	1062.98
460.591	1063.66
460.964	1081.51
461.337	1081.96
461.71	1079.48
462.083	1135.75
462.456	1109.53
462.829	1118.12
463.201	1133.49
463.574	1131
463.947	1142.3
464.32	1159.7
464.692	1181.85
465.065	1200.83
465.438	1213.03
465.81	1210.32
466.183	1238.34
466.555	1255.07
466.928	1259.81
467.3	1239.25
467.672	1290.77
468.045	1295.29
468.417	1307.72
468.789	1324.67
469.161	1332.8
469.534	1371
469.906	1373.25
470.278	1370.54
470.65	1378.68
471.022	1423.2
471.394	1444.67
471.766	1468.85
472.138	1498.68
472.51	1497.09
472.882	1542.97
473.253	1532.57
473.625	1562.18
473.997	1555.85
474.369	1628.16
474.74	1627.71
475.112	1663.19
475.484	1671.1
475.855	1708.61
476.227	1705.68
476.598	1788.84
476.97	1777.31
477.341	1809.85
477.713	1828.38
478.084	1829.97
478.455	1912.68
478.827	1892.56
479.198	1979.11
479.569	1978.89
479.94	2036.51
480.311	2053.01
480.682	2115.83
481.053	2140.69
481.424	2154.7
481.795	2214.36
482.166	2242.16
482.537	2223.18
482.908	2285.32
483.279	2292.78
483.65	2357.64
484.021	2421.81
484.391	2447.12
484.762	2450.06
485.133	2531.19
485.503	2516.5
485.874	2604.63
486.244	2625.43
486.615	2638.98
486.985	2686.21
487.356	2729.6
487.726	2755.14
488.097	2795.36
488.467	2848.7
488.837	2886.44
489.207	2927.34
489.578	2997.17
489.948	2995.36
490.318	3060.22
490.688	3074.23
491.058	3125.07
491.428	3161.23
491.798	3222.92
492.168	3252.53
492.538	3262.24
492.908	3282.13
493.278	3363.71
493.648	3372.52
494.017	3423.82
494.387	3428.57
494.757	3478.51
495.126	3530.26
495.496	3506.31
495.866	3562.12
496.235	3572.29
496.605	3600.31
496.974	3642.8
497.344	3662.01
497.713	3728.22
498.082	3723.48
498.452	3789.91
498.821	3788.33
499.19	3816.13
499.559	3871.95
499.928	3870.36
500.298	3872.62
500.667	3928.89
501.036	3921.89
501.405	3937.26
501.774	3986.97
502.143	3999.4
502.512	4022.45
502.88	4056.35
503.249	4052.28
503.618	4087.76
503.987	4099.96
504.356	4132.5
504.724	4169.11
505.093	4134.99
505.462	4205.04
505.83	4201.2
506.199	4224.93
506.567	4344.02
506.936	4287.98
507.304	4292.95
507.672	4329.34
508.041	4317.58
508.409	4402.33
508.777	4419.05
509.145	4480.52
509.514	4428.99
509.882	4461.31
510.25	4490.24
510.618	4509.67
510.986	4495.21
511.354	4565.04
511.722	4619.5
512.09	4622.66
512.458	4574.3
512.826	4675.77
513.193	4662.89
513.561	4691.81
513.929	4781.53
514.297	4757.57
514.664	4756.89
515.032	4784.24
515.4	4833.73
515.767	4827.85
516.135	4842.77
516.502	4855.65
516.869	4915.99
517.237	4916.44
517.604	4899.04
517.972	4977.45
518.339	4946.27
518.706	4982.43
519.073	5013.39
519.44	5000.5
519.808	5043.21
520.175	5068.52
520.542	5133.38
520.909	5127.05
521.276	5115.98
521.643	5179.26
522.009	5235.3
522.376	5211.12
522.743	5275.98
523.11	5263.77
523.477	5324.11
523.843	5322.98
524.21	5381.06
524.577	5399.59
524.943	5425.58
525.31	5459.93
525.676	5539.92
526.043	5485.24
526.409	5521.39
526.776	5587.61
527.142	5607.49
527.508	5620.37
527.874	5708.73
528.241	5721.16
528.607	5756.42
528.973	5758.9
529.339	5759.58
529.705	5807.71
530.071	5868.28
530.437	5889.97
530.803	5922.74
531.169	5983.76
531.535	5965.68
531.901	5963.87
532.267	5969.97
532.632	6092.68
532.998	6053.36
533.364	6085.22
533.73	6130.42
534.095	6158.67
534.461	6162.28
534.826	6213.58
535.192	6265.1
535.557	6264.43
535.923	6255.39
536.288	6342.84
536.653	6304.2
537.019	6324.54
537.384	6356.17
537.749	6330.64
538.114	6403.18
538.479	6457.64
538.845	6444.53
539.21	6431.88
539.575	6525.89
539.94	6545.1
540.305	6579.67
540.67	6590.74
541.034	6588.94
541.399	6642.27
541.764	6662.83
542.129	6729.5
542.494	6713.45
542.858	6724.98
543.223	6788.93
543.587	6792.77
543.952	6813.79
544.316	6799.1
544.681	6818.54
545.045	6905.31
545.41	6886.56
545.774	6892.43
546.138	6904.86
546.503	6998.19
546.867	6969.49
547.231	7046.55
547.595	7053.11
547.959	7023.05
548.324	7114.12
548.688	7135.59
549.052	7112.76
549.416	7227.79
549.779	7205.19
550.143	7215.36
550.507	7301.01
550.871	7273.44
551.235	7294.68
551.599	7346.21
551.962	7390.5
552.326	7355.24
552.689	7434.56
553.053	7367.45
553.417	7442.47
553.78	7515.69
554.143	7535.8
554.507	7492.42
554.87	7576.26
555.234	7598.4
555.597	7617.38
555.96	7539.65
556.323	7640.43
556.686	7628.68
557.05	7692.86
557.413	7718.17
557.776	7776.7
558.139	7775.35
558.502	7763.6
558.865	7782.13
559.228	7886.3
559.59	7896.47
559.953	7908.22
560.316	8033.42
560.679	7989.8
561.041	8110.7
561.404	8094.89
561.767	8073.42
562.129	8103.7
562.492	8141.66
562.854	8171.27
563.217	8198.61
563.579	8202.23
563.941	8235
564.304	8316.8
564.666	8307.31
565.028	8318.61
565.39	8347.53
565.753	8397.02
566.115	8444.48
566.477	8455.33
566.839	8460.07
567.201	8489.23
567.563	8505.72
567.925	8569
568.287	8627.53
568.648	8618.94
569.01	8691.93
569.372	8768.77
569.734	8698.26
570.095	8787.52
570.457	8816.45
570.819	8863
571.18	8837.01
571.542	8927.86
571.903	8918.82
572.265	9025.71
572.626	9053.73
572.987	9072.49
573.349	9105.48
573.71	9170.34
574.071	9219.15
574.432	9277.45
574.794	9358.36
575.155	9419.6
575.516	9371.91
575.877	9503.21
576.238	9553.38
576.599	9668.86
576.96	9679.48
577.32	9658.01
577.681	9765.58
578.042	9841.51
578.403	9825.69
578.763	10058.9
579.124	10066.13
579.485	10180.48
579.845	10328.27
580.206	10357.2
580.566	10400.59
580.927	10512
581.287	10646.91
581.648	10711.31
582.008	10913.57
582.368	10957.86
582.728	11137.52
583.089	11216.39
583.449	11367.12
583.809	11458.64
584.169	11672.65
584.529	11737.73
584.889	11988.57
585.249	12052.07
585.609	12237.6
585.969	12463.81
586.329	12563.92
586.688	12769.11
587.048	12885.72
587.408	13106.28
587.768	13223.34
588.127	13466.5
588.487	13583.1
588.846	13976.09
589.206	13999.82
589.565	14219.7
589.925	14603.42
590.284	14664.2
590.643	14940.81
591.003	15251.31
591.362	15440.46
591.721	15654.69
592.08	15898.3
592.44	16138.97
592.799	16390.94
593.158	16700.54
593.517	16815.56
593.876	17095.1
594.235	17293.97
594.593	17616.9
594.952	17873.84
595.311	18031.35
595.67	18380.27
596.029	18747.71
596.387	18977.76
596.746	19194.48
597.104	19395.38
597.463	19740.46
597.822	20020.9
598.18	20118.52
598.538	20536.37
598.897	20845.51
599.255	20807.55
599.613	21560.52
599.972	21584.93
600.33	21884.58
600.688	22015.42
601.046	22353.49
601.404	22652.7
601.762	22893.59
602.12	23153.47
602.478	23426.01
602.836	23603.18
603.194	23731.76
603.552	24051.08
603.91	24219.43
604.268	24551.85
604.625	24641.12
604.983	25034.1
605.341	25079.07
605.698	25394.09
606.056	25722.45
606.413	25975.09
606.771	26279.04
607.128	26500.5
607.485	26524.68
607.843	26783.66
608.2	27098.68
608.557	27251.22
608.914	27379.12
609.272	27805.78
609.629	27921.26
609.986	28080.35
610.343	28375.48
610.7	28560.79
611.057	28744.51
611.414	28857.73
611.771	29106.54
612.127	29325.74
612.484	29464.49
612.841	29797.59
613.198	29743.81
613.554	29930.24
613.911	30224.93
614.267	30348.09
614.624	30483.9
614.98	30653.16
615.337	30936.32
615.693	31007.96
616.05	31126.37
616.406	31423.76
616.762	31465.34
617.118	31570.2
617.475	31748.28
617.831	31929.06
618.187	32131.54
618.543	32187.36
618.899	32488.59
619.255	32426.45
619.611	32564.07
619.967	32785.31
620.323	32871.86
620.678	32779.89
621.034	32908.24
621.39	33082.93
621.746	33157.96
622.101	33641.78
622.457	33289.7
622.812	33549.36
623.168	33668.22
623.523	33762.69
623.879	33979.4
624.234	33708.9
624.589	33926.07
624.945	33982.57
625.3	34119.96
625.655	34143.92
626.01	34245.16
626.365	34394.99
626.72	34299.39
627.075	34375.1
627.43	34459.16
627.785	34427.08
628.14	34715.43
628.495	34633.17
628.85	34718.82
629.205	34557.92
629.559	34960.85
629.914	34937.12
630.269	34911.13
630.623	34840.85
630.978	34660.29
631.332	35005.14
631.687	35043.1
632.041	34971.02
632.396	34969.89
632.75	34922.66
633.104	34999.72
633.459	34961.98
633.813	35066.38
634.167	34914.75
634.521	35066.38
634.875	35088.3
635.229	35079.94
635.583	34980.73
635.937	35070
636.291	34975.99
636.645	35121.29
636.999	34978.02
637.352	35154.06
637.706	35068.19
638.06	35130.79
638.413	35014.63
638.767	34983.44
639.121	35107.96
639.474	35020.05
639.828	35027.29
640.181	35088.98
640.534	35062.54
640.888	34941.86
641.241	34898.93
641.594	34877.91
641.947	35088.07
642.301	34874.75
642.654	34938.7
643.007	34937.8
643.36	34957.23
643.713	34840.17
644.066	34951.58
644.419	34734.64
644.771	34590.69
645.124	34284.03
645.477	34281.99
645.83	34071.15
646.182	33941.21
646.535	33878.84
646.888	34043.81
647.24	33861.44
647.593	33961.78
647.945	33950.48
648.298	33857.37
648.65	33746.19
649.002	33737.83
649.355	33849.01
649.707	33843.59
650.059	33956.58
650.411	34344.82
650.763	34452.39
651.115	34703.68
651.467	34432.72
651.819	34541.42
652.171	34537.35
652.523	34539.39
652.875	34532.16
653.227	34389.11
653.578	34537.81
653.93	34474.98
654.282	34383.01
654.633	34263.01
654.985	34347.98
655.337	34441.09
655.688	34460.52
656.039	34438.6
656.391	34127.65
656.742	34118.83
657.094	34381.43
657.445	34437.47
657.796	34205.84
658.147	34202.67
658.498	34280.41
658.849	34261.43
659.2	34281.54
659.551	34237.93
659.902	34292.16
660.253	34318.38
660.604	34141.43
660.955	34155.22
661.306	34299.17
661.656	34178.95
662.007	34311.82
662.358	34130.81
662.708	34290.36
663.059	34122.45
663.409	34078.38
663.76	34154.09
664.11	34210.13
664.461	34192.28
664.811	34194.31
665.161	34194.31
665.511	34037.48
665.862	34089.46
666.212	34222.79
666.562	34233.86
666.912	34123.35
667.262	34156.57
667.612	34197.25
667.962	34110.7
668.312	34052.85
668.662	34212.62
669.011	34130.59
669.361	34056.24
669.711	34091.72
670.06	34152.28
670.41	33970.59
670.76	33871.38
671.109	34080.19
671.459	33971.49
671.808	34012.4
672.157	34021.89
672.507	33723.14
672.856	33766.08
673.205	33750.93
673.554	33975.34
673.904	33811.27
674.253	33942.12
674.602	33794.1
674.951	33455.8
675.3	33409.93
675.649	33744.38
675.998	33852.63
676.346	33902.12
676.695	33896.24
677.044	33580.09
677.393	33625.29
677.741	33715.46
678.09	33665.06
678.438	33678.17
678.787	33604.05
679.135	33665.74
679.484	33426.65
679.832	33444.73
680.181	33386.2
680.529	33502.13
680.877	33520.88
681.225	33369.7
681.573	33487.66
681.922	33279.76
682.27	33177.62
682.618	33243.83
682.966	33098.3
683.314	33397.27
683.661	33006.32
684.009	32937.17
684.357	32920
684.705	32894.23
685.053	32761.13
685.4	32797.51
685.748	32666.44
686.095	32758.19
686.443	32502.61
686.79	32552.77
687.138	32649.04
687.485	32490.4
687.832	32446.11
688.18	32484.75
688.527	32268.49
688.874	32106.23
689.221	32344.64
689.568	32293.8
689.915	32028.27
690.262	32171.77
690.609	31881.15
690.956	31796.41
691.303	31839.57
691.65	31642.52
691.997	31683.87
692.344	31500.37
692.69	31439.58
693.037	31519.81
693.383	31226.93
693.73	31277.33
694.077	31060.84
694.423	31168.4
694.769	31002.98
695.116	31047.5
695.462	30917.79
695.808	30764.8
696.155	31003.66
696.501	30600.06
696.847	30639.83
697.193	30450
697.539	30603.9
697.885	30383.34
698.231	30270.57
698.577	30299.05
698.923	30286.39
699.269	30068.09
699.614	29958.27
699.96	29938.15
700.306	29936.12
700.651	29843.92
700.997	29654.55
701.342	29704.26
701.688	29585.62
702.033	29495.23
702.379	29494.1
702.724	29485.74
703.069	29438.28
703.415	29177.27
703.76	29234.67
704.105	29238.28
704.45	29190.15
704.795	28950.83
705.14	28792.42
705.485	28870.61
705.83	28704.97
706.175	28756.72
706.52	28660.45
706.865	28549.94
707.209	28463.62
707.554	28460.23
707.899	28479.43
708.243	28337.07
708.588	28351.3
708.932	28126
709.277	28046.23
709.621	28051.65
709.966	27872.9
710.31	28001.71
710.654	27767.59
710.998	27809.17
711.342	27935.49
711.687	27690.98
712.031	27566.24
712.375	27615.28
712.719	27549.52
713.063	27401.5
713.407	27632
713.75	27425.45
714.094	27403.3
714.438	27399.24
714.782	27262.07
715.125	27160.15
715.469	27160.15
715.812	27091.9
716.156	26898.01
716.499	26876.31
716.843	27035.63
717.186	26837.9
717.53	26964.9
717.873	26808.74
718.216	26787.95
718.559	26682.87
718.902	26472.48
719.246	26449.88
719.589	26463.89
719.932	26337.8
720.275	26502.09
720.617	26433.61
720.96	26439.71
721.303	26367.63
721.646	26324.01
721.989	26176.22
722.331	26226.61
722.674	26225.03
723.016	26155.43
723.359	26059.84
723.701	26115.66
724.044	25864.81
724.386	25787.3
724.729	25940.74
725.071	25910.91
725.413	25914.53
725.755	25851.93
726.097	25804.7
726.439	25625.72
726.782	25643.35
727.124	25732.61
727.465	25574.65
727.807	25523.35
728.149	25495.11
728.491	25407.2
728.833	25583.92
729.175	25401.32
729.516	25311.16
729.858	25282.68
730.199	25368.1
730.541	25315.68
730.882	25204.94
731.224	25305.28
731.565	25112.29
731.906	25091.5
732.248	25099.18
732.589	25040.43
732.93	24889.7
733.271	24900.09
733.612	24974.44
733.953	24999.3
734.294	24813.32
734.635	24799.31
734.976	24832.53
735.317	24652.42
735.658	24613.1
735.999	24750.49
736.339	24722.7
736.68	24703.94
737.021	24546.2
737.361	24412.88
737.702	24574.68
738.042	24499.43
738.383	24424.85
738.723	24405.42
739.063	24364.29
739.404	24383.72
739.744	24255.37
740.084	24158.64
740.424	24273.67
740.764	24136.72
741.104	24193.9
741.444	24172.88
741.784	24109.83
742.124	24094.24
742.464	24103.5
742.804	23994.58
743.143	23930.85
743.483	23968.59
743.823	23831.2
744.162	23885.21
744.502	23884.3
744.841	23708.71
745.181	23830.97
745.52	23792.78
745.86	23826.68
746.199	23781.93
746.538	23717.53
746.877	23651.99
747.216	23678.21
747.556	23570.19
747.895	23526.12
748.234	23548.72
748.573	23428.72
748.911	23513.24
749.25	23430.75
749.589	23225.11
749.928	23348.95
750.267	23372.68
750.605	23275.73
750.944	23287.93
751.283	23095.85
751.621	23173.81
751.96	23065.11
752.298	23114.15
752.636	23025.57
752.975	22944.44
753.313	22879.58
753.651	22981.95
753.989	22873.48
754.327	22824.22
754.666	22751.9
755.004	22752.58
755.342	22747.83
755.679	22595.52
756.017	22470.55
756.355	22615.86
756.693	22474.17
757.031	22466.71
757.368	22378.58
757.706	22374.96
758.044	22236.44
758.381	22270.78
758.719	22218.58
759.056	22187.4
759.394	22111.69
759.731	21961.41
760.068	21920.51
760.405	21878.48
760.743	21918.25
761.08	21830.34
761.417	21789.89
761.754	21600.75
762.091	21737.47
762.428	21547.41
762.765	21417.47
763.102	21492.95
763.438	21418.38
763.775	21288.21
764.112	21304.26
764.449	21268.1
764.785	21110.59
765.122	21036.24
765.458	21040.31
765.795	20927.77
766.131	20875.57
766.467	20874.89
766.804	20736.81
767.14	20650.94
767.476	20666.98
767.812	20565.97
768.148	20538.63
768.485	20476.71
768.821	20398.29
769.157	20274.68
769.492	20276.03
769.828	20210.5
770.164	20084.4
770.5	20019.09
770.836	19975.93
771.171	19867.23
771.507	19880.11
771.842	19738.65
772.178	19664.75
772.513	19709.5
772.849	19555.38
773.184	19429.5
773.519	19498.2
773.855	19425.21
774.19	19339.56
774.525	19239.9
774.86	19244.42
775.195	19173.01
775.53	19126.23
775.865	18913.58
776.2	18767.15
776.535	18873.81
776.87	18773.93
777.205	18761.95
777.539	18644.67
777.874	18626.36
778.209	18463.88
778.543	18460.94
778.878	18357.44
779.212	18247.84
779.547	18219.82
779.881	18267.5
780.215	18134.62
780.55	18159.03
780.884	18034.74
781.218	17988.41
781.552	17920.16
781.886	17844.91
782.22	17738.47
782.554	17657.35
782.888	17529.89
783.222	17392.27
783.556	17391.82
783.889	17401.08
784.223	17272.05
784.557	17282.67
784.89	17155.89
785.224	17084.71
785.557	17035.89
785.891	17084.71
786.224	17013.52
786.558	16983.24
786.891	16806.75
787.224	16724.72
787.557	16740.76
787.891	16668.9
788.224	16615.79
788.557	16693.3
788.89	16534.21
789.223	16409.24
789.556	16328.79
789.888	16321.34
790.221	16304.39
790.554	16145.3
790.887	16168.12
791.219	16005.19
791.552	16111.4
791.884	15990.95
792.217	15905.53
792.549	15932.65
792.882	15763.38
793.214	15738.75
793.546	15797.51
793.879	15650.62
794.211	15613.78
794.543	15611.07
794.875	15596.84
795.207	15568.59
795.539	15409.5
795.871	15349.38
796.203	15320.91
796.535	15226.9
796.867	15156.17
797.198	15211.54
797.53	15186.22
797.862	15117.53
798.193	15077.3
798.525	14906.91
798.856	14981.48
799.188	14767.7
799.519	14763.41
799.85	14758.44
800.182	14748.95
800.513	14729.29
800.844	14607.71
801.175	14569.97
801.506	14619.23
801.837	14474.61
802.168	14459.46
802.499	14478
802.83	14333.82
803.161	14295.17
803.491	14224.44
803.822	14308.96
804.153	14268.06
804.483	14045.01
804.814	14040.04
805.145	14111.68
805.475	14032.36
805.805	14037.33
806.136	13963.21
806.466	13977.22
806.796	13908.29
807.126	13806.6
807.457	13700.39
807.787	13805.7
808.117	13666.04
808.447	13724.57
808.777	13773.61
809.107	13618.58
809.436	13578.81
809.766	13551.24
810.096	13592.37
810.426	13407.51
810.755	13521.64
811.085	13405.93
811.414	13339.04
811.744	13313.73
812.073	13324.13
812.403	13269.89
812.732	13200.29
813.061	13164.58
813.39	13123.23
813.719	13051.59
814.049	13172.49
814.378	13064.02
814.707	12997.13
815.036	13072.38
815.365	12883.01
815.693	12836.23
816.022	12889.79
816.351	12808.89
816.68	12780.19
817.008	12776.8
817.337	12640.76
817.665	12592.85
817.994	12616.12
818.322	12554.66
818.651	12613.86
818.979	12539.97
819.307	12566.63
819.636	12624.03
819.964	12424.26
820.292	12539.06
820.62	12462.45
820.948	12423.36
821.276	12566.41
821.604	12473.08
821.932	12516.69
822.259	12450.7
822.587	12477.82
822.915	12317.6
823.243	12502.91
823.57	12427.88
823.898	12496.13
824.225	12315.34
824.553	12316.24
824.88	12420.42
825.207	12337.26
825.535	12346.75
825.862	12386.52
826.189	12414.55
826.516	12428.56
826.843	12474.66
827.17	12389.91
827.497	12446.41
827.824	12383.81
828.151	12369.12
828.478	12432.17
828.805	12435.34
829.131	12336.81
829.458	12321.22
829.785	12255.45
830.111	12339.97
830.438	12310.59
830.764	12329.58
831.09	12330.71
831.417	12221.33
831.743	12373.64
832.069	12339.97
832.395	12264.04
832.722	12317.83
833.048	12182.01
833.374	12217.26
833.7	12165.74
834.026	12177.04
834.351	12269.01
834.677	12188.56
835.003	12268.79
835.329	12160.32
835.654	12167.77
835.98	12154.44
836.306	12060.66
836.631	12057.49
836.956	12048.23
837.282	12149.47
837.607	12021.79
837.932	12016.59
838.258	12021.79
838.583	12047.1
838.908	11921.9
839.233	11978.4
839.558	11927.78
839.883	11906.99
840.208	11840.1
840.533	11793.09
840.858	11874.45
841.182	11837.16
841.507	11812.08
841.832	11761.91
842.156	11709.25
842.481	11683.72
842.805	11669.48
843.13	11720.1
843.454	11669.71
843.778	11534.8
844.103	11617.96
844.427	11635.81
844.751	11512.2
845.075	11519.43
845.399	11457.74
845.723	11342.26
846.047	11479.43
846.371	11392.88
846.695	11344.97
847.019	11263.16
847.343	11180
847.666	11166.44
847.99	11079.21
848.313	11087.58
848.637	11036.28
848.96	10999.67
849.284	10959.44
849.607	10853.23
849.931	10923.51
850.254	10742.05
850.577	10737.08
850.9	10634.93
851.223	10615.5
851.546	10542.28
851.869	10481.72
852.192	10545.44
852.515	10489.4
852.838	10466.35
853.161	10502.73
853.483	10411.44
853.806	10394.94
854.129	10344.54
854.451	10339.35
854.774	10337.99
855.096	10209.18
855.419	10185.9
855.741	10173.93
856.063	10185.68
856.385	10130.31
856.708	10107.49
857.03	10062.97
857.352	10014.84
857.674	10054.61
857.996	9968.96
858.318	9923.09
858.64	9885.12
858.961	9877.89
859.283	9811
859.605	9866.14
859.926	9801.51
860.248	9733.94
860.57	9794.05
860.891	9745.92
861.212	9662.3
861.534	9693.26
861.855	9621.17
862.176	9639.93
862.498	9592.02
862.819	9653.72
863.14	9553.38
863.461	9528.52
863.782	9514.96
864.103	9512.48
864.424	9454.62
864.745	9531.23
865.065	9492.82
865.386	9394.74
865.707	9451.69
866.027	9329.88
866.348	9368.52
866.668	9426.83
866.989	9374.4
867.309	9288.75
867.63	9354.29
867.95	9349.54
868.27	9258.02
868.59	9228.42
868.91	9212.14
869.23	9233.16
869.55	9134.41
869.87	9243.33
870.19	9236.78
870.51	9143.67
870.83	9208.08
871.15	9082.66
871.469	9150.45
871.789	9103.22
872.109	9122.43
872.428	9084.01
872.748	9133.05
873.067	9078.14
873.386	9134.41
873.706	9067.97
874.025	9019.38
874.344	9040.62
874.663	9031.13
874.982	8977.12
875.301	8978.48
875.62	8914.07
875.939	8882.21
876.258	8917.01
876.577	8809.9
876.896	8844.7
877.214	8824.36
877.533	8863.91
877.852	8842.89
878.17	8854.19
878.489	8852.38
878.807	8753.4
879.125	8800.4
879.444	8827.97
879.762	8689.22
880.08	8770.12
880.398	8722.44
880.716	8705.94
881.034	8665.27
881.352	8705.27
881.67	8653.74
881.988	8667.3
882.306	8637.92
882.624	8530.13
882.941	8542.33
883.259	8493.97
883.577	8560.18
883.894	8557.25
884.212	8504.82
884.529	8518.6
884.846	8414.43
885.164	8390.47
885.481	8445.84
885.798	8314.99
886.115	8349.34
886.432	8316.35
886.75	8351.6
887.067	8349.34
887.383	8294.43
887.7	8294.2
888.017	8261.21
888.334	8212.4
888.651	8182.34
888.967	8161.1
889.284	8173.08
889.6	8144.83
889.917	8070.25
890.233	8103.25
890.55	8055.79
890.866	8122.91
891.182	8049.69
891.498	7995
891.815	7916.36
892.131	8008.56
892.447	7949.81
892.763	8005.85
893.079	7858.06
893.395	7865.51
893.71	7900.99
894.026	7863.93
894.342	7828.9
894.657	7781.22
894.973	7809.7
895.289	7743.93
895.604	7747.1
895.92	7656.25
896.235	7622.13
896.55	7637.95
896.865	7570.15
897.181	7559.53
897.496	7544.84
897.811	7541.91
898.126	7466.43
898.441	7468.24
898.756	7407.45
899.071	7419.2
899.386	7422.36
899.7	7392.53
900.015	7346.88
900.33	7294.68
900.644	7292.2
900.959	7392.53
901.273	7255.59
901.588	7212.65
901.902	7158.41
902.216	7149.37
902.531	7113.89
902.845	7119.77
903.159	7065.99
903.473	7029.38
903.787	7004.97
904.101	7023.95
904.415	6959.55
904.729	6988.25
905.042	6920.23
905.356	6911.41
905.67	6897.86
905.984	6861.25
906.297	6849.95
906.611	6833.9
906.924	6775.15
907.237	6760.01
907.551	6809.95
907.864	6710.06
908.177	6731.98
908.491	6668.03
908.804	6609.28
909.117	6640.46
909.43	6598.65
909.743	6566.11
910.056	6520.92
910.368	6512.55
910.681	6442.95
910.994	6475.49
911.307	6407.47
911.619	6375.16
911.932	6376.74
912.244	6327.02
912.557	6317.31
912.869	6308.49
913.181	6295.16
913.494	6250.19
913.806	6268.27
914.118	6237.31
914.43	6184.88
914.742	6174.94
915.054	6141.49
915.366	6140.59
915.678	6046.13
915.99	6016.52
916.302	6021.95
916.613	5958.22
916.925	6073.92
917.236	5970.87
917.548	5932.01
917.859	5931.55
918.171	5897.2
918.482	5873.48
918.794	5826.7
919.105	5810.2
919.416	5798.45
919.727	5709.41
920.038	5768.39
920.349	5715.97
920.66	5693.14
920.971	5709.41
921.282	5621.05
921.593	5606.14
921.903	5620.37
922.214	5531.34
922.525	5575.18
922.835	5490.89
923.146	5488.63
923.456	5518
923.767	5411.57
924.077	5437.33
924.387	5382.64
924.697	5389.42
925.008	5342.42
925.318	5352.13
925.628	5290.89
925.938	5334.51
926.248	5268.29
926.558	5242.76
926.867	5219.71
927.177	5258.12
927.487	5219.93
927.796	5162.76
928.106	5183.32
928.416	5131.57
928.725	5141.29
929.034	5083.21
929.344	5066.49
929.653	5069.2
929.962	5029.43
930.271	4952.6
930.581	4986.49
930.89	4958.47
931.199	4930.9
931.508	4927.96
931.817	4890.45
932.125	4912.37
932.434	4844.8
932.743	4799.38
933.051	4785.82
933.36	4789.44
933.669	4735.88
933.977	4752.83
934.286	4774.97
934.594	4726.39
934.902	4709.89
935.21	4666.95
935.519	4680.51
935.827	4663.34
936.135	4618.82
936.443	4591.02
936.751	4589.44
937.059	4588.99
937.367	4509.9
937.674	4569.55
937.982	4520.29
938.29	4474.87
938.597	4493.4
938.905	4425.38
939.213	4414.53
939.52	4403.01
939.827	4441.65
940.135	4352.84
940.442	4358.26
940.749	4344.48
941.056	4351.71
941.363	4272.61
941.67	4249.11
941.977	4271.71
942.284	4249.34
942.591	4234.2
942.898	4210.92
943.205	4203.91
943.511	4205.04
943.818	4119.85
944.125	4101.09
944.431	4165.05
944.738	4125.27
945.044	4073.52
945.35	4085.27
945.657	4044.82
945.963	4035.56
946.269	4044.82
946.575	3994.65
946.881	3962.79
947.187	3998.27
947.493	3944.49
947.799	3926.18
948.105	3931.61
948.41	3920.08
948.716	3917.82
949.022	3889.57
949.327	3868.1
949.633	3814.09
949.938	3820.42
950.244	3819.52
950.549	3818.16
950.854	3753.08
951.16	3763.93
951.465	3700.88
951.77	3696.81
952.075	3696.13
952.38	3655.68
952.685	3709.92
952.99	3647.77
953.294	3652.97
953.599	3577.04
953.904	3597.38
954.209	3575.23
954.513	3582.91
954.818	3576.36
955.122	3575.68
955.426	3519.87
955.731	3525.51
956.035	3516.02
956.339	3468.79
956.643	3427.89
956.948	3483.26
957.252	3464.05
957.556	3450.49
957.86	3404.84
958.163	3425.86
958.467	3399.19
958.771	3386.76
959.075	3328.91
959.378	3303.15
959.682	3323.94
959.985	3266.54
960.289	3319.42
960.592	3278.97
960.896	3261.57
961.199	3285.52
961.502	3248.23
961.805	3246.65
962.108	3217.95
962.411	3238.29
962.714	3185.18
963.017	3195.58
963.32	3207.33
963.623	3126.66
963.926	3172.76
964.228	3092.98
964.531	3114.9
964.833	3110.38
965.136	3078.75
965.438	3095.24
965.741	3040.78
966.043	3071.97
966.345	3055.47
966.648	2996.71
966.95	3030.16
967.252	2970.28
967.554	2952.42
967.856	2970.95
968.158	2884.18
968.46	2923.5
968.761	2895.7
969.063	2928.47
969.365	2940.22
969.666	2890.28
969.968	2841.46
970.269	2870.39
970.571	2892.08
970.872	2846.21
971.174	2820
971.475	2825.42
971.776	2813.44
972.077	2796.27
972.378	2767.12
972.679	2767.57
972.98	2770.73
973.281	2747.91
973.582	2746.1
973.883	2732.99
974.183	2715.59
974.484	2709.26
974.785	2700.45
975.085	2641.47
975.386	2691.86
975.686	2660.9
975.986	2644.63
976.287	2622.49
976.587	2607.8
976.887	2588.36
977.187	2586.33
977.487	2568.93
977.787	2557.63
978.087	2538.65
978.387	2544.52
978.687	2532.77
978.987	2526.22
979.286	2502.49
979.586	2493.9
979.885	2495.26
980.185	2480.8
980.484	2480.8
980.784	2503.39
981.083	2447.35
981.382	2432.21
981.682	2448.93
981.981	2433.79
982.28	2413.91
982.579	2413.23
982.878	2414.81
983.177	2378.65
983.475	2391.76
983.774	2342.72
984.073	2343.62
984.372	2324.19
984.67	2315.83
984.969	2330.52
985.267	2303.85
985.566	2286.45
985.864	2302.95
986.162	2288.49
986.461	2273.8
986.759	2312.44
987.057	2246.45
987.355	2256.85
987.653	2217.07
987.951	2234.02
988.249	2207.81
988.547	2197.64
988.844	2187.47
989.142	2207.13
989.44	2153.35
989.737	2153.8
990.035	2168.49
990.332	2144.53
990.63	2110.64
990.927	2152.22
991.224	2151.31
991.521	2119.45
991.819	2095.5
992.116	2091.43
992.413	2108.15
992.71	2089.17
993.006	2021.37
993.303	2039
993.6	2038.1
993.897	2039.68
994.193	2053.91
994.49	2008.04
994.787	2005.33
995.083	2015.95
995.379	2013.69
995.676	1992.67
995.972	1943.64
996.268	1928.95
996.565	1956.52
996.861	1937.08
997.157	1966.01
997.453	1915.16
997.749	1930.98
998.044	1875.61
998.34	1889.17
998.636	1903.64
998.932	1900.25
999.227	1863.64
999.523	1866.35
999.818	1869.06
1000.114	1843.3
1000.409	1831.77
1000.704	1828.84
1001	1838.55
1001.295	1799.91
1001.59	1770.53
1001.885	1782.51
1002.18	1767.82
1002.475	1761.95
1002.77	1782.06
1003.065	1719.91
1003.359	1730.08
1003.654	1747.48
1003.949	1742.28
1004.243	1712.91
1004.538	1700.48
1004.832	1665
1005.127	1700.7
1005.421	1717.88
1005.715	1661.83
1006.009	1680.82
1006.304	1664.77
1006.598	1637.65
1006.892	1624.32
1007.186	1624.55
1007.48	1607.6
1007.773	1596.3
1008.067	1582.51
1008.361	1623.19
1008.655	1566.24
1008.948	1563.53
1009.242	1544.1
1009.535	1575.28
1009.829	1561.05
1010.122	1538.45
1010.415	1537.54
1010.708	1509.3
1011.001	1523.76
1011.295	1481.73
1011.588	1468.62
1011.881	1480.14
1012.173	1465.46
1012.466	1455.96
1012.759	1461.61
1013.052	1440.37
1013.344	1441.95
1013.637	1441.5
1013.93	1449.41
1014.222	1436.08
1014.514	1437.89
1014.807	1418.68
1015.099	1396.53
1015.391	1399.02
1015.683	1352.46
1015.976	1384.55
1016.268	1369.41
1016.56	1322.86
1016.851	1342.75
1017.143	1357.21
1017.435	1318.79
1017.727	1345.01
1018.018	1307.72
1018.31	1299.36
1018.602	1333.93
1018.893	1311.34
1019.185	1274.73
1019.476	1281.28
1019.767	1267.95
1020.058	1293.03
1020.35	1260.72
1020.641	1255.74
1020.932	1263.88
1021.223	1230.43
1021.514	1237.44
1021.804	1232.69
1022.095	1233.37
1022.386	1219.36
1022.677	1174.16
1022.967	1177.78
1023.258	1182.3
1023.548	1176.2
1023.839	1165.35
1024.129	1154.05
1024.419	1154.28
1024.709	1139.14
1025	1151.11
1025.29	1124.22
1025.58	1120.38
1025.87	1144.33
1026.16	1125.58
1026.449	1104.11
1026.739	1085.13
1027.029	1109.76
1027.319	1079.25
1027.608	1083.09
1027.898	1070.66
1028.187	1051.46
1028.477	1043.55
1028.766	1069.53
1029.055	1020.04
1029.344	1073.6
1029.634	1025.24
1029.923	1013.72
1030.212	1029.54
1030.501	1046.71
1030.79	1010.55
1031.078	987.28
1031.367	1001.51
1031.656	1008.29
1031.945	989.76
1032.233	997.67
1032.522	986.82
1032.81	956.99
1033.099	951.12
1033.387	972.36
1033.675	931.23
1033.963	955.41
1034.251	937.79
1034.54	928.75
1034.828	928.29
1035.116	941.85
1035.403	942.31
1035.691	910.22
1035.979	905.47
1036.267	896.43
1036.554	870.44
1036.842	893.95
1037.129	882.87
1037.417	881.74
1037.704	857.56
1037.992	873.83
1038.279	883.1
1038.566	835.19
1038.853	835.19
1039.14	835.19
