Data from hue_50_FLMS001491_42.txt Node
Date: Mon Feb 06 15:10:11 GMT 2017
User: dcchb
Spectrometer: FLMS00149
Trigger mode: 0
Integration Time (sec): 2.000000E-2
Scans to average: 10
Electric dark correction enabled: true
Nonlinearity correction enabled: false
Boxcar width: 0
XAxis mode: Wavelengths
Number of Pixels in Spectrum: 2048
>>>>>Begin Spectral Data<<<<<
341.393	-13.8
341.776	-13.8
342.16	-13.8
342.543	-54.93
342.927	-60.58
343.31	-60.58
343.693	-56.06
344.077	-67.58
344.46	-69.62
344.843	-63.06
345.226	-49.28
345.61	-18.32
345.993	-26.45
346.376	-9.96
346.759	14.9
347.142	30.72
347.525	48.35
347.908	61.45
348.291	77.95
348.674	83.83
349.057	103.71
349.44	141.9
349.823	129.02
350.206	152.98
350.588	197.49
350.971	197.72
351.354	213.77
351.737	244.5
352.119	246.31
352.502	274.33
352.884	275.91
353.267	267.1
353.65	285.63
354.032	298.74
354.414	301.22
354.797	308
355.179	319.98
355.562	311.39
355.944	331.5
356.326	331.05
356.709	343.48
357.091	343.93
357.473	338.96
357.855	346.19
358.238	337.83
358.62	340.99
359.002	344.61
359.384	346.42
359.766	353.42
360.148	331.95
360.53	346.64
360.912	352.74
361.294	313.2
361.676	330.6
362.057	339.64
362.439	321.79
362.821	319.07
363.203	323.59
363.584	341.9
363.966	309.13
364.348	317.94
364.729	316.36
365.111	310.26
365.493	323.14
365.874	302.8
366.256	302.12
366.637	319.98
367.019	308.68
367.4	304.16
367.781	314.78
368.163	325.85
368.544	314.33
368.925	318.17
369.306	338.06
369.688	302.35
370.069	313.65
370.45	308.9
370.831	316.59
371.212	321.79
371.593	332.63
371.974	321.79
372.355	313.42
372.736	309.13
373.117	302.35
373.498	318.62
373.879	299.64
374.26	315.68
374.641	331.5
375.021	287.66
375.402	330.6
375.783	329.47
376.163	302.8
376.544	326.53
376.925	326.76
377.305	305.51
377.686	334.21
378.066	319.98
378.447	315.23
378.827	310.03
379.208	330.82
379.588	329.24
379.968	345.74
380.349	312.75
380.729	322.24
381.109	327.89
381.489	336.47
381.87	335.34
382.25	354.55
382.63	321.79
383.01	353.42
383.39	330.82
383.77	336.47
384.15	328.56
384.53	333.99
384.91	325.18
385.29	315.68
385.67	341.9
386.049	354.55
386.429	365.85
386.809	324.05
387.189	338.51
387.568	339.19
387.948	337.83
388.328	341.9
388.707	350.03
389.087	326.76
389.466	348.9
389.846	349.81
390.225	346.87
390.605	364.5
390.984	356.13
391.363	361.78
391.743	350.26
392.122	363.82
392.501	372.18
392.881	350.94
393.26	351.84
393.639	375.12
394.018	356.59
394.397	353.65
394.776	364.5
395.155	363.37
395.534	359.75
395.913	357.26
396.292	380.99
396.671	362.91
397.05	380.31
397.429	381.44
397.808	374.21
398.186	389.58
398.565	376.47
398.944	376.02
399.323	392.07
399.701	375.8
400.08	362.01
400.458	390.26
400.837	381.22
401.215	390.94
401.594	386.87
401.972	383.7
402.351	406.75
402.729	388
403.107	396.81
403.486	392.52
403.864	395.91
404.242	397.04
404.62	385.29
404.999	388
405.377	405.17
405.755	383.48
406.133	395.23
406.511	411.27
406.889	400.2
407.267	393.42
407.645	396.36
408.023	408.56
408.401	381.22
408.779	400.65
409.156	420.09
409.534	425.06
409.912	415.79
410.29	417.6
410.667	433.19
411.045	434.78
411.422	429.13
411.8	432.52
412.178	433.87
412.555	428
412.933	439.52
413.31	445.17
413.687	421.44
414.065	446.3
414.442	449.92
414.819	438.84
415.197	448.56
415.574	443.14
415.951	464.38
416.328	456.02
416.705	478.39
417.082	450.14
417.46	475.45
417.837	463.48
418.214	445.17
418.591	472.29
418.967	494.21
419.344	481.56
419.721	484.94
420.098	471.39
420.475	474.32
420.852	498.5
421.228	483.14
421.605	496.02
421.982	503.93
422.358	495.57
422.735	504.38
423.111	503.93
423.488	505.06
423.864	519.97
424.241	521.1
424.617	525.17
424.994	521.33
425.37	507.54
425.746	501.89
426.123	535.79
426.499	533.08
426.875	536.69
427.251	536.24
427.627	529.69
428.003	532.18
428.379	537.82
428.756	545.73
429.132	538.5
429.507	580.54
429.883	566.98
430.259	563.81
430.635	546.86
431.011	559.07
431.387	590.93
431.763	572.4
432.138	570.82
432.514	574.21
432.89	589.35
433.265	599.07
433.641	610.37
434.016	589.35
434.392	612.17
434.767	607.43
435.143	612.17
435.518	628.44
435.894	623.25
436.269	637.48
436.644	609.24
437.02	641.32
437.395	615.79
437.77	629.57
438.145	642.45
438.52	650.59
438.895	668.89
439.271	658.5
439.646	651.95
440.021	677.03
440.395	661.44
440.77	684.49
441.145	684.71
441.52	680.19
441.895	709.8
442.27	689.01
442.645	693.07
443.019	701.89
443.394	703.24
443.769	708.44
444.143	714.32
444.518	699.4
444.892	708.67
445.267	687.65
445.641	714.77
446.016	733.3
446.39	738.5
446.764	735.11
447.139	732.85
447.513	719.51
447.887	739.63
448.262	743.24
448.636	741.21
449.01	749.57
449.384	738.27
449.758	757.03
450.132	751.38
450.506	788.21
450.88	776.91
451.254	777.37
451.628	792.73
452.002	799.29
452.376	786.86
452.75	806.29
453.123	808.55
453.497	825.05
453.871	807.87
454.244	826.63
454.618	817.59
454.992	840.87
455.365	835.44
455.739	863.47
456.112	874.31
456.486	857.14
456.859	882
457.232	881.09
457.606	906.85
457.979	922.67
458.352	928.55
458.725	965.38
459.099	930.36
459.472	957.7
459.845	929.45
460.218	959.51
460.591	966.97
460.964	991.37
461.337	960.86
461.71	1005.16
462.083	1020.07
462.456	1018.49
462.829	1050.81
463.201	1032.05
463.574	1063.46
463.947	1058.04
464.32	1089.45
464.692	1093.06
465.065	1098.04
465.438	1136.91
465.81	1117.92
466.183	1136
466.555	1153.18
466.928	1182.78
467.3	1206.06
467.672	1184.14
468.045	1218.48
468.417	1252.38
468.789	1239.28
469.161	1260.74
469.534	1283.34
469.906	1334.19
470.278	1336.45
470.65	1356.33
471.022	1393.17
471.394	1434.52
471.766	1410.57
472.138	1467.29
472.51	1505.26
472.882	1531.25
473.253	1560.62
473.625	1605.14
473.997	1637.68
474.369	1623.67
474.74	1639.49
475.112	1745.93
475.484	1798.13
475.855	1813.72
476.227	1823.89
476.598	1923.1
476.97	1947.73
477.341	1986.37
477.713	2019.37
478.084	2066.15
478.455	2126.94
478.827	2181.62
479.198	2278.34
479.569	2302.98
479.94	2421.39
480.311	2441.28
480.682	2540.48
481.053	2602.18
481.424	2668.39
481.795	2756.3
482.166	2804.88
482.537	2890.31
482.908	2984.09
483.279	3010.98
483.65	3153.58
484.021	3235.61
484.391	3356.28
484.762	3435.83
485.133	3517.63
485.503	3586.78
485.874	3681.47
486.244	3803.5
486.615	3905.19
486.985	3999.65
487.356	4140.89
487.726	4239.87
488.097	4373.66
488.467	4461.34
488.837	4602.35
489.207	4743.14
489.578	4816.58
489.948	4950.36
490.318	5102.22
490.688	5134.09
491.058	5311.71
491.428	5420.63
491.798	5568.2
492.168	5709.21
492.538	5782.21
492.908	5971.35
493.278	6098.58
493.648	6145.59
494.017	6319.82
494.387	6443.66
494.757	6625.8
495.126	6680.71
495.496	6847.72
495.866	6917.77
496.235	7035.28
496.605	7209.51
496.974	7263.75
497.344	7411.77
497.713	7541.26
498.082	7755.04
498.452	7812.66
498.821	7931.98
499.19	8032.77
499.559	8151.18
499.928	8274.57
500.298	8417.84
500.667	8525.64
501.036	8587.1
501.405	8731.06
501.774	8851.5
502.143	8914.78
502.512	9037.49
502.88	9183.02
503.249	9283.81
503.618	9367.65
503.987	9482
504.356	9612.39
504.724	9651.71
505.093	9841.99
505.462	9829.11
505.83	10012.6
506.199	10133.73
506.567	10271.13
506.936	10271.81
507.304	10521.74
507.672	10506.15
508.041	10618.24
508.409	10761.06
508.777	10924.9
509.145	11010.32
509.514	11080.6
509.882	11145.68
510.25	11258.67
510.618	11312.91
510.986	11415.28
511.354	11591.55
511.722	11690.98
512.09	11855.95
512.458	11830.86
512.826	11997.41
513.193	12073.79
513.561	12081.48
513.929	12189.5
514.297	12410.06
514.664	12497.06
515.032	12508.13
515.4	12617.51
515.767	12785.86
516.135	12823.15
516.502	12796.03
516.869	13054.56
517.237	13183.37
517.604	13132.07
517.972	13343.36
518.339	13337.94
518.706	13422.68
519.073	13561.21
519.44	13581.55
519.808	13780.87
520.175	13821.77
520.542	14086.85
520.909	14014.31
521.276	14078.94
521.643	14270.35
522.009	14421.08
522.376	14536.78
522.743	14555.99
523.11	14747.39
523.477	14907.84
523.843	14985.58
524.21	15110.77
524.577	15199.81
524.943	15226.25
525.31	15442.97
525.676	15543.98
526.043	15618.33
526.409	15649.07
526.776	15831.21
527.142	15895.39
527.508	15986.68
527.874	16098.09
528.241	16230.07
528.607	16266.9
528.973	16430.29
529.339	16483.85
529.705	16607.68
530.071	16742.82
530.437	16926.77
530.803	16908.69
531.169	17051.51
531.535	17055.58
531.901	17157.05
532.267	17220.55
532.632	17347.1
532.998	17346.87
533.364	17541.45
533.73	17527.21
534.095	17649.69
534.461	17713.19
534.826	17804.72
535.192	17982.56
535.557	18077.48
535.923	18149.11
536.288	18150.02
536.653	18239.73
537.019	18264.59
537.384	18404.02
537.749	18485.6
538.114	18471.82
538.479	18543.45
538.845	18628.42
539.21	18535.77
539.575	18757.23
539.94	18785.93
540.305	18917.23
540.67	18949.32
541.034	18946.61
541.399	19040.16
541.764	19217.11
542.129	19243.55
542.494	19264.79
542.858	19235.41
543.223	19440.38
543.587	19429.31
543.952	19475.86
544.316	19643.76
544.681	19614.16
545.045	19786.58
545.41	19790.43
545.774	19859.12
546.138	19895.51
546.503	19933.47
546.867	19955.39
547.231	20094.82
547.595	20159.23
547.959	20328.04
548.324	20194.48
548.688	20358.55
549.052	20464.53
549.416	20456.17
549.779	20465.44
550.143	20588.6
550.507	20727.8
550.871	20741.59
551.235	20781.81
551.599	20910.85
551.962	21089.37
552.326	21026.1
552.689	21149.49
553.053	21075.14
553.417	21153.78
553.78	21503.38
554.143	21334.34
554.507	21545.18
554.87	21516.03
555.234	21756.02
555.597	21745.85
555.96	21628.8
556.323	21773.88
556.686	21716.25
557.05	22018.62
557.413	22097.26
557.776	22175.67
558.139	22354.65
558.502	22382.45
558.865	22403.24
559.228	22613.63
559.59	22676.23
559.953	22760.97
560.316	22948.54
560.679	22847.97
561.041	22942.66
561.404	23171.81
561.767	23225.36
562.129	23071.92
562.492	23501.06
562.854	23407.05
563.217	23526.82
563.579	23637.1
563.941	23683.88
564.304	23859.25
564.666	23953.71
565.028	24045
565.39	24149.86
565.753	24320.7
566.115	24384.88
566.477	24480.47
566.839	24455.84
567.201	24659.45
567.563	24656.74
567.925	24816.06
568.287	24801.82
568.648	24887.69
569.01	25089.27
569.372	25249.72
569.734	25082.49
570.095	25334.23
570.457	25432.99
570.819	25575.13
571.18	25534.68
571.542	25817.39
571.903	25683.38
572.265	25855.13
572.626	25950.04
572.987	25957.95
573.349	26169.47
573.71	26321.78
574.071	26296.92
574.432	26510.02
574.794	26620.53
575.155	26688.1
575.516	26654.88
575.877	26742.56
576.238	26894.87
576.599	26974.42
576.96	26966.96
577.32	27229.78
577.681	27183.68
578.042	27281.75
578.403	27372.37
578.763	27556.1
579.124	27557.23
579.485	27728.52
579.845	27806.71
580.206	27802.87
580.566	27826.6
580.927	28141.17
581.287	28094.61
581.648	28097.33
582.008	28381.39
582.368	28378.45
582.728	28395.85
583.089	28515.39
583.449	28508.16
583.809	28730.3
584.169	28903.18
584.529	28822.05
584.889	29169.39
585.249	29192.21
585.609	29096.4
585.969	29330.29
586.329	29257.97
586.688	29517.18
587.048	29571.64
587.408	29540.23
587.768	29604.18
588.127	29732.99
588.487	29765.3
588.846	30063.15
589.206	29859.99
589.565	30111.96
589.925	30405.51
590.284	30321.22
590.643	30408.68
591.003	30542.46
591.362	30725.28
591.721	30823.81
592.08	30764.15
592.44	30899.06
592.799	31000.3
593.158	31111.03
593.517	31205.27
593.876	31354.87
594.235	31323
594.593	31394.64
594.952	31579.95
595.311	31555.31
595.67	31678.7
596.029	31868.75
596.387	31970.44
596.746	32083.66
597.104	31894.51
597.463	32061.74
597.822	32296.54
598.18	32315.97
598.538	32199.82
598.897	32468.96
599.255	32369.98
599.613	32872.34
599.972	32734.04
600.33	32691.56
600.688	32769.75
601.046	32928.84
601.404	33191.43
601.762	33066.24
602.12	33361.59
602.478	33451.54
602.836	33423.06
603.194	33192.56
603.552	33492.44
603.91	33345.32
604.268	33715.71
604.625	33633.23
604.983	33771.53
605.341	33520.23
605.698	33936.49
606.056	34012.65
606.413	34120.67
606.771	34185.3
607.128	34350.27
607.485	33991.18
607.843	34280.67
608.2	34309.14
608.557	34549.81
608.914	34452.19
609.272	34698.06
609.629	34734.21
609.986	34829.35
610.343	34848.79
610.7	35050.36
611.057	35155.45
611.414	35055.34
611.771	35306.85
612.127	35369.9
612.484	35298.49
612.841	35485.83
613.198	35385.72
613.554	35351.6
613.911	35651.48
614.267	35739.61
614.624	35683.12
614.98	35884.47
615.337	35941.19
615.693	35962.66
616.05	35970.79
616.406	36117.68
616.762	36088.53
617.118	35980.51
617.475	36116.32
617.831	36181.63
618.187	36318.58
618.543	36343.44
618.899	36551.34
619.255	36478.35
619.611	36406.26
619.967	36595.18
620.323	36718.34
620.678	36626.59
621.034	36571
621.39	36601.06
621.746	36696.87
622.101	37120.14
622.457	36818.45
622.812	36926.47
623.168	37044.66
623.523	37167.82
623.879	36984.55
624.234	36924.66
624.589	37118.56
624.945	37217.99
625.3	37308.16
625.655	37234.04
626.01	37232.23
626.365	37287.14
626.72	37138.67
627.075	37279.01
627.43	37204.21
627.785	37135.05
628.14	37242.17
628.495	37356.29
628.85	37305.67
629.205	37241.04
629.559	37448.94
629.914	37238.55
630.269	37295.5
630.623	37253.92
630.978	37252.11
631.332	37327.59
631.687	37408.72
632.041	37266.35
632.396	37308.61
632.75	37259.12
633.104	37252.34
633.459	37099.58
633.813	37194.04
634.167	37192.23
634.521	37126.02
634.875	37237.88
635.229	37147.48
635.583	37007.15
635.937	36927.38
636.291	37064.77
636.645	37053.93
636.999	36839.7
637.352	37138.22
637.706	37036.3
638.06	37007.83
638.413	37061.61
638.767	36876.08
639.121	36946.59
639.474	36717.66
639.828	36648.97
640.181	36853.48
640.534	36735.07
640.888	36696.65
641.241	36647.16
641.594	36726.93
641.947	36839.47
642.301	36643.54
642.654	36682.19
643.007	36831.33
643.36	36597.22
643.713	36514.51
644.066	36824.1
644.419	36530.55
644.771	36303.89
645.124	35926.27
645.477	35945.93
645.83	35705.49
646.182	35431.82
646.535	35576.45
646.888	35618.48
647.24	35313.18
647.593	35589.56
647.945	35457.36
648.298	35199.96
648.65	35270.92
649.002	35142.56
649.355	35374.2
649.707	35268.89
650.059	35446.96
650.411	35804.02
650.763	35885.82
651.115	36271.57
651.467	35951.81
651.819	36109.54
652.171	35998.59
652.523	36056.21
652.875	36103.44
653.227	35853.96
653.578	36169.66
653.93	35953.62
654.282	35797.91
654.633	35731.02
654.985	35660.97
655.337	35834.75
655.688	35742.77
656.039	35992.26
656.391	35662.1
656.742	35701.19
657.094	35786.16
657.445	35812.38
657.796	35798.37
658.147	35711.36
658.498	35618.26
658.849	35628.88
659.2	35531.48
659.551	35556.34
659.902	35674.3
660.253	35676.56
660.604	35799.27
660.955	35452.84
661.306	35624.13
661.656	35570.58
662.007	35531.93
662.358	35536.68
662.708	35546.17
663.059	35528.09
663.409	35241.32
663.76	35587.98
664.11	35515.21
664.461	35525.61
664.811	35593.4
665.161	35551.14
665.511	35379.17
665.862	35541.2
666.212	35544.81
666.562	35648.09
666.912	35473.18
667.262	35512.5
667.612	35569.67
667.962	35524.25
668.312	35521.76
668.662	35527.87
669.011	35428.43
669.361	35378.26
669.711	35351.15
670.06	35238.38
670.41	35171.72
670.76	35122.68
671.109	35396.57
671.459	35333.75
671.808	35250.58
672.157	35329
672.507	35132.4
672.856	35061.21
673.205	35109.8
673.554	35364.03
673.904	35306.4
674.253	35410.35
674.602	35298.94
674.951	34796.36
675.3	34546.42
675.649	34994.09
675.998	34964.49
676.346	35063.92
676.695	35175.78
677.044	34837.94
677.393	34952.97
677.741	35148.44
678.09	34821.9
678.438	34886.75
678.787	34887.88
679.135	34873.65
679.484	34638.4
679.832	34857.37
680.181	34583.03
680.529	34766.3
680.877	34626.65
681.225	34580.77
681.573	34714.1
681.922	34392.53
682.27	34625.29
682.618	34432.53
682.966	34372.42
683.314	34388.23
683.661	34392.98
684.009	34261.01
684.357	33924.29
684.705	34007.91
685.053	34015.81
685.4	34100.33
685.748	33770.4
686.095	33835.03
686.443	33678.65
686.79	33825.09
687.138	33781.7
687.485	33713.45
687.832	33641.36
688.18	33665.32
688.527	33510.07
688.874	33487.24
689.221	33305.78
689.568	33442.5
689.915	33297.64
690.262	33266.23
690.609	33050.42
690.956	33047.7
691.303	33063.98
691.65	32869.18
691.997	32860.14
692.344	32543.99
692.69	32607.94
693.037	32679.35
693.383	32480.49
693.73	32408.85
694.077	32212.25
694.423	32325.24
694.769	32166.15
695.116	32073.04
695.462	32082.31
695.808	32063.32
696.155	31936.55
696.501	31759.38
696.847	31844.12
697.193	31738.36
697.539	31716.67
697.885	31434.19
698.231	31383.12
698.577	31327.3
698.923	31442.32
699.269	31168.21
699.614	31101.31
699.96	31022.45
700.306	31053.86
700.651	30894.31
700.997	30779.29
701.342	30754.43
701.688	30595.79
702.033	30638.73
702.379	30558.5
702.724	30400.77
703.069	30678.5
703.415	30240.55
703.76	30178.4
704.105	30153.77
704.45	30196.03
704.795	29997.39
705.14	29951.74
705.485	29852.08
705.83	29746.32
706.175	29796.72
706.52	29760.79
706.865	29616.38
707.209	29618.87
707.554	29489.15
707.899	29653.22
708.243	29469.27
708.588	29270.85
708.932	29133.68
709.277	29250.29
709.621	29127.58
709.966	28994.03
710.31	29067.24
710.654	28782.73
710.998	28813.69
711.342	28970.3
711.687	28642.17
712.031	28570.53
712.375	28490.08
712.719	28518.78
713.063	28492.57
713.407	28467.49
713.75	28287.38
714.094	28414.38
714.438	28215.74
714.782	28204.89
715.125	28092.13
715.469	28155.18
715.812	27959.7
716.156	27829.08
716.499	27966.26
716.843	28005.58
717.186	27756.32
717.53	27868.86
717.873	27796.54
718.216	27708.86
718.559	27696.21
718.902	27489.88
719.246	27521.3
719.589	27407.4
719.932	27428.42
720.275	27370.79
720.617	27320.85
720.96	27329.66
721.303	27316.1
721.646	27229.33
721.989	27002.44
722.331	27160.85
722.674	27152.94
723.016	27121.76
723.359	26977.36
723.701	27032.27
724.044	26827.98
724.386	26757.25
724.729	26867.75
725.071	26853.52
725.413	26742.79
725.755	26710.92
726.097	26654.88
726.439	26566.97
726.782	26545.05
727.124	26608.78
727.465	26435.22
727.807	26554.54
728.149	26376.24
728.491	26244.27
728.833	26409.46
729.175	26313.87
729.516	26191.16
729.858	26274.1
730.199	26160.43
730.541	26084.95
730.882	26110.26
731.224	26268.45
731.565	25949.36
731.906	25976.93
732.248	26044.72
732.589	25867.78
732.93	25886.99
733.271	25795.69
733.612	25868.23
733.953	25826.43
734.294	25651.06
734.635	25605.41
734.976	25763.38
735.317	25539.88
735.658	25594.79
735.999	25555.47
736.339	25474.8
736.68	25525.42
737.021	25477.73
737.361	25248.14
737.702	25429.37
738.042	25262.82
738.383	25264.41
738.723	25313.44
739.063	25204.52
739.404	25242.49
739.744	25080.68
740.084	24980.12
740.424	25066.67
740.764	25034.58
741.104	25142.15
741.444	24921.14
741.784	24955.49
742.124	24939.9
742.464	24900.57
742.804	24751.65
743.143	24827.36
743.483	24729.96
743.823	24649.96
744.162	24711.65
744.502	24759.33
744.841	24492.9
745.181	24705.78
745.52	24497.87
745.86	24571.77
746.199	24515.05
746.538	24449.74
746.877	24525.44
747.216	24412.68
747.556	24385.33
747.895	24467.37
748.234	24324.54
748.573	24241.16
748.911	24128.39
749.25	24148.28
749.589	24061.27
749.928	24134.04
750.267	24057.43
750.605	24023.99
750.944	24055.4
751.283	23824.67
751.621	23959.36
751.96	23896.08
752.298	23773.82
752.636	23813.37
752.975	23636.88
753.313	23546.49
753.651	23659.7
753.989	23588.07
754.327	23595.75
754.666	23418.58
755.004	23489.54
755.342	23463.78
755.679	23373.61
756.017	23212.26
756.355	23362.31
756.693	23177.91
757.031	23265.14
757.368	23078.25
757.706	23036.44
758.044	22974.75
758.381	22990.34
758.719	22948.31
759.056	22906.73
759.394	22851.36
759.731	22715.77
760.068	22611.59
760.405	22548.09
760.743	22550.13
761.08	22490.92
761.417	22367.53
761.754	22421.32
762.091	22311.26
762.428	22229.23
762.765	22089.57
763.102	22182
763.438	21948.34
763.775	21944.27
764.112	21993.76
764.449	21926.87
764.785	21777.94
765.122	21713.54
765.458	21579.98
765.795	21621.56
766.131	21483.94
766.467	21486.88
766.804	21424.51
767.14	21224.74
767.476	21241.24
767.812	21229.03
768.148	21196.72
768.485	21016.61
768.821	20946.78
769.157	20841.25
769.492	20838.76
769.828	20753.11
770.164	20636.51
770.5	20592.66
770.836	20533.68
771.171	20471.76
771.507	20349.73
771.842	20294.59
772.178	20228.38
772.513	20280.81
772.849	20019.35
773.184	20030.42
773.519	19959.01
773.855	19905.68
774.19	19918.33
774.525	19840.37
774.86	19722.41
775.195	19724.66
775.53	19557.66
775.865	19489.42
776.2	19408.29
776.535	19234.28
776.87	19237.9
777.205	19304.34
777.539	19154.51
777.874	19218.01
778.209	18950.9
778.543	18945.48
778.878	18805.37
779.212	18811.02
779.547	18658.03
779.881	18818.93
780.215	18637.01
780.55	18696.67
780.884	18555.2
781.218	18470.91
781.552	18494.64
781.886	18385.49
782.22	18309.11
782.554	18299.17
782.888	17988.21
783.222	18019.4
783.556	17874.54
783.889	17911.83
784.223	17747.77
784.557	17750.25
784.89	17767.2
785.224	17667.54
785.557	17546.87
785.891	17459.41
786.224	17522.46
786.558	17486.53
786.891	17208.8
787.224	17219.19
787.557	17166.77
787.891	17062.14
788.224	17063.49
788.557	17122.25
788.89	17051.06
789.223	16989.37
789.556	16780.79
789.888	16879.09
790.221	16800.67
790.554	16638.87
790.887	16601.13
791.219	16585.99
791.552	16533.11
791.884	16457.63
792.217	16431.42
792.549	16299.22
792.882	16184.65
793.214	16030.98
793.546	16233.01
793.879	15999.57
794.211	15977.42
794.543	16054.48
794.875	15926.35
795.207	15990.07
795.539	15905.56
795.871	15879.79
796.203	15694.49
796.535	15634.6
796.867	15615.39
797.198	15639.8
797.53	15520.93
797.862	15420.82
798.193	15537.88
798.525	15377.89
798.856	15369.75
799.188	15132.24
799.519	15170.43
799.85	15092.02
800.182	15134.28
800.513	15138.34
800.844	14950.55
801.175	15067.16
801.506	15002.98
801.837	14971.57
802.168	14845.47
802.499	14796.21
802.83	14805.47
803.161	14707.17
803.491	14633.5
803.822	14680.28
804.153	14622.2
804.483	14467.63
804.814	14431.7
805.145	14445.26
805.475	14450.68
805.805	14297.01
806.136	14334.75
806.466	14367.52
806.796	14315.77
807.126	14226.05
807.457	14186.73
807.787	14148.09
808.117	14037.81
808.447	14056.11
808.777	14144.25
809.107	13938.6
809.436	13974.31
809.766	14043.01
810.096	13884.37
810.426	13894.99
810.755	13828.55
811.085	13810.92
811.414	13788.78
811.744	13628.78
812.073	13636.01
812.403	13652.06
812.732	13573.87
813.061	13558.27
813.39	13552.17
813.719	13447.54
814.049	13530.48
814.378	13453.19
814.707	13391.95
815.036	13360.76
815.365	13300.88
815.693	13194.44
816.022	13170.71
816.351	13260.2
816.68	13052.52
817.008	13184.5
817.337	13044.84
817.665	13027.89
817.994	13138.17
818.322	12985.86
818.651	12921
818.979	12860.44
819.307	12911.51
819.636	12953.77
819.964	12762.59
820.292	12860.44
820.62	12836.48
820.948	12821.34
821.276	12818.63
821.604	12746.09
821.932	12795.81
822.259	12780.67
822.587	12690.95
822.915	12705.41
823.243	12737.28
823.57	12737.96
823.898	12696.83
824.225	12682.59
824.553	12667.22
824.88	12707.9
825.207	12720.56
825.535	12611.18
825.862	12755.36
826.189	12633.33
826.516	12721.91
826.843	12711.52
827.17	12705.19
827.497	12699.99
827.824	12742.25
828.151	12710.39
828.478	12589.03
828.805	12687.79
829.131	12565.08
829.458	12651.63
829.785	12522.37
830.111	12582.03
830.438	12625.42
830.764	12562.59
831.09	12652.08
831.417	12594.23
831.743	12619.32
832.069	12627.45
832.395	12509.26
832.722	12539.09
833.048	12515.14
833.374	12565.31
833.7	12504.29
834.026	12519.2
834.351	12584.29
834.677	12515.81
835.003	12574.34
835.329	12507.68
835.654	12374.8
835.98	12418.64
836.306	12400.11
836.631	12409.6
836.956	12476.27
837.282	12478.75
837.607	12349.27
837.932	12353.79
838.258	12347.46
838.583	12362.37
838.908	12217.07
839.233	12260.45
839.558	12210.96
839.883	12260.45
840.208	12222.04
840.533	12203.28
840.858	12107.01
841.182	12174.36
841.507	12132.32
841.832	12045.77
842.156	11999.44
842.481	11944.53
842.805	12063.17
843.13	11935.49
843.454	11888.71
843.778	11855.27
844.103	11813.91
844.427	11791.99
844.751	11873.12
845.075	11828.15
845.399	11772.33
845.723	11753.12
846.047	11708.6
846.371	11663.86
846.695	11618.44
847.019	11537.99
847.343	11502.73
847.666	11414.15
847.99	11380.93
848.313	11384.09
848.637	11252.8
848.96	11292.34
849.284	11317.88
849.607	11106.59
849.931	11104.33
850.254	11026.14
850.577	11055.51
850.9	10974.84
851.223	10954.05
851.546	10927.38
851.869	10827.72
852.192	10900.94
852.515	10716.09
852.838	10766.26
853.161	10759.93
853.483	10648.97
853.806	10601.97
854.129	10584.57
854.451	10519.48
854.774	10462.31
855.096	10467.96
855.419	10466.6
855.741	10445.13
856.063	10361.52
856.385	10350
856.708	10295.31
857.03	10272.03
857.352	10334.18
857.674	10300.51
857.996	10246.5
858.318	10161.53
858.64	10117.69
858.961	10099.61
859.283	10136.67
859.605	9982.1
859.926	10082.66
860.248	10046.95
860.57	9964.47
860.891	9893.06
861.212	9894.64
861.534	9910.69
861.855	9881.53
862.176	9888.77
862.498	9883.79
862.819	9820.97
863.14	9782.33
863.461	9740.52
863.782	9794.53
864.103	9741.42
864.424	9745.49
864.745	9702.78
865.065	9662.56
865.386	9646.96
865.707	9701.43
866.027	9641.09
866.348	9572.39
866.668	9620.75
866.989	9602.45
867.309	9530.58
867.63	9560.64
867.95	9517.02
868.27	9461.21
868.59	9499.62
868.91	9507.98
869.23	9504.14
869.55	9440.64
869.87	9460.3
870.19	9425.27
870.51	9493.3
870.83	9408.1
871.15	9371.04
871.469	9350.47
871.789	9365.84
872.109	9325.39
872.428	9246.52
872.748	9340.53
873.067	9259.86
873.386	9261.44
873.706	9249.91
874.025	9179.41
874.344	9251.27
874.663	9201.33
874.982	9196.35
875.301	9171.72
875.62	9110.93
875.939	9097.37
876.258	9133.08
876.577	9101.67
876.896	9153.19
877.214	9017.6
877.533	9093.98
877.852	9041.56
878.17	9066.64
878.489	9072.97
878.807	9043.82
879.125	8974.44
879.444	8966.76
879.762	8993.42
880.08	8987.09
880.398	8954.55
880.716	8943.93
881.034	8867.32
881.352	8884.27
881.67	8824.61
881.988	8842.24
882.306	8755.24
882.624	8800.88
882.941	8816.25
883.259	8760.43
883.577	8774.9
883.894	8729.25
884.212	8617.16
884.529	8702.36
884.846	8665.75
885.164	8658.29
885.481	8665.97
885.798	8556.82
886.115	8573.55
886.432	8583.49
886.75	8522.7
887.067	8555.92
887.383	8528.35
887.7	8475.7
888.017	8429.37
888.334	8426.43
888.651	8383.72
888.967	8421.01
889.284	8345.53
889.6	8345.08
889.917	8250.16
890.233	8307.11
890.55	8260.11
890.866	8298.07
891.182	8235.48
891.498	8178.75
891.815	8163.84
892.131	8156.38
892.447	8092.88
892.763	8120.68
893.079	8118.19
893.395	8017.4
893.71	8085.65
894.026	8009.04
894.342	8004.07
894.657	7973.34
894.973	7925.43
895.289	7898.08
895.604	7979.44
895.92	7872.77
896.235	7782.15
896.55	7833.9
896.865	7755.94
897.181	7759.1
897.496	7803.4
897.811	7760.91
898.126	7682.04
898.441	7684.98
898.756	7637.53
899.071	7561.14
899.386	7593.23
899.7	7487.25
900.015	7531.09
900.33	7457.64
900.644	7424.88
900.959	7456.06
901.273	7428.94
901.588	7332.67
901.902	7315.27
902.216	7328.15
902.531	7296.97
902.845	7263.07
903.159	7227.82
903.473	7166.13
903.787	7193.92
904.101	7106.47
904.415	7109.86
904.729	7076.18
905.042	7083.19
905.356	7057.65
905.67	7010.65
905.984	7006.81
906.297	6983.08
906.611	6997.32
906.924	6889.75
907.237	6893.59
907.551	6870.09
907.864	6851.11
908.177	6813.37
908.491	6763.88
908.804	6725.68
909.117	6753.48
909.43	6739.92
909.743	6663.31
910.056	6703.76
910.368	6641.17
910.681	6633.71
910.994	6623.09
911.307	6570.21
911.619	6523.2
911.932	6583.77
912.244	6512.36
912.557	6484.11
912.869	6497.22
913.181	6431.23
913.494	6415.18
913.806	6372.02
914.118	6339.93
914.43	6301.29
914.742	6191.91
915.054	6215.42
915.366	6226.04
915.678	6218.13
915.99	6216.32
916.302	6091.35
916.613	6161.41
916.925	6066.04
917.236	6097
917.548	6043.22
917.859	6079.83
918.171	5999.15
918.482	6000.73
918.794	5948.08
919.105	5966.16
919.416	5867.4
919.727	5868.31
920.038	5894.07
920.349	5854.75
920.66	5815.65
920.971	5761.42
921.282	5814.3
921.593	5739.5
921.903	5691.14
922.214	5700.63
922.525	5684.58
922.835	5647.07
923.146	5645.71
923.456	5617.47
923.767	5593.51
924.077	5579.05
924.387	5508.54
924.697	5482.33
925.008	5457.02
925.318	5482.1
925.628	5481.88
925.938	5477.13
926.248	5390.8
926.558	5330.02
926.867	5329.11
927.177	5298.6
927.487	5292.95
927.796	5269.9
928.106	5261.32
928.416	5226.97
928.725	5207.53
929.034	5184.48
929.344	5165.5
929.653	5187.19
929.962	5105.39
930.271	5112.62
930.581	5106.74
930.89	5081.43
931.199	5018.38
931.508	5022.9
931.817	5046.41
932.125	4994.66
932.434	4962.79
932.743	4907.43
933.051	4870.14
933.36	4893.64
933.669	4851.38
933.977	4842.12
934.286	4809.12
934.594	4866.52
934.902	4786.3
935.21	4754.89
935.519	4774.32
935.827	4750.37
936.135	4688
936.443	4676.25
936.751	4632.41
937.059	4640.99
937.367	4650.94
937.674	4603.48
937.982	4619.98
938.29	4555.35
938.597	4581.11
938.905	4520.54
939.213	4488.23
939.52	4476.25
939.827	4478.96
940.135	4418.17
940.442	4405.52
940.749	4424.95
941.056	4460.66
941.363	4354.67
941.67	4351.51
941.977	4303.38
942.284	4311.06
942.591	4284.62
942.898	4305.18
943.205	4249.59
943.511	4251.4
943.818	4213.43
944.125	4235.13
944.431	4191.74
944.738	4206.88
945.044	4173.89
945.35	4144.06
945.657	4112.65
945.963	4106.09
946.269	4055.25
946.575	4071.07
946.881	4027.22
947.187	4067.68
947.493	4025.64
947.799	4051.18
948.105	3967.34
948.41	3973.21
948.716	3927.34
949.022	3892.31
949.327	3958.53
949.633	3881.24
949.938	3921.46
950.244	3849.83
950.549	3893.44
950.854	3846.89
951.16	3803.95
951.465	3808.25
951.77	3765.76
952.075	3763.5
952.38	3761.24
952.685	3753.79
952.99	3737.74
953.294	3778.19
953.599	3692.09
953.904	3690.28
954.209	3654.13
954.513	3661.58
954.818	3617.29
955.122	3591.98
955.426	3605.09
955.731	3571.19
956.035	3555.15
956.339	3550.85
956.643	3569.61
956.948	3507.69
957.252	3476.73
957.556	3526.9
957.86	3490.97
958.163	3456.17
958.467	3450.29
958.771	3415.04
959.075	3435.6
959.378	3409.61
959.682	3396.28
959.985	3373.91
960.289	3358.99
960.592	3316.28
960.896	3319.22
961.199	3330.52
961.502	3292.1
961.805	3308.37
962.108	3260.24
962.411	3270.18
962.714	3245.1
963.017	3201.03
963.32	3234.7
963.623	3195.16
963.926	3163.97
964.228	3174.59
964.531	3176.17
964.833	3129.85
965.136	3122.62
965.438	3093.46
965.741	3094.14
966.043	3112.45
966.345	3097.76
966.648	3071.54
966.95	3075.84
967.252	3038.32
967.554	3043.75
967.856	3016.63
968.158	2976.63
968.46	2990.87
968.761	3001.04
969.063	2934.6
969.365	2929.4
969.666	2973.24
969.968	2878.1
970.269	2857.31
970.571	2904.54
970.872	2915.39
971.174	2843.07
971.475	2848.72
971.776	2863.41
972.077	2826.8
972.378	2842.62
972.679	2831.55
972.98	2799.46
973.281	2775.73
973.582	2742.74
973.883	2789.07
974.183	2783.64
974.484	2762.63
974.785	2752
975.085	2740.93
975.386	2723.98
975.686	2740.03
975.986	2693.02
976.287	2677.88
976.587	2670.42
976.887	2617.32
977.187	2631.1
977.487	2632.23
977.787	2620.93
978.087	2599.69
978.387	2612.57
978.687	2581.39
978.987	2594.72
979.286	2565.79
979.586	2571.22
979.885	2535.29
980.185	2550.88
980.484	2548.85
980.784	2485.8
981.083	2505.46
981.382	2525.8
981.682	2478.11
981.981	2460.49
982.28	2457.77
982.579	2440.37
982.878	2415.52
983.177	2418.68
983.475	2389.98
983.774	2386.36
984.073	2408.06
984.372	2375.29
984.67	2344.33
984.969	2346.14
985.267	2367.38
985.566	2365.8
985.864	2327.61
986.162	2323.54
986.461	2305.46
986.759	2302.52
987.057	2286.48
987.355	2274.28
987.653	2269.76
987.951	2274.5
988.249	2232.02
988.547	2267.5
988.844	2192.02
989.142	2253.49
989.44	2207.39
989.737	2189.31
990.035	2192.02
990.332	2166.71
990.63	2148.63
990.927	2153.15
991.224	2158.8
991.521	2152.92
991.819	2145.47
992.116	2121.96
992.413	2128.07
992.71	2116.31
993.006	2091.23
993.303	2080.84
993.6	2063.43
993.897	2054.4
994.193	2065.02
994.49	2060.5
994.787	2055.98
995.083	1991.57
995.379	2026.6
995.676	1980.05
995.972	1986.15
996.268	1982.98
996.565	1991.57
996.861	1982.08
997.157	1974.4
997.453	1962.65
997.749	1950.22
998.044	1946.15
998.34	1943.66
998.636	1912.7
998.932	1904.34
999.227	1907.28
999.523	1914.74
999.818	1887.85
1000.114	1849.2
1000.409	1858.92
1000.704	1837
1001	1826.83
1001.295	1829.54
1001.59	1809.66
1001.885	1781.41
1002.18	1795.42
1002.475	1780.5
1002.77	1776.66
1003.065	1753.16
1003.359	1752.03
1003.654	1781.86
1003.949	1723.56
1004.243	1729.66
1004.538	1756.32
1004.832	1722.65
1005.127	1711.35
1005.421	1679.04
1005.715	1700.73
1006.009	1700.28
1006.304	1685.37
1006.598	1649.66
1006.892	1667.29
1007.186	1636.1
1007.48	1640.17
1007.773	1648.53
1008.067	1637.46
1008.361	1608.98
1008.655	1595.42
1008.948	1579.15
1009.242	1577.35
1009.535	1542.09
1009.829	1564.01
1010.122	1550.23
1010.415	1533.05
1010.708	1540.74
1011.001	1531.25
1011.295	1519.72
1011.588	1524.92
1011.881	1457.35
1012.173	1498.7
1012.466	1489.66
1012.759	1501.19
1013.052	1472.72
1013.344	1465.03
1013.637	1444.24
1013.93	1444.24
1014.222	1421.42
1014.514	1422.1
1014.807	1425.26
1015.099	1406.95
1015.391	1421.64
1015.683	1397.24
1015.976	1407.18
1016.268	1373.06
1016.56	1359.72
1016.851	1376.9
1017.143	1355.43
1017.435	1352.04
1017.727	1329.67
1018.018	1347.97
1018.31	1329.22
1018.602	1321.99
1018.893	1316.79
1019.185	1324.47
1019.476	1297.13
1019.767	1303
1020.058	1304.13
1020.35	1280.18
1020.641	1242.89
1020.932	1252.61
1021.223	1248.54
1021.514	1234.08
1021.804	1221.42
1022.095	1219.61
1022.386	1210.35
1022.677	1197.24
1022.967	1222.33
1023.258	1187.53
1023.548	1189.79
1023.839	1189.33
1024.129	1171.93
1024.419	1166.96
1024.709	1163.8
1025	1174.87
1025.29	1140.97
1025.58	1117.24
1025.87	1129.67
1026.16	1140.29
1026.449	1113.85
1026.739	1089.22
1027.029	1113.4
1027.319	1081.77
1027.608	1086.74
1027.898	1072.95
1028.187	1065.95
1028.477	1056.46
1028.766	1062.1
1029.055	1040.86
1029.344	1052.39
1029.634	1011.94
1029.923	1034.53
1030.212	1036.57
1030.501	1025.95
1030.79	1019.17
1031.078	1015.1
1031.367	1025.5
1031.656	1003.35
1031.945	965.16
1032.233	970.58
1032.522	1001.54
1032.81	959.06
1033.099	993.86
1033.387	961.32
1033.675	958.38
1033.963	950.02
1034.251	946.4
1034.54	944.37
1034.828	939.4
1035.116	908.21
1035.403	941.43
1035.691	924.93
1035.979	933.07
1036.267	919.06
1036.554	870.7
1036.842	895.1
1037.129	899.17
1037.417	887.65
1037.704	891.04
1037.992	901.43
1038.279	890.81
1038.566	868.66
1038.853	868.66
1039.14	868.66
