Data from hue_170_FLMS001491_00087.txt Node
Date: Tue Feb 07 16:49:19 GMT 2017
User: dcchb
Spectrometer: FLMS00149
Trigger mode: 0
Integration Time (sec): 2.000000E-2
Scans to average: 10
Electric dark correction enabled: true
Nonlinearity correction enabled: false
Boxcar width: 0
XAxis mode: Wavelengths
Number of Pixels in Spectrum: 2048
>>>>>Begin Spectral Data<<<<<
341.393	-14.17
341.776	-14.17
342.16	-14.17
342.543	-51.45
342.927	-80.15
343.31	-74.28
343.693	-58.01
344.077	-84.67
344.46	-51.68
344.843	-46.71
345.226	-43.32
345.61	-14.39
345.993	-22.3
346.376	-17.56
346.759	10.92
347.142	20.18
347.525	44.82
347.908	52.95
348.291	80.07
348.674	86.17
349.057	117.81
349.44	100.18
349.823	137.92
350.206	184.92
350.588	174.53
350.971	211.82
351.354	221.76
351.737	241.65
352.119	249.78
352.502	265.83
352.884	254.08
353.267	287.97
353.65	294.53
354.032	316.67
354.414	284.81
354.797	324.58
355.179	332.27
355.562	331.81
355.944	331.81
356.326	328.65
356.709	344.69
357.091	351.93
357.473	352.38
357.855	341.53
358.238	352.38
358.62	329.33
359.002	350.57
359.384	341.53
359.766	329.33
360.148	329.78
360.53	320.97
360.912	327.97
361.294	345.6
361.676	336.11
362.057	341.08
362.439	330.68
362.821	314.19
363.203	341.08
363.584	359.16
363.966	323.68
364.348	317.8
364.729	349.89
365.111	319.84
365.493	309.44
365.874	306.73
366.256	331.36
366.637	320.97
367.019	323.23
367.4	302.89
367.781	324.13
368.163	334.98
368.544	319.61
368.925	300.4
369.306	327.29
369.688	325.94
370.069	334.75
370.45	321.87
370.831	296.56
371.212	332.94
371.593	309.22
371.974	298.37
372.355	306.5
372.736	318.03
373.117	317.12
373.498	323.45
373.879	324.81
374.26	311.25
374.641	323.45
375.021	314.41
375.402	342.89
375.783	322.77
376.163	348.99
376.544	326.84
376.925	301.98
377.305	343.79
377.686	325.94
378.066	351.7
378.447	333.62
378.827	345.82
379.208	323.68
379.588	344.47
379.968	325.03
380.349	339.5
380.729	327.97
381.109	347.86
381.489	350.57
381.87	339.27
382.25	334.98
382.63	349.89
383.01	343.11
383.39	351.25
383.77	352.15
384.15	332.04
384.53	369.1
384.91	350.57
385.29	347.63
385.67	356.45
386.049	364.35
386.429	363
386.809	368.2
387.189	344.92
387.568	369.78
387.948	348.99
388.328	350.8
388.707	376.11
389.087	378.14
389.466	366.84
389.846	378.59
390.225	373.85
390.605	376.78
390.984	385.37
391.363	372.72
391.743	378.37
392.122	379.27
392.501	392.6
392.881	398.48
393.26	376.33
393.639	406.61
394.018	376.11
394.397	375.88
394.776	373.39
395.155	390.57
395.534	374.75
395.913	390.57
396.292	404.35
396.671	391.47
397.05	411.81
397.429	404.35
397.808	385.37
398.186	409.33
398.565	432.83
398.944	405.03
399.323	413.17
399.701	424.24
400.08	417.46
400.458	430.12
400.837	394.18
401.215	424.69
401.594	422.88
401.972	437.12
402.351	443.22
402.729	438.93
403.107	427.86
403.486	447.06
403.864	442.32
404.242	448.42
404.62	453.17
404.999	428.99
405.377	415.88
405.755	447.06
406.133	467.63
406.511	463.56
406.889	445.26
407.267	479.83
407.645	463.11
408.023	458.36
408.401	478.93
408.779	478.93
409.156	481.19
409.534	486.39
409.912	481.41
410.29	494.97
410.667	494.97
411.045	525.48
411.422	517.8
411.8	534.07
412.178	521.41
412.555	528.64
412.933	542.2
413.31	548.98
413.687	547.4
414.065	543.56
414.442	553.95
414.819	545.82
415.197	558.7
415.574	551.92
415.951	560.96
416.328	564.58
416.705	574.97
417.082	598.47
417.46	602.77
417.837	605.93
418.214	608.19
418.591	610
418.967	591.24
419.344	609.55
419.721	635.31
420.098	627.62
420.475	621.52
420.852	631.92
421.228	642.31
421.605	625.59
421.982	638.47
422.358	650.9
422.735	683.44
423.111	673.73
423.488	686.38
423.864	699.49
424.241	701.3
424.617	719.6
424.994	720.96
425.37	712.37
425.746	730.22
426.123	722.54
426.499	735.64
426.875	739.49
427.251	744.68
427.627	792.37
428.003	780.62
428.379	772.71
428.756	795.3
429.132	802.08
429.507	805.25
429.883	792.82
430.259	843.66
430.635	819.48
431.011	804.57
431.387	846.15
431.763	858.58
432.138	870.33
432.514	878.69
432.89	891.12
433.265	887.5
433.641	906.49
434.016	931.8
434.392	928.63
434.767	937.22
435.143	952.14
435.518	962.31
435.894	972.93
436.269	978.58
436.644	979.48
437.02	1013.6
437.395	1016.77
437.77	1034.62
438.145	1040.72
438.52	1038.69
438.895	1075.52
439.271	1076.2
439.646	1092.25
440.021	1114.84
440.395	1093.6
440.77	1104.22
441.145	1122.3
441.52	1164.79
441.895	1145.58
442.27	1142.64
442.645	1158.01
443.019	1215.41
443.394	1161.62
443.769	1195.75
444.143	1200.49
444.518	1206.14
444.892	1196.42
445.267	1231.68
445.641	1245.91
446.016	1234.84
446.39	1241.62
446.764	1262.18
447.139	1288.4
447.513	1273.94
447.887	1294.27
448.262	1308.51
448.636	1286.14
449.01	1317.32
449.384	1308.74
449.758	1340.37
450.132	1336.31
450.506	1366.36
450.88	1375.85
451.254	1367.04
451.628	1423.76
452.002	1430.32
452.376	1463.08
452.75	1449.75
453.123	1473.7
453.497	1462.18
453.871	1474.83
454.244	1524.55
454.618	1528.17
454.992	1539.01
455.365	1551.89
455.739	1584.89
456.112	1647.03
456.486	1625.11
456.859	1613.59
457.232	1659.24
457.606	1654.94
457.979	1677.77
458.352	1724.32
458.725	1750.76
459.099	1767.03
459.472	1776.3
459.845	1801.61
460.218	1807.71
460.591	1823.53
460.964	1869.63
461.337	1910.53
461.71	1943.07
462.083	1965.89
462.456	1956.4
462.829	2011.32
463.201	1988.72
463.574	2048.15
463.947	2093.35
464.32	2127.92
464.692	2122.05
465.065	2139.45
465.438	2168.15
465.81	2193.46
466.183	2261.71
466.555	2325.89
466.928	2306.9
467.3	2388.93
467.672	2367.92
468.045	2444.53
468.417	2470.06
468.789	2512.77
469.161	2473.45
469.534	2587.35
469.906	2662.83
470.278	2671.64
470.65	2699.43
471.022	2790.96
471.394	2829.6
471.766	2854.23
472.138	2924.97
472.51	2950.5
472.882	3027.11
473.253	3096.03
473.625	3121.34
473.997	3227.1
474.369	3233.66
474.74	3300.77
475.112	3403.37
475.484	3470.49
475.855	3542.12
476.227	3589.35
476.598	3746.19
476.97	3739.86
477.341	3858.05
477.713	3955.9
478.084	3980.98
478.455	4143.46
478.827	4211.49
479.198	4319.73
479.569	4377.58
479.94	4490.12
480.311	4570.12
480.682	4712.04
481.053	4806.5
481.424	4933.05
481.795	5033.61
482.166	5075.87
482.537	5234.96
482.908	5384.34
483.279	5474.28
483.65	5572.81
484.021	5711.56
484.391	5840.14
484.762	5954.26
485.133	6036.3
485.503	6182.28
485.874	6245.33
486.244	6394.7
486.615	6586.34
486.985	6644.19
487.356	6842.15
487.726	6968.02
488.097	7107
488.467	7206.21
488.837	7367.56
489.207	7514.9
489.578	7676.7
489.948	7719.42
490.318	7952.86
490.688	8040.09
491.058	8126.86
491.428	8307.87
491.798	8397.82
492.168	8616.79
492.538	8711.93
492.908	8853.62
493.278	8973.17
493.648	9079.61
494.017	9179.04
494.387	9365.7
494.757	9429.88
495.126	9520.5
495.496	9586.26
495.866	9713.94
496.235	9845.24
496.605	9900.15
496.974	9976.31
497.344	10156.87
497.713	10295.85
498.082	10329.06
498.452	10401.61
498.821	10481.15
499.19	10569.06
499.559	10671.2
499.928	10789.62
500.298	10868.94
500.667	10909.61
501.036	10965.88
501.405	11122.26
501.774	11164.75
502.143	11314.12
502.512	11330.62
502.88	11427.11
503.249	11358.64
503.618	11514.34
503.987	11602.25
504.356	11575.13
504.724	11651.97
505.093	11704.85
505.462	11799.76
505.83	11895.58
506.199	11905.52
506.567	12056.48
506.936	12089.24
507.304	12100.54
507.672	12228.68
508.041	12269.8
508.409	12428.44
508.777	12393.19
509.145	12531.72
509.514	12493.98
509.882	12600.19
510.25	12589.8
510.618	12628.44
510.986	12696.91
511.354	12719.96
511.722	12856.91
512.09	12953.63
512.458	12872.5
512.826	12936.45
513.193	13000.86
513.561	12993.18
513.929	13045.15
514.297	13119.27
514.664	13226.84
515.032	13122.21
515.4	13291.25
515.767	13339.83
516.135	13327.86
516.502	13276.78
516.869	13449.66
517.237	13458.02
517.604	13430.68
517.972	13549.54
518.339	13566.04
518.706	13533.5
519.073	13487.63
519.44	13632.25
519.808	13591.35
520.175	13697.79
520.542	13732.82
520.909	13801.29
521.276	13668.64
521.643	13772.82
522.009	13978.23
522.376	13797.67
522.743	13900.72
523.11	14070.89
523.477	14054.16
523.843	14137.55
524.21	14111.79
524.577	14170.09
524.943	14142.98
525.31	14097.78
525.676	14255.74
526.043	14285.8
526.409	14242.86
526.776	14366.02
527.142	14343.2
527.508	14358.79
527.874	14371.22
528.241	14294.84
528.607	14332.12
528.973	14461.39
529.339	14391.78
529.705	14383.2
530.071	14404.44
530.437	14369.64
530.803	14424.1
531.169	14521.72
531.535	14389.52
531.901	14354.5
532.267	14425.68
532.632	14441.5
532.998	14439.46
533.364	14404.66
533.73	14352.46
534.095	14494.15
534.461	14398.79
534.826	14380.26
535.192	14399.69
535.557	14389.52
535.923	14345.68
536.288	14341.84
536.653	14296.19
537.019	14149.08
537.384	14206.02
537.749	14210.32
538.114	14171.45
538.479	14217.1
538.845	14158.57
539.21	14053.71
539.575	14074.28
539.94	14080.15
540.305	14052.81
540.67	13957.67
541.034	13924.22
541.399	13945.24
541.764	13865.47
542.129	13858.24
542.494	13827.5
542.858	13726.49
543.223	13666.15
543.587	13665.93
543.952	13722.87
544.316	13637.68
544.681	13635.64
545.045	13591.58
545.41	13596.32
545.774	13595.65
546.138	13465.25
546.503	13395.2
546.867	13430
547.231	13424.12
547.595	13343.9
547.959	13306.61
548.324	13314.52
548.688	13238.14
549.052	13194.3
549.416	13190.23
549.779	13132.83
550.143	13157.24
550.507	13129.44
550.871	13047.19
551.235	12930.35
551.599	13030.91
551.962	12961.54
552.326	12979.62
552.689	12985.94
553.053	12854.65
553.417	12898.94
553.78	12894.42
554.143	12807.19
554.507	12829.56
554.87	12820.75
555.234	12874.76
555.597	12770.13
555.96	12689.91
556.323	12738.94
556.686	12660.08
557.05	12718.15
557.413	12653.75
557.776	12675.44
558.139	12789.79
558.502	12732.62
558.865	12628.67
559.228	12681.77
559.59	12629.8
559.953	12641.32
560.316	12706.63
560.679	12691.94
561.041	12657.14
561.404	12689.68
561.767	12735.78
562.129	12605.39
562.492	12716.35
562.854	12674.09
563.217	12641.77
563.579	12584.82
563.941	12643.58
564.304	12658.04
564.666	12670.25
565.028	12690.58
565.39	12684.26
565.753	12731.49
566.115	12731.26
566.477	12795.44
566.839	12733.97
567.201	12766.74
567.563	12778.72
567.925	12832.73
568.287	12785.27
568.648	12775.55
569.01	12750.02
569.372	12860.52
569.734	12810.13
570.095	12976.68
570.457	12920.41
570.819	12869.56
571.18	12879.51
571.542	12950.69
571.903	12944.14
572.265	12947.53
572.626	12990.92
572.987	12932.16
573.349	13034.3
573.71	12964.02
574.071	12983.68
574.432	13003.12
574.794	13080.63
575.155	12985.72
575.516	12988.66
575.877	12957.24
576.238	13049.67
576.599	13031.59
576.96	13038.37
577.32	13073.4
577.681	13085.6
578.042	13056.68
578.403	13068.88
578.763	12977.58
579.124	13057.35
579.485	13079.95
579.845	13133.28
580.206	13074.3
580.566	13055.09
580.927	13066.17
581.287	13055.09
581.648	13027.3
582.008	13090.8
582.368	13116.11
582.728	13101.65
583.089	12987.07
583.449	13043.8
583.809	13003.57
584.169	13015.1
584.529	13058.26
584.889	13063
585.249	12998.82
585.609	12947.3
585.969	13029.11
586.329	12954.31
586.688	12975.55
587.048	12979.39
587.408	12959.05
587.768	12940.97
588.127	12951.37
588.487	12855.33
588.846	12936.45
589.206	12836.57
589.565	12895.32
589.925	12946.4
590.284	12804.25
590.643	12884.48
591.003	12858.26
591.362	12906.85
591.721	12879.73
592.08	12847.19
592.44	12823.24
592.799	12891.26
593.158	12784.37
593.517	12809.45
593.876	12766.29
594.235	12835.21
594.593	12778.72
594.952	12741.88
595.311	12751.6
595.67	12784.14
596.029	12813.29
596.387	12865.04
596.746	12791.15
597.104	12755.89
597.463	12671.15
597.822	12774.88
598.18	12711.37
598.538	12700.75
598.897	12835.44
599.255	12613.98
599.613	12896.23
599.972	12637.25
600.33	12711.6
600.688	12747.53
601.046	12715.67
601.404	12738.49
601.762	12733.07
602.12	12803.12
602.478	12792.5
602.836	12720.64
603.194	12677.7
603.552	12687.65
603.91	12709.34
604.268	12648.78
604.625	12612.85
604.983	12770.36
605.341	12638.38
605.698	12706.63
606.056	12782.33
606.413	12738.94
606.771	12691.26
607.128	12757.48
607.485	12681.09
607.843	12758.38
608.2	12759.51
608.557	12891.48
608.914	12721.77
609.272	12834.31
609.629	12876.57
609.986	12940.07
610.343	12776.01
610.7	12914.76
611.057	12817.13
611.414	12844.48
611.771	12857.59
612.127	12842.22
612.484	12871.82
612.841	12897.81
613.198	12871.14
613.554	12841.99
613.911	12933.29
614.267	12936.45
614.624	12896.91
614.98	12919.96
615.337	12907.75
615.693	12952.72
616.05	13053.06
616.406	13023.23
616.762	13000.41
617.118	12950.92
617.475	12919.96
617.831	13005.83
618.187	13065.94
618.543	13019.62
618.899	13035.21
619.255	13049.9
619.611	12982.1
619.967	13030.46
620.323	13144.36
620.678	13029.78
621.034	13008.54
621.39	13045.15
621.746	13041.31
622.101	13223
622.457	13043.57
622.812	13149.78
623.168	13143.45
623.523	13088.77
623.879	13147.97
624.234	13062.55
624.589	13110.91
624.945	12997.69
625.3	13020.97
625.655	13081.76
626.01	13016.45
626.365	13085.15
626.72	13096.68
627.075	13035.43
627.43	13078.14
627.785	12968.09
628.14	13079.5
628.495	13011.93
628.85	13056.22
629.205	13014.19
629.559	12978.94
629.914	12881.77
630.269	12992.05
630.623	12920.86
630.978	12979.62
631.332	12929.45
631.687	13026.17
632.041	12924.48
632.396	12933.97
632.75	12926.96
633.104	12914.08
633.459	12832.05
633.813	12785.95
634.167	12813.29
634.521	12786.63
634.875	12843.12
635.229	12866.85
635.583	12837.93
635.937	12787.31
636.291	12769.68
636.645	12716.57
636.999	12699.62
637.352	12703.47
637.706	12637.03
638.06	12665.95
638.413	12700.53
638.767	12606.07
639.121	12660.75
639.474	12564.71
639.828	12607.65
640.181	12573.3
640.534	12621.89
640.888	12528.55
641.241	12456.92
641.594	12487.43
641.947	12564.26
642.301	12570.36
642.654	12491.27
643.007	12476.35
643.36	12413.53
643.713	12420.76
644.066	12529.01
644.419	12418.95
644.771	12349.12
645.124	12246.3
645.477	12215.79
645.83	12159.07
646.182	12122.01
646.535	12098.96
646.888	12089.92
647.24	12054.22
647.593	12038.85
647.945	12074.1
648.298	11963.37
648.65	11995.69
649.002	11909.59
649.355	12040.66
649.707	11971.73
650.059	11996.14
650.411	12286.08
650.763	12222.8
651.115	12348.67
651.467	12308.9
651.819	12263.93
652.171	12273.65
652.523	12263.48
652.875	12211.5
653.227	12267.09
653.578	12282.91
653.93	12266.87
654.282	12225.51
654.633	12260.54
654.985	12276.81
655.337	12251.5
655.688	12251.95
656.039	12277.71
656.391	12224.16
656.742	12273.65
657.094	12383.02
657.445	12312.52
657.796	12294.66
658.147	12205.4
658.498	12304.61
658.849	12295.34
659.2	12333.08
659.551	12195.91
659.902	12264.61
660.253	12264.38
660.604	12275
660.955	12306.87
661.306	12286.3
661.656	12331.27
662.007	12294.89
662.358	12282.01
662.708	12286.75
663.059	12238.62
663.409	12267.32
663.76	12322.91
664.11	12339.86
664.461	12396.13
664.811	12355
665.161	12311.39
665.511	12370.14
665.862	12328.79
666.212	12451.49
666.562	12343.93
666.912	12361.55
667.262	12385.51
667.612	12374.43
667.962	12401.1
668.312	12320.2
668.662	12367.43
669.011	12390.48
669.361	12333.53
669.711	12375.56
670.06	12330.82
670.41	12346.64
670.76	12257.6
671.109	12350.25
671.459	12307.54
671.808	12391.16
672.157	12410.14
672.507	12167.89
672.856	12196.36
673.205	12227.32
673.554	12236.59
673.904	12249.24
674.253	12289.01
674.602	12249.01
674.951	12109.58
675.3	12049.7
675.649	12192.97
675.998	12132.86
676.346	12123.37
676.695	12189.81
677.044	12061.9
677.393	12108.68
677.741	12141.67
678.09	12055.8
678.438	12103.26
678.787	12109.58
679.135	12008.12
679.484	12067.32
679.832	12009.47
680.181	11905.29
680.529	11969.93
680.877	12004.05
681.225	11966.31
681.573	11926.08
681.922	11832.75
682.27	11877.05
682.618	11888.57
682.966	11855.8
683.314	11855.13
683.661	11810.61
684.009	11741.68
684.357	11769.7
684.705	11621.46
685.053	11725.64
685.4	11642.93
685.748	11660.55
686.095	11635.47
686.443	11612.42
686.79	11496.04
687.138	11550.28
687.485	11604.96
687.832	11466.21
688.18	11513.67
688.527	11476.83
688.874	11347.57
689.221	11448.81
689.568	11303.73
689.915	11253.79
690.262	11324.07
690.609	11288.81
690.956	11208.14
691.303	11132.66
691.65	11123.62
691.997	11148.25
692.344	11075.71
692.69	10955.04
693.037	10980.35
693.383	10976.28
693.73	10908.48
694.077	10866.45
694.423	10926.34
694.769	10896.73
695.116	10792.78
695.462	10822.84
695.808	10779.9
696.155	10767.47
696.501	10666.68
696.847	10587.59
697.193	10542.62
697.539	10661.26
697.885	10529.51
698.231	10529.06
698.577	10469.85
698.923	10457.87
699.269	10387.82
699.614	10296.07
699.96	10295.85
700.306	10296.3
700.651	10199.8
700.997	10173.81
701.342	10162.06
701.688	10169.75
702.033	10109.86
702.379	10097.88
702.724	9993.93
703.069	10003.42
703.415	9946.7
703.76	9914.84
704.105	9889.75
704.45	9886.14
704.795	9748.74
705.14	9813.6
705.485	9797.55
705.83	9699.25
706.175	9706.71
706.52	9651.57
706.865	9669.65
707.209	9620.38
707.554	9622.19
707.899	9624
708.243	9521.63
708.588	9551.01
708.932	9461.06
709.277	9518.24
709.621	9501.06
709.966	9374.29
710.31	9466.49
710.654	9295.42
710.998	9351.92
711.342	9434.85
711.687	9299.94
712.031	9235.99
712.375	9257.91
712.719	9276.89
713.063	9260.84
713.407	9252.93
713.75	9182.43
714.094	9242.31
714.438	9130.45
714.782	9090
715.125	9092.26
715.469	9095.42
715.812	9078.48
716.156	9007.07
716.499	8981.76
716.843	9054.97
717.186	8999.83
717.53	9044.35
717.873	8988.53
718.216	9012.71
718.559	8950.57
718.902	8827.41
719.246	8892.49
719.589	8897.24
719.932	8846.17
720.275	8891.14
720.617	8806.17
720.96	8803
721.303	8864.92
721.646	8793.96
721.989	8791.25
722.331	8816.79
722.674	8785.83
723.016	8730.01
723.359	8723.23
723.701	8769.33
724.044	8743.57
724.386	8670.58
724.729	8721.65
725.071	8735.43
725.413	8660.18
725.755	8721.42
726.097	8688.88
726.439	8602.56
726.782	8657.92
727.124	8666.51
727.465	8640.52
727.807	8644.36
728.149	8591.26
728.491	8591.26
728.833	8614.53
729.175	8603.23
729.516	8592.84
729.858	8652.72
730.199	8623.57
730.541	8570.92
730.882	8566.63
731.224	8617.47
731.565	8586.06
731.906	8625.61
732.248	8556.91
732.589	8556.23
732.93	8558.94
733.271	8565.95
733.612	8590.13
733.953	8643.23
734.294	8524.82
734.635	8519.39
734.976	8613.63
735.317	8553.52
735.658	8511.71
735.999	8600.97
736.339	8518.72
736.68	8616.12
737.021	8548.77
737.361	8521.2
737.702	8541.31
738.042	8584.48
738.383	8553.29
738.723	8631.48
739.063	8606.17
739.404	8658.15
739.744	8624.48
740.084	8603.23
740.424	8669.45
740.764	8629.45
741.104	8715.32
741.444	8689.33
741.784	8708.99
742.124	8708.77
742.464	8702.89
742.804	8704.7
743.143	8765.04
743.483	8798.03
743.823	8837.35
744.162	8755.09
744.502	8831.7
744.841	8847.97
745.181	8861.53
745.52	8914.64
745.86	8924.13
746.199	8993.51
746.538	9018.14
746.877	9083.22
747.216	9130.45
747.556	9112.83
747.895	9190.34
748.234	9254.97
748.573	9322.31
748.911	9377.45
749.25	9408.64
749.589	9449.99
749.928	9510.33
750.267	9635.75
750.605	9669.65
750.944	9686.37
751.283	9792.58
751.621	9880.04
751.96	9975.63
752.298	10038.9
752.636	10113.48
752.975	10295.17
753.313	10225.56
753.651	10485.22
753.989	10569.74
754.327	10616.29
754.666	10745.1
755.004	10859.22
755.342	10988.71
755.679	11188.25
756.017	11213.56
756.355	11389.15
756.693	11461.01
757.031	11636.6
757.368	11776.03
757.706	11927.67
758.044	12028.23
758.381	12363.81
758.719	12377.15
759.056	12564.03
759.394	12687.65
759.731	12790.69
760.068	12991.59
760.405	13145.04
760.743	13321.75
761.08	13491.92
761.417	13625.7
761.754	13797.45
762.091	13982.53
762.428	14091.68
762.765	14187.72
763.102	14430.2
763.438	14601.72
763.775	14721.94
764.112	14873.58
764.449	15100.69
764.785	15249.84
765.122	15298.43
765.458	15490.96
765.795	15577.29
766.131	15835.36
766.467	15971.4
766.804	16084.85
767.14	16217.05
767.476	16455.68
767.812	16448
768.148	16719.18
768.485	16764.38
768.821	16856.8
769.157	17002.34
769.492	17169.56
769.828	17243.91
770.164	17273.06
770.5	17416.79
770.836	17583.11
771.171	17684.13
771.507	17739.27
771.842	17771.35
772.178	17928.64
772.513	17941.29
772.849	18199.14
773.184	18185.13
773.519	18238.69
773.855	18296.09
774.19	18309.65
774.525	18479.36
774.86	18484.78
775.195	18588.73
775.53	18611.56
775.865	18616.08
776.2	18605.46
776.535	18548.06
776.87	18702.63
777.205	18777.2
777.539	18772.46
777.874	18846.13
778.209	18832.8
778.543	18934.94
778.878	18812.01
779.212	18999.12
779.547	19009.74
779.881	19122.28
780.215	18893.81
780.55	19086.35
780.884	18890.87
781.218	18993.24
781.552	19071.89
781.886	19060.59
782.22	19074.15
782.554	19027.59
782.888	18976.97
783.222	18897.88
783.556	18991.21
783.889	18909.63
784.223	18825.11
784.557	18841.61
784.89	18972.91
785.224	18891.55
785.557	18894.94
785.891	18846.35
786.224	18867.15
786.558	18880.93
786.891	18748.28
787.224	18730.2
787.557	18791.44
787.891	18718
788.224	18732.23
788.557	18680.71
788.89	18756.64
789.223	18692.69
789.556	18580.82
789.888	18585.8
790.221	18604.78
790.554	18417.67
790.887	18456.76
791.219	18372.92
791.552	18413.6
791.884	18391.9
792.217	18362.98
792.549	18447.95
792.882	18236.43
793.214	18142.42
793.546	18212.02
793.879	18148.29
794.211	18082.76
794.543	18010.9
794.875	18085.92
795.207	18155.98
795.539	18028.75
795.871	18108.97
796.203	17928.86
796.535	17850.22
796.867	17750.11
797.198	17776.33
797.53	17807.74
797.862	17699.04
798.193	17617.46
798.525	17602.77
798.856	17577.46
799.188	17602.09
799.519	17321.65
799.85	17359.16
800.182	17421.99
800.513	17356
800.844	17296.79
801.175	17397.13
801.506	17332.95
801.837	17294.98
802.168	17191.93
802.499	17314.87
802.83	17097.7
803.161	17072.62
803.491	17020.41
803.822	17095.67
804.153	17033.75
804.483	16924.15
804.814	16878.72
805.145	16750.82
805.475	16834.66
805.805	16745.62
806.136	16780.19
806.466	16726.41
806.796	16678.5
807.126	16659.52
807.457	16502.46
807.787	16525.74
808.117	16464.27
808.447	16495
808.777	16535.23
809.107	16453.42
809.436	16305.18
809.766	16330.04
810.096	16252.52
810.426	16178.63
810.755	16299.98
811.085	16230.38
811.414	16256.82
811.744	16056.6
812.073	16039.87
812.403	16209.36
812.732	16043.49
813.061	16015.69
813.39	15933.66
813.719	15853.89
814.049	16025.19
814.378	15916.49
814.707	15781.12
815.036	15828.81
815.365	15808.47
815.693	15655.03
816.022	15713.1
816.351	15671.52
816.68	15521.02
817.008	15606.89
817.337	15443.96
817.665	15472.66
817.994	15442.6
818.322	15493.45
818.651	15414.35
818.979	15378.88
819.307	15481.92
819.636	15327.58
819.964	15288.71
820.292	15403.73
820.62	15412.55
820.948	15318.76
821.276	15345.66
821.604	15188.82
821.932	15312.66
822.259	15387.91
822.587	15252.55
822.915	15234.47
823.243	15225.88
823.57	15250.29
823.898	15214.81
824.225	15229.05
824.553	15179.11
824.88	15249.39
825.207	15245.09
825.535	15222.5
825.862	15244.87
826.189	15342.04
826.516	15254.58
826.843	15323.06
827.17	15361.7
827.497	15291.87
827.824	15311.31
828.151	15310.63
828.478	15317.86
828.805	15333.45
829.131	15335.94
829.458	15274.92
829.785	15138.66
830.111	15230.4
830.438	15349.95
830.764	15248.94
831.09	15226.11
831.417	15295.94
831.743	15315.6
832.069	15338.2
832.395	15168.26
832.722	15199.67
833.048	15120.13
833.374	15201.7
833.7	15196.06
834.026	15152.21
834.351	15170.97
834.677	15131.2
835.003	15226.34
835.329	15204.64
835.654	15240.57
835.98	15100.69
836.306	15131.88
836.631	14986.34
836.956	15189.28
837.282	15042.16
837.607	14983.63
837.932	14903.18
838.258	14967.13
838.583	14950.86
838.908	14941.37
839.233	14933.46
839.558	14886.68
839.883	14776.86
840.208	14738.44
840.533	14789.74
840.858	14843.97
841.182	14699.8
841.507	14760.81
841.832	14636.3
842.156	14558.78
842.481	14587.94
842.805	14594.49
843.13	14553.36
843.454	14539.8
843.778	14418
844.103	14440.82
844.427	14385.46
844.751	14425
845.075	14318.34
845.399	14334.16
845.723	14159.02
846.047	14267.04
846.371	14145.46
846.695	14177.78
847.019	14058.91
847.343	13977.78
847.666	13873.38
847.99	13834.06
848.313	13890.55
848.637	13757
848.96	13793.38
849.284	13698.24
849.607	13600.84
849.931	13654.63
850.254	13569.88
850.577	13397.46
850.9	13376.22
851.223	13311.36
851.546	13308.87
851.869	13158.82
852.192	13238.59
852.515	13220.29
852.838	13083.34
853.161	13078.82
853.483	13014.19
853.806	12971.71
854.129	12922.89
854.451	12803.35
854.774	12839.28
855.096	12747.98
855.419	12742.33
855.741	12816.68
856.063	12566.07
856.385	12653.52
856.708	12585.73
857.03	12475.22
857.352	12589.57
857.674	12471.61
857.996	12432.29
858.318	12335.57
858.64	12358.62
858.961	12427.31
859.283	12243.82
859.605	12298.96
859.926	12346.86
860.248	12191.16
860.57	12099.64
860.891	12131.28
861.212	12109.58
861.534	12080.88
861.855	11980.77
862.176	12021
862.498	12044.5
862.819	12044.5
863.14	11938.97
863.461	11943.94
863.782	11950.94
864.103	11881.34
864.424	11898.74
864.745	11851.28
865.065	11824.39
865.386	11772.87
865.707	11767.44
866.027	11794.56
866.348	11765.18
866.668	11759.76
866.989	11692.87
867.309	11614.91
867.63	11651.74
867.95	11623.27
868.27	11567.9
868.59	11625.3
868.91	11602.93
869.23	11524.74
869.55	11431.86
869.87	11513.89
870.19	11517.28
870.51	11468.92
870.83	11545.53
871.15	11444.97
871.469	11416.27
871.789	11491.97
872.109	11372.88
872.428	11398.87
872.748	11469.83
873.067	11353.44
873.386	11361.58
873.706	11367.46
874.025	11244.97
874.344	11214.47
874.663	11266.67
874.982	11241.81
875.301	11219.66
875.62	11264.63
875.939	11042.49
876.258	11101.47
876.577	11082.27
876.896	11164.07
877.214	11064.41
877.533	11165.43
877.852	11107.12
878.17	11040.68
878.489	11017.86
878.807	10978.99
879.125	10982.61
879.444	10980.35
879.762	11035.26
880.08	10961.59
880.398	10919.33
880.716	10931.99
881.034	10923.17
881.352	10893.12
881.67	10889.73
881.988	10788.04
882.306	10758.88
882.624	10738.55
882.941	10691.77
883.259	10700.58
883.577	10691.54
883.894	10629.4
884.212	10603.18
884.529	10633.92
884.846	10682.73
885.164	10536.52
885.481	10432.56
885.798	10539.68
886.115	10414.03
886.432	10451.32
886.75	10395.96
887.067	10461.49
887.383	10337.43
887.7	10417.2
888.017	10329.74
888.334	10332.45
888.651	10337.2
888.967	10299.01
889.284	10210.88
889.6	10220.14
889.917	10102.86
890.233	10096.98
890.55	10039.58
890.866	10166.58
891.182	10083.65
891.498	10023.54
891.815	10015.63
892.131	9985.57
892.447	9944.44
892.763	9960.71
893.079	9847.04
893.395	9822.41
893.71	9865.57
894.026	9838.91
894.342	9769.31
894.657	9672.13
894.973	9686.37
895.289	9677.56
895.604	9696.09
895.92	9544.68
896.235	9502.19
896.55	9516.2
896.865	9482.76
897.181	9411.35
897.496	9439.14
897.811	9382.87
898.126	9335.64
898.441	9352.82
898.756	9269.88
899.071	9292.48
899.386	9250
899.7	9168.42
900.015	9145.82
900.33	9103.11
900.644	9099.72
900.959	9107.18
901.273	9048.65
901.588	9022.21
901.902	9021.98
902.216	8911.02
902.531	8906.05
902.845	8867.86
903.159	8851.36
903.473	8845.04
903.787	8767.3
904.101	8723.01
904.415	8752.16
904.729	8640.75
905.042	8615.66
905.356	8598.26
905.67	8556.68
905.984	8550.58
906.297	8444.82
906.611	8513.07
906.924	8449.34
907.237	8430.58
907.551	8372.28
907.864	8401.88
908.177	8313.75
908.491	8282.11
908.804	8255.45
909.117	8187.65
909.43	8159.4
909.743	8142.23
910.056	8086.64
910.368	8052.29
910.681	8029.01
910.994	8009.8
911.307	7999.63
911.619	7824.05
911.932	7949.47
912.244	7842.35
912.557	7845.74
912.869	7817.72
913.181	7857.72
913.494	7755.12
913.806	7754.44
914.118	7667.44
914.43	7642.58
914.742	7713.31
915.054	7613.2
915.366	7550.83
915.678	7544.73
915.99	7540.66
916.302	7473.09
916.613	7401.23
916.925	7380.44
917.236	7339.99
917.548	7393.1
917.859	7343.61
918.171	7248.47
918.482	7238.52
918.794	7163.95
919.105	7195.81
919.416	7137.06
919.727	7141.8
920.038	7120.79
920.349	7081.24
920.66	7052.99
920.971	7022.26
921.282	7022.26
921.593	6978.87
921.903	6953.56
922.214	6876.73
922.525	6879.44
922.835	6905.43
923.146	6783.17
923.456	6773.45
923.767	6768.48
924.077	6716.5
924.387	6721.7
924.697	6661.36
925.008	6670.86
925.318	6601.48
925.628	6592.21
925.938	6571.42
926.248	6562.84
926.558	6513.35
926.867	6507.92
927.177	6446.23
927.487	6431.31
927.796	6370.52
928.106	6392.44
928.416	6330.3
928.725	6312.67
929.034	6314.93
929.344	6331.2
929.653	6291.66
929.962	6224.09
930.271	6193.58
930.581	6150.42
930.89	6110.42
931.199	6106.35
931.508	6120.14
931.817	6063.19
932.125	6089.85
932.434	6060.48
932.743	6007.6
933.051	5952.23
933.36	5987.94
933.669	5904.32
933.977	5861.16
934.286	5892.12
934.594	5819.13
934.902	5841.27
935.21	5854.61
935.519	5797.88
935.827	5733.93
936.135	5762.63
936.443	5668.4
936.751	5681.28
937.059	5700.49
937.367	5646.25
937.674	5684.67
937.982	5605.8
938.29	5562.41
938.597	5548.17
938.905	5499.36
939.213	5503.65
939.52	5508.17
939.827	5482.19
940.135	5413.04
940.442	5415.3
940.749	5340.72
941.056	5340.95
941.363	5319.93
941.67	5285.81
941.977	5299.82
942.284	5237.45
942.591	5250.78
942.898	5263.89
943.205	5227.73
943.511	5169.88
943.818	5152.25
944.125	5131.69
944.431	5074.06
944.738	5118.35
945.044	5067.28
945.35	5036.77
945.657	4952.03
945.963	5016.44
946.269	4975.98
946.575	4980.28
946.881	4950.67
947.187	4900.96
947.493	4917.91
947.799	4871.58
948.105	4856.44
948.41	4840.85
948.716	4880.39
949.022	4716.56
949.327	4805.14
949.633	4738.7
949.938	4701.19
950.244	4750.68
950.549	4699.61
950.854	4697.12
951.16	4652.15
951.465	4615.54
951.77	4595.43
952.075	4655.99
952.38	4549.56
952.685	4566.05
952.99	4520.4
953.294	4520.86
953.599	4501.42
953.904	4483.57
954.209	4449.22
954.513	4451.03
954.818	4402.89
955.122	4378.49
955.426	4383.01
955.731	4345.04
956.035	4366.06
956.339	4367.64
956.643	4289.68
956.948	4284.48
957.252	4279.51
957.556	4267.08
957.86	4219.17
958.163	4229.56
958.467	4205.61
958.771	4209
959.075	4127.42
959.378	4140.53
959.682	4147.31
959.985	4077.48
960.289	4091.71
960.592	4078.38
960.896	4109.12
961.199	4058.49
961.502	4042.68
961.805	3993.86
962.108	3970.36
962.411	3962.45
962.714	3909.8
963.017	3938.05
963.32	3918.39
963.623	3894.43
963.926	3874.77
964.228	3857.6
964.531	3849.69
964.833	3856.92
965.136	3819.63
965.438	3824.83
965.741	3760.88
966.043	3769.46
966.345	3800.87
966.648	3709.58
966.95	3716.58
967.252	3677.49
967.554	3700.76
967.856	3655.34
968.158	3684.95
968.46	3656.47
968.761	3609.02
969.063	3618.73
969.365	3593.2
969.666	3573.99
969.968	3578.51
970.269	3525.85
970.571	3485.18
970.872	3506.65
971.174	3508.23
971.475	3508.9
971.776	3442.24
972.077	3437.72
972.378	3426.65
972.679	3436.82
972.98	3402.92
973.281	3364.28
973.582	3383.03
973.883	3374.9
974.183	3342.58
974.484	3402.69
974.785	3306.42
975.085	3304.84
975.386	3307.33
975.686	3302.81
975.986	3255.13
976.287	3246.76
976.587	3218.52
976.887	3194.56
977.187	3226.88
977.487	3188.24
977.787	3195.01
978.087	3134.23
978.387	3144.62
978.687	3124.06
978.987	3093.32
979.286	3146.2
979.586	3072.98
979.885	3075.24
980.185	3063.94
980.484	3070.27
980.784	3012.87
981.083	2993.21
981.382	3005.87
981.682	3043.38
981.981	2976.72
982.28	2971.29
982.579	2933.78
982.878	2942.82
983.177	2948.92
983.475	2942.37
983.774	2875.48
984.073	2886.32
984.372	2864.18
984.67	2837.06
984.969	2832.76
985.267	2847
985.566	2866.66
985.864	2825.08
986.162	2790.51
986.461	2789.15
986.759	2753.44
987.057	2749.83
987.355	2745.76
987.653	2741.92
987.951	2722.48
988.249	2714.35
988.547	2713.45
988.844	2675.48
989.142	2699.89
989.44	2663.05
989.737	2638.42
990.035	2653.56
990.332	2621.92
990.63	2595.48
990.927	2625.09
991.224	2557.74
991.521	2578.31
991.819	2550.96
992.116	2551.64
992.413	2552.32
992.71	2505.77
993.006	2533.11
993.303	2517.29
993.6	2495.37
993.897	2492.66
994.193	2487.01
994.49	2434.58
994.787	2461.7
995.083	2445.66
995.379	2402.27
995.676	2391.87
995.972	2409.27
996.268	2376.96
996.565	2374.02
996.861	2352.1
997.157	2347.58
997.453	2334.02
997.749	2347.58
998.044	2334.47
998.34	2323.63
998.636	2283.17
998.932	2299.45
999.227	2273.46
999.523	2276.17
999.818	2237.53
1000.114	2226
1000.409	2215.83
1000.704	2196.17
1001	2181.93
1001.295	2155.27
1001.59	2174.7
1001.885	2190.97
1002.18	2162.05
1002.475	2124.99
1002.77	2122.95
1003.065	2119.56
1003.359	2111.43
1003.654	2121.14
1003.949	2088.38
1004.243	2083.18
1004.538	2008.15
1004.832	2009.06
1005.127	2034.59
1005.421	2006.12
1005.715	1966.12
1006.009	1968.15
1006.304	1973.35
1006.598	1943.97
1006.892	1934.71
1007.186	1937.87
1007.48	1911.66
1007.773	1915.05
1008.067	1924.77
1008.361	1908.27
1008.655	1899.23
1008.948	1898.33
1009.242	1880.02
1009.535	1892.45
1009.829	1879.34
1010.122	1841.83
1010.415	1834.6
1010.708	1812.68
1011.001	1777.65
1011.295	1812.23
1011.588	1789.18
1011.881	1772.91
1012.173	1788.05
1012.466	1749.63
1012.759	1743.53
1013.052	1748.73
1013.344	1738.78
1013.637	1719.12
1013.93	1723.64
1014.222	1717.77
1014.514	1672.34
1014.807	1676.64
1015.099	1690.87
1015.391	1678.9
1015.683	1663.08
1015.976	1625.79
1016.268	1625.79
1016.56	1630.08
1016.851	1609.97
1017.143	1612.01
1017.435	1573.36
1017.727	1576.3
1018.018	1552.57
1018.31	1557.77
1018.602	1539.24
1018.893	1540.14
1019.185	1538.56
1019.476	1518.22
1019.767	1515.51
1020.058	1513.25
1020.35	1489.07
1020.641	1457.43
1020.932	1479.58
1021.223	1464.44
1021.514	1485.46
1021.804	1421.73
1022.095	1440.03
1022.386	1424.67
1022.677	1413.59
1022.967	1399.36
1023.258	1379.02
1023.548	1384.22
1023.839	1381.96
1024.129	1347.15
1024.419	1372.01
1024.709	1374.27
1025	1351.9
1025.29	1321.84
1025.58	1334.95
1025.87	1315.52
1026.16	1306.02
1026.449	1303.09
1026.739	1288.85
1027.029	1310.54
1027.319	1254.05
1027.608	1263.99
1027.898	1272.81
1028.187	1262.41
1028.477	1266.93
1028.766	1245.01
1029.055	1233.94
1029.344	1223.09
1029.634	1229.42
1029.923	1198.68
1030.212	1198.01
1030.501	1179.02
1030.79	1193.26
1031.078	1177.89
1031.367	1183.09
1031.656	1167.95
1031.945	1171.11
1032.233	1150.55
1032.522	1134.96
1032.81	1124.33
1033.099	1112.36
1033.387	1109.19
1033.675	1121.62
1033.963	1085.69
1034.251	1113.94
1034.54	1069.2
1034.828	1084.56
1035.116	1069.65
1035.403	1090.66
1035.691	1048.63
1035.979	1061.96
1036.267	1052.7
1036.554	1038.01
1036.842	1024.45
1037.129	1022.42
1037.417	1002.3
1037.704	1043.66
1037.992	997.11
1038.279	966.82
1038.566	979.93
1038.853	979.93
1039.14	979.93
