Data from hue_330_FLMS001491_56.txt Node
Date: Mon Feb 06 15:45:35 GMT 2017
User: dcchb
Spectrometer: FLMS00149
Trigger mode: 0
Integration Time (sec): 2.000000E-2
Scans to average: 10
Electric dark correction enabled: true
Nonlinearity correction enabled: false
Boxcar width: 0
XAxis mode: Wavelengths
Number of Pixels in Spectrum: 2048
>>>>>Begin Spectral Data<<<<<
341.393	-26.93
341.776	-26.93
342.16	-26.93
342.543	-48.85
342.927	-59.02
343.31	-74.84
343.693	-76.2
344.077	-58.57
344.46	-68.29
344.843	-51.11
345.226	-38.01
345.61	-36.2
345.993	-37.56
346.376	-14.05
346.759	20.07
347.142	40.41
347.525	58.71
347.908	69.56
348.291	54.87
348.674	107.07
349.057	104.14
349.44	106.62
349.823	132.84
350.206	162.89
350.588	185.94
350.971	195.43
351.354	243.34
351.737	206.51
352.119	275.88
352.502	249.89
352.884	264.58
353.267	285.83
353.65	292.15
354.032	303.23
354.414	287.41
354.797	299.61
355.179	340.97
355.562	322.44
355.944	326.73
356.326	340.06
356.709	329.89
357.091	308.65
357.473	335.99
357.855	324.69
358.238	338.03
358.62	372.38
359.002	307.52
359.384	342.77
359.766	337.12
360.148	336.45
360.53	344.36
360.912	335.54
361.294	354.98
361.676	329.89
362.057	328.31
362.439	325.6
362.821	322.44
363.203	321.08
363.584	338.25
363.966	321.53
364.348	323.56
364.729	322.66
365.111	331.47
365.493	328.54
365.874	328.08
366.256	335.99
366.637	326.28
367.019	310.23
367.4	313.62
367.781	314.75
368.163	328.54
368.544	306.39
368.925	300.29
369.306	317.46
369.688	327.63
370.069	308.65
370.45	319.95
370.831	305.49
371.212	294.87
371.593	334.41
371.974	314.98
372.355	297.8
372.736	307.07
373.117	314.75
373.498	290.57
373.879	306.39
374.26	307.29
374.641	326.28
375.021	318.59
375.402	329.67
375.783	326.95
376.163	313.85
376.544	321.53
376.925	327.18
377.305	327.18
377.686	318.82
378.066	333.06
378.447	327.86
378.827	347.29
379.208	316.33
379.588	349.1
379.968	324.02
380.349	329.89
380.729	335.54
381.109	337.8
381.489	356.78
381.87	346.62
382.25	320.63
382.63	336.9
383.01	314.98
383.39	349.33
383.77	356.33
384.15	343.68
384.53	337.35
384.91	356.56
385.29	367.18
385.67	343.68
386.049	330.8
386.429	350.23
386.809	347.75
387.189	340.74
387.568	343
387.948	359.27
388.328	346.84
388.707	347.52
389.087	364.69
389.466	359.5
389.846	362.21
390.225	362.66
390.605	353.85
390.984	352.94
391.363	371.02
391.743	391.59
392.122	345.71
392.501	359.5
392.881	376.67
393.26	378.03
393.639	368.76
394.018	352.94
394.397	380.51
394.776	384.35
395.155	366.05
395.534	379.61
395.913	383.68
396.292	395.2
396.671	392.04
397.05	383.68
397.429	359.72
397.808	392.26
398.186	386.61
398.565	393.85
398.944	397.46
399.323	404.69
399.701	399.72
400.08	405.14
400.458	413.51
400.837	395.65
401.215	414.41
401.594	402.88
401.972	406.95
402.351	404.69
402.729	394.75
403.107	430.45
403.486	409.89
403.864	404.47
404.242	429.1
404.62	415.09
404.999	412.38
405.377	416.67
405.755	428.19
406.133	429.1
406.511	419.16
406.889	413.28
407.267	432.26
407.645	441.53
408.023	478.59
408.401	465.48
408.779	472.04
409.156	488.08
409.534	477.01
409.912	463
410.29	491.24
410.667	487.85
411.045	480.4
411.422	490.79
411.8	514.07
412.178	498.25
412.555	492.15
412.933	500.96
413.31	531.24
413.687	529.44
414.065	523.79
414.442	522.43
414.819	558.36
415.197	531.92
415.574	556.78
415.951	571.92
416.328	552.94
416.705	554.75
417.082	542.54
417.46	577.12
417.837	586.38
418.214	573.5
418.591	612.37
418.967	610.11
419.344	612.6
419.721	617.79
420.098	602.88
420.475	618.47
420.852	628.19
421.228	629.55
421.605	630.9
421.982	655.99
422.358	643.33
422.735	660.96
423.111	660.73
423.488	665.7
423.864	682.88
424.241	683.78
424.617	693.05
424.994	681.75
425.37	695.08
425.746	698.92
426.123	714.97
426.499	698.47
426.875	724.91
427.251	722.42
427.627	721.52
428.003	742.54
428.379	755.19
428.756	765.14
429.132	758.81
429.507	747.96
429.883	776.66
430.259	790.67
430.635	806.94
431.011	775.3
431.387	821.86
431.763	837.22
432.138	848.07
432.514	838.81
432.89	845.81
433.265	824.57
433.641	868.64
434.016	878.58
434.392	863.44
434.767	882.87
435.143	887.84
435.518	914.96
435.894	918.35
436.269	912.02
436.644	940.72
437.02	949.31
437.395	964.9
437.77	934.17
438.145	971.01
438.52	967.39
438.895	989.08
439.271	962.19
439.646	976.66
440.021	1014.62
440.395	997.9
440.77	985.47
441.145	1011
441.52	1029.99
441.895	1020.04
442.27	1041.51
442.645	1027.28
443.019	1026.6
443.394	1053.72
443.769	1050.78
444.143	1060.49
444.518	1063.21
444.892	1059.36
445.267	1055.07
445.641	1105.47
446.016	1079.03
446.39	1087.84
446.764	1097.56
447.139	1067.73
447.513	1120.15
447.887	1131
448.262	1115.63
448.636	1120.83
449.01	1136.88
449.384	1148.4
449.758	1137.1
450.132	1157.67
450.506	1156.76
450.88	1167.84
451.254	1150.89
451.628	1175.97
452.002	1189.08
452.376	1195.41
452.75	1166.48
453.123	1176.42
453.497	1221.62
453.871	1241.73
454.244	1229.98
454.618	1228.63
454.992	1248.51
455.365	1251.9
455.739	1270.66
456.112	1260.49
456.486	1274.5
456.859	1295.97
457.232	1336.87
457.606	1319.92
457.979	1338.68
458.352	1332.35
458.725	1364.67
459.099	1361.28
459.472	1397.89
459.845	1408.51
460.218	1399.24
460.591	1417.1
460.964	1400.15
461.337	1407.38
461.71	1439.92
462.083	1453.7
462.456	1474.95
462.829	1495.74
463.201	1503.19
463.574	1469.07
463.947	1518.11
464.32	1521.95
464.692	1534.83
465.065	1526.25
465.438	1585.45
465.81	1592.46
466.183	1621.84
466.555	1621.61
466.928	1654.15
467.3	1623.87
467.672	1638.78
468.045	1689.86
468.417	1691.21
468.789	1691.89
469.161	1671.1
469.534	1765.79
469.906	1763.3
470.278	1775.05
470.65	1769.18
471.022	1812.11
471.394	1834.71
471.766	1817.76
472.138	1890.3
472.51	1902.96
472.882	1932.79
473.253	1942.51
473.625	1964.88
473.997	1976.18
474.369	1996.97
474.74	2031.54
475.112	2054.37
475.484	2061.15
475.855	2134.59
476.227	2150.41
476.598	2171.65
476.97	2179.11
477.341	2217.53
477.713	2263.4
478.084	2248.49
478.455	2306.34
478.827	2308.82
479.198	2382.72
479.569	2384.98
479.94	2441.7
480.311	2460.91
480.682	2514.24
481.053	2551.98
481.424	2539.78
481.795	2575.26
482.166	2629.49
482.537	2647.8
482.908	2703.84
483.279	2693.67
483.65	2823.84
484.021	2794.91
484.391	2834.91
484.762	2864.29
485.133	2870.16
485.503	2900.9
485.874	2956.72
486.244	2986.77
486.615	3032.42
486.985	3068.13
487.356	3140.21
487.726	3088.69
488.097	3192.64
488.467	3194.9
488.837	3255.47
489.207	3259.53
489.578	3342.02
489.948	3377.04
490.318	3390.38
490.688	3361.23
491.058	3419.3
491.428	3466.08
491.798	3485.29
492.168	3577.49
492.538	3565.29
492.908	3582.01
493.278	3631.27
493.648	3670.37
494.017	3699.07
494.387	3686.19
494.757	3755.79
495.126	3779.97
495.496	3776.81
495.866	3837.37
496.235	3856.81
496.605	3869.69
496.974	3888.22
497.344	3916.69
497.713	3930.02
498.082	3941.1
498.452	3967.99
498.821	4046.63
499.19	4013.64
499.559	4063.81
499.928	4035.33
500.298	4129.11
500.667	4088.66
501.036	4110.13
501.405	4116.91
501.774	4111.26
502.143	4209.56
502.512	4198.04
502.88	4234.87
503.249	4216.34
503.618	4251.82
503.987	4265.83
504.356	4293.63
504.724	4306.96
505.093	4339.5
505.462	4335.44
505.83	4356.23
506.199	4374.98
506.567	4446.17
506.936	4427.86
507.304	4422.21
507.672	4480.74
508.041	4439.61
508.409	4471.48
508.777	4506.96
509.145	4580.4
509.514	4525.94
509.882	4560.74
510.25	4617.69
510.618	4626.95
510.986	4595.32
511.354	4649.33
511.722	4606.39
512.09	4709.66
512.458	4654.75
512.826	4711.7
513.193	4748.76
513.561	4743.11
513.929	4728.42
514.297	4737.69
514.664	4811.13
515.032	4743.11
515.4	4836.67
515.767	4857.91
516.135	4894.74
516.502	4864.01
516.869	4958.02
517.237	4919.38
517.604	4885.93
517.972	4919.6
518.339	4982.65
518.706	4948.3
519.073	4985.82
519.44	4948.98
519.808	5095.64
520.175	5047.06
520.542	5068.75
520.909	5061.52
521.276	5131.35
521.643	5137.22
522.009	5154.17
522.376	5171.12
522.743	5193.27
523.11	5223.1
523.477	5265.81
523.843	5221.29
524.21	5304.45
524.577	5330.21
524.943	5363.21
525.31	5321.17
525.676	5392.58
526.043	5444.33
526.409	5490.43
526.776	5498.57
527.142	5468.97
527.508	5544.44
527.874	5566.36
528.241	5566.14
528.607	5583.09
528.973	5621.28
529.339	5635.29
529.705	5680.49
530.071	5730.88
530.437	5770.2
530.803	5782.4
531.169	5818.79
531.535	5849.97
531.901	5854.72
532.267	5841.16
532.632	5872.12
532.998	5916.19
533.364	5963.64
533.73	5958.22
534.095	5981.5
534.461	6028.95
534.826	6119.34
535.192	6100.36
535.557	6122.51
535.923	6122.73
536.288	6149.85
536.653	6152.79
537.019	6169.96
537.384	6209.51
537.749	6267.14
538.114	6241.38
538.479	6313.69
538.845	6312.33
539.21	6339.45
539.575	6330.86
539.94	6324.31
540.305	6394.59
540.67	6411.09
541.034	6426.91
541.399	6491.54
541.764	6484.08
542.129	6566.34
542.494	6550.97
542.858	6560.01
543.223	6554.36
543.587	6663.74
543.952	6615.6
544.316	6732.21
544.681	6712.55
545.045	6686.11
545.41	6741.02
545.774	6798.42
546.138	6745.99
546.503	6808.59
546.867	6854.92
547.231	6887.46
547.595	6859.89
547.959	6936.95
548.324	6938.08
548.688	6938.31
549.052	6990.96
549.416	6985.76
549.779	7058.08
550.143	6986.21
550.507	7118.19
550.871	7101.24
551.235	7150.73
551.599	7142.14
551.962	7197.06
552.326	7195.02
552.689	7207
553.053	7214.68
553.417	7287.22
553.78	7331.74
554.143	7285.87
554.507	7351.85
554.87	7343.04
555.234	7437.5
555.597	7403.38
555.96	7401.57
556.323	7471.85
556.686	7436.82
557.05	7529.48
557.413	7460.33
557.776	7541.91
558.139	7586.88
558.502	7574.45
558.865	7613.09
559.228	7640.89
559.59	7684.28
559.953	7640.43
560.316	7779.19
560.679	7764.05
561.041	7702.35
561.404	7790.49
561.767	7805.85
562.129	7812.86
562.492	7967.21
562.854	7888.56
563.217	7962.46
563.579	7934.21
563.941	7948.9
564.304	7964.49
564.666	8124.94
565.028	8021.89
565.39	8041.1
565.753	8114.77
566.115	8153.42
566.477	8159.52
566.839	8197.03
567.201	8211.49
567.563	8229.8
567.925	8306.86
568.287	8341.89
568.648	8340.3
569.01	8386.18
569.372	8438.15
569.734	8451.49
570.095	8509.79
570.457	8587.3
570.819	8623.01
571.18	8573.74
571.542	8639.73
571.903	8635.89
572.265	8732.16
572.626	8732.84
572.987	8814.42
573.349	8802.21
573.71	8867.75
574.071	8948.87
574.432	9018.48
574.794	9151.36
575.155	9177.8
575.516	9160.17
575.877	9221.41
576.238	9258.7
576.599	9387.51
576.96	9349.99
577.32	9530.55
577.681	9577.11
578.042	9626.15
578.403	9720.83
578.763	9792.02
579.124	9861.62
579.485	10027.26
579.845	10142.74
580.206	10182.06
580.566	10270.42
580.927	10414.6
581.287	10659.11
581.648	10638.1
582.008	10890.29
582.368	10969.84
582.728	11112.66
583.089	11236.05
583.449	11387.45
583.809	11615.47
584.169	11728.01
584.529	11950.38
584.889	12182.01
585.249	12239.86
585.609	12398.05
585.969	12746.29
586.329	12876
586.688	13110.8
587.048	13233.06
587.408	13491.13
587.768	13699.48
588.127	13971.57
588.487	14235.52
588.846	14450.88
589.206	14751.43
589.565	14907.81
589.925	15149.16
590.284	15416.73
590.643	15735.14
591.003	15968.35
591.362	16249.02
591.721	16539.86
592.08	16805.17
592.44	17147.76
592.799	17476.33
593.158	17765.59
593.517	17948.64
593.876	18325.58
594.235	18528.06
594.593	18822.06
594.952	19217.53
595.311	19355.38
595.67	19737.97
596.029	20089.37
596.387	20347.9
596.746	20740.43
597.104	20908.56
597.463	21160.31
597.822	21601.65
598.18	21727.3
598.538	22095.42
598.897	22441.18
599.255	22591.68
599.613	23116.41
599.972	23327.03
600.33	23743.74
600.688	23823.96
601.046	24273.22
601.404	24587.33
601.762	24739.19
602.12	25106.19
602.478	25484.71
602.836	25607.65
603.194	25754.99
603.552	26173.96
603.91	26304.35
604.268	26658.24
604.625	26913.15
604.983	27272.23
605.341	27356.3
605.698	27733.24
606.056	28039.22
606.413	28200.35
606.771	28548.13
607.128	28751.07
607.485	28819.99
607.843	29055.01
608.2	29520.54
608.557	29882.79
608.914	29918.04
609.272	30280.07
609.629	30369.78
609.986	30766.15
610.343	30770.9
610.7	31214.28
611.057	31447.94
611.414	31440.94
611.771	31658.11
612.127	32005.67
612.484	32155.72
612.841	32359.11
613.198	32623.05
613.554	32717.97
613.911	32980.33
614.267	33107.11
614.624	33284.51
614.98	33414.67
615.337	33805.17
615.693	33823.02
616.05	33947.31
616.406	34333.29
616.762	34288.55
617.118	34384.36
617.475	34614.87
617.831	34883.79
618.187	35010.56
618.543	35090.33
618.899	35382.3
619.255	35428.86
619.611	35514.96
619.967	35771.67
620.323	35993.36
620.678	35966.02
621.034	35975.06
621.39	36018.9
621.746	36129.4
622.101	36743.4
622.457	36353.58
622.812	36655.72
623.168	36806.45
623.523	36878.31
623.879	37001.24
624.234	36934.35
624.589	37104.97
624.945	37110.85
625.3	37259.54
625.655	37373.44
626.01	37497.5
626.365	37532.98
626.72	37573.21
627.075	37722.58
627.43	37714.9
627.785	37755.58
628.14	37906.76
628.495	37871.05
628.85	37921.22
629.205	37902.92
629.559	38179.97
629.914	38113.31
630.269	38103.59
630.623	38172.29
630.978	38165.96
631.332	38287.31
631.687	38518.94
632.041	38266.97
632.396	38382.9
632.75	38396.91
633.104	38526.63
633.459	38263.36
633.813	38250.93
634.167	38466.29
634.521	38548.55
634.875	38598.72
635.229	38645.5
635.583	38312.85
635.937	38365.73
636.291	38249.57
636.645	38455.22
636.999	38363.92
637.352	38657.7
637.706	38266.07
638.06	38374.54
638.413	38364.6
638.767	38403.69
639.121	38349.91
639.474	38360.53
639.828	38264.94
640.181	38449.79
640.534	38358.72
640.888	38335.9
641.241	38228.33
641.594	38259.29
641.947	38312.4
642.301	38409.8
642.654	38518.49
643.007	38329.57
643.36	38357.59
643.713	38469.23
644.066	38426.52
644.419	38278.27
644.771	37976.81
645.124	37746.76
645.477	37525.52
645.83	37314.46
646.182	37384.51
646.535	37183.39
646.888	37353.78
647.24	37076.04
647.593	37297.06
647.945	37214.8
648.298	37194.01
648.65	37077.4
649.002	36996.95
649.355	37268.58
649.707	37123.5
650.059	37288.24
650.411	37759.19
650.763	37736.82
651.115	37993.76
651.467	37951.5
651.819	37912.86
652.171	37859.53
652.523	37842.35
652.875	37819.08
653.227	37662.92
653.578	37850.04
653.93	37979.75
654.282	37744.95
654.633	37579.08
654.985	37706.76
655.337	37725.29
655.688	37745.63
656.039	37965.51
656.391	37495.47
656.742	37542.47
657.094	37643.26
657.445	37806.42
657.796	37566.65
658.147	37528.24
658.498	37509.93
658.849	37602.58
659.2	37657.95
659.551	37640.78
659.902	37512.19
660.253	37683.26
660.604	37630.38
660.955	37472.87
661.306	37491.85
661.656	37549.48
662.007	37437.39
662.358	37388.58
662.708	37578.63
663.059	37374.57
663.409	37326.21
663.76	37610.49
664.11	37544.06
664.461	37604.62
664.811	37603.49
665.161	37456.15
665.511	37510.61
665.862	37501.57
666.212	37646.88
666.562	37543.6
666.912	37470.61
667.262	37398.07
667.612	37373.44
667.962	37467
668.312	37384.74
668.662	37633.32
669.011	37485.3
669.361	37321.91
669.711	37379.09
670.06	37285.98
670.41	37224.97
670.76	37165.99
671.109	37335.02
671.459	37265.64
671.808	37292.08
672.157	37372.08
672.507	36992.66
672.856	37220.9
673.205	37263.61
673.554	37279.66
673.904	37112.2
674.253	37476.03
674.602	37268.81
674.951	36677.19
675.3	36508.15
675.649	37048.48
675.998	37031.53
676.346	37120.79
676.695	37080.79
677.044	36847.35
677.393	37166.66
677.741	37160.11
678.09	36941.13
678.438	36834.92
678.787	36872.43
679.135	37069.27
679.484	36676.06
679.832	36856.39
680.181	36663.85
680.529	36877.86
680.877	36654.81
681.225	36755.15
681.573	36895.03
681.922	36529.62
682.27	36414.37
682.618	36627.92
682.966	36335.05
683.314	36470.19
683.661	36339.34
684.009	36196.75
684.357	36324.2
684.705	36005.56
685.053	36189.06
685.4	35981.61
685.748	35899.8
686.095	35909.97
686.443	35837.89
686.79	35788.62
687.138	35902.52
687.485	35779.13
687.832	35627.95
688.18	35729.87
688.527	35622.52
688.874	35500.04
689.221	35444.9
689.568	35357.67
689.915	35282.19
690.262	35170.11
690.609	35293.27
690.956	35077.68
691.303	34993.16
691.65	34879.49
691.997	34838.82
692.344	34472.5
692.69	34643.57
693.037	34770.57
693.383	34250.81
693.73	34489.22
694.077	34369.22
694.423	34305.04
694.769	34168.32
695.116	34138.27
695.462	34018.27
695.808	34004.04
696.155	33978.05
696.501	33734.66
696.847	33888.11
697.193	33563.82
697.539	33677.72
697.885	33444.05
698.231	33301.45
698.577	33300.55
698.923	33346.2
699.269	33145.53
699.614	32937.62
699.96	33031.41
700.306	32882.71
700.651	32783.28
700.997	32721.13
701.342	32684.07
701.688	32640.46
702.033	32600.23
702.379	32640.46
702.724	32428.03
703.069	32483.4
703.415	31969.06
703.76	32076.18
704.105	32065.78
704.45	32139
704.795	31860.14
705.14	31750.08
705.485	31725.45
705.83	31565
706.175	31649.97
706.52	31439.81
706.865	31476.64
707.209	31434.16
707.554	31478.23
707.899	31327.27
708.243	31296.99
708.588	31159.14
708.932	30933.16
709.277	30968.18
709.621	30956.21
709.966	30851.8
710.31	30744.46
710.654	30628.98
710.998	30589.66
711.342	30647.51
711.687	30617.91
712.031	30436.67
712.375	30348.99
712.719	30375.43
713.063	30398.71
713.407	30348.09
713.75	30102.44
714.094	30132.95
714.438	29976.34
714.782	30116
715.125	29831.94
715.469	29832.62
715.812	29734.09
716.156	29569.8
716.499	29590.59
716.843	29626.07
717.186	29529.12
717.53	29601.89
717.873	29681.89
718.216	29440.54
718.559	29467.66
718.902	29231.05
719.246	29263.59
719.589	29255.91
719.932	29152.41
720.275	29099.53
720.617	29060.89
720.96	28980.44
721.303	28969.59
721.646	29102.02
721.989	28807.56
722.331	29029.25
722.674	28823.61
723.016	28774.79
723.359	28724.17
723.701	28758.98
724.044	28580.22
724.386	28348.59
724.729	28606.66
725.071	28502.26
725.413	28338.87
725.755	28423.62
726.097	28344.98
726.439	28150.4
726.782	28181.14
727.124	28405.31
727.465	28118.54
727.807	28104.53
728.149	28013.91
728.491	28025.21
728.833	28152.66
729.175	27838.77
729.516	27809.62
729.858	27816.18
730.199	27806.23
730.541	27857.98
730.882	27764.65
731.224	27825.67
731.565	27630.64
731.906	27632.68
732.248	27558.1
732.589	27494.6
732.93	27448.05
733.271	27433.36
733.612	27427.49
733.953	27442.85
734.294	27227.49
734.635	27265.91
734.976	27331.44
735.317	27182.29
735.658	27149.98
735.999	27043.09
736.339	27116.31
736.68	27159.24
737.021	26974.16
737.361	26911.11
737.702	26985.91
738.042	26973.26
738.383	26752.25
738.723	26924
739.063	26692.59
739.404	26681.29
739.744	26657.79
740.084	26617.56
740.424	26667.96
740.764	26594.51
741.104	26653.04
741.444	26520.62
741.784	26442.43
742.124	26497.11
742.464	26532.82
742.804	26331.47
743.143	26292.83
743.483	26404.69
743.823	26179.16
744.162	26235.43
744.502	26278.81
744.841	26127.63
745.181	26220.06
745.52	26079.27
745.86	26154.07
746.199	25997.92
746.538	25901.2
746.877	26020.97
747.216	26041.31
747.556	25955.89
747.895	25870.24
748.234	25824.82
748.573	25788.88
748.911	25714.99
749.25	25719.73
749.589	25614.65
749.928	25535.56
750.267	25648.32
750.605	25512.06
750.944	25428.67
751.283	25415.33
751.621	25514.77
751.96	25208.56
752.298	25267.54
752.636	25286.52
752.975	25113.65
753.313	24988.91
753.651	25149.35
753.989	24993.65
754.327	25031.84
754.666	24812.86
755.004	24927.21
755.342	24928.79
755.679	24823.26
756.017	24701.91
756.355	24736.71
756.693	24612.42
757.031	24631.4
757.368	24426.89
757.706	24422.82
758.044	24401.58
758.381	24375.59
758.719	24262.14
759.056	24356.83
759.394	24187.8
759.731	24016.95
760.068	24021.92
760.405	23894.47
760.743	23875.26
761.08	24026.22
761.417	23708.49
761.754	23745.32
762.091	23703.52
762.428	23511.2
762.765	23434.37
763.102	23588.04
763.438	23386.24
763.775	23291.55
764.112	23275.05
764.449	23223.3
764.785	23135.39
765.122	22978.11
765.458	22946.92
765.795	22887.72
766.131	22899.47
766.467	22736.53
766.804	22758
767.14	22549.65
767.476	22535.41
767.812	22541.29
768.148	22562.3
768.485	22328.18
768.821	22179.04
769.157	22168.64
769.492	22215.87
769.828	22099.04
770.164	21942.88
770.5	21868.08
770.836	21889.78
771.171	21763
771.507	21650.24
771.842	21634.87
772.178	21548.09
772.513	21370.7
772.849	21431.48
773.184	21227.87
773.519	21365.27
773.855	21199.63
774.19	21092.28
774.525	21036.69
774.86	20950.37
775.195	20949.69
775.53	20830.6
775.865	20678.06
776.2	20614.33
776.535	20375.02
776.87	20491.85
777.205	20473.09
777.539	20330.5
777.874	20330.5
778.209	20203.72
778.543	20117.39
778.878	19942.03
779.212	20055.02
779.547	19900.68
779.881	19870.4
780.215	19848.48
780.55	19731.19
780.884	19653.23
781.218	19575.04
781.552	19667.69
781.886	19441.25
782.22	19301.82
782.554	19304.08
782.888	19089.17
783.222	19091.66
783.556	18954.94
783.889	18997.88
784.223	18873.59
784.557	18761.27
784.89	18810.54
785.224	18640.37
785.557	18663.42
785.891	18658.68
786.224	18533.93
786.558	18403.99
786.891	18410.1
787.224	18335.07
787.557	18288.29
787.891	18244.9
788.224	18191.8
788.557	18164.45
788.89	18180.04
789.223	18031.12
789.556	17902.99
789.888	17978.92
790.221	17879.71
790.554	17724.69
790.887	17795.42
791.219	17624.35
791.552	17579.83
791.884	17500.74
792.217	17439.73
792.549	17263.68
792.882	17225.95
793.214	17252.39
793.546	17195.66
793.879	17137.59
794.211	16967.2
794.543	17030.47
794.875	16988.44
795.207	16931.26
795.539	16868.67
795.871	16911.15
796.203	16755
796.535	16655.11
796.867	16686.3
797.198	16551.39
797.53	16514.33
797.862	16353.2
798.193	16485.85
798.525	16313.65
798.856	16380.32
799.188	16281.11
799.519	16151.62
799.85	16104.62
800.182	16019.42
800.513	16060.33
800.844	15898.52
801.175	15932.87
801.506	15910.5
801.837	15752.54
802.168	15808.81
802.499	15705.53
802.83	15652.43
803.161	15635.25
803.491	15501.92
803.822	15610.17
804.153	15485.43
804.483	15352.1
804.814	15324.07
805.145	15331.08
805.475	15252.89
805.805	15237.07
806.136	15209.05
806.466	15280.91
806.796	15136.96
807.126	15024.65
807.457	15031.43
807.787	15067.13
808.117	14895.39
808.447	14924.08
808.777	14986.91
809.107	14908.49
809.436	14788.5
809.766	14794.37
810.096	14703.53
810.426	14763.86
810.755	14736.97
811.085	14675.96
811.414	14708.5
811.744	14600.03
812.073	14495.85
812.403	14470.31
812.732	14341.95
813.061	14383.08
813.39	14302.41
813.719	14290.2
814.049	14308.51
814.378	14295.63
814.707	14175.4
815.036	14247.94
815.365	14148.29
815.693	13947.39
816.022	13978.12
816.351	13920.04
816.68	13880.27
817.008	13947.61
817.337	13844.79
817.665	13747.62
817.994	13925.47
818.322	13853.15
818.651	13735.87
818.979	13671.01
819.307	13739.03
819.636	13638.47
819.964	13535.42
820.292	13665.81
820.62	13572.26
820.948	13578.13
821.276	13590.11
821.604	13546.27
821.932	13510.11
822.259	13577.45
822.587	13551.24
822.915	13484.12
823.243	13555.31
823.57	13580.62
823.898	13510.34
824.225	13479.6
824.553	13481.86
824.88	13547.4
825.207	13524.57
825.535	13403.67
825.862	13477.57
826.189	13385.82
826.516	13533.39
826.843	13544.23
827.17	13491.13
827.497	13496.55
827.824	13578.13
828.151	13512.14
828.478	13434.86
828.805	13474.63
829.131	13386.95
829.458	13354.63
829.785	13371.36
830.111	13400.51
830.438	13525.93
830.764	13469.43
831.09	13437.34
831.417	13353.96
831.743	13416.33
832.069	13397.12
832.395	13359.83
832.722	13371.36
833.048	13269.89
833.374	13364.13
833.7	13315.77
834.026	13294.75
834.351	13327.06
834.677	13287.07
835.003	13336.1
835.329	13291.13
835.654	13233.73
835.98	13220.85
836.306	13250.68
836.631	13085.94
836.956	13234.64
837.282	13141.76
837.607	13088.88
837.932	13057.69
838.258	13089.56
838.583	13105.38
838.908	12918.71
839.233	12998.49
839.558	12957.36
839.883	12891.14
840.208	12933.63
840.533	12885.27
840.858	12942.44
841.182	12916.68
841.507	12830.35
841.832	12815.21
842.156	12883.01
842.481	12772.73
842.805	12772.05
843.13	12735.44
843.454	12718.04
843.778	12627.87
844.103	12557.59
844.427	12548.33
844.751	12547.2
845.075	12541.77
845.399	12507.43
845.723	12469.46
846.047	12474.88
846.371	12404.38
846.695	12372.29
847.019	12270.37
847.343	12191.95
847.666	12167.1
847.99	12112.41
848.313	12036.93
848.637	11961
848.96	11952.86
849.284	11924.39
849.607	11868.8
849.931	11828.12
850.254	11809.14
850.577	11695.92
850.9	11581.57
851.223	11665.41
851.546	11570.95
851.869	11525.3
852.192	11500.67
852.515	11433.56
852.838	11376.38
853.161	11431.97
853.483	11308.59
853.806	11284.63
854.129	11256.84
854.451	11178.42
854.774	11154.92
855.096	11118.54
855.419	11068.14
855.741	11083.06
856.063	10981.36
856.385	11026.11
856.708	10994.47
857.03	10865.21
857.352	10922.61
857.674	10831.09
857.996	10830.18
858.318	10769.39
858.64	10839.22
858.961	10750.18
859.283	10735.27
859.605	10680.81
859.926	10655.27
860.248	10599.45
860.57	10571.21
860.891	10571.88
861.212	10512
861.534	10516.74
861.855	10536.63
862.176	10518.1
862.498	10409.18
862.819	10498.66
863.14	10439.68
863.461	10425.45
863.782	10363.07
864.103	10372.57
864.424	10338.22
864.745	10403.53
865.065	10312.23
865.386	10224.32
865.707	10283.53
866.027	10248.73
866.348	10199.24
866.668	10230.42
866.989	10144.78
867.309	10138.67
867.63	10172.57
867.95	10154.04
868.27	10019.81
868.59	10099.81
868.91	10112.69
869.23	10042.86
869.55	9989.3
869.87	10129.86
870.19	9938
870.51	10085.57
870.83	10012.8
871.15	9982.75
871.469	9945.46
871.789	10055.51
872.109	9914.05
872.428	9883.09
872.748	9907.72
873.067	9923.54
873.386	9862.98
873.706	9835.41
874.025	9801.28
874.344	9785.92
874.663	9752.92
874.982	9745.92
875.301	9720.38
875.62	9703.21
875.939	9708.85
876.258	9716.31
876.577	9639.25
876.896	9611.46
877.214	9600.61
877.533	9667.05
877.852	9580.27
878.17	9588.86
878.489	9652.13
878.807	9623.43
879.125	9564.45
879.444	9542.31
879.762	9539.14
880.08	9504.79
880.398	9519.93
880.716	9483.1
881.034	9459.82
881.352	9426.83
881.67	9456.21
881.988	9372.59
882.306	9364.23
882.624	9400.84
882.941	9339.37
883.259	9311.8
883.577	9241.97
883.894	9320.16
884.212	9241.75
884.529	9204.91
884.846	9240.39
885.164	9127.4
885.481	9164.46
885.798	9189.55
886.115	9102.54
886.432	9083.11
886.75	9052.6
887.067	9018.48
887.383	8983.9
887.7	9019.83
888.017	9007.86
888.334	8955.65
888.651	8924.24
888.967	8849.89
889.284	8921.98
889.6	8915.2
889.917	8793.17
890.233	8794.75
890.55	8799.95
890.866	8776
891.182	8755.43
891.498	8726.06
891.815	8673.85
892.131	8665.49
892.447	8665.27
892.763	8630.92
893.079	8584.59
893.395	8536.23
893.71	8519.06
894.026	8456.23
894.342	8504.82
894.657	8466.4
894.973	8436.12
895.289	8410.36
895.604	8383.24
895.92	8301.89
896.235	8336.69
896.55	8351.83
896.865	8278.38
897.181	8234.54
897.496	8245.62
897.811	8180.99
898.126	8161.1
898.441	8084.04
898.756	8132.63
899.071	8105.06
899.386	8107.09
899.7	8016.92
900.015	7995.23
900.33	7988.67
900.644	7949.81
900.959	7946.42
901.273	7912.74
901.588	7833.2
901.902	7791.17
902.216	7777.38
902.531	7752.52
902.845	7713.2
903.159	7710.94
903.473	7715.23
903.787	7709.59
904.101	7600.66
904.415	7637.72
904.729	7599.08
905.042	7555.24
905.356	7514.56
905.67	7474.11
905.984	7455.58
906.297	7418.52
906.611	7393.21
906.924	7390.5
907.237	7319.99
907.551	7282.7
907.864	7269.82
908.177	7266.66
908.491	7263.5
908.804	7210.84
909.117	7113.67
909.43	7176.04
909.743	7083.39
910.056	7051.07
910.368	7017.85
910.681	6998.19
910.994	6978.76
911.307	6972.66
911.619	6861.02
911.932	6894.47
912.244	6922.94
912.557	6860.57
912.869	6814.02
913.181	6794.13
913.494	6760.46
913.806	6759.55
914.118	6684.98
914.43	6655.38
914.742	6665.09
915.054	6609.5
915.366	6605.66
915.678	6583.51
915.99	6531.09
916.302	6505.78
916.613	6480.69
916.925	6507.58
917.236	6463.06
917.548	6341.26
917.859	6379
918.171	6364.54
918.482	6339.9
918.794	6298.78
919.105	6347.36
919.416	6242.05
919.727	6205.44
920.038	6237.53
920.349	6137.42
920.66	6155.5
920.971	6126.12
921.282	6080.93
921.593	6081.61
921.903	5993.47
922.214	5992.57
922.525	5990.08
922.835	5956.19
923.146	5944.21
923.456	5965.68
923.767	5889.52
924.077	5901.5
924.387	5888.84
924.697	5779.92
925.008	5841.16
925.318	5823.53
925.628	5824.66
925.938	5775.17
926.248	5726.13
926.558	5642.07
926.867	5708.73
927.177	5662.86
927.487	5638.91
927.796	5546.25
928.106	5607.49
928.416	5574.27
928.725	5548.51
929.034	5460.83
929.344	5551.68
929.653	5460.38
929.962	5428.52
930.271	5451.57
930.581	5398.46
930.89	5332.92
931.199	5308.29
931.508	5315.75
931.817	5273.72
932.125	5265.13
932.434	5257.22
932.743	5193.95
933.051	5196.88
933.36	5216.09
933.669	5134.29
933.977	5159.6
934.286	5102.65
934.594	5106.04
934.902	5059.03
935.21	5000.05
935.519	5019.94
935.827	4985.82
936.135	5007.28
936.443	4911.47
936.751	4947.4
937.059	4936.1
937.367	4900.62
937.674	4821.3
937.982	4862.2
938.29	4851.36
938.597	4838.7
938.905	4820.85
939.213	4765.26
939.52	4763.45
939.827	4765.93
940.135	4725.71
940.442	4710.34
940.749	4669.44
941.056	4672.38
941.363	4635.09
941.67	4623.79
941.977	4607.29
942.284	4527.97
942.591	4537.24
942.898	4517.35
943.205	4523.68
943.511	4524.13
943.818	4463.34
944.125	4450.46
944.431	4411.59
944.738	4469.22
945.044	4389.45
945.35	4341.76
945.657	4353.97
945.963	4397.36
946.269	4322.78
946.575	4334.08
946.881	4281.2
947.187	4298.38
947.493	4262.67
947.799	4232.16
948.105	4234.2
948.41	4185.16
948.716	4180.64
949.022	4145.84
949.327	4141.09
949.633	4102.9
949.938	4095.44
950.244	4119.62
950.549	4099.51
950.854	4088.44
951.16	4041.43
951.465	4031.94
951.77	4007.99
952.075	3996.91
952.38	3951.94
952.685	3935.9
952.99	3926.18
953.294	3954.66
953.599	3889.12
953.904	3915.33
954.209	3836.24
954.513	3868.1
954.818	3834.43
955.122	3850.48
955.426	3792.4
955.731	3810.7
956.035	3779.97
956.339	3762.12
956.643	3760.99
956.948	3750.59
957.252	3691.39
957.556	3706.75
957.86	3686.19
958.163	3675.57
958.467	3665.85
958.771	3671.05
959.075	3637.38
959.378	3627.66
959.682	3587.89
959.985	3575
960.289	3574.78
960.592	3539.3
960.896	3504.05
961.199	3505.18
961.502	3480.54
961.805	3480.32
962.108	3474.89
962.411	3467.21
962.714	3418.17
963.017	3429.92
963.32	3442.58
963.623	3372.98
963.926	3366.42
964.228	3311.51
964.531	3305.41
964.833	3342.24
965.136	3281.91
965.438	3308.12
965.741	3285.07
966.043	3303.15
966.345	3254.11
966.648	3250.49
966.95	3232.87
967.252	3223.6
967.554	3177.28
967.856	3190.38
968.158	3164.62
968.46	3163.49
968.761	3142.02
969.063	3139.54
969.365	3107.45
969.666	3133.21
969.968	3079.88
970.269	3068.35
970.571	3072.65
970.872	3045.3
971.174	3049.59
971.475	3053.21
971.776	3021.12
972.077	3028.13
972.378	2970.95
972.679	2950.84
972.98	2931.63
973.281	2955.59
973.582	2923.95
973.883	2925.3
974.183	2903.84
974.484	2883.5
974.785	2898.64
975.085	2868.36
975.386	2866.77
975.686	2818.64
975.986	2838.75
976.287	2844.4
976.587	2808.47
976.887	2796.04
977.187	2812.99
977.487	2771.18
977.787	2791.52
978.087	2761.92
978.387	2750.85
978.687	2751.75
978.987	2700.45
979.286	2697.06
979.586	2713.33
979.885	2700.45
980.185	2639.66
980.484	2639.44
980.784	2649.15
981.083	2642.37
981.382	2628.59
981.682	2644.18
981.981	2621.81
982.28	2612.77
982.579	2564.18
982.878	2569.16
983.177	2557.4
983.475	2530.29
983.774	2540.23
984.073	2526.22
984.372	2510.63
984.67	2523.28
984.969	2495.71
985.267	2493.9
985.566	2476.73
985.864	2469.5
986.162	2459.1
986.461	2434.24
986.759	2460.91
987.057	2375.71
987.355	2381.59
987.653	2394.92
987.951	2367.35
988.249	2362.38
988.547	2358.54
988.844	2339.33
989.142	2347.47
989.44	2339.56
989.737	2326
990.035	2336.62
990.332	2328.94
990.63	2300.91
990.927	2276.73
991.224	2273.12
991.521	2255.04
991.819	2246.23
992.116	2273.8
992.413	2243.06
992.71	2216.4
993.006	2177.53
993.303	2204.19
993.6	2207.58
993.897	2185.44
994.193	2154.48
994.49	2147.47
994.787	2155.61
995.083	2129.85
995.379	2135.49
995.676	2122.39
995.972	2102.5
996.268	2116.29
996.565	2089.85
996.861	2100.47
997.157	2071.54
997.453	2051.66
997.749	2024.54
998.044	2028.15
998.34	2034.93
998.636	2035.84
998.932	2033.58
999.227	1967.36
999.523	1975.5
999.818	1950.19
1000.114	1947.25
1000.409	1971.21
1000.704	1923.07
1001	1944.31
1001.295	1912.68
1001.59	1892.56
1001.885	1916.97
1002.18	1920.59
1002.475	1888.5
1002.77	1893.02
1003.065	1862.51
1003.359	1852.79
1003.654	1855.28
1003.949	1872.68
1004.243	1804.2
1004.538	1787.48
1004.832	1812.79
1005.127	1819.57
1005.421	1815.96
1005.715	1792.68
1006.009	1751.1
1006.304	1782.74
1006.598	1775.05
1006.892	1742.96
1007.186	1731.44
1007.48	1728.95
1007.773	1694.6
1008.067	1687.37
1008.361	1682.85
1008.655	1672.91
1008.948	1629.75
1009.242	1642.85
1009.535	1666.13
1009.829	1648.73
1010.122	1648.05
1010.415	1617.77
1010.708	1603.31
1011.001	1624.77
1011.295	1624.55
1011.588	1608.95
1011.881	1567.83
1012.173	1570.76
1012.466	1562.18
1012.759	1549.07
1013.052	1570.99
1013.344	1551.56
1013.637	1522.86
1013.93	1500.48
1014.222	1526.25
1014.514	1499.35
1014.807	1497.32
1015.099	1475.63
1015.391	1479.47
1015.683	1488.51
1015.976	1466.59
1016.268	1454.38
1016.56	1482.18
1016.851	1443.99
1017.143	1457.32
1017.435	1387.27
1017.727	1406.47
1018.018	1410.77
1018.31	1415.51
1018.602	1426.81
1018.893	1397.21
1019.185	1371
1019.476	1371
1019.767	1356.53
1020.058	1332.8
1020.35	1328.74
1020.641	1345.91
1020.932	1303.88
1021.223	1293.93
1021.514	1314.73
1021.804	1280.38
1022.095	1295.06
1022.386	1265.01
1022.677	1285.12
1022.967	1257.78
1023.258	1248.29
1023.548	1248.06
1023.839	1254.16
1024.129	1224.78
1024.419	1217.55
1024.709	1222.75
1025	1211.23
1025.29	1179.14
1025.58	1196.54
1025.87	1188.85
1026.16	1180.94
1026.449	1179.36
1026.739	1162.19
1027.029	1171.23
1027.319	1138.46
1027.608	1137.1
1027.898	1147.95
1028.187	1139.81
1028.477	1108.86
1028.766	1118.57
1029.055	1108.86
1029.344	1086.71
1029.634	1081.96
1029.923	1063.43
1030.212	1088.29
1030.501	1072.47
1030.79	1065.47
1031.078	1047.84
1031.367	1036.77
1031.656	1065.69
1031.945	1067.5
1032.233	1052.81
1032.522	1040.38
1032.81	1011.46
1033.099	1017.33
1033.387	1009.42
1033.675	1009.87
1033.963	1002.19
1034.251	975.07
1034.54	1002.87
1034.828	983.66
1035.116	972.14
1035.403	946.6
1035.691	930.55
1035.979	962.64
1036.267	935.3
1036.554	946.15
1036.842	915.64
1037.129	933.04
1037.417	900.05
1037.704	907.96
1037.992	903.66
1038.279	904.11
1038.566	911.8
1038.853	911.8
1039.14	911.8
