Data from hue_36_FLMS001491_00080.txt Node
Date: Tue Feb 07 17:30:17 GMT 2017
User: dcchb
Spectrometer: FLMS00149
Trigger mode: 0
Integration Time (sec): 2.000000E-2
Scans to average: 10
Electric dark correction enabled: true
Nonlinearity correction enabled: false
Boxcar width: 0
XAxis mode: Wavelengths
Number of Pixels in Spectrum: 2048
>>>>>Begin Spectral Data<<<<<
341.393	-36
341.776	-36
342.16	-36
342.543	-72.16
342.927	-48.2
343.31	-83.91
343.693	-69
344.077	-61.76
344.46	-64.25
344.843	-61.54
345.226	-34.87
345.61	-37.36
345.993	-14.99
346.376	-23.8
346.759	4.68
347.142	34.5
347.525	50.78
347.908	66.59
348.291	68.85
348.674	103.88
349.057	122.19
349.44	122.86
349.823	130.1
350.206	159.25
350.588	201.51
350.971	227.72
351.354	226.59
351.737	238.57
352.119	253.48
352.502	266.14
352.884	306.59
353.267	285.8
353.65	319.69
354.032	299.81
354.414	308.62
354.797	321.95
355.179	321.73
355.562	319.24
355.944	345.23
356.326	320.82
356.709	323.54
357.091	339.13
357.473	350.65
357.855	353.14
358.238	347.04
358.62	342.52
359.002	342.07
359.384	343.88
359.766	355.63
360.148	341.16
360.53	366.02
360.912	357.21
361.294	352.24
361.676	349.52
362.057	354.04
362.439	338.9
362.821	339.58
363.203	345.23
363.584	339.58
363.966	332.35
364.348	345.91
364.729	315.85
365.111	335.51
365.493	334.61
365.874	342.97
366.256	331.9
366.637	321.5
367.019	321.28
367.4	329.19
367.781	336.64
368.163	317.21
368.544	341.62
368.925	332.58
369.306	322.41
369.688	331.9
370.069	312.92
370.45	318.57
370.831	327.38
371.212	333.03
371.593	333.71
371.974	322.86
372.355	312.24
372.736	319.69
373.117	323.76
373.498	310.88
373.879	334.38
374.26	328.96
374.641	337.55
375.021	307.72
375.402	319.92
375.783	327.6
376.163	311.11
376.544	342.52
376.925	336.42
377.305	320.37
377.686	335.06
378.066	334.16
378.447	336.42
378.827	344.1
379.208	344.33
379.588	335.06
379.968	352.24
380.349	337.1
380.729	348.39
381.109	341.62
381.489	345.23
381.87	331.67
382.25	337.77
382.63	345.46
383.01	347.94
383.39	344.33
383.77	337.1
384.15	351.56
384.53	358.56
384.91	366.02
385.29	361.73
385.67	344.1
386.049	364.89
386.429	344.78
386.809	367.6
387.189	346.13
387.568	369.41
387.948	346.13
388.328	346.13
388.707	362.41
389.087	348.62
389.466	354.95
389.846	361.05
390.225	363.31
390.605	382.07
390.984	359.92
391.363	361.5
391.743	379.35
392.122	385.23
392.501	366.47
392.881	382.52
393.26	381.84
393.639	387.49
394.018	385.46
394.397	375.29
394.776	365.34
395.155	374.61
395.534	394.72
395.913	388.39
396.292	402.4
396.671	361.95
397.05	401.05
397.429	392.91
397.808	383.42
398.186	395.85
398.565	392.01
398.944	399.47
399.323	385.23
399.701	416.19
400.08	381.84
400.458	416.64
400.837	406.7
401.215	412.57
401.594	400.14
401.972	417.32
402.351	410.99
402.729	406.02
403.107	407.15
403.486	423.42
403.864	412.57
404.242	411.22
404.62	410.54
404.999	405.12
405.377	432.46
405.755	427.94
406.133	421.84
406.511	429.52
406.889	422.07
407.267	439.47
407.645	446.7
408.023	431.33
408.401	430.65
408.779	435.85
409.156	446.02
409.534	438.79
409.912	448.96
410.29	452.12
410.667	453.02
411.045	428.39
411.422	443.53
411.8	469.75
412.178	462.52
412.555	487.15
412.933	455.74
413.31	474.72
413.687	459.13
414.065	476.53
414.442	478.11
414.819	486.92
415.197	507.94
415.574	499.8
415.951	488.96
416.328	510.42
416.705	491.44
417.082	515.17
417.46	501.84
417.837	498.45
418.214	487.15
418.591	506.81
418.967	519.01
419.344	519.01
419.721	527.83
420.098	529.18
420.475	504.1
420.852	526.24
421.228	531.89
421.605	530.99
421.982	527.83
422.358	545.45
422.735	540.25
423.111	565.56
423.488	549.75
423.864	542.74
424.241	542.97
424.617	553.36
424.994	554.27
425.37	572.57
425.746	546.36
426.123	573.25
426.499	571.67
426.875	568.05
427.251	580.03
427.627	576.86
428.003	601.72
428.379	600.82
428.756	583.42
429.132	598.56
429.507	594.72
429.883	600.82
430.259	615.73
430.635	634.04
431.011	615.28
431.387	617.54
431.763	651.89
432.138	644.66
432.514	648.95
432.89	646.69
433.265	647.37
433.641	663.64
434.016	663.19
434.392	665.67
434.767	676.52
435.143	682.85
435.518	677.88
435.894	684.43
436.269	712.45
436.644	700.48
437.02	711.1
437.395	714.94
437.77	710.19
438.145	726.46
438.52	723.07
438.895	753.36
439.271	718.1
439.646	742.96
440.021	719.23
440.395	750.19
440.77	729.63
441.145	748.61
441.52	763.3
441.895	775.28
442.27	780.25
442.645	763.07
443.019	770.76
443.394	772.11
443.769	774.15
444.143	792.9
444.518	796.07
444.892	780.47
445.267	784.99
445.641	797.87
446.016	810.53
446.39	808.04
446.764	814.37
447.139	815.05
447.513	810.53
447.887	814.37
448.262	835.39
448.636	837.87
449.01	859.79
449.384	826.57
449.758	845.1
450.132	851.43
450.506	838.33
450.88	888.27
451.254	842.39
451.628	864.54
452.002	871.54
452.376	873.13
452.75	906.12
453.123	925.1
453.497	904.54
453.871	913.35
454.244	914.03
454.618	915.16
454.992	947.48
455.365	936.4
455.739	972.33
456.112	979.34
456.486	975.27
456.859	981.82
457.232	994.03
457.606	1000.81
457.979	1020.02
458.352	1037.87
458.725	1017.76
459.099	1038.77
459.472	1051.65
459.845	1076.96
460.218	1068.83
460.591	1084.65
460.964	1090.52
461.337	1112.44
461.71	1110.63
462.083	1136.62
462.456	1138.2
462.829	1143.63
463.201	1168.49
463.574	1154.02
463.947	1196.96
464.32	1210.07
464.692	1207.58
465.065	1231.08
465.438	1239.44
465.81	1259.78
466.183	1277.86
466.555	1323.28
466.928	1290.52
467.3	1300.46
467.672	1322.61
468.045	1366.22
468.417	1365.09
468.789	1381.59
469.161	1397.41
469.534	1416.62
469.906	1475.82
470.278	1481.92
470.65	1492.32
471.022	1514.92
471.394	1549.95
471.766	1591.75
472.138	1600.34
472.51	1617.51
472.882	1628.59
473.253	1681.02
473.625	1707
473.997	1764.18
474.369	1786.78
474.74	1778.19
475.112	1838.98
475.484	1884.17
475.855	1911.52
476.227	1979.31
476.598	2013.44
476.97	2018.63
477.341	2073.1
477.713	2127.78
478.084	2163.71
478.455	2206.43
478.827	2238.29
479.198	2325.97
479.569	2348.57
479.94	2437.38
480.311	2481.67
480.682	2580.43
481.053	2658.62
481.424	2711.95
481.795	2712.63
482.166	2827.43
482.537	2906.97
482.908	2984.03
483.279	3044.6
483.65	3127.76
484.021	3193.97
484.391	3211.82
484.762	3310.12
485.133	3374.76
485.503	3445.94
485.874	3569.1
486.244	3655.43
486.615	3774.75
486.985	3834.63
487.356	3906.27
487.726	3999.15
488.097	4121.63
488.467	4183.55
488.837	4274.62
489.207	4336.76
489.578	4521.17
489.948	4589.87
490.318	4688.39
490.688	4692.91
491.058	4840.71
491.428	4937.43
491.798	5067.59
492.168	5185.1
492.538	5286.12
492.908	5401.14
493.278	5480.01
493.648	5517.52
494.017	5620.12
494.387	5703.28
494.757	5830.06
495.126	5944.86
495.496	5974.46
495.866	6045.65
496.235	6200.9
496.605	6307.79
496.974	6327.67
497.344	6472.08
497.713	6595.46
498.082	6615.12
498.452	6682.69
498.821	6805.63
499.19	6853.08
499.559	6982.34
499.928	7043.36
500.298	7133.3
500.667	7223.92
501.036	7264.37
501.405	7392.5
501.774	7383.24
502.143	7568.77
502.512	7591.59
502.88	7737.35
503.249	7740.97
503.618	7891.7
503.987	7960.85
504.356	8046.95
504.724	8120.17
505.093	8143.9
505.462	8190.45
505.83	8321.74
506.199	8284.01
506.567	8428.63
506.936	8546.6
507.304	8598.8
507.672	8640.15
508.041	8721.96
508.409	8836.31
508.777	8848.74
509.145	8951.56
509.514	8926.02
509.882	9081.5
510.25	9078.79
510.618	9136.19
510.986	9213.92
511.354	9305
511.722	9408.95
512.09	9443.52
512.458	9473.13
512.826	9593.58
513.193	9679.22
513.561	9733.68
513.929	9755.61
514.297	9908.37
514.664	9913.34
515.032	9989.95
515.4	10072.66
515.767	10167.8
516.135	10209.38
516.502	10097.52
516.869	10361.01
517.237	10387.45
517.604	10361.46
517.972	10547
518.339	10539.54
518.706	10616.15
519.073	10611.63
519.44	10678.74
519.808	10839.64
520.175	10778.86
520.542	10910.83
520.909	11029.92
521.276	11002.35
521.643	11147.88
522.009	11183.59
522.376	11213.19
522.743	11300.2
523.11	11395.56
523.477	11450.25
523.843	11576.12
524.21	11659.06
524.577	11731.15
524.943	11754.42
525.31	11892.5
525.676	11903.8
526.043	12118.71
526.409	12092.94
526.776	12202.32
527.142	12260.4
527.508	12362.99
527.874	12457.23
528.241	12456.1
528.607	12513.27
528.973	12692.93
529.339	12712.59
529.705	12835.52
530.071	12900.83
530.437	12924.56
530.803	13047.72
531.169	13040.94
531.535	13080.94
531.901	13099.47
532.267	13200.49
532.632	13350.31
532.998	13268.51
533.364	13455.17
533.73	13390.31
534.095	13495.17
534.461	13574.49
534.826	13638.67
535.192	13648.16
535.557	13775.61
535.923	13828.27
536.288	13913.24
536.653	14008.83
537.019	13901.26
537.384	13984.42
537.749	14085.43
538.114	14173.57
538.479	14131.08
538.845	14267.35
539.21	14230.52
539.575	14337.63
539.94	14398.42
540.305	14489.94
540.67	14485.88
541.034	14586.21
541.399	14632.54
541.764	14664.63
542.129	14747.34
542.494	14717.28
542.858	14815.13
543.223	14865.3
543.587	14944.17
543.952	15017.61
544.316	15092.64
544.681	15035.01
545.045	15203.37
545.41	15206.08
545.774	15247.66
546.138	15222.81
546.503	15349.81
546.867	15338.51
547.231	15461.67
547.595	15561.1
547.959	15595.45
548.324	15649.69
548.688	15630.25
549.052	15694.66
549.416	15809.91
549.779	15837.03
550.143	15869.12
550.507	16030.02
550.871	15981.43
551.235	15956.12
551.599	16138.26
551.962	16166.28
552.326	16186.17
552.689	16325.83
553.053	16235.43
553.417	16258.48
553.78	16533.51
554.143	16446.95
554.507	16537.35
554.87	16531.47
555.234	16754.97
555.597	16640.17
555.96	16802.43
556.323	16884.91
556.686	16912.03
557.05	16993.15
557.413	17010.78
557.776	17079.48
558.139	17162.42
558.502	17175.07
558.865	17272.47
559.228	17326.71
559.59	17342.98
559.953	17439.92
560.316	17600.82
560.679	17633.82
561.041	17721.5
561.404	17712.91
561.767	17863.19
562.129	17820.03
562.492	17939.34
562.854	18023.18
563.217	18016.4
563.579	18022.28
563.941	18199
564.304	18317.87
564.666	18399.67
565.028	18462.27
565.39	18410.52
565.753	18566.9
566.115	18641.02
566.477	18724.18
566.839	18869.49
567.201	18819.55
567.563	18871.07
567.925	19040.56
568.287	19008.92
568.648	19041.01
569.01	19180.44
569.372	19325.52
569.734	19290.95
570.095	19292.08
570.457	19561.9
570.819	19539.3
571.18	19454.11
571.542	19717.6
571.903	19650.94
572.265	19880.54
572.626	19972.74
572.987	19963.02
573.349	20051.83
573.71	20194.2
574.071	20335.89
574.432	20382.67
574.794	20561.87
575.155	20555.77
575.516	20544.02
575.877	20823.56
576.238	20843.68
576.599	20999.15
576.96	20987.17
577.32	21153.05
577.681	21297.45
578.042	21355.75
578.403	21562.75
578.763	21615.86
579.124	21816.98
579.485	22061.5
579.845	22041.84
580.206	22180.36
580.566	22433.92
580.927	22499.9
581.287	22726.56
581.648	22613.12
582.008	22863.51
582.368	23090.85
582.728	23148.93
583.089	23403.83
583.449	23566.77
583.809	23718.63
584.169	23831.17
584.529	23930.15
584.889	24363.58
585.249	24397.71
585.609	24673.18
585.969	24931.03
586.329	25110
586.688	25247.85
587.048	25563.33
587.408	25575.53
587.768	25872.47
588.127	25989.75
588.487	26214.83
588.846	26603.3
589.206	26628.16
589.565	26898.88
589.925	27189.04
590.284	27295.48
590.643	27591.29
591.003	27857.5
591.362	28055.69
591.721	28200.09
592.08	28498.39
592.44	28810.92
592.799	29050.46
593.158	29240.97
593.517	29548.08
593.876	29825.36
594.235	29874.4
594.593	30013.83
594.952	30511.67
595.311	30523.42
595.67	30886.8
596.029	31178.54
596.387	31436.16
596.746	31612.21
597.104	31552.32
597.463	31853.33
597.822	32242.7
598.18	32254.22
598.538	32491.28
598.897	32817.15
599.255	32873.64
599.613	33445.38
599.972	33364.48
600.33	33577.8
600.688	33722.66
601.046	34027.06
601.404	34276.99
601.762	34381.62
602.12	34802.86
602.478	34843.53
602.836	35032
603.194	35012.34
603.552	35234.03
603.91	35321.71
604.268	35671.99
604.625	35646
604.983	36043.28
605.341	35956.95
605.698	36267
606.056	36472.64
606.413	36554.67
606.771	36827.89
607.128	36926.64
607.485	36830.6
607.843	37059.75
608.2	37451.15
608.557	37637.13
608.914	37672.16
609.272	37894.07
609.629	38095.2
609.986	38327.74
610.343	38151.02
610.7	38526.37
611.057	38647.27
611.414	38666.03
611.771	38903.31
612.127	39097.43
612.484	39188.73
612.841	39448.61
613.198	39286.35
613.554	39401.83
613.911	39786.91
614.267	39867.58
614.624	39834.81
614.98	39915.94
615.337	40291.98
615.693	40267.35
616.05	40367
616.406	40636.83
616.762	40567
617.118	40745.07
617.475	40795.47
617.831	40847.89
618.187	41068
618.543	41070.04
618.899	41397.26
619.255	41302.12
619.611	41305.51
619.967	41737.59
620.323	41762.67
620.678	41490.59
621.034	41504.37
621.39	41653.3
621.746	41680.87
622.101	42121.31
622.457	41869.11
622.812	42052.38
623.168	42133.96
623.523	42186.84
623.879	42417.8
624.234	41930.58
624.589	42286.73
624.945	42332.15
625.3	42511.35
625.655	42496.67
626.01	42490.79
626.365	42488.98
626.72	42502.09
627.075	42531.24
627.43	42601.3
627.785	42544.8
628.14	42598.58
628.495	42673.38
628.85	42700.73
629.205	42609.43
629.559	42930.78
629.914	42741.4
630.269	42695.98
630.623	42709.77
630.978	42542.99
631.332	42881.51
631.687	42911.57
632.041	42743.21
632.396	42810.1
632.75	42746.6
633.104	42804.23
633.459	42694.17
633.813	42646.49
634.167	42767.39
634.521	42712.93
634.875	42983.88
635.229	42829.76
635.583	42704.57
635.937	42555.19
636.291	42484.91
636.645	42698.47
636.999	42582.31
637.352	42700.95
637.706	42507.74
638.06	42636.77
638.413	42662.76
638.767	42444.46
639.121	42519.26
639.474	42418.02
639.828	42479.72
640.181	42506.38
640.534	42441.75
640.888	42439.49
641.241	42345.26
641.594	42427.51
641.947	42502.99
642.301	42322.21
642.654	42435.2
643.007	42331.02
643.36	42446.95
643.713	42352.04
644.066	42423.67
644.419	42172.61
644.771	41931.03
645.124	41637.7
645.477	41459.18
645.83	41188.68
646.182	41156.59
646.535	41021.68
646.888	41103.03
647.24	40963.15
647.593	41309.58
647.945	41129.92
648.298	40913.88
648.65	40942.58
649.002	40791.4
649.355	40918.4
649.707	40956.82
650.059	41086.31
650.411	41503.02
650.763	41523.13
651.115	42061.65
651.467	41863.69
651.819	41784.59
652.171	41797.25
652.523	41723.35
652.875	41630.02
653.227	41463.92
653.578	41767.19
653.93	41648.78
654.282	41493.98
654.633	41439.52
654.985	41490.36
655.337	41502.11
655.688	41483.36
656.039	41639.06
656.391	41393.64
656.742	41478.16
657.094	41560.87
657.445	41608.1
657.796	41490.59
658.147	41488.78
658.498	41605.16
658.849	41648.55
659.2	41503.47
659.551	41340.54
659.902	41571.72
660.253	41479.29
660.604	41577.59
660.955	41260.54
661.306	41475.9
661.656	41286.75
662.007	41264.61
662.358	41350.71
662.708	41277.71
663.059	41350.25
663.409	41178.51
663.76	41278.84
664.11	41273.42
664.461	41165.63
664.811	41280.65
665.161	41183.25
665.511	41232.52
665.862	41137.6
666.212	41141.67
666.562	41198.17
666.912	41262.8
667.262	41164.27
667.612	41138.28
667.962	41035.46
668.312	41030.94
668.662	41356.81
669.011	41206.3
669.361	41091.05
669.711	41051.05
670.06	40935.35
670.41	40940.32
670.76	41052.64
671.109	41152.75
671.459	41010.15
671.808	40971.96
672.157	40978.96
672.507	40794.79
672.856	40874.11
673.205	40886.54
673.554	41019.64
673.904	40869.36
674.253	41111.16
674.602	40960.66
674.951	40494.68
675.3	40260.34
675.649	40920.44
675.998	40835.92
676.346	40832.08
676.695	40963.82
677.044	40654.23
677.393	40707.33
677.741	40870.04
678.09	40641.35
678.438	40620.56
678.787	40531.29
679.135	40748.46
679.484	40437.06
679.832	40461.92
680.181	40411.3
680.529	40373.78
680.877	40420.79
681.225	40249.04
681.573	40611.52
681.922	40204.52
682.27	40134.69
682.618	40129.04
682.966	40002.27
683.314	40109.61
683.661	39890.41
684.009	39783.74
684.357	39845.21
684.705	39768.83
685.053	39668.04
685.4	39787.13
685.748	39543.07
686.095	39457.42
686.443	39345.11
686.79	39360.25
687.138	39510.75
687.485	39514.6
687.832	39236.41
688.18	39252.23
688.527	39082.74
688.874	39122.06
689.221	38926.36
689.568	38923.43
689.915	38913.26
690.262	38945.12
690.609	38750.32
690.956	38548.29
691.303	38473.95
691.65	38414.96
691.997	38346.04
692.344	38191.47
692.69	38186.5
693.037	38218.81
693.383	37942.66
693.73	38112.37
694.077	37775.21
694.423	37681.88
694.769	37823.12
695.116	37597.58
695.462	37499.51
695.808	37430.36
696.155	37468.55
696.501	37302.45
696.847	37158.73
697.193	37033.76
697.539	37109.01
697.885	36768.45
698.231	36739.3
698.577	36668.12
698.923	36746.31
699.269	36571.17
699.614	36462.47
699.96	36317.17
700.306	36248.24
700.651	36203.05
700.997	36117.17
701.342	36197.4
701.688	35975.25
702.033	35764.41
702.379	35768.48
702.724	35785.2
703.069	35757.86
703.415	35357.64
703.76	35410.3
704.105	35490.07
704.45	35485.1
704.795	35172.34
705.14	35001.95
705.485	34990.87
705.83	34922.17
706.175	34969.18
706.52	34742.97
706.865	34726.25
707.209	34658.45
707.554	34587.27
707.899	34620.71
708.243	34408.97
708.588	34437.67
708.932	34246.49
709.277	34177.56
709.621	34065.25
709.966	33979.15
710.31	34043.55
710.654	33724.92
710.998	33834.97
711.342	33854.63
711.687	33733.96
712.031	33638.82
712.375	33522.44
712.719	33395.66
713.063	33531.93
713.407	33471.82
713.75	33358.83
714.094	33338.04
714.438	33133.75
714.782	33089.91
715.125	33047.87
715.469	33172.62
715.812	32935.56
716.156	32823.47
716.499	32733.98
716.843	32780.99
717.186	32573.54
717.53	32793.42
717.873	32684.49
718.216	32599.3
718.559	32512.97
718.902	32246.77
719.246	32400.43
719.589	32197.5
719.932	32287.44
720.275	32155.69
720.617	32087.9
720.96	32086.32
721.303	32058.52
721.646	32033.89
721.989	31903.72
722.331	32034.34
722.674	31816.49
723.016	31783.05
723.359	31735.82
723.701	31822.14
724.044	31578.08
724.386	31521.81
724.729	31649.27
725.071	31512.1
725.413	31489.5
725.755	31464.41
726.097	31256.28
726.439	31155.04
726.782	31103.74
727.124	31402.95
727.465	31151.65
727.807	31111.2
728.149	31069.17
728.491	30951.43
728.833	31029.17
729.175	30856.29
729.516	30800.93
729.858	30710.76
730.199	30857.42
730.541	30736.3
730.882	30663.3
731.224	30822.85
731.565	30574.72
731.906	30514.16
732.248	30578.33
732.589	30429.41
732.93	30224.9
733.271	30368.4
733.612	30332.24
733.953	30442.52
734.294	30324.1
734.635	30188.29
734.976	30209.08
735.317	30069.87
735.658	29999.37
735.999	30050.66
736.339	29968.63
736.68	30044.34
737.021	29871.23
737.361	29638.25
737.702	29906.26
738.042	29837.79
738.383	29741.52
738.723	29809.99
739.063	29621.52
739.404	29591.02
739.744	29593.73
740.084	29395.09
740.424	29498.36
740.764	29484.58
741.104	29510.57
741.444	29321.42
741.784	29319.84
742.124	29285.26
742.464	29287.52
742.804	29234.19
743.143	29121.88
743.483	29165.94
743.823	28871.49
744.162	29007.75
744.502	29024.7
744.841	28902.22
745.181	29065.61
745.52	28877.81
745.86	28892.05
746.199	28821.32
746.538	28753.3
746.877	28822.67
747.216	28738.83
747.556	28616.58
747.895	28740.87
748.234	28482.57
748.573	28584.71
748.911	28432.4
749.25	28429.24
749.589	28327.55
749.928	28355.34
750.267	28368.67
750.605	28294.55
750.944	28200.32
751.283	28203.26
751.621	28170.26
751.96	28099.76
752.298	28043.49
752.636	28071.96
752.975	27931.85
753.313	27810.05
753.651	27856.15
753.989	27678.98
754.327	27564.18
754.666	27520.34
755.004	27740.44
755.342	27655.25
755.679	27516.04
756.017	27373.45
756.355	27374.8
756.693	27199.21
757.031	27292.77
757.368	27137.97
757.706	27163.06
758.044	27016.62
758.381	27013.46
758.719	26935.27
759.056	26973.23
759.394	26871.31
759.731	26655.27
760.068	26709.51
760.405	26588.38
760.743	26469.97
761.08	26367.82
761.417	26398.56
761.754	26318.33
762.091	26317.88
762.428	26128.96
762.765	26060.04
763.102	26154.95
763.438	25942.75
763.775	25787.5
764.112	25901.17
764.449	25825.92
764.785	25771
765.122	25456.89
765.458	25325.37
765.795	25335.53
766.131	25332.6
766.467	25181.19
766.804	25173.28
767.14	25003.34
767.476	25100.96
767.812	24871.59
768.148	24956.56
768.485	24717.47
768.821	24673.18
769.157	24581.66
769.492	24474.54
769.828	24556.8
770.164	24371.49
770.5	24203.81
770.836	24229.8
771.171	24037.26
771.507	24106.64
771.842	23829.59
772.178	23798.85
772.513	23771.96
772.849	23801.11
773.184	23599.99
773.519	23639.53
773.855	23536.49
774.19	23422.59
774.525	23301.69
774.86	23289.94
775.195	23212.65
775.53	23145.76
775.865	22987.12
776.2	22895.15
776.535	22770.18
776.87	22738.99
777.205	22614.7
777.539	22524.99
777.874	22601.82
778.209	22382.39
778.543	22355.27
778.878	22192.34
779.212	22175.39
779.547	22098.56
779.881	22092.23
780.215	21875.96
780.55	21969.97
780.884	21779.7
781.218	21731.11
781.552	21705.8
781.886	21690.88
782.22	21521.85
782.554	21413.83
782.888	21279.37
783.222	21219.26
783.556	21073.5
783.889	21004.57
784.223	20993.28
784.557	20873.73
784.89	20975.42
785.224	20662.21
785.557	20651.59
785.891	20601.2
786.224	20535.89
786.558	20575.66
786.891	20298.6
787.224	20340.86
787.557	20221.09
787.891	20238.27
788.224	20187.65
788.557	20131.15
788.89	19979.29
789.223	19929.12
789.556	19887.32
789.888	19873.31
790.221	19692.29
790.554	19568.91
790.887	19570.04
791.219	19617.04
791.552	19446.65
791.884	19392.41
792.217	19355.58
792.549	19195.58
792.882	19037.39
793.214	19038.52
793.546	18989.49
793.879	18931.41
794.211	18855.25
794.543	18861.13
794.875	18811.41
795.207	18867.91
795.539	18700.45
795.871	18673.79
796.203	18521.93
796.535	18504.75
796.867	18438.99
797.198	18240.58
797.53	18314.02
797.862	18226.57
798.193	18286.91
798.525	18003.3
798.856	18185.89
799.188	17829.97
799.519	17807.14
799.85	17727.6
800.182	17789.97
800.513	17875.84
800.844	17613.93
801.175	17626.81
801.506	17713.59
801.837	17521.73
802.168	17498.45
802.499	17433.6
802.83	17410.77
803.161	17402.64
803.491	17275.63
803.822	17331.9
804.153	17145.47
804.483	17076.32
804.814	16996.09
805.145	17108.63
805.475	17058.69
805.805	16938.92
806.136	16901.18
806.466	16907.96
806.796	16882.65
807.126	16770.11
807.457	16750
807.787	16646.72
808.117	16676.78
808.447	16696.44
808.777	16520.62
809.107	16447.86
809.436	16455.09
809.766	16418.25
810.096	16303.46
810.426	16318.14
810.755	16268.65
811.085	16206.73
811.414	16154.98
811.744	16102.56
812.073	16037.93
812.403	16069.79
812.732	15996.8
813.061	15990.7
813.39	15884.71
813.719	15800.87
814.049	15965.84
814.378	15817.82
814.707	15770.59
815.036	15760.42
815.365	15731.27
815.693	15479.07
816.022	15541.67
816.351	15516.13
816.68	15463.48
817.008	15464.61
817.337	15338.51
817.665	15284.05
817.994	15273.65
818.322	15329.24
818.651	15255.12
818.979	15134.67
819.307	15203.37
819.636	15150.49
819.964	15080.21
820.292	15085.41
820.62	15088.12
820.948	15070.49
821.276	15087.89
821.604	15052.64
821.932	15004.73
822.259	15003.6
822.587	15070.49
822.915	14966.32
823.243	15010.61
823.57	14942.81
823.898	14958.41
824.225	14957.5
824.553	14951.4
824.88	14940.1
825.207	14924.06
825.535	14938.07
825.862	15002.47
826.189	14942.59
826.516	14949.82
826.843	15084.96
827.17	14990.5
827.497	15071.17
827.824	14995.69
828.151	15052.87
828.478	14916.83
828.805	14973.32
829.131	15004.51
829.458	14926.32
829.785	14866.66
830.111	14929.71
830.438	14976.94
830.764	14887
831.09	14882.48
831.417	14906.88
831.743	14905.75
832.069	14863.95
832.395	14816.71
832.722	14855.36
833.048	14800.9
833.374	14757.06
833.7	14727.68
834.026	14752.31
834.351	14788.69
834.677	14762.25
835.003	14794.79
835.329	14786.43
835.654	14761.35
835.98	14727
836.306	14687
836.631	14654.46
836.956	14627.34
837.282	14680.45
837.607	14484.07
837.932	14507.57
838.258	14518.19
838.583	14514.8
838.908	14447.69
839.233	14437.97
839.558	14417.86
839.883	14448.14
840.208	14397.52
840.533	14403.17
840.858	14294.47
841.182	14257.41
841.507	14287.92
841.832	14130.41
842.156	14185.77
842.481	14147.81
842.805	14249.5
843.13	14102.16
843.454	14077.75
843.778	14026.45
844.103	13968.15
844.427	13952.78
844.751	14045.21
845.075	13947.13
845.399	13882.05
845.723	13780.36
846.047	13887.7
846.371	13729.06
846.695	13640.47
847.019	13580.14
847.343	13623.75
847.666	13535.62
847.99	13460.37
848.313	13454.49
848.637	13305.79
848.96	13301.27
849.284	13308.73
849.607	13120.04
849.931	13183.99
850.254	13063.09
850.577	12974.96
850.9	12905.13
851.223	12888.4
851.546	12868.07
851.869	12799.82
852.192	12785.81
852.515	12668.75
852.838	12660.39
853.161	12647.05
853.483	12585.14
853.806	12432.37
854.129	12552.14
854.451	12569.99
854.774	12419.94
855.096	12369.77
855.419	12337.91
855.741	12218.14
856.063	12261.75
856.385	12178.82
856.708	12091.81
857.03	12073.06
857.352	12141.31
857.674	12049.33
857.996	11986.05
858.318	11974.98
858.64	12025.15
858.961	11947.19
859.283	11842.33
859.605	11806.17
859.926	11837.13
860.248	11746.97
860.57	11772.28
860.891	11772.05
861.212	11604.6
861.534	11681.66
861.855	11591.26
862.176	11589.46
862.498	11554.2
862.819	11592.62
863.14	11536.8
863.461	11523.24
863.782	11511.72
864.103	11578.16
864.424	11443.24
864.745	11469.46
865.065	11403.7
865.386	11455.45
865.707	11328.22
866.027	11372.74
866.348	11400.99
866.668	11330.93
866.989	11341.33
867.309	11259.75
867.63	11265.17
867.95	11179.3
868.27	11176.13
868.59	11246.41
868.91	11200.09
869.23	11135.68
869.55	11129.58
869.87	11143.14
870.19	11072.41
870.51	11122.57
870.83	11089.36
871.15	10999.64
871.469	10979.98
871.789	10992.86
872.109	11092.07
872.428	10937.95
872.748	10971.17
873.067	10923.71
873.386	10906.08
873.706	10892.3
874.025	10881.68
874.344	10794
874.663	10916.03
874.982	10778.63
875.301	10766.2
875.62	10746.99
875.939	10776.14
876.258	10710.83
876.577	10682.36
876.896	10719.2
877.214	10694.79
877.533	10582.02
877.852	10689.82
878.17	10671.74
878.489	10690.04
878.807	10570.27
879.125	10603.72
879.444	10572.31
879.762	10563.27
880.08	10448.24
880.398	10523.27
880.716	10467.22
881.034	10470.61
881.352	10515.36
881.67	10395.36
881.988	10446.21
882.306	10417.96
882.624	10427.23
882.941	10293.67
883.259	10267.91
883.577	10294.35
883.894	10260.9
884.212	10243.95
884.529	10252.77
884.846	10203.05
885.164	10154.69
885.481	10162.37
885.798	10113.34
886.115	10089.83
886.432	10097.97
886.75	10025.65
887.067	10031.76
887.383	9975.94
887.7	10050.96
888.017	9917.63
888.334	9973.68
888.651	9869.5
888.967	9920.12
889.284	9788.37
889.6	9779.33
889.917	9677.64
890.233	9790.41
890.55	9705.89
890.866	9661.37
891.182	9680.58
891.498	9706.34
891.815	9658.43
892.131	9614.37
892.447	9621.37
892.763	9548.83
893.079	9461.6
893.395	9505.44
893.71	9477.19
894.026	9428.16
894.342	9474.93
894.657	9349.74
894.973	9373.47
895.289	9386.35
895.604	9303.87
895.92	9194.94
896.235	9210.99
896.55	9173.25
896.865	9194.04
897.181	9170.08
897.496	9099.13
897.811	9032.91
898.126	8994.5
898.441	9022.07
898.756	8997.43
899.071	8946.81
899.386	8905.91
899.7	8868.17
900.015	8881.5
900.33	8803.99
900.644	8756.08
900.959	8786.59
901.273	8726.71
901.588	8669.53
901.902	8607.61
902.216	8642.41
902.531	8580.27
902.845	8599.03
903.159	8594.51
903.473	8470.67
903.787	8387.51
904.101	8396.77
904.415	8417.79
904.729	8414.4
905.042	8351.57
905.356	8281.52
905.67	8306.83
905.984	8285.59
906.297	8280.39
906.611	8193.16
906.924	8230.45
907.237	8153.61
907.551	8131.69
907.864	8066.61
908.177	8085.59
908.491	8099.83
908.804	8020.96
909.117	7962.43
909.43	7895.54
909.743	7882.66
910.056	7855.09
910.368	7857.12
910.681	7757.01
910.994	7767.63
911.307	7783.68
911.619	7663.23
911.932	7716.79
912.244	7686.73
912.557	7566.74
912.869	7611.93
913.181	7535.32
913.494	7584.14
913.806	7471.37
914.118	7443.58
914.43	7369.68
914.742	7453.07
915.054	7402.45
915.366	7316.57
915.678	7290.59
915.99	7238.38
916.302	7180.76
916.613	7185.28
916.925	7138.95
917.236	7143.24
917.548	7053.76
917.859	7071.61
918.171	7018.73
918.482	7002.01
918.794	6960.42
919.105	6985.73
919.416	6924.27
919.727	6923.59
920.038	6868
920.349	6856.47
920.66	6788.9
920.971	6839.07
921.282	6757.04
921.593	6764.27
921.903	6665.06
922.214	6683.37
922.525	6667.1
922.835	6605.86
923.146	6521.57
923.456	6527.67
923.767	6487.44
924.077	6532.19
924.387	6459.87
924.697	6413.77
925.008	6432.08
925.318	6402.25
925.628	6405.64
925.938	6389.82
926.248	6256.04
926.558	6274.79
926.867	6231.86
927.177	6229.82
927.487	6205.87
927.796	6181.91
928.106	6150.73
928.416	6131.07
928.725	6087
929.034	6035.48
929.344	6084.74
929.653	6020.56
929.962	5950.51
930.271	6003.16
930.581	5966.33
930.89	5956.61
931.199	5887.23
931.508	5894.46
931.817	5858.98
932.125	5818.76
932.434	5843.84
932.743	5766.33
933.051	5767.69
933.36	5694.02
933.669	5675.94
933.977	5670.74
934.286	5644.3
934.594	5602.27
934.902	5597.97
935.21	5595.04
935.519	5599.33
935.827	5517.52
936.135	5509.16
936.443	5461.03
936.751	5490.41
937.059	5482.5
937.367	5420.8
937.674	5447.7
937.982	5355.95
938.29	5343.07
938.597	5330.86
938.905	5300.81
939.213	5277.53
939.52	5254.48
939.827	5283.41
940.135	5205.89
940.442	5181.71
940.749	5130.42
941.056	5157.31
941.363	5080.02
941.67	5078.67
941.977	5057.42
942.284	5061.72
942.591	5058.33
942.898	4997.31
943.205	5017.2
943.511	5002.28
943.818	4973.81
944.125	4946.69
944.431	4886.81
944.738	4877.09
945.044	4862.63
945.35	4862.85
945.657	4876.19
945.963	4816.07
946.269	4760.93
946.575	4751.22
946.881	4744.44
947.187	4795.28
947.493	4724.1
947.799	4679.35
948.105	4673.7
948.41	4620.15
948.716	4645.23
949.022	4595.29
949.327	4584.22
949.633	4525.46
949.938	4538.79
950.244	4506.48
950.549	4470.77
950.854	4477.55
951.16	4464.22
951.465	4446.82
951.77	4412.92
952.075	4407.95
952.38	4369.98
952.685	4354.17
952.99	4370.66
953.294	4368.4
953.599	4327.27
953.904	4292.25
954.209	4278.23
954.513	4226.71
954.818	4270.55
955.122	4235.3
955.426	4166.83
955.731	4195.3
956.035	4145.13
956.339	4143.1
956.643	4114.17
956.948	4106.94
957.252	4116.43
957.556	4058.81
957.86	4071.46
958.163	4047.73
958.467	4013.84
958.771	4021.29
959.075	4023.33
959.378	3948.3
959.682	3932.26
959.985	3954.85
960.289	3933.16
960.592	3873.95
960.896	3898.81
961.199	3851.35
961.502	3877.34
961.805	3836.21
962.108	3808.87
962.411	3808.87
962.714	3774.97
963.017	3795.31
963.32	3788.98
963.623	3741.53
963.926	3713.28
964.228	3717.57
964.531	3641.64
964.833	3642.32
965.136	3638.03
965.438	3666.27
965.741	3614.3
966.043	3565.49
966.345	3577.69
966.648	3614.52
966.95	3547.63
967.252	3527.52
967.554	3525.71
967.856	3565.94
968.158	3493.4
968.46	3473.51
968.761	3458.82
969.063	3472.61
969.365	3437.35
969.666	3439.39
969.968	3378.37
970.269	3371.14
970.571	3370.91
970.872	3381.08
971.174	3326.85
971.475	3323.23
971.776	3301.54
972.077	3325.27
972.378	3269
972.679	3287.3
972.98	3226.51
973.281	3250.69
973.582	3210.01
973.883	3180.41
974.183	3197.36
974.484	3218.6
974.785	3203.23
975.085	3196
975.386	3146.06
975.686	3156.91
975.986	3135.21
976.287	3132.95
976.587	3111.03
976.887	3065.39
977.187	3046.85
977.487	3040.75
977.787	3026.29
978.087	3003.01
978.387	2974.77
978.687	2993.97
978.987	2991.94
979.286	2978.16
979.586	2937.03
979.885	2929.8
980.185	2907.88
980.484	2930.47
980.784	2923.24
981.083	2910.14
981.382	2863.81
981.682	2868.1
981.981	2877.82
982.28	2833.53
982.579	2817.26
982.878	2822
983.177	2805.96
983.475	2805.05
983.774	2782.91
984.073	2775.22
984.372	2726.86
984.67	2725.28
984.969	2714.89
985.267	2687.09
985.566	2697.03
985.864	2697.49
986.162	2691.38
986.461	2691.16
986.759	2638.28
987.057	2616.13
987.355	2629.24
987.653	2648.45
987.951	2622.01
988.249	2601.89
988.547	2572.74
988.844	2612.74
989.142	2580.88
989.44	2500.43
989.737	2523.7
990.035	2522.35
990.332	2546.08
990.63	2486.64
990.927	2516.93
991.224	2453.42
991.521	2485.51
991.819	2456.36
992.116	2426.76
992.413	2472.86
992.71	2396.93
993.006	2435.57
993.303	2423.82
993.6	2398.28
993.897	2404.39
994.193	2404.16
994.49	2351.96
994.787	2363.94
995.083	2307.89
995.379	2339.98
995.676	2321.9
995.972	2344.73
996.268	2286.42
996.565	2284.39
996.861	2281.9
997.157	2267.44
997.453	2252.98
997.749	2235.35
998.044	2234.67
998.34	2220.89
998.636	2211.85
998.932	2180.66
999.227	2179.08
999.523	2169.59
999.818	2153.32
1000.114	2130.49
1000.409	2147.67
1000.704	2125.3
1001	2118.97
1001.295	2127.56
1001.59	2078.52
1001.885	2056.6
1002.18	2064.51
1002.475	2057.05
1002.77	2057.95
1003.065	2051.85
1003.359	2036.49
1003.654	2005.75
1003.949	2017.28
1004.243	1997.62
1004.538	1973.44
1004.832	1964.17
1005.127	1957.39
1005.421	1980.22
1005.715	1909.26
1006.009	1922.82
1006.304	1917.85
1006.598	1905.64
1006.892	1908.81
1007.186	1877.39
1007.48	1880.78
1007.773	1842.82
1008.067	1856.83
1008.361	1848.92
1008.655	1829.71
1008.948	1817.06
1009.242	1797.85
1009.535	1828.13
1009.829	1826.1
1010.122	1774.57
1010.415	1776.83
1010.708	1766.66
1011.001	1733.44
1011.295	1732.09
1011.588	1750.39
1011.881	1715.59
1012.173	1698.19
1012.466	1689.6
1012.759	1674.91
1013.052	1654.58
1013.344	1667.23
1013.637	1675.59
1013.93	1649.6
1014.222	1666.78
1014.514	1634.91
1014.807	1605.54
1015.099	1629.27
1015.391	1605.31
1015.683	1578.64
1015.976	1595.14
1016.268	1573.22
1016.56	1562.6
1016.851	1546.78
1017.143	1536.84
1017.435	1527.57
1017.727	1528.48
1018.018	1526.22
1018.31	1510.62
1018.602	1500
1018.893	1472.66
1019.185	1509.49
1019.476	1482.6
1019.767	1461.36
1020.058	1474.47
1020.35	1437.18
1020.641	1442.6
1020.932	1434.02
1021.223	1415.71
1021.514	1417.29
1021.804	1406.67
1022.095	1386.33
1022.386	1403.51
1022.677	1365.32
1022.967	1354.24
1023.258	1361.25
1023.548	1360.12
1023.839	1345.66
1024.129	1339.78
1024.419	1356.5
1024.709	1318.09
1025	1310.18
1025.29	1287.81
1025.58	1281.03
1025.87	1271.99
1026.16	1284.42
1026.449	1259.78
1026.739	1248.94
1027.029	1254.36
1027.319	1262.04
1027.608	1230.86
1027.898	1188.6
1028.187	1215.49
1028.477	1203.06
1028.766	1221.82
1029.055	1183.85
1029.344	1189.05
1029.634	1201.93
1029.923	1168.49
1030.212	1155.61
1030.501	1180.24
1030.79	1161.48
1031.078	1128.94
1031.367	1116.51
1031.656	1125.32
1031.945	1118.09
1032.233	1095.72
1032.522	1083.06
1032.81	1083.74
1033.099	1087.81
1033.387	1081.71
1033.675	1075.16
1033.963	1073.8
1034.251	1062.27
1034.54	1056.17
1034.828	1039.68
1035.116	1024.31
1035.403	1030.41
1035.691	1004.2
1035.979	1007.81
1036.267	996.06
1036.554	1015.95
1036.842	1006
1037.129	977.76
1037.417	972.11
1037.704	988.83
1037.992	977.98
1038.279	977.53
1038.566	945.44
1038.853	945.44
1039.14	945.44
