Data from hue_30_FLMS001491_18.txt Node
Date: Mon Feb 06 15:04:50 GMT 2017
User: dcchb
Spectrometer: FLMS00149
Trigger mode: 0
Integration Time (sec): 2.000000E-2
Scans to average: 10
Electric dark correction enabled: true
Nonlinearity correction enabled: false
Boxcar width: 0
XAxis mode: Wavelengths
Number of Pixels in Spectrum: 2048
>>>>>Begin Spectral Data<<<<<
341.393	-17.9
341.776	-17.9
342.16	-17.9
342.543	-56.76
342.927	-72.81
343.31	-62.19
343.693	-61.96
344.077	-68.74
344.46	-43.43
344.843	-63.32
345.226	-27.16
345.61	-25.13
345.993	-21.28
346.376	-30.32
346.759	3.8
347.142	14.87
347.525	53.29
347.908	59.84
348.291	84.7
348.674	81.31
349.057	105.72
349.44	101.42
349.823	149.11
350.206	172.83
350.588	168.99
350.971	213.51
351.354	183.91
351.737	226.17
352.119	251.25
352.502	258.71
352.884	246.73
353.267	305.26
353.65	286.28
354.032	303.23
354.414	298.03
354.797	303
355.179	301.64
355.562	320.18
355.944	309.78
356.326	323.34
356.709	338.48
357.091	337.35
357.473	324.92
357.855	327.41
358.238	359.95
358.62	363.34
359.002	354.75
359.384	335.77
359.766	310.01
360.148	337.12
360.53	350.68
360.912	332.6
361.294	326.73
361.676	333.96
362.057	337.8
362.439	321.98
362.821	334.64
363.203	329.67
363.584	313.62
363.966	341.87
364.348	329.67
364.729	328.76
365.111	330.8
365.493	317.01
365.874	315.43
366.256	302.77
366.637	302.1
367.019	319.27
367.4	331.7
367.781	294.19
368.163	317.01
368.544	298.93
368.925	292.15
369.306	331.02
369.688	303
370.069	302.55
370.45	312.72
370.831	305.49
371.212	318.59
371.593	315.2
371.974	310.91
372.355	324.69
372.736	318.37
373.117	318.59
373.498	299.16
373.879	314.3
374.26	303.68
374.641	301.19
375.021	321.08
375.402	331.7
375.783	328.76
376.163	311.36
376.544	329.67
376.925	311.36
377.305	315.88
377.686	308.42
378.066	329.67
378.447	309.33
378.827	319.5
379.208	324.47
379.588	319.95
379.968	325.37
380.349	349.55
380.729	332.6
381.109	340.97
381.489	321.98
381.87	339.38
382.25	326.95
382.63	319.27
383.01	332.15
383.39	349.1
383.77	331.93
384.15	323.79
384.53	351.13
384.91	333.96
385.29	346.62
385.67	359.95
386.049	338.25
386.429	328.99
386.809	360.17
387.189	324.47
387.568	339.84
387.948	347.97
388.328	341.87
388.707	349.33
389.087	346.39
389.466	360.17
389.846	380.74
390.225	373.51
390.605	355.43
390.984	350.46
391.363	376.22
391.743	334.19
392.122	359.04
392.501	364.24
392.881	362.89
393.26	365.6
393.639	365.6
394.018	371.93
394.397	382.32
394.776	372.6
395.155	372.38
395.534	394.07
395.913	376.22
396.292	387.52
396.671	369.21
397.05	392.94
397.429	384.58
397.808	389.55
398.186	361.53
398.565	386.16
398.944	367.86
399.323	379.38
399.701	394.75
400.08	413.73
400.458	376.67
400.837	406.73
401.215	402.21
401.594	406.27
401.972	379.83
402.351	393.39
402.729	401.53
403.107	369.21
403.486	386.16
403.864	412.38
404.242	409.21
404.62	396.33
404.999	410.12
405.377	385.71
405.755	399.5
406.133	412.83
406.511	400.4
406.889	408.99
407.267	442.66
407.645	426.16
408.023	418.7
408.401	409.89
408.779	440.4
409.156	447.86
409.534	434.75
409.912	408.08
410.29	437.01
410.667	431.13
411.045	438.36
411.422	437.01
411.8	466.61
412.178	457.57
412.555	436.56
412.933	449.66
413.31	464.8
413.687	447.18
414.065	490.11
414.442	474.3
414.819	481.75
415.197	473.84
415.574	486.05
415.951	496.44
416.328	479.04
416.705	490.79
417.082	474.97
417.46	481.75
417.837	489.66
418.214	485.37
418.591	502.32
418.967	505.48
419.344	481.98
419.721	493.28
420.098	501.19
420.475	517.46
420.852	516.33
421.228	517.91
421.605	530.79
421.982	512.94
422.358	531.92
422.735	509.55
423.111	522.43
423.488	524.46
423.864	549.77
424.241	544.12
424.617	535.08
424.994	535.08
425.37	540.51
425.746	537.12
426.123	540.51
426.499	558.36
426.875	580.28
427.251	543.9
427.627	562.65
428.003	585.03
428.379	564.46
428.756	608.76
429.132	571.92
429.507	601.3
429.883	589.32
430.259	585.7
430.635	610.34
431.011	597.23
431.387	616.21
431.763	628.19
432.138	607.63
432.514	622.54
432.89	645.82
433.265	623.67
433.641	665.93
434.016	653.5
434.392	633.39
434.767	670.22
435.143	649.43
435.518	664.35
435.894	676.1
436.269	677.91
436.644	680.62
437.02	674.97
437.395	705.7
437.77	696.44
438.145	698.02
438.52	707.74
438.895	700.28
439.271	706.38
439.646	739.37
440.021	704.57
440.395	721.52
440.77	728.3
441.145	727.85
441.52	734.4
441.895	755.42
442.27	755.42
442.645	777.79
443.019	771.91
443.394	745.02
443.769	748.41
444.143	750.45
444.518	779.37
444.892	760.84
445.267	774.63
445.641	793.16
446.016	777.56
446.39	788.86
446.764	792.25
447.139	788.19
447.513	800.39
447.887	793.38
448.262	826.15
448.636	819.37
449.01	806.26
449.384	821.63
449.758	847.84
450.132	828.64
450.506	857.56
450.88	834.06
451.254	841.07
451.628	847.17
452.002	880.61
452.376	883.55
452.75	867.96
453.123	886.71
453.497	874.96
453.871	904.79
454.244	905.47
454.618	912.02
454.992	918.58
455.365	930.1
455.739	948.18
456.112	937.79
456.486	954.73
456.859	983.66
457.232	991.57
457.606	968.75
457.979	987.28
458.352	1043.55
458.725	1020.04
459.099	1019.14
459.472	1050.78
459.845	1035.64
460.218	1051.91
460.591	1064.11
460.964	1088.52
461.337	1091.91
461.71	1096.2
462.083	1115.86
462.456	1127.61
462.829	1130.55
463.201	1108.63
463.574	1144.79
463.947	1191.11
464.32	1175.07
464.692	1205.35
465.065	1187.72
465.438	1196.08
465.81	1204.22
466.183	1241.28
466.555	1258.46
466.928	1264.11
467.3	1294.39
467.672	1286.93
468.045	1339.13
468.417	1313.82
468.789	1333.26
469.161	1356.98
469.534	1384.78
469.906	1408.06
470.278	1424.55
470.65	1460.48
471.022	1460.48
471.394	1481.73
471.766	1504.32
472.138	1516.53
472.51	1552.23
472.882	1596.98
473.253	1606.24
473.625	1648.73
473.997	1660.03
474.369	1662.74
474.74	1686.01
475.112	1734.6
475.484	1757.2
475.855	1819.34
476.227	1797.65
476.598	1922.84
476.97	1888.72
477.341	1936.63
477.713	1956.74
478.084	1988.61
478.455	2048.27
478.827	2067.25
479.198	2148.38
479.569	2119.22
479.94	2226.11
480.311	2243.74
480.682	2294.36
481.053	2311.99
481.424	2377.75
481.795	2467.69
482.166	2461.81
482.537	2504.52
482.908	2599.66
483.279	2608.48
483.65	2686.67
484.021	2699.77
484.391	2761.92
484.762	2820.22
485.133	2869.03
485.503	2902.03
485.874	2970.5
486.244	3019.77
486.615	3111.06
486.985	3136.15
487.356	3231.51
487.726	3231.29
488.097	3363.03
488.467	3352.41
488.837	3447.55
489.207	3500.2
489.578	3576.36
489.948	3574.1
490.318	3656.36
490.688	3706.07
491.058	3751.5
491.428	3820.87
491.798	3919.18
492.168	3969.57
492.538	4012.96
492.908	4059.96
493.278	4115.1
493.648	4189.45
494.017	4212.73
494.387	4269.68
494.757	4315.32
495.126	4363.68
495.496	4426.96
495.866	4456.11
496.235	4498.14
496.605	4544.47
496.974	4565.26
497.344	4679.16
497.713	4731.13
498.082	4800.51
498.452	4817.91
498.821	4847.06
499.19	4827.4
499.559	4945.14
499.928	4941.3
500.298	5027.17
500.667	5047.73
501.036	5005.48
501.405	5138.13
501.774	5073.72
502.143	5186.94
502.512	5147.62
502.88	5240.05
503.249	5295.41
503.618	5297.22
503.987	5307.39
504.356	5381.06
504.724	5398.91
505.093	5452.92
505.462	5511.23
505.83	5526.82
506.199	5582.18
506.567	5629.87
506.936	5629.19
507.304	5731.33
507.672	5721.39
508.041	5807.26
508.409	5779.47
508.777	5813.82
509.145	5832.35
509.514	5895.85
509.882	5925.23
510.25	5917.99
510.618	6000.93
510.986	6004.09
511.354	6070.53
511.722	6117.54
512.09	6063.75
512.458	6123.19
512.826	6162.73
513.193	6187.59
513.561	6257.65
513.929	6301.49
514.297	6319.11
514.664	6370.86
515.032	6394.82
515.4	6442.05
515.767	6453.57
516.135	6489.05
516.502	6400.69
516.869	6562.5
517.237	6563.4
517.604	6568.82
517.972	6641.59
518.339	6649.27
518.706	6717.97
519.073	6664.19
519.44	6666.9
519.808	6787.35
520.175	6781.93
520.542	6867.57
520.909	6898.53
521.276	6883.17
521.643	6951.19
522.009	6967.23
522.376	6978.98
522.743	7104.86
523.11	7138.3
523.477	7122.26
523.843	7218.98
524.21	7275.7
524.577	7327.67
524.943	7351.4
525.31	7381.01
525.676	7377.16
526.043	7458.97
526.409	7505.07
526.776	7560.66
527.142	7503.26
527.508	7554.79
527.874	7638.63
528.241	7684.28
528.607	7722.47
528.973	7822.35
529.339	7802.01
529.705	7879.3
530.071	7912.74
530.437	7900.99
530.803	7951.61
531.169	8049.01
531.535	8042.46
531.901	8052.63
532.267	8090.82
532.632	8125.85
532.998	8188.44
533.364	8183.02
533.73	8206.3
534.095	8263.92
534.461	8310.25
534.826	8376.91
535.192	8409
535.557	8490.36
535.923	8435.44
536.288	8481.09
536.653	8464.14
537.019	8550.69
537.384	8550.69
537.749	8609.22
538.114	8602.44
538.479	8687.86
538.845	8752.5
539.21	8735.1
539.575	8732.61
539.94	8748.2
540.305	8877.01
540.67	8884.7
541.034	8830.01
541.399	8851.48
541.764	8978.93
542.129	8994.3
542.494	9062.77
542.858	9071.81
543.223	9104.58
543.587	9135.99
543.952	9165.82
544.316	9270.22
544.681	9239.26
545.045	9344.57
545.41	9331.01
545.774	9325.59
546.138	9398.58
546.503	9377.34
546.867	9472.93
547.231	9449.65
547.595	9561.51
547.959	9579.37
548.324	9529.42
548.688	9581.63
549.052	9707.5
549.416	9670.21
549.779	9711.79
550.143	9774.16
550.507	9808.97
550.871	9805.35
551.235	9816.87
551.599	9853.94
551.962	9927.15
552.326	9933.26
552.689	10002.86
553.053	9934.61
553.417	10001.95
553.78	10035.17
554.143	10123.08
554.507	10148.39
554.87	10181.61
555.234	10215.06
555.597	10166.02
555.96	10152.91
556.323	10253.7
556.686	10291.21
557.05	10366.69
557.413	10337.76
557.776	10403.53
558.139	10508.61
558.502	10521.04
558.865	10519.23
559.228	10541.15
559.59	10555.61
559.953	10640.58
560.316	10744.53
560.679	10725.1
561.041	10749.96
561.404	10802.16
561.767	10927.13
562.129	10772.78
562.492	10948.6
562.854	10946.34
563.217	11010.29
563.579	10955.38
563.941	11089.38
564.304	11031.08
564.666	11210.28
565.028	11165.54
565.39	11208.02
565.753	11271.53
566.115	11345.87
566.477	11388.58
566.839	11409.6
567.201	11402.37
567.563	11480.33
567.925	11419.77
568.287	11541.58
568.648	11528.47
569.01	11614.79
569.372	11633.1
569.734	11688.46
570.095	11723.04
570.457	11738.63
570.819	11789.48
571.18	11816.14
571.542	11908.12
571.903	11971.17
572.265	12005.29
572.626	12110.15
572.987	12128.45
573.349	12221.11
573.71	12236.92
574.071	12258.39
574.432	12429.01
574.794	12594.43
575.155	12506.07
575.516	12608.67
575.877	12619.74
576.238	12704.48
576.599	12837.13
576.96	12880.97
577.32	12957.36
577.681	13099.05
578.042	13247.07
578.403	13280.96
578.763	13379.04
579.124	13475.54
579.485	13549.66
579.845	13714.17
580.206	13755.08
580.566	13895.41
580.927	13986.26
581.287	14207.95
581.648	14221.96
582.008	14511.21
582.368	14569.29
582.728	14760.93
583.089	14928.15
583.449	15046.79
583.809	15246.79
584.169	15417.18
584.529	15641.58
584.889	15833.89
585.249	15873.89
585.609	16077.73
585.969	16373.09
586.329	16521.33
586.688	16771.95
587.048	16915.22
587.408	17177.36
587.768	17378.48
588.127	17530.8
588.487	17805.37
588.846	18041.29
589.206	18127.62
589.565	18377.33
589.925	18705
590.284	18888.5
590.643	19182.73
591.003	19435.38
591.362	19646.45
591.721	19898.42
592.08	20119.43
592.44	20404.17
592.799	20687.55
593.158	20881.67
593.517	21198.72
593.876	21501.99
594.235	21650.01
594.593	21900.62
594.952	22210.9
595.311	22379.03
595.67	22650.44
596.029	23107.82
596.387	23235.96
596.746	23570.86
597.104	23793.23
597.463	23944.19
597.822	24249.26
598.18	24477.05
598.538	24588.92
598.897	25091.95
599.255	25048.56
599.613	25580.75
599.972	25685.61
600.33	26027.75
600.688	26086.28
601.046	26468.41
601.404	26665.7
601.762	26862.75
602.12	27181.84
602.478	27401.5
602.836	27573.02
603.194	27707.03
603.552	28019.79
603.91	28083.29
604.268	28365.99
604.625	28616.15
604.983	28852.08
605.341	28962.13
605.698	29330.49
606.056	29505.4
606.413	29641.66
606.771	30015.44
607.128	30129.79
607.485	30231.03
607.843	30282.1
608.2	30763.44
608.557	30964.57
608.914	31124.79
609.272	31299.93
609.629	31426.25
609.986	31774.49
610.343	31773.36
610.7	32254.93
611.057	32137.19
611.414	32311.2
611.771	32417.86
612.127	32641.59
612.484	32848.81
612.841	33077.28
613.198	33078.64
613.554	33209.03
613.911	33512.3
614.267	33591.84
614.624	33705.29
614.98	33874.77
615.337	34147.08
615.693	34155.22
616.05	34144.82
616.406	34522.67
616.762	34575.77
617.118	34507.75
617.475	34687.86
617.831	34935.54
618.187	35188.18
618.543	35086.94
618.899	35453.94
619.255	35450.55
619.611	35452.13
619.967	35628.63
620.323	35804.67
620.678	35854.16
621.034	35775.06
621.39	35850.99
621.746	35909.97
622.101	36287.37
622.457	36127.6
622.812	36189.06
623.168	36525.1
623.523	36515.61
623.879	36690.97
624.234	36398.32
624.589	36726.22
624.945	36945.2
625.3	36872.66
625.655	36875.15
626.01	36998.31
626.365	37074.46
626.72	37120.56
627.075	37118.53
627.43	37058.64
627.785	37198.98
628.14	37155.14
628.495	37246.44
628.85	37319.43
629.205	37196.27
629.559	37503.6
629.914	37205.31
630.269	37429.71
630.623	37358.52
630.978	37375.02
631.332	37537.05
631.687	37688.01
632.041	37334.12
632.396	37582.02
632.75	37573.66
633.104	37598.52
633.459	37485.53
633.813	37379.77
634.167	37470.16
634.521	37582.02
634.875	37585.64
635.229	37531.85
635.583	37430.84
635.937	37424.74
636.291	37433.55
636.645	37410.95
636.999	37375.92
637.352	37405.3
637.706	37405.53
638.06	37555.58
638.413	37503.83
638.767	37379.31
639.121	37593.09
639.474	37294.12
639.828	37321.91
640.181	37385.19
640.534	37370.5
640.888	37408.47
641.241	37131.64
641.594	37291.41
641.947	37399.43
642.301	37231.97
642.654	37234.68
643.007	37276.27
643.36	37299.77
643.713	37235.81
644.066	37303.38
644.419	37161.24
644.771	36772.1
645.124	36606
645.477	36570.97
645.83	36315.84
646.182	36063.42
646.535	36034.04
646.888	36255.95
647.24	35996.53
647.593	36186.8
647.945	36138.44
648.298	35958.56
648.65	35912.23
649.002	35870.88
649.355	35988.39
649.707	36056.64
650.059	36129.86
650.411	36548.6
650.763	36609.62
651.115	36948.36
651.467	36963.96
651.819	36763.06
652.171	36712.66
652.523	36720.12
652.875	36676.28
653.227	36553.35
653.578	36795.83
653.93	36714.92
654.282	36638.32
654.633	36632.21
654.985	36647.36
655.337	36490.52
655.688	36525.78
656.039	36690.29
656.391	36514.25
656.742	36526.68
657.094	36516.74
657.445	36599.67
657.796	36603.97
658.147	36494.82
658.498	36538.21
658.849	36498.21
659.2	36465.21
659.551	36331.66
659.902	36440.58
660.253	36436.97
660.604	36421.37
660.955	36324.43
661.306	36527.81
661.656	36402.16
662.007	36359.91
662.358	36399.23
662.708	36391.77
663.059	36451.2
663.409	36304.54
663.76	36372.11
664.11	36413.46
664.461	36512.22
664.811	36443.52
665.161	36361.71
665.511	36259.12
665.862	36330.3
666.212	36355.39
666.562	36433.58
666.912	36375.5
667.262	36289.85
667.612	36241.26
667.962	36342.5
668.312	36292.34
668.662	36365.33
669.011	36344.99
669.361	36283.3
669.711	36078.11
670.06	36109.29
670.41	36083.75
670.76	36075.62
671.109	36213.69
671.459	36231.32
671.808	36073.13
672.157	36306.8
672.507	36012.34
672.856	35907.26
673.205	36094.15
673.554	36170.76
673.904	36055.28
674.253	36225.22
674.602	36063.42
674.951	35571.23
675.3	35377.11
675.649	35996.98
675.998	36018.45
676.346	35949.75
676.695	36051.44
677.044	35665.69
677.393	35839.47
677.741	35854.83
678.09	35775.74
678.438	35794.72
678.787	35766.02
679.135	35810.99
679.484	35525.35
679.832	35708.62
680.181	35476.99
680.529	35593.82
680.877	35556.08
681.225	35589.98
681.573	35683.99
681.922	35302.76
682.27	35257.79
682.618	35361.97
682.966	35166.49
683.314	35498.46
683.661	35159.26
684.009	34892.83
684.357	35000.17
684.705	34814.86
685.053	34971.92
685.4	34914.52
685.748	34689.67
686.095	34790.23
686.443	34692.83
686.79	34493.29
687.138	34697.12
687.485	34643.34
687.832	34485.6
688.18	34483.57
688.527	34285.61
688.874	34317.93
689.221	34262.11
689.568	34088.55
689.915	34098.72
690.262	34043.81
690.609	34130.13
690.956	33915.45
691.303	33921.78
691.65	33802.46
691.997	33748.67
692.344	33566.31
692.69	33550.94
693.037	33529.02
693.383	33262.59
693.73	33359.31
694.077	33264.62
694.423	33206.32
694.769	33239.54
695.116	32974.01
695.462	32958.87
695.808	32806.33
696.155	32997.06
696.501	32598.65
696.847	32676.39
697.193	32424.64
697.539	32551.19
697.885	32360.46
698.231	32257.41
698.577	32174.48
698.923	32218.55
699.269	31965.9
699.614	31897.2
699.96	31863.53
700.306	31852.68
700.651	31716.41
700.997	31722.74
701.342	31627.83
701.688	31577.66
702.033	31382.64
702.379	31346.7
702.724	31217.44
703.069	31353.71
703.415	30996.2
703.76	31113.94
704.105	31058.35
704.45	30903.55
704.795	30800.5
705.14	30691.35
705.485	30591.02
705.83	30495.65
706.175	30574.52
706.52	30464.92
706.865	30416.56
707.209	30332.27
707.554	30300.18
707.899	30395.99
708.243	30060.41
708.588	30161.88
708.932	29925.95
709.277	29961.88
709.621	30058.83
709.966	29803.24
710.31	29684.37
710.654	29471.05
710.998	29679.63
711.342	29719.63
711.687	29488.9
712.031	29367.55
712.375	29262.92
712.719	29384.72
713.063	29194.22
713.407	29356.47
713.75	29198.29
714.094	29331.84
714.438	29132.07
714.782	29108.57
715.125	28992.64
715.469	28892.31
715.812	28728.69
716.156	28689.6
716.499	28559.88
716.843	28785.87
717.186	28529.6
717.53	28648.7
717.873	28643.05
718.216	28555.14
718.559	28465.2
718.902	28181.14
719.246	28248.25
719.589	28151.08
719.932	28126.68
720.275	28180.01
720.617	28103.63
720.96	27960.58
721.303	28179.56
721.646	28150.18
721.989	27899.79
722.331	28005.55
722.674	27793.58
723.016	27884.87
723.359	27680.13
723.701	27842.39
724.044	27585.67
724.386	27480.82
724.729	27517.65
725.071	27369.63
725.413	27387.94
725.755	27408.5
726.097	27259.58
726.439	27266.36
726.782	27174.16
727.124	27410.08
727.465	27078.57
727.807	27207.6
728.149	27003.32
728.491	26970.55
728.833	27094.61
729.175	26953.6
729.516	26959.7
729.858	26824.34
730.199	26802.64
730.541	26785.92
730.882	26820.27
731.224	26927.84
731.565	26697.79
731.906	26583.44
732.248	26606.26
732.589	26646.26
732.93	26576.89
733.271	26563.33
733.612	26542.54
733.953	26572.14
734.294	26481.97
734.635	26311.81
734.976	26452.14
735.317	26286.95
735.658	26324.01
735.999	26192.49
736.339	26207.4
736.68	26283.79
737.021	26154.98
737.361	25935.32
737.702	26110.68
738.042	26094.19
738.383	25976.45
738.723	26017.58
739.063	25829.56
739.404	25890.12
739.744	25749.79
740.084	25789.79
740.424	25812.61
740.764	25796.57
741.104	25735.78
741.444	25692.39
741.784	25548.44
742.124	25578.04
742.464	25489
742.804	25497.14
743.143	25332.4
743.483	25485.39
743.823	25318.84
744.162	25359.52
744.502	25341.44
744.841	25180.54
745.181	25380.76
745.52	25150.03
745.86	25191.39
746.199	25182.35
746.538	25158.62
746.877	25268.22
747.216	25200.2
747.556	25054.89
747.895	25146.87
748.234	25031.16
748.573	24912.75
748.911	24934.22
749.25	24873.2
749.589	24837.95
749.928	24807.21
750.267	24707.56
750.605	24739.65
750.944	24642.25
751.283	24586.88
751.621	24624.17
751.96	24575.58
752.298	24472.31
752.636	24542.82
752.975	24362.71
753.313	24274.8
753.651	24477.73
753.989	24315.48
754.327	24196.16
754.666	24115.03
755.004	24129.04
755.342	24087.46
755.679	24160.45
756.017	23986.67
756.355	24176.95
756.693	23981.25
757.031	23968.59
757.368	23847.69
757.706	23674.82
758.044	23793.23
758.381	23828.26
758.719	23661.03
759.056	23573.12
759.394	23517.53
759.731	23380.13
760.068	23465.33
760.405	23355.5
760.743	23300.36
761.08	23260.59
761.417	23100.37
761.754	23220.36
762.091	23031.22
762.428	22982.86
762.765	22865.8
763.102	22868.96
763.438	22689.76
763.775	22575.41
764.112	22714.84
764.449	22659.02
764.785	22522.76
765.122	22413.61
765.458	22283.89
765.795	22323.21
766.131	22307.17
766.467	22228.3
766.804	22041.86
767.14	21959.15
767.476	22079.83
767.812	21848.42
768.148	21861.53
768.485	21718.03
768.821	21777.01
769.157	21626.73
769.492	21561.88
769.828	21510.58
770.164	21371.15
770.5	21365.5
770.836	21300.64
771.171	21212.06
771.507	21108.33
771.842	20955.56
772.178	20958.95
772.513	20968.9
772.849	20860.2
773.184	20734.33
773.519	20814.33
773.855	20631.51
774.19	20452.75
774.525	20513.09
774.86	20457.72
775.195	20411.4
775.53	20346.77
775.865	20177.96
776.2	20089.6
776.535	20015.25
776.87	20000.79
777.205	19962.37
777.539	19789.72
777.874	19787.91
778.209	19717.41
778.543	19643.51
778.878	19504.3
779.212	19468.37
779.547	19554.92
779.881	19396.51
780.215	19297.3
780.55	19279.22
780.884	19141.38
781.218	19173.92
781.552	19046.01
781.886	19019.12
782.22	18888.95
782.554	18829.75
782.888	18684.44
783.222	18658.68
783.556	18482.41
783.889	18478.12
784.223	18439.02
784.557	18305.01
784.89	18427.27
785.224	18218.91
785.557	18107.73
785.891	18172.14
786.224	18118.8
786.558	18066.15
786.891	17949.99
787.224	17848.98
787.557	17741.41
787.891	17669.78
788.224	17731.92
788.557	17751.58
788.89	17603.79
789.223	17575.99
789.556	17538.93
789.888	17434.08
790.221	17378.48
790.554	17249.22
790.887	17215.78
791.219	17116.34
791.552	17128.77
791.884	16982.11
792.217	16943.24
792.549	16899.17
792.882	16821.21
793.214	16675.23
793.546	16732.17
793.879	16553.87
794.211	16489.92
794.543	16628.9
794.875	16469.13
795.207	16548.45
795.539	16446.3
795.871	16449.24
796.203	16312.07
796.535	16297.61
796.867	16283.37
797.198	16244.05
797.53	16075.24
797.862	16038.63
798.193	16082.02
798.525	15966.32
798.856	15850.84
799.188	15826.21
799.519	15759.77
799.85	15638.19
800.182	15705.53
800.513	15659.88
800.844	15491.98
801.175	15584.18
801.506	15531.07
801.837	15402.49
802.168	15411.53
802.499	15423.73
802.83	15244.08
803.161	15253.12
803.491	15158.2
803.822	15174.47
804.153	15135.6
804.483	15048.15
804.814	14965.21
805.145	15059.45
805.475	14935.61
805.805	14902.39
806.136	14916.18
806.466	14888.38
806.796	14810.64
807.126	14758.89
807.457	14660.14
807.787	14683.64
808.117	14608.84
808.447	14569.97
808.777	14514.15
809.107	14490.65
809.436	14492.01
809.766	14490.88
810.096	14376.53
810.426	14325.91
810.755	14326.36
811.085	14285.46
811.414	14247.94
811.744	14039.81
812.073	14125.01
812.403	14097.21
812.732	14043.2
813.061	14029.65
813.39	13922.08
813.719	13881.63
814.049	13955.97
814.378	13904.9
814.707	13885.92
815.036	13853.38
815.365	13731.8
815.693	13559.38
816.022	13669.43
816.351	13634.85
816.68	13479.83
817.008	13543.56
817.337	13456.78
817.665	13422.88
817.994	13394.63
818.322	13496.1
818.651	13355.54
818.979	13303.79
819.307	13368.87
819.636	13305.37
819.964	13295.43
820.292	13323.68
820.62	13248.87
820.948	13175.2
821.276	13254.52
821.604	13226.5
821.932	13243.9
822.259	13302.43
822.587	13109.44
822.915	13169.33
823.243	13218.37
823.57	13214.53
823.898	13218.37
824.225	13207.29
824.553	13113.96
824.88	13111.25
825.207	13191.48
825.535	13191.7
825.862	13184.47
826.189	13139.27
826.516	13199.16
826.843	13171.81
827.17	13140.4
827.497	13232.38
827.824	13154.19
828.151	13217.46
828.478	13142.44
828.805	13171.59
829.131	13127.07
829.458	13086.39
829.785	13102.21
830.111	13092.72
830.438	13226.95
830.764	13092.49
831.09	13060.86
831.417	13028.32
831.743	13108.77
832.069	13042.55
832.395	12986.06
832.722	13098.14
833.048	12976.57
833.374	13007.07
833.7	12908.54
834.026	13005.49
834.351	13000.29
834.677	12936.11
835.003	12991.03
835.329	12888.21
835.654	12908.77
835.98	12916.23
836.306	12880.75
836.631	12902.9
836.956	12858.38
837.282	12917.36
837.607	12854.99
837.932	12817.7
838.258	12832.16
838.583	12720.53
838.908	12743.35
839.233	12797.81
839.558	12711.49
839.883	12686.18
840.208	12643.92
840.533	12553.75
840.858	12602.56
841.182	12648.44
841.507	12545.39
841.832	12502.45
842.156	12446.41
842.481	12514.2
842.805	12475.11
843.13	12468.78
843.454	12352.18
843.778	12325.28
844.103	12276.47
844.427	12257.04
844.751	12296.36
845.075	12105.18
845.399	12196.25
845.723	12103.14
846.047	12121.22
846.371	12026.08
846.695	11990.83
847.019	11894.79
847.343	11906.09
847.666	11796.48
847.99	11768.46
848.313	11826.77
848.637	11748.8
848.96	11732.53
849.284	11585.87
849.607	11545.19
849.931	11510.16
850.254	11418.41
850.577	11484.4
850.9	11346.55
851.223	11381.35
851.546	11182.04
851.869	11175.03
852.192	11249.15
852.515	11140.91
852.838	11144.07
853.161	11085.77
853.483	11028.82
853.806	11027.01
854.129	11026.79
854.451	10918.09
854.774	10849.62
855.096	10924.87
855.419	10802.39
855.741	10779.79
856.063	10774.36
856.385	10703.18
856.708	10673.12
857.03	10676.51
857.352	10638.77
857.674	10650.98
857.996	10571.21
858.318	10567.59
858.64	10523.3
858.961	10412.34
859.283	10450.3
859.605	10379.12
859.926	10387.48
860.248	10412.34
860.57	10379.12
860.891	10279.24
861.212	10257.32
861.534	10240.37
861.855	10212.12
862.176	10211.21
862.498	10179.8
862.819	10169.63
863.14	10110.65
863.461	10145.68
863.782	10154.94
864.103	10099.13
864.424	10063.87
864.745	10141.39
865.065	10038.34
865.386	10006.93
865.707	10005.57
866.027	9999.24
866.348	9955.4
866.668	9892.35
866.989	9946.14
867.309	9842.18
867.63	9771.23
867.95	9850.09
868.27	9807.84
868.59	9844.44
868.91	9822.98
869.23	9807.84
869.55	9729.65
869.87	9862.52
870.19	9758.8
870.51	9799.02
870.83	9885.35
871.15	9633.6
871.469	9741.85
871.789	9715.18
872.109	9677.44
872.428	9588.18
872.748	9625.47
873.067	9675.64
873.386	9652.36
873.706	9582.53
874.025	9572.59
874.344	9572.59
874.663	9552.47
874.982	9467.73
875.301	9507.73
875.62	9472.48
875.939	9517.22
876.258	9402.42
876.577	9408.75
876.896	9421.63
877.214	9415.76
877.533	9377.34
877.852	9361.97
878.17	9364.91
878.489	9353.84
878.807	9314.06
879.125	9347.73
879.444	9344.12
879.762	9315.42
880.08	9270.45
880.398	9228.87
880.716	9200.85
881.034	9204.01
881.352	9231.35
881.67	9162.2
881.988	9131.24
882.306	9117.46
882.624	9099.15
882.941	9093.05
883.259	9033.17
883.577	9031.36
883.894	8944.81
884.212	8997.69
884.529	8972.38
884.846	8968.54
885.164	8966.5
885.481	8896.22
885.798	8935.54
886.115	8868.65
886.432	8872.04
886.75	8786.39
887.067	8827.07
887.383	8835.66
887.7	8749.56
888.017	8754.76
888.334	8820.97
888.651	8745.04
888.967	8709.56
889.284	8638.6
889.6	8598.6
889.917	8593.63
890.233	8588.21
890.55	8545.5
890.866	8542.78
891.182	8513.18
891.498	8494.2
891.815	8470.24
892.131	8463.69
892.447	8411.04
892.763	8411.26
893.079	8397.02
893.395	8354.09
893.71	8280.19
894.026	8289.23
894.342	8327.42
894.657	8211.72
894.973	8200.19
895.289	8197.26
895.604	8193.41
895.92	8110.25
896.235	8122.68
896.55	8103.93
896.865	8135.34
897.181	8079.75
897.496	8063.47
897.811	7976.7
898.126	7985.06
898.441	7878.62
898.756	7899.41
899.071	7825.29
899.386	7883.82
899.7	7817.61
900.015	7829.36
900.33	7728.34
900.644	7729.25
900.959	7710.04
901.273	7689.47
901.588	7642.69
901.902	7588.68
902.216	7600.89
902.531	7552.75
902.845	7584.16
903.159	7513.21
903.473	7452.19
903.787	7440.21
904.101	7407.9
904.415	7451.97
904.729	7388.01
905.042	7325.87
905.356	7277.73
905.67	7283.16
905.984	7290.61
906.297	7285.64
906.611	7174.23
906.924	7203.61
907.237	7192.76
907.551	7096.72
907.864	7161.58
908.177	7068.02
908.491	7075.03
908.804	7006.33
909.117	7005.2
909.43	6944.18
909.743	7040.45
910.056	6969.94
910.368	6868.03
910.681	6854.92
910.994	6809.95
911.307	6789.38
911.619	6789.38
911.932	6741.48
912.244	6744.64
912.557	6698.31
912.869	6620.57
913.181	6664.64
913.494	6620.57
913.806	6547.13
914.118	6571.54
914.43	6507.36
914.742	6488.6
915.054	6424.87
915.366	6405.89
915.678	6464.42
915.99	6414.93
916.302	6359.11
916.613	6333.8
916.925	6259.45
917.236	6321.6
917.548	6271.43
917.859	6235.95
918.171	6185.78
918.482	6160.93
918.794	6133.13
919.105	6132.9
919.416	6121.38
919.727	6074.37
920.038	6061.95
920.349	6043.41
920.66	6037.31
920.971	6014.94
921.282	5973.59
921.593	5892.23
921.903	5899.01
922.214	5870.99
922.525	5833.02
922.835	5874.38
923.146	5826.7
923.456	5779.01
923.767	5727.49
924.077	5731.56
924.387	5721.62
924.697	5703.54
925.008	5649.53
925.318	5659.92
925.628	5626.93
925.938	5566.59
926.248	5513.03
926.558	5509.19
926.867	5507.84
927.177	5479.59
927.487	5463.99
927.796	5443.66
928.106	5428.52
928.416	5458.12
928.725	5377.9
929.034	5364.56
929.344	5370.44
929.653	5319.14
929.962	5328.86
930.271	5272.59
930.581	5271.46
930.89	5251.34
931.199	5231.23
931.508	5172.03
931.817	5207.05
932.125	5165.92
932.434	5162.31
932.743	5093.61
933.051	5083.89
933.36	5046.15
933.669	5072.59
933.977	4973.16
934.286	5041.41
934.594	4969.09
934.902	4957.79
935.21	4913.95
935.519	4932.71
935.827	4885.25
936.135	4869.66
936.443	4828.08
936.751	4803.22
937.059	4820.17
937.367	4755.54
937.674	4751.47
937.982	4707.63
938.29	4692.94
938.597	4708.31
938.905	4643.9
939.213	4657.46
939.52	4642.32
939.827	4660.63
940.135	4584.02
940.442	4550.8
940.749	4584.92
941.056	4577.46
941.363	4490.91
941.67	4521.65
941.977	4447.07
942.284	4464.47
942.591	4409.33
942.898	4420.41
943.205	4424.25
943.511	4350.58
943.818	4370.01
944.125	4399.39
944.431	4308.54
944.738	4334.98
945.044	4332.95
945.35	4310.35
945.657	4272.61
945.963	4289.11
946.269	4204.37
946.575	4190.36
946.881	4204.14
947.187	4131.37
947.493	4170.7
947.799	4162.56
948.105	4099.28
948.41	4088.66
948.716	4089.34
949.022	4048.21
949.327	4049.57
949.633	4024.94
949.938	4040.3
950.244	4001.89
950.549	3980.42
950.854	3892.51
951.16	3947.2
951.465	3894.09
951.77	3939.06
952.075	3915.56
952.38	3855
952.685	3844.15
952.99	3800.99
953.294	3842.79
953.599	3822.91
953.904	3777.03
954.209	3748.56
954.513	3792.63
954.818	3746.07
955.122	3776.58
955.426	3749.69
955.731	3727.09
956.035	3699.3
956.339	3739.07
956.643	3698.84
956.948	3688.9
957.252	3619.75
957.556	3617.72
957.86	3592.86
958.163	3581.56
958.467	3602.35
958.771	3558.96
959.075	3546.98
959.378	3543.59
959.682	3509.47
959.985	3473.99
960.289	3485.29
960.592	3427.89
960.896	3420.43
961.199	3412.07
961.502	3453.88
961.805	3422.92
962.108	3390.83
962.411	3359.19
962.714	3291.85
963.017	3320.1
963.32	3329.59
963.623	3361.9
963.926	3291.85
964.228	3245.97
964.531	3254.11
964.833	3250.04
965.136	3201.91
965.438	3252.53
965.741	3231.06
966.043	3223.6
966.345	3170.04
966.648	3168.69
966.95	3171.63
967.252	3152.87
967.554	3114.9
967.856	3106.54
968.158	3092.31
968.46	3112.19
968.761	3071.29
969.063	3083.72
969.365	3020.22
969.666	3010.95
969.968	3044.85
970.269	2974.12
970.571	3001.01
970.872	2963.72
971.174	2992.42
971.475	2963.5
971.776	2946.32
972.077	2941.8
972.378	2913.55
972.679	2885.98
972.98	2896.15
973.281	2890.96
973.582	2881.92
973.883	2828.13
974.183	2827.68
974.484	2851.18
974.785	2817.74
975.085	2796.49
975.386	2830.84
975.686	2811.41
975.986	2772.77
976.287	2782.71
976.587	2720.11
976.887	2751.75
977.187	2724.18
977.487	2736.16
977.787	2695.03
978.087	2697.97
978.387	2685.54
978.687	2675.82
978.987	2647.57
979.286	2609.61
979.586	2652.32
979.885	2619.32
980.185	2599.44
980.484	2606.89
980.784	2581.81
981.083	2608.48
981.382	2576.84
981.682	2579.55
981.981	2562.83
982.28	2533
982.579	2514.24
982.878	2514.69
983.177	2508.14
983.475	2511.53
983.774	2460.46
984.073	2481.25
984.372	2439.22
984.67	2460.23
984.969	2467.92
985.267	2423.85
985.566	2425.2
985.864	2398.76
986.162	2397.41
986.461	2406.22
986.759	2375.49
987.057	2358.31
987.355	2349.5
987.653	2327.81
987.951	2356.51
988.249	2325.09
988.547	2312.89
988.844	2296.17
989.142	2281.93
989.44	2276.96
989.737	2253.68
990.035	2259.56
990.332	2226.57
990.63	2256.62
990.927	2216.62
991.224	2187.02
991.521	2235.83
991.819	2187.7
992.116	2218.66
992.413	2161.03
992.71	2178.88
993.006	2184.98
993.303	2146.79
993.6	2164.42
993.897	2136.85
994.193	2116.96
994.49	2113.57
994.787	2071.09
995.083	2077.87
995.379	2085.78
995.676	2071.77
995.972	2062.28
996.268	2049.4
996.565	2051.88
996.861	2046.01
997.157	2001.26
997.453	2005.1
997.749	2012.11
998.044	2010.53
998.34	1996.52
998.636	1953.13
998.932	1963.75
999.227	1965.1
999.523	1970.08
999.818	1950.64
1000.114	1932.34
1000.409	1939.34
1000.704	1903.41
1001	1887.82
1001.295	1899.57
1001.59	1876.07
1001.885	1890.98
1002.18	1867.03
1002.475	1834.49
1002.77	1793.81
1003.065	1811.21
1003.359	1809.85
1003.654	1813.24
1003.949	1787.03
1004.243	1805.33
1004.538	1798.78
1004.832	1761.95
1005.127	1767.14
1005.421	1740.93
1005.715	1739.57
1006.009	1734.15
1006.304	1747.93
1006.598	1694.38
1006.892	1690.08
1007.186	1698.44
1007.48	1717.88
1007.773	1650.76
1008.067	1661.38
1008.361	1650.31
1008.655	1658.45
1008.948	1631.78
1009.242	1640.82
1009.535	1621.61
1009.829	1625.68
1010.122	1620.48
1010.415	1627.94
1010.708	1598.79
1011.001	1586.58
1011.295	1585.9
1011.588	1556.98
1011.881	1541.84
1012.173	1526.25
1012.466	1540.03
1012.759	1513.59
1013.052	1513.36
1013.344	1515.85
1013.637	1523.08
1013.93	1512.91
1014.222	1473.59
1014.514	1468.17
1014.807	1480.14
1015.099	1448.28
1015.391	1429.07
1015.683	1437.89
1015.976	1433.14
1016.268	1424.1
1016.56	1428.39
1016.851	1388.62
1017.143	1389.3
1017.435	1371
1017.727	1372.8
1018.018	1378.9
1018.31	1335.29
1018.602	1362.41
1018.893	1352.69
1019.185	1338.23
1019.476	1330.09
1019.767	1320.15
1020.058	1297.78
1020.35	1305.01
1020.641	1307.49
1020.932	1283.09
1021.223	1289.87
1021.514	1275.63
1021.804	1242.86
1022.095	1242.86
1022.386	1246.48
1022.677	1253.94
1022.967	1256.65
1023.258	1212.58
1023.548	1246.25
1023.839	1223.65
1024.129	1199.25
1024.419	1179.81
1024.709	1168.51
1025	1206.93
1025.29	1166.25
1025.58	1192.24
1025.87	1159.25
1026.16	1153.15
1026.449	1137.55
1026.739	1147.95
1027.029	1126.48
1027.319	1098.69
1027.608	1121.74
1027.898	1112.7
1028.187	1093.49
1028.477	1098.46
1028.766	1115.41
1029.055	1030.89
1029.344	1078.8
1029.634	1064.56
1029.923	1072.25
1030.212	1062.75
1030.501	1045.81
1030.79	1034.28
1031.078	1041.06
1031.367	1018.91
1031.656	1013.04
1031.945	1019.59
1032.233	1022.3
1032.522	1013.49
1032.81	997.22
1033.099	987.28
1033.387	971.01
1033.675	992.7
1033.963	954.28
1034.251	975.75
1034.54	983.43
1034.828	957.67
1035.116	956.54
1035.403	915.19
1035.691	898.01
1035.979	944.11
1036.267	944.57
1036.554	912.48
1036.842	929.2
1037.129	902.31
1037.417	899.14
1037.704	893.49
1037.992	885.13
1038.279	896.66
1038.566	902.08
1038.853	902.08
1039.14	902.08
