Data from hue_38_FLMS001491_00006.txt Node
Date: Tue Feb 07 17:30:58 GMT 2017
User: dcchb
Spectrometer: FLMS00149
Trigger mode: 0
Integration Time (sec): 2.000000E-2
Scans to average: 10
Electric dark correction enabled: true
Nonlinearity correction enabled: false
Boxcar width: 0
XAxis mode: Wavelengths
Number of Pixels in Spectrum: 2048
>>>>>Begin Spectral Data<<<<<
341.393	-6.62
341.776	-6.62
342.16	-6.62
342.543	-55.89
342.927	-59.28
343.31	-90.92
343.693	-81.65
344.077	-56.11
344.46	-62.89
344.843	-51.82
345.226	-43.46
345.61	-21.76
345.993	-10.24
346.376	5.13
346.759	11.91
347.142	34.96
347.525	60.49
347.908	37.67
348.291	73.37
348.674	82.87
349.057	112.47
349.44	132.36
349.823	164.67
350.206	170.77
350.588	215.06
350.971	238.34
351.354	228.62
351.737	225.46
352.119	263.65
352.502	283.99
352.884	307.49
353.267	296.19
353.65	297.1
354.032	358.11
354.414	323.76
354.797	315.4
355.179	322.63
355.562	341.39
355.944	323.54
356.326	340.94
356.709	370.77
357.091	348.39
357.473	352.91
357.855	346.13
358.238	344.55
358.62	337.77
359.002	328.28
359.384	344.1
359.766	365.8
360.148	367.6
360.53	364.44
360.912	357.43
361.294	342.97
361.676	370.77
362.057	339.58
362.439	341.84
362.821	327.83
363.203	348.39
363.584	344.33
363.966	320.15
364.348	333.25
364.729	326.25
365.111	331.9
365.493	315.18
365.874	321.28
366.256	343.42
366.637	325.8
367.019	321.28
367.4	337.1
367.781	334.16
368.163	331.45
368.544	333.71
368.925	318.79
369.306	348.39
369.688	335.74
370.069	322.41
370.45	328.96
370.831	324.44
371.212	317.44
371.593	314.05
371.974	326.7
372.355	324.67
372.736	340.71
373.117	329.64
373.498	320.15
373.879	332.35
374.26	330.09
374.641	331.67
375.021	338
375.402	332.35
375.783	321.95
376.163	343.88
376.544	329.41
376.925	347.04
377.305	335.06
377.686	328.06
378.066	321.73
378.447	347.26
378.827	354.04
379.208	338.68
379.588	331.45
379.968	354.04
380.349	340.03
380.729	359.92
381.109	327.83
381.489	343.88
381.87	338.68
382.25	357.89
382.63	359.02
383.01	344.33
383.39	349.75
383.77	358.11
384.15	357.43
384.53	353.59
384.91	343.42
385.29	369.64
385.67	375.96
386.049	345.91
386.429	368.06
386.809	381.16
387.189	383.2
387.568	358.34
387.948	386.13
388.328	373.03
388.707	357.21
389.087	366.25
389.466	368.06
389.846	360.15
390.225	367.15
390.605	384.55
390.984	386.36
391.363	387.72
391.743	383.42
392.122	393.37
392.501	377.09
392.881	387.26
393.26	374.61
393.639	376.19
394.018	385.46
394.397	394.95
394.776	375.51
395.155	393.59
395.534	383.65
395.913	397.66
396.292	404.21
396.671	411.67
397.05	404.44
397.429	397.43
397.808	406.02
398.186	412.12
398.565	410.99
398.944	399.01
399.323	393.37
399.701	402.18
400.08	405.79
400.458	405.34
400.837	401.73
401.215	409.86
401.594	412.57
401.972	436.3
402.351	429.97
402.729	418.68
403.107	424.33
403.486	429.07
403.864	408.28
404.242	443.08
404.62	417.09
404.999	426.81
405.377	441.73
405.755	423.2
406.133	436.08
406.511	431.78
406.889	448.05
407.267	453.7
407.645	473.59
408.023	436.53
408.401	462.52
408.779	471.78
409.156	437.66
409.534	467.94
409.912	490.09
410.29	427.94
410.667	489.41
411.045	462.74
411.422	501.16
411.8	477.88
412.178	485.57
412.555	478.56
412.933	473.14
413.31	476.98
413.687	507.71
414.065	499.35
414.442	525.11
414.819	503.19
415.197	509.97
415.574	515.85
415.951	505.68
416.328	512.91
416.705	521.05
417.082	537.99
417.46	517.88
417.837	522.63
418.214	545.9
418.591	542.74
418.967	524.66
419.344	537.77
419.721	521.27
420.098	540.93
420.475	545.9
420.852	554.72
421.228	568.95
421.605	558.33
421.982	558.11
422.358	565.11
422.735	586.13
423.111	574.6
423.488	577.99
423.864	579.8
424.241	591.55
424.617	573.02
424.994	587.48
425.37	585.22
425.746	577.77
426.123	610.08
426.499	621.38
426.875	569.18
427.251	608.73
427.627	627.03
428.003	623.19
428.379	629.29
428.756	609.4
429.132	643.75
429.507	640.14
429.883	664.77
430.259	654.38
430.635	659.8
431.011	656.64
431.387	686.01
431.763	674.26
432.138	683.53
432.514	695.5
432.89	657.77
433.265	683.53
433.641	689.85
434.016	689.63
434.392	700.7
434.767	726.92
435.143	707.48
435.518	735.5
435.894	727.59
436.269	740.25
436.644	733.47
437.02	777.54
437.395	764.2
437.77	772.11
438.145	781.83
438.52	773.69
438.895	782.28
439.271	763.53
439.646	792
440.021	811.43
440.395	792.68
440.77	788.38
441.145	794.48
441.52	823.18
441.895	822.51
442.27	819.34
442.645	817.31
443.019	822.73
443.394	833.81
443.769	848.95
444.143	832
444.518	839.23
444.892	858.21
445.267	832
445.641	858.44
446.016	871.32
446.39	879.45
446.764	856.18
447.139	877.19
447.513	896.63
447.887	869.96
448.262	912.45
448.636	875.39
449.01	869.74
449.384	898.44
449.758	902.5
450.132	927.81
450.506	916.74
450.88	942.05
451.254	921.49
451.628	952.45
452.002	933.01
452.376	987.47
452.75	977.76
453.123	961.26
453.497	975.5
453.871	987.47
454.244	1005.78
454.618	1025.21
454.992	1029.73
455.365	1022.5
455.739	1064.08
456.112	1071.09
456.486	1071.77
456.859	1060.92
457.232	1080.13
457.606	1087.58
457.979	1097.08
458.352	1094.59
458.725	1130.75
459.099	1120.8
459.472	1136.85
459.845	1132.33
460.218	1169.39
460.591	1191.54
460.964	1164.87
461.337	1220.69
461.71	1247.35
462.083	1242.38
462.456	1252.33
462.829	1266.11
463.201	1266.34
463.574	1285.09
463.947	1314.47
464.32	1300.69
464.692	1351.53
465.065	1351.53
465.438	1345.66
465.81	1370.06
466.183	1407.58
466.555	1433.79
466.928	1432.21
467.3	1437.18
467.672	1458.87
468.045	1526.22
468.417	1509.04
468.789	1551.75
469.161	1574.8
469.534	1572.77
469.906	1597.18
470.278	1628.36
470.65	1630.85
471.022	1670.85
471.394	1707.68
471.766	1726.44
472.138	1739.32
472.51	1775.93
472.882	1840.11
473.253	1866.32
473.625	1881.46
473.997	1941.35
474.369	1937.73
474.74	1967.11
475.112	2041.01
475.484	2061.8
475.855	2150.38
476.227	2141.57
476.598	2203.04
476.97	2222.7
477.341	2300.89
477.713	2360.77
478.084	2375.91
478.455	2464.95
478.827	2524.61
479.198	2616.58
479.569	2613.65
479.94	2681.89
480.311	2757.82
480.682	2826.3
481.053	2901.55
481.424	2930.25
481.795	3018.61
482.166	3091.6
482.537	3188.32
482.908	3236.91
483.279	3316.45
483.65	3355.77
484.021	3490.91
484.391	3547.86
484.762	3673.05
485.133	3675.09
485.503	3771.58
485.874	3906.95
486.244	3939.49
486.615	4035.3
486.985	4137.67
487.356	4246.15
487.726	4336.76
488.097	4438.91
488.467	4538.57
488.837	4636.19
489.207	4730.88
489.578	4812.91
489.948	4899.24
490.318	5059.23
490.688	5125.9
491.058	5204.09
491.428	5293.8
491.798	5409.05
492.168	5589.16
492.538	5617.18
492.908	5724.3
493.278	5901.24
493.648	5900.57
494.017	6014.69
494.387	6108.47
494.757	6167.45
495.126	6297.16
495.496	6374.9
495.866	6473.66
496.235	6613.99
496.605	6710.94
496.974	6807.43
497.344	6901.22
497.713	6991.61
498.082	7044.94
498.452	7129.23
498.821	7230.47
499.19	7318.16
499.559	7422.79
499.928	7508.88
500.298	7561.99
500.667	7683.34
501.036	7749.33
501.405	7821.19
501.774	7891.02
502.143	7990.23
502.512	8015.99
502.88	8179.6
503.249	8187.06
503.618	8269.54
503.987	8392.48
504.356	8399.93
504.724	8491.01
505.093	8566.03
505.462	8654.17
505.83	8767.38
506.199	8791.11
506.567	8952.46
506.936	8974.16
507.304	9075.4
507.672	9166.24
508.041	9292.11
508.409	9305
508.777	9420.7
509.145	9489.62
509.514	9479
509.882	9563.52
510.25	9586.34
510.618	9710.63
510.986	9764.64
511.354	9858.2
511.722	10019.33
512.09	10062.26
512.458	10059.55
512.826	10201.02
513.193	10208.25
513.561	10236.04
513.929	10362.59
514.297	10386.77
514.664	10563.49
515.032	10567.34
515.4	10643.04
515.767	10662.02
516.135	10784.73
516.502	10783.6
516.869	10891.62
517.237	10972.97
517.604	10949.92
517.972	11062.92
518.339	11109.47
518.706	11197.83
519.073	11197.6
519.44	11323.93
519.808	11536.58
520.175	11408.44
520.542	11556.69
520.909	11614.31
521.276	11617.03
521.643	11805.72
522.009	11851.37
522.376	11943.8
522.743	12022.21
523.11	12073.96
523.477	12144.02
523.843	12262.43
524.21	12406.61
524.577	12420.62
524.943	12507.4
525.31	12531.58
525.676	12756.88
526.043	12737
526.409	12837.78
526.776	12951
527.142	12980.61
527.508	13105.57
527.874	13101.96
528.241	13233.48
528.607	13234.61
528.973	13326.36
529.339	13484.32
529.705	13558.67
530.071	13649.29
530.437	13667.14
530.803	13772.45
531.169	13848.6
531.535	13860.13
531.901	13846.34
532.267	13960.01
532.632	14107.81
532.998	14101.03
533.364	14235.04
533.73	14224.87
534.095	14346.44
534.461	14442.94
534.826	14511.64
535.192	14458.53
535.557	14637.74
535.923	14712.54
536.288	14650.84
536.653	14807.22
537.019	14812.2
537.384	14821.91
537.749	14867.11
538.114	14944.17
538.479	15009.25
538.845	15081.79
539.21	15032.53
539.575	15143.26
539.94	15143.03
540.305	15374.44
540.67	15322.24
541.034	15388.45
541.399	15448.11
541.764	15491.27
542.129	15542.35
542.494	15576.69
542.858	15675.45
543.223	15733.53
543.587	15771.04
543.952	15867.99
544.316	15868.44
544.681	15969.9
545.045	16027.08
545.41	16131.03
545.774	16176.23
546.138	16187.3
546.503	16218.71
546.867	16262.78
547.231	16397.24
547.595	16465.94
547.959	16481.3
548.324	16557.23
548.688	16564.24
549.052	16608.53
549.416	16684.01
549.779	16729.66
550.143	16721.75
550.507	16845.14
550.871	16912.48
551.235	16969.2
551.599	17107.05
551.962	17046.03
552.326	17178.23
552.689	17230.44
553.053	17218.23
553.417	17232.24
553.78	17448.06
554.143	17331.9
554.507	17482.63
554.87	17526.25
555.234	17810.53
555.597	17632.69
555.96	17688.05
556.323	17867.26
556.686	17848.95
557.05	17845.79
557.413	18060.92
557.776	18039
558.139	18083.97
558.502	18197.42
558.865	18183.86
559.228	18350.18
559.59	18410.74
559.953	18459.11
560.316	18596.95
560.679	18636.05
561.041	18676.73
561.404	18791.75
561.767	18889.83
562.129	18730.74
562.492	19026.1
562.854	19059.09
563.217	19108.81
563.579	19142.25
563.941	19267.9
564.304	19312.42
564.666	19391.06
565.028	19435.58
565.39	19472.41
565.753	19621.11
566.115	19661.11
566.477	19746.98
566.839	19824.04
567.201	19966.64
567.563	19935
567.925	20088.67
568.287	20029.46
568.648	20112.85
569.01	20292.73
569.372	20347.19
569.734	20341.99
570.095	20567.52
570.457	20548.09
570.819	20608.2
571.18	20683.68
571.542	20887.29
571.903	20792.83
572.265	21114.4
572.626	21006.38
572.987	21125.48
573.349	21287.28
573.71	21305.36
574.071	21487.05
574.432	21460.61
574.794	21712.58
575.155	21749.64
575.516	21768.62
575.877	21840.71
576.238	22029.86
576.599	22101.95
576.96	22259.23
577.32	22316.4
577.681	22398.21
578.042	22602.5
578.403	22730.18
578.763	22729.5
579.124	22850.63
579.485	23137.4
579.845	23290.62
580.206	23357.28
580.566	23436.6
580.927	23662.81
581.287	23883.14
581.648	23868.68
582.008	24247.2
582.368	24292.62
582.728	24388.21
583.089	24559.51
583.449	24773.52
583.809	24928.54
584.169	25103.22
584.529	25270.68
584.889	25541.18
585.249	25654.17
585.609	25696.43
585.969	26098.23
586.329	26154.27
586.688	26384.09
587.048	26557.2
587.408	26864.08
587.768	26985.89
588.127	27196.73
588.487	27408.7
588.846	27786.77
589.206	27692.76
589.565	27850.27
589.925	28277.83
590.284	28418.39
590.643	28721.89
591.003	28990.58
591.362	29286.62
591.721	29332.49
592.08	29636.44
592.44	29804.57
592.799	30155.52
593.158	30214.05
593.517	30463.08
593.876	30610.2
594.235	30725
594.593	30970.41
594.952	31317.07
595.311	31339.67
595.67	31798.42
596.029	32102.81
596.387	32277.27
596.746	32555.68
597.104	32619.18
597.463	32649.69
597.822	33075.67
598.18	33020.08
598.538	33299.39
598.897	33656.22
599.255	33540.06
599.613	34175.98
599.972	34128.98
600.33	34397.89
600.688	34424.56
601.046	34727.83
601.404	34875.17
601.762	34988.16
602.12	35257.76
602.478	35555.15
602.836	35534.14
603.194	35558.09
603.552	35750.63
603.91	35846.67
604.268	36092.99
604.625	36257.96
604.983	36388.13
605.341	36390.16
605.698	36712.64
606.056	37032.85
606.413	37031.27
606.771	37271.27
607.128	37379.29
607.485	37343.58
607.843	37529.56
608.2	37889.33
608.557	37993.73
608.914	38019.95
609.272	38256.78
609.629	38439.37
609.986	38644.79
610.343	38564.79
610.7	39016.98
611.057	38936.31
611.414	39040.26
611.771	39282.06
612.127	39444.32
612.484	39459.68
612.841	39682.28
613.198	39646.34
613.554	39728.83
613.911	39946
614.267	40028.71
614.624	40037.97
614.98	40211.75
615.337	40551.86
615.693	40463.05
616.05	40500.56
616.406	40770.83
616.762	40656.71
617.118	40843.38
617.475	40839.76
617.831	41006.76
618.187	41061
618.543	41324.72
618.899	41392.06
619.255	41464.83
619.611	41521.55
619.967	41645.16
620.323	41854.42
620.678	41740.75
621.034	41710.25
621.39	41707.76
621.746	41720.87
622.101	42203.34
622.457	41970.13
622.812	42176.22
623.168	42307.97
623.523	42411.92
623.879	42474.52
624.234	42089.67
624.589	42431.81
624.945	42535.31
625.3	42521.3
625.655	42618.47
626.01	42571.92
626.365	42756.09
626.72	42669.09
627.075	42567.85
627.43	42660.95
627.785	42721.29
628.14	42723.1
628.495	42930.1
628.85	42652.59
629.205	42677.23
629.559	43004.67
629.914	42825.7
630.269	42898.69
630.623	42830.44
630.978	42551.13
631.332	42976.43
631.687	42861.4
632.041	42835.19
632.396	42970.78
632.75	42786.6
633.104	42827.96
633.459	42758.35
633.813	42714.96
634.167	42793.83
634.521	42898.91
634.875	43104.56
635.229	42765.36
635.583	42616.66
635.937	42709.77
636.291	42781.18
636.645	42844.68
636.999	42725.13
637.352	42771.91
637.706	42489.89
638.06	42728.98
638.413	42593.16
638.767	42477.91
639.121	42630.9
639.474	42326.95
639.828	42384.35
640.181	42482.43
640.534	42580.5
640.888	42332.15
641.241	42433.39
641.594	42318.82
641.947	42597.68
642.301	42316.78
642.654	42413.96
643.007	42411.7
643.36	42302.55
643.713	42285.82
644.066	42522.88
644.419	42218.93
644.771	41937.13
645.124	41567.65
645.477	41390.25
645.83	41410.82
646.182	41195.23
646.535	41161.78
646.888	41258.28
647.24	40950.04
647.593	41213.08
647.945	41123.82
648.298	40922.92
648.65	40859.87
649.002	40822.81
649.355	41064.39
649.707	41010.38
650.059	40882.7
650.411	41583.02
650.763	41658.95
651.115	41860.98
651.467	41879.05
651.819	41896
652.171	41687.19
652.523	41728.1
652.875	41621.89
653.227	41415.34
653.578	41776.01
653.93	41689.91
654.282	41555.45
654.633	41411.27
654.985	41490.36
655.337	41703.69
655.688	41616.46
656.039	41684.94
656.391	41398.16
656.742	41389.8
657.094	41382.12
657.445	41682.68
657.796	41480.42
658.147	41378.28
658.498	41417.82
658.849	41516.13
659.2	41506.41
659.551	41306.41
659.902	41473.64
660.253	41376.69
660.604	41446.52
660.955	41160.43
661.306	41305.74
661.656	41277.94
662.007	41340.99
662.358	41318.39
662.708	41311.84
663.059	41317.49
663.409	41108.23
663.76	41243.59
664.11	41280.88
664.461	41337.6
664.811	41272.29
665.161	41263.48
665.511	41136.93
665.862	41243.59
666.212	41199.52
666.562	41173.31
666.912	41230.48
667.262	41244.49
667.612	41148.9
667.962	41160.66
668.312	41057.61
668.662	41339.63
669.011	41172.86
669.361	41179.64
669.711	41172.63
670.06	41035.91
670.41	41022.81
670.76	40949.59
671.109	41100.09
671.459	41204.95
671.808	40951.39
672.157	41070.94
672.507	40777.16
672.856	40830.49
673.205	40837.5
673.554	40939.87
673.904	40828.23
674.253	41087.21
674.602	40955.46
674.951	40293.11
675.3	40234.58
675.649	40864.39
675.998	40634.34
676.346	40710.95
676.695	40789.14
677.044	40550.5
677.393	40615.81
677.741	40780.1
678.09	40690.16
678.438	40583.27
678.787	40631.4
679.135	40560.44
679.484	40244.52
679.832	40543.95
680.181	40191.87
680.529	40405.65
680.877	40364.97
681.225	40151.42
681.573	40480.9
681.922	40183.28
682.27	40015.15
682.618	40075.94
682.966	40058.09
683.314	40049.05
683.661	39939.9
684.009	39853.57
684.357	39640.02
684.705	39583.52
685.053	39759.34
685.4	39696.74
685.748	39444.09
686.095	39581.49
686.443	39328.84
686.79	39319.35
687.138	39367.03
687.485	39387.82
687.832	39190.31
688.18	39294.72
688.527	39082.07
688.874	39102.63
689.221	38846.82
689.568	38801.85
689.915	38768.18
690.262	38859.25
690.609	38562.31
690.956	38545.13
691.303	38454.74
691.65	38238.02
691.997	38408.64
692.344	38105.59
692.69	38055.43
693.037	38125.93
693.383	37751.71
693.73	37949.21
694.077	37707.64
694.423	37864.47
694.769	37483.24
695.116	37528.89
695.462	37413.18
695.808	37265.62
696.155	37501.32
696.501	37190.14
696.847	37066.3
697.193	36792.86
697.539	37167.54
697.885	36855.91
698.231	36722.35
698.577	36793.99
698.923	36708.79
699.269	36358.75
699.614	36327.34
699.96	36286.88
700.306	36183.16
700.651	36177.96
700.997	35915.14
701.342	35982.94
701.688	35853
702.033	35824.07
702.379	35861.81
702.724	35471.09
703.069	35618.43
703.415	35312.45
703.76	35314.93
704.105	35384.76
704.45	35239.45
704.795	35213.92
705.14	34925.79
705.485	34891.67
705.83	34838.56
706.175	34908.84
706.52	34840.6
706.865	34578
707.209	34575.74
707.554	34376.88
707.899	34575.29
708.243	34248.52
708.588	34306.37
708.932	34035.42
709.277	34079.26
709.621	34160.39
709.966	33735.31
710.31	33888.98
710.654	33555.88
710.998	33683.56
711.342	33712.94
711.687	33594.3
712.031	33468.43
712.375	33375.77
712.719	33456.68
713.063	33321.99
713.407	33455.32
713.75	33014.65
714.094	33263.01
714.438	33118.61
714.782	33110.7
715.125	32936.24
715.469	33031.6
715.812	32868.44
716.156	32557.94
716.499	32665.74
716.843	32739.86
717.186	32448.12
717.53	32742.35
717.873	32636.13
718.216	32498.06
718.559	32357.95
718.902	32078.18
719.246	32238.86
719.589	32133.55
719.932	31996.6
720.275	32058.3
720.617	32015.13
720.96	31881.8
721.303	31930.16
721.646	32034.34
721.989	31638.19
722.331	31736.5
722.674	31644.52
723.016	31681.81
723.359	31584.41
723.701	31607.46
724.044	31487.92
724.386	31402.49
724.729	31382.38
725.071	31300.8
725.413	31280.01
725.755	31156.17
726.097	31092.9
726.439	31072.56
726.782	31035.95
727.124	31133.57
727.465	30989.4
727.807	30928.83
728.149	30861.72
728.491	30837.76
728.833	30960.47
729.175	30806.35
729.516	30694.94
729.858	30633.7
730.199	30675.73
730.541	30644.55
730.882	30582.63
731.224	30678.22
731.565	30487.04
731.906	30338.57
732.248	30462.18
732.589	30252.02
732.93	30177.44
733.271	30306.03
733.612	30261.96
733.953	30305.35
734.294	30020.61
734.635	30115.52
734.976	30139.02
735.317	30028.29
735.658	29940.39
735.999	30004.11
736.339	29818.13
736.68	29966.15
737.021	29749.88
737.361	29597.12
737.702	29880.5
738.042	29826.49
738.383	29705.59
738.723	29626.72
739.063	29488.87
739.404	29608.87
739.744	29528.87
740.084	29417.23
740.424	29344.69
740.764	29298.14
741.104	29356.67
741.444	29250.01
741.784	29246.62
742.124	29198.48
742.464	29135.66
742.804	29108.54
743.143	29109.22
743.483	29070.35
743.823	28933.18
744.162	28969.79
744.502	29113.29
744.841	28822.45
745.181	28950.58
745.52	28751.72
745.86	28752.39
746.199	28760.76
746.538	28744.26
746.877	28803.92
747.216	28652.28
747.556	28565.05
747.895	28540.65
748.234	28453.87
748.573	28405.28
748.911	28297.04
749.25	28298.62
749.589	28290.03
749.928	28190.15
750.267	28226.08
750.605	28190.37
750.944	28038.97
751.283	28047.78
751.621	28086.42
751.96	27899.53
752.298	27979.98
752.636	27926.43
752.975	27829.48
753.313	27743.15
753.651	27777.5
753.989	27659.77
754.327	27643.27
754.666	27539.77
755.004	27493.44
755.342	27562.59
755.679	27446.67
756.017	27295.48
756.355	27278.99
756.693	27136.39
757.031	27349.49
757.368	27088.03
757.706	27093
758.044	27069.05
758.381	26971.88
758.719	27006.68
759.056	26859.56
759.394	26827.25
759.731	26643.52
760.068	26644.43
760.405	26532.79
760.743	26482.17
761.08	26516.29
761.417	26332.8
761.754	26334.38
762.091	26250.31
762.428	26158.56
762.765	25894.39
763.102	25999.47
763.438	25888.29
763.775	25798.12
764.112	25828.85
764.449	25807.61
764.785	25652.59
765.122	25493.27
765.458	25325.37
765.795	25430
766.131	25311.13
766.467	25220.51
766.804	25116.33
767.14	24997.24
767.476	24878.6
767.812	24816.9
768.148	24840.63
768.485	24729.22
768.821	24658.26
769.157	24616.01
769.492	24471.6
769.828	24483.35
770.164	24235.22
770.5	24278.84
770.836	24133.31
771.171	23994.55
771.507	24026.42
771.842	23747.55
772.178	23819.19
772.513	23743.03
772.849	23621.68
773.184	23552.3
773.519	23531.74
773.855	23394.34
774.19	23357.28
774.525	23254.46
774.86	23265.76
775.195	23057.4
775.53	23050.62
775.865	22989.16
776.2	22794.13
776.535	22726.34
776.87	22559.11
777.205	22651.31
777.539	22408.83
777.874	22484.31
778.209	22311.66
778.543	22247.93
778.878	22168.39
779.212	22074.83
779.547	21994.15
779.881	22115.28
780.215	21973.14
780.55	21896.75
780.884	21748.51
781.218	21696.31
781.552	21667.61
781.886	21563.66
782.22	21445.24
782.554	21305.58
782.888	21281.86
783.222	21087.06
783.556	21103.56
783.889	21025.37
784.223	20935.88
784.557	20793.73
784.89	20816.56
785.224	20700.85
785.557	20619.05
785.891	20581.76
786.224	20504.93
786.558	20495.44
786.891	20344.25
787.224	20268.77
787.557	20257.25
787.891	20138.61
788.224	20145.84
788.557	20151.26
788.89	20040.31
789.223	19921.89
789.556	19892.74
789.888	19740.2
790.221	19728.22
790.554	19513.09
790.887	19530.94
791.219	19591.73
791.552	19447.55
791.884	19345.41
792.217	19258.41
792.549	19175.24
792.882	19140.67
793.214	19012.76
793.546	19100.44
793.879	18955.36
794.211	18847.34
794.543	18893.44
794.875	18807.34
795.207	18916.27
795.539	18695.71
795.871	18618.2
796.203	18507.92
796.535	18458.2
796.867	18401.03
797.198	18330.52
797.53	18320.35
797.862	18243.74
798.193	18188.15
798.525	18043.07
798.856	18081.04
799.188	17906.35
799.519	17822.74
799.85	17784.77
800.182	17883.98
800.513	17909.06
800.844	17565.12
801.175	17668.84
801.506	17716.75
801.837	17605.57
802.168	17502.29
802.499	17525.8
802.83	17398.79
803.161	17377.55
803.491	17320.6
803.822	17287.61
804.153	17185.92
804.483	17043.1
804.814	16949.77
805.145	17044.68
805.475	16885.14
805.805	16936.89
806.136	16865.25
806.466	16932.37
806.796	16844.23
807.126	16681.52
807.457	16589.78
807.787	16692.6
808.117	16576.44
808.447	16464.36
808.777	16508.87
809.107	16498.93
809.436	16390.91
809.766	16456.9
810.096	16340.74
810.426	16263.23
810.755	16270.01
811.085	16222.55
811.414	16167.87
811.744	16047.64
812.073	16052.39
812.403	15966.52
812.732	15950.7
813.061	15840.87
813.39	15832.96
813.719	15854.88
814.049	15861.43
814.378	15761.32
814.707	15684.26
815.036	15675
815.365	15627.54
815.693	15485.17
816.022	15448.56
816.351	15463.93
816.68	15368.11
817.008	15415.8
817.337	15307.32
817.665	15309.81
817.994	15266.87
818.322	15265.52
818.651	15115.69
818.979	15200.66
819.307	15223.03
819.636	15176.93
819.964	15078.85
820.292	15065.97
820.62	14984.85
820.948	14996.82
821.276	15036.37
821.604	15115.01
821.932	15041.34
822.259	14980.78
822.587	14915.02
822.915	14996.6
823.243	14978.74
823.57	14909.14
823.898	14976.48
824.225	14881.8
824.553	14913.89
824.88	14892.87
825.207	14980.78
825.535	14944.62
825.862	15030.49
826.189	14894.45
826.516	14966.99
826.843	14986.65
827.17	14966.77
827.497	14841.57
827.824	14929.93
828.151	14915.7
828.478	14932.42
828.805	14970.16
829.131	14845.64
829.458	14809.26
829.785	14919.76
830.111	14806.09
830.438	14903.04
830.764	14889.26
831.09	14932.42
831.417	14745.3
831.743	14884.51
832.069	14780.78
832.395	14737.39
832.722	14811.97
833.048	14774.68
833.374	14798.86
833.7	14770.16
834.026	14752.31
834.351	14776.72
834.677	14725.42
835.003	14757.06
835.329	14714.8
835.654	14691.29
835.98	14601.81
836.306	14589.15
836.631	14608.81
836.956	14654.01
837.282	14656.27
837.607	14498.53
837.932	14506.21
838.258	14628.25
838.583	14463.5
838.908	14410.85
839.233	14419.89
839.558	14351.64
839.883	14311.42
840.208	14263.96
840.533	14295.37
840.858	14331.76
841.182	14283.85
841.507	14269.61
841.832	14263.28
842.156	14127.02
842.481	14160.69
842.805	14083.63
843.13	14084.98
843.454	14055.83
843.778	14078.66
844.103	13922.28
844.427	13837.31
844.751	13896.29
845.075	13914.37
845.399	13875.04
845.723	13774.03
846.047	13781.49
846.371	13667.59
846.695	13709.4
847.019	13618.78
847.343	13504.43
847.666	13482.06
847.99	13404.55
848.313	13496.3
848.637	13300.6
848.96	13299.92
849.284	13302.86
849.607	13187.15
849.931	13144.44
850.254	12996.88
850.577	13003.2
850.9	12869.87
851.223	12876.65
851.546	12762.08
851.869	12651.8
852.192	12789.2
852.515	12664
852.838	12627.85
853.161	12638.47
853.483	12605.02
853.806	12499.26
854.129	12467.62
854.451	12376.33
854.774	12365.93
855.096	12326.61
855.419	12361.86
855.741	12303.79
856.063	12174.98
856.385	12174.3
856.708	12209.1
857.03	12085.26
857.352	12129.1
857.674	12053.17
857.996	12005.94
858.318	11882.78
858.64	11922.33
858.961	11885.27
859.283	11767.76
859.605	11766.63
859.926	11839.39
860.248	11719.85
860.57	11705.38
860.891	11668.78
861.212	11645.05
861.534	11632.84
861.855	11573.64
862.176	11598.49
862.498	11590.81
862.819	11599.17
863.14	11507.42
863.461	11440.76
863.782	11429.69
864.103	11443.24
864.424	11437.14
864.745	11477.82
865.065	11307.2
865.386	11314.21
865.707	11356.92
866.027	11297.94
866.348	11253.42
866.668	11317.6
866.989	11349.69
867.309	11154.21
867.63	11154.44
867.95	11211.84
868.27	11124.16
868.59	11131.84
868.91	11082.12
869.23	11091.84
869.55	11151.95
869.87	11124.61
870.19	11006.19
870.51	11137.94
870.83	11077.83
871.15	11015.01
871.469	11011.84
871.789	11055.01
872.109	11005.97
872.428	11006.87
872.748	10946.08
873.067	10878.74
873.386	10977.27
873.706	10879.42
874.025	10818.63
874.344	10800.55
874.663	10805.75
874.982	10818.4
875.301	10795.13
875.62	10785.41
875.939	10665.64
876.258	10705.18
876.577	10707.9
876.896	10704.96
877.214	10668.58
877.533	10631.29
877.852	10661.34
878.17	10605.75
878.489	10621.8
878.807	10581.8
879.125	10652.53
879.444	10544.96
879.762	10546.77
880.08	10523.49
880.398	10473.78
880.716	10523.04
881.034	10451.41
881.352	10415.25
881.67	10384.06
881.988	10384.74
882.306	10286.44
882.624	10259.32
882.941	10251.19
883.259	10247.57
883.577	10205.31
883.894	10225.88
884.212	10234.46
884.529	10218.87
884.846	10171.87
885.164	10092.09
885.481	10124.63
885.798	10127.35
886.115	10075.6
886.432	10073.56
886.75	10074.24
887.067	10059.33
887.383	10038.08
887.7	9960.35
888.017	9914.24
888.334	9974.81
888.651	9895.26
888.967	9902.95
889.284	9834.47
889.6	9815.49
889.917	9742.5
890.233	9694.82
890.55	9680.13
890.866	9777.07
891.182	9642.84
891.498	9648.72
891.815	9565.33
892.131	9570.07
892.447	9554.48
892.763	9575.72
893.079	9544.54
893.395	9471.54
893.71	9458.21
894.026	9397.42
894.342	9385.9
894.657	9321.94
894.973	9371.21
895.289	9340.02
895.604	9275.84
895.92	9260.02
896.235	9201.95
896.55	9135.96
896.865	9156.98
897.181	9126.24
897.496	9090.31
897.811	9043.76
898.126	9025.45
898.441	8985
898.756	8932.12
899.071	8923.31
899.386	8957.89
899.7	8821.62
900.015	8790.66
900.33	8745.91
900.644	8745.24
900.959	8798.79
901.273	8709.3
901.588	8670.44
901.902	8678.35
902.216	8678.57
902.531	8583.43
902.845	8589.76
903.159	8546.6
903.473	8527.61
903.787	8442.87
904.101	8459.37
904.415	8363.78
904.729	8392.03
905.042	8328.98
905.356	8290.56
905.67	8269.77
905.984	8293.27
906.297	8301.86
906.611	8103.67
906.924	8176.44
907.237	8150.9
907.551	8079.04
907.864	7999.95
908.177	8004.01
908.491	8026.84
908.804	7959.49
909.117	7920.85
909.43	7855.54
909.743	7896.9
910.056	7816.45
910.368	7837.01
910.681	7781.65
910.994	7726.96
911.307	7719.5
911.619	7635.43
911.932	7636.79
912.244	7567.41
912.557	7612.38
912.869	7580.07
913.181	7560.63
913.494	7584.36
913.806	7474.99
914.118	7424.59
914.43	7408.1
914.742	7327.65
915.054	7342.79
915.366	7327.19
915.678	7310.92
915.99	7275.44
916.302	7236.58
916.613	7220.08
916.925	7139.4
917.236	7140.76
917.548	7107.77
917.859	7140.31
918.171	7036.35
918.482	7047.43
918.794	7001.78
919.105	7015.79
919.416	6918.39
919.727	6908.22
920.038	6908.45
920.349	6839.3
920.66	6810.15
920.971	6775.12
921.282	6816.7
921.593	6757.94
921.903	6726.76
922.214	6663.03
922.525	6624.61
922.835	6629.13
923.146	6566.08
923.456	6532.86
923.767	6490.38
924.077	6521.57
924.387	6494.67
924.697	6455.13
925.008	6391.4
925.318	6382.13
925.628	6404.73
925.938	6364.51
926.248	6306.66
926.558	6238.64
926.867	6254.23
927.177	6235.47
927.487	6214.68
927.796	6139.2
928.106	6106.66
928.416	6142.59
928.725	6117.51
929.034	6065.53
929.344	6104.85
929.653	6042.48
929.962	5979.43
930.271	5961.13
930.581	5981.92
930.89	5899.89
931.199	5885.88
931.508	5830.96
931.817	5858.53
932.125	5826.89
932.434	5809.49
932.743	5726.78
933.051	5704.86
933.36	5712.77
933.669	5663.28
933.977	5656.73
934.286	5640.23
934.594	5683.4
934.902	5579.67
935.21	5567.24
935.519	5542.61
935.827	5502.84
936.135	5524.76
936.443	5513.68
936.751	5421.71
937.059	5448.15
937.367	5396.17
937.674	5419.67
937.982	5391.43
938.29	5317.98
938.597	5296.06
938.905	5291.09
939.213	5283.41
939.52	5241.83
939.827	5218.55
940.135	5219.45
940.442	5161.83
940.749	5117.08
941.056	5115.73
941.363	5140.13
941.67	5115.28
941.977	5063.75
942.284	5046.58
942.591	4991.66
942.898	5030.53
943.205	5014.71
943.511	4972.45
943.818	4954.38
944.125	4898.56
944.431	4926.81
944.738	4866.69
945.044	4866.02
945.35	4820.14
945.657	4830.76
945.963	4831.89
946.269	4744.44
946.575	4735.62
946.881	4727.49
947.187	4697.43
947.493	4689.07
947.799	4680.03
948.105	4655.85
948.41	4643.65
948.716	4604.33
949.022	4627.38
949.327	4631.67
949.633	4574.27
949.938	4498.79
950.244	4538.12
950.549	4534.05
950.854	4493.6
951.16	4473.71
951.465	4479.59
951.77	4420.83
952.075	4381.96
952.38	4357.33
952.685	4369.08
952.99	4300.83
953.294	4288.63
953.599	4332.24
953.904	4295.64
954.209	4280.27
954.513	4268.52
954.818	4200.72
955.122	4247.95
955.426	4175.64
955.731	4153.27
956.035	4131.35
956.339	4142.19
956.643	4157.11
956.948	4100.84
957.252	4108.52
957.556	4057.68
957.86	4083.89
958.163	4007.96
958.467	4025.36
958.771	4005.02
959.075	4031.01
959.378	3928.87
959.682	3909.88
959.985	3962.09
960.289	3908.08
960.592	3899.04
960.896	3892.26
961.199	3850.9
961.502	3815.2
961.805	3826.27
962.108	3819.49
962.411	3784.91
962.714	3788.98
963.017	3718.93
963.32	3796.89
963.623	3746.27
963.926	3715.54
964.228	3719.38
964.531	3678.48
964.833	3706.95
965.136	3622.88
965.438	3605.71
965.741	3629.44
966.043	3595.77
966.345	3578.14
966.648	3582.66
966.95	3513.28
967.252	3530.91
967.554	3552.38
967.856	3493.17
968.158	3480.97
968.46	3481.19
968.761	3480.06
969.063	3436.9
969.365	3402.33
969.666	3430.35
969.968	3377.02
970.269	3397.81
970.571	3395.09
970.872	3329.56
971.174	3322.55
971.475	3364.59
971.776	3326.4
972.077	3328.88
972.378	3281.65
972.679	3280.52
972.98	3266.51
973.281	3247.3
973.582	3288.88
973.883	3215.21
974.183	3238.49
974.484	3191.71
974.785	3131.15
975.085	3165.5
975.386	3129.11
975.686	3151.03
975.986	3125.72
976.287	3124.59
976.587	3088.66
976.887	3061.32
977.187	3067.19
977.487	3086.18
977.787	3092.73
978.087	3010.47
978.387	3011.6
978.687	3045.95
978.987	2995.1
979.286	2956.69
979.586	2920.76
979.885	2958.27
980.185	2923.24
980.484	2912.85
980.784	2934.99
981.083	2889.57
981.382	2890.47
981.682	2898.38
981.981	2877.59
982.28	2833.98
982.579	2828.1
982.878	2840.76
983.177	2833.08
983.475	2810.7
983.774	2810.48
984.073	2758.27
984.372	2740.65
984.67	2732.06
984.969	2741.33
985.267	2732.51
985.566	2724.15
985.864	2687.77
986.162	2712.4
986.461	2679.63
986.759	2629.24
987.057	2600.99
987.355	2608.67
987.653	2625.85
987.951	2588.34
988.249	2593.08
988.547	2580.65
988.844	2580.88
989.142	2595.12
989.44	2539.98
989.737	2528
990.035	2543.59
990.332	2529.81
990.63	2475.8
990.927	2488.68
991.224	2450.49
991.521	2487.1
991.819	2473.31
992.116	2468.57
992.413	2417.04
992.71	2436.48
993.006	2408.91
993.303	2434.67
993.6	2394.89
993.897	2382.92
994.193	2373.65
994.49	2370.71
994.787	2365.97
995.083	2363.03
995.379	2302.69
995.676	2305.86
995.972	2317.38
996.268	2294.78
996.565	2286.2
996.861	2236.25
997.157	2278.74
997.453	2242.58
997.749	2232.64
998.044	2193.09
998.34	2213.88
998.636	2207.55
998.932	2212.98
999.227	2176.6
999.523	2163.26
999.818	2148.35
1000.114	2149.7
1000.409	2165.3
1000.704	2161
1001	2105.64
1001.295	2133.21
1001.59	2112.87
1001.885	2096.6
1002.18	2075.58
1002.475	2074.68
1002.77	2047.33
1003.065	2036.49
1003.359	2024.73
1003.654	2020.67
1003.949	2014.79
1004.243	2015.02
1004.538	1988.13
1004.832	1988.13
1005.127	1929.82
1005.421	1971.63
1005.715	1938.41
1006.009	1953.1
1006.304	1958.97
1006.598	1918.52
1006.892	1909.03
1007.186	1865.87
1007.48	1893.21
1007.773	1859.09
1008.067	1834.91
1008.361	1878.52
1008.655	1829.03
1008.948	1843.5
1009.242	1826.55
1009.535	1797.4
1009.829	1783.84
1010.122	1796.72
1010.415	1769.6
1010.708	1744.97
1011.001	1757.85
1011.295	1737.06
1011.588	1744.52
1011.881	1719.66
1012.173	1735.7
1012.466	1696.16
1012.759	1680.56
1013.052	1701.35
1013.344	1707.46
1013.637	1682.37
1013.93	1653.9
1014.222	1655.48
1014.514	1632.43
1014.807	1650.06
1015.099	1637.85
1015.391	1605.99
1015.683	1607.8
1015.976	1584.29
1016.268	1586.55
1016.56	1577.97
1016.851	1558.31
1017.143	1562.6
1017.435	1552.2
1017.727	1512.43
1018.018	1510.17
1018.31	1518.08
1018.602	1485.31
1018.893	1502.94
1019.185	1464.3
1019.476	1474.92
1019.767	1479.44
1020.058	1481.7
1020.35	1454.58
1020.641	1427.01
1020.932	1430.85
1021.223	1435.82
1021.514	1403.06
1021.804	1388.37
1022.095	1389.27
1022.386	1378.88
1022.677	1387.69
1022.967	1368.25
1023.258	1357.63
1023.548	1347.92
1023.839	1363.28
1024.129	1324.64
1024.419	1341.59
1024.709	1307.92
1025	1290.06
1025.29	1290.52
1025.58	1274.25
1025.87	1281.48
1026.16	1242.61
1026.449	1231.99
1026.739	1252.55
1027.029	1236.28
1027.319	1245.55
1027.608	1231.08
1027.898	1238.99
1028.187	1219.11
1028.477	1226.79
1028.766	1210.29
1029.055	1196.73
1029.344	1191.31
1029.634	1203.29
1029.923	1187.92
1030.212	1176.17
1030.501	1187.92
1030.79	1143.18
1031.078	1161.93
1031.367	1154.25
1031.656	1123.29
1031.945	1116.28
1032.233	1109.28
1032.522	1112.44
1032.81	1104.08
1033.099	1083.52
1033.387	1081.71
1033.675	1089.39
1033.963	1067.47
1034.251	1076.74
1034.54	1073.8
1034.828	1032.22
1035.116	1027.25
1035.403	1037.19
1035.691	1048.94
1035.979	1035.83
1036.267	1025.89
1036.554	1034.48
1036.842	1011.65
1037.129	1023.41
1037.417	1000.13
1037.704	976.17
1037.992	976.85
1038.279	997.19
1038.566	951.77
1038.853	951.77
1039.14	951.77
