Data from hue_300_FLMS001491_00027.txt Node
Date: Tue Feb 07 15:50:31 GMT 2017
User: dcchb
Spectrometer: FLMS00149
Trigger mode: 0
Integration Time (sec): 2.000000E-2
Scans to average: 10
Electric dark correction enabled: true
Nonlinearity correction enabled: false
Boxcar width: 0
XAxis mode: Wavelengths
Number of Pixels in Spectrum: 2048
>>>>>Begin Spectral Data<<<<<
341.393	-8.16
341.776	-8.16
342.16	-8.16
342.543	-61.95
342.927	-59.91
343.31	-68.95
343.693	-54.04
344.077	-49.52
344.46	-51.78
344.843	-61.95
345.226	-45.9
345.61	-23.08
345.993	-29.18
346.376	-15.62
346.759	-5.9
347.142	8.79
347.525	54.66
347.908	57.82
348.291	71.38
348.674	93.75
349.057	119.52
349.44	116.58
349.823	115.67
350.206	152.74
350.588	184.83
350.971	199.29
351.354	217.59
351.737	248.78
352.119	246.52
352.502	251.72
352.884	249
353.267	284.48
353.65	291.04
354.032	307.08
354.414	306.18
354.797	298.72
355.179	300.98
355.562	305.5
355.944	331.94
356.326	338.49
356.709	325.61
357.091	330.58
357.473	330.13
357.855	341.66
358.238	343.24
358.62	344.6
359.002	352.5
359.384	343.47
359.766	326.97
360.148	328.78
360.53	349.12
360.912	337.36
361.294	349.12
361.676	327.19
362.057	342.56
362.439	331.94
362.821	309.12
363.203	319.51
363.584	317.03
363.966	318.83
364.348	322.9
364.729	333.07
365.111	315.22
365.493	321.32
365.874	351.83
366.256	317.93
366.637	319.51
367.019	300.53
367.4	310.02
367.781	316.12
368.163	325.39
368.544	324.26
368.925	322
369.306	328.55
369.688	296.91
370.069	303.92
370.45	319.74
370.831	312.73
371.212	318.61
371.593	339.85
371.974	303.69
372.355	321.55
372.736	316.12
373.117	303.01
373.498	319.06
373.879	308.44
374.26	319.74
374.641	329.45
375.021	324.93
375.402	309.34
375.783	326.06
376.163	343.24
376.544	301.43
376.925	316.12
377.305	322.68
377.686	328.1
378.066	318.83
378.447	318.61
378.827	339.17
379.208	323.58
379.588	320.19
379.968	342.34
380.349	327.19
380.729	330.58
381.109	323.35
381.489	349.57
381.87	330.13
382.25	358.83
382.63	350.7
383.01	347.99
383.39	323.35
383.77	324.93
384.15	334.65
384.53	317.93
384.91	366.74
385.29	341.66
385.67	328.32
386.049	360.64
386.429	360.64
386.809	340.3
387.189	367.19
387.568	360.41
387.948	371.26
388.328	346.18
388.707	372.84
389.087	356.57
389.466	362
389.846	374.88
390.225	366.52
390.605	376.69
390.984	361.32
391.363	362.67
391.743	361.77
392.122	379.62
392.501	369.45
392.881	360.64
393.26	376.69
393.639	377.59
394.018	391.37
394.397	406.97
394.776	393.63
395.155	384.37
395.534	385.72
395.913	369
396.292	385.27
396.671	395.67
397.05	403.35
397.429	417.36
397.808	399.96
398.186	415.55
398.565	396.35
398.944	394.76
399.323	403.58
399.701	420.98
400.08	395.44
400.458	384.82
400.837	429.79
401.215	404.71
401.594	419.62
401.972	404.93
402.351	434.76
402.729	435.21
403.107	428.66
403.486	411.94
403.864	455.55
404.242	432.73
404.62	447.87
404.999	427.98
405.377	459.62
405.755	454.65
406.133	457.13
406.511	464.14
406.889	472.05
407.267	437.25
407.645	482.9
408.023	475.21
408.401	497.36
408.779	480.64
409.156	486.96
409.534	497.81
409.912	513.86
410.29	515.66
410.667	531.26
411.045	532.16
411.422	543.01
411.8	499.62
412.178	544.59
412.555	568.09
412.933	566.96
413.31	585.27
413.687	571.93
414.065	566.28
414.442	591.37
414.819	575.78
415.197	613.06
415.574	609.67
415.951	610.35
416.328	635.89
416.705	616.45
417.082	666.17
417.46	655.77
417.837	677.02
418.214	663.68
418.591	694.87
418.967	692.38
419.344	693.06
419.721	719.73
420.098	706.39
420.475	740.52
420.852	754.53
421.228	750.69
421.605	750.23
421.982	737.81
422.358	765.83
422.735	799.27
423.111	800.63
423.488	801.98
423.864	795.21
424.241	809.67
424.617	819.16
424.994	812.15
425.37	831.36
425.746	821.19
426.123	845.15
426.499	857.12
426.875	860.29
427.251	902.09
427.627	903.45
428.003	901.19
428.379	917.91
428.756	909.78
429.132	941.87
429.507	924.24
429.883	968.76
430.259	973.05
430.635	992.26
431.011	979.61
431.387	1005.6
431.763	1022.32
432.138	1031.36
432.514	1027.29
432.89	1031.81
433.265	1050.57
433.641	1085.14
434.016	1066.84
434.392	1106.84
434.767	1122.65
435.143	1100.28
435.518	1131.69
435.894	1139.15
436.269	1159.49
436.644	1159.26
437.02	1187.74
437.395	1216.66
437.77	1213.5
438.145	1228.64
438.52	1208.98
438.895	1238.58
439.271	1229.32
439.646	1261.86
440.021	1286.04
440.395	1247.62
440.77	1263.22
441.145	1268.64
441.52	1289.66
441.895	1302.08
442.27	1309.54
442.645	1302.31
443.019	1306.6
443.394	1324.68
443.769	1331.01
444.143	1333.95
444.518	1336.43
444.892	1328.3
445.267	1349.31
445.641	1354.29
446.016	1335.08
446.39	1377.79
446.764	1373.95
447.139	1372.82
447.513	1384.57
447.887	1372.59
448.262	1376.66
448.636	1381.4
449.01	1412.82
449.384	1418.92
449.758	1402.87
450.132	1411.46
450.506	1401.29
450.88	1432.7
451.254	1411.01
451.628	1419.82
452.002	1480.84
452.376	1458.69
452.75	1469.76
453.123	1483.77
453.497	1490.55
453.871	1530.55
454.244	1512.7
454.618	1503.66
454.992	1503.89
455.365	1541.4
455.739	1559.25
456.112	1547.95
456.486	1568.52
456.859	1571.46
457.232	1613.49
457.606	1620.95
457.979	1579.82
458.352	1612.58
458.725	1664.56
459.099	1622.08
459.472	1687.16
459.845	1663.66
460.218	1697.33
460.591	1699.14
460.964	1700.49
461.337	1708.63
461.71	1758.34
462.083	1778.23
462.456	1737.78
462.829	1770.77
463.201	1795.18
463.574	1825.69
463.947	1803.77
464.32	1830.66
464.692	1849.87
465.065	1869.75
465.438	1869.3
465.81	1872.92
466.183	1852.8
466.555	1915.85
466.928	1916.98
467.3	1920.6
467.672	1925.8
468.045	1981.39
468.417	1999.69
468.789	1952.69
469.161	2016.87
469.534	2011.67
469.906	2042.86
470.278	2063.19
470.65	2078.34
471.022	2092.35
471.394	2115.85
471.766	2134.38
472.138	2157.2
472.51	2170.99
472.882	2213.47
473.253	2208.73
473.625	2252.34
473.997	2262.51
474.369	2302.96
474.74	2295.5
475.112	2348.61
475.484	2345.67
475.855	2353.81
476.227	2382.06
476.598	2446.91
476.97	2461.15
477.341	2439
477.713	2506.8
478.084	2481.94
478.455	2552.9
478.827	2536.63
479.198	2617.98
479.569	2611.2
479.94	2671.09
480.311	2686.68
480.682	2686
481.053	2720.35
481.424	2766.45
481.795	2796.28
482.166	2834.02
482.537	2835.38
482.908	2905.88
483.279	2905.88
483.65	2923.06
484.021	2991.08
484.391	2977.52
484.762	3023.62
485.133	3003.51
485.503	3034.02
485.874	3055.48
486.244	3115.37
486.615	3152.88
486.985	3177.29
487.356	3222.03
487.726	3263.16
488.097	3295.03
488.467	3263.16
488.837	3328.92
489.207	3383.39
489.578	3371.41
489.948	3413.67
490.318	3441.46
490.688	3423.84
491.058	3493.89
491.428	3531.18
491.798	3519.43
492.168	3563.49
492.538	3587.9
492.908	3646.2
493.278	3670.61
493.648	3660.44
494.017	3702.7
494.387	3700.89
494.757	3752.64
495.126	3742.92
495.496	3764.84
495.866	3728.69
496.235	3829.25
496.605	3836.26
496.974	3817.5
497.344	3874.45
497.713	3864.95
498.082	3955.8
498.452	3938.63
498.821	3935.69
499.19	3948.12
499.559	3984.73
499.928	3976.14
500.298	3948.79
500.667	4028.57
501.036	4030.83
501.405	4055.01
501.774	4022.69
502.143	4067.66
502.512	4069.02
502.88	4112.41
503.249	4113.31
503.618	4129.81
503.987	4139.52
504.356	4158.51
504.724	4166.64
505.093	4194.44
505.462	4199.18
505.83	4189.92
506.199	4219.97
506.567	4274.21
506.936	4272.18
507.304	4277.83
507.672	4295.9
508.041	4341.33
508.409	4305.17
508.777	4349.24
509.145	4339.74
509.514	4340.65
509.882	4426.07
510.25	4351.72
510.618	4375.9
510.986	4391.95
511.354	4450.02
511.722	4440.31
512.09	4494.77
512.458	4455
512.826	4490.48
513.193	4479.18
513.561	4502.9
513.929	4519.4
514.297	4542
514.664	4574.31
515.032	4588.33
515.4	4567.54
515.767	4595.11
516.135	4639.4
516.502	4600.75
516.869	4640.75
517.237	4642.79
517.604	4575.9
517.972	4668.78
518.339	4659.96
518.706	4691.83
519.073	4731.37
519.44	4694.31
519.808	4750.81
520.175	4704.25
520.542	4757.36
520.909	4790.35
521.276	4791.94
521.643	4793.07
522.009	4834.19
522.376	4853.63
522.743	4843.69
523.11	4925.72
523.477	4927.53
523.843	4924.59
524.21	4971.59
524.577	4994.87
524.943	4978.82
525.31	5026.96
525.676	5048.43
526.043	5064.7
526.409	5119.84
526.776	5091.59
527.142	5142.66
527.508	5142.44
527.874	5162.55
528.241	5183.56
528.607	5202.77
528.973	5272.83
529.339	5264.47
529.705	5274.41
530.071	5339.04
530.437	5344.24
530.803	5365.71
531.169	5410.22
531.535	5363.67
531.901	5404.58
532.267	5426.04
532.632	5462.43
532.998	5488.19
533.364	5564.35
533.73	5534.52
534.095	5550.56
534.461	5596.43
534.826	5635.3
535.192	5596.43
535.557	5651.35
535.923	5709.65
536.288	5698.13
536.653	5732.02
537.019	5732.7
537.384	5744.45
537.749	5770.89
538.114	5765.02
538.479	5741.97
538.845	5834.85
539.21	5793.49
539.575	5872.81
539.94	5869.65
540.305	5918.91
540.67	5933.6
541.034	5961.85
541.399	5980.38
541.764	6026.25
542.129	5994.39
542.494	6042.3
542.858	6054.05
543.223	6079.13
543.587	6127.95
543.952	6170.88
544.316	6158.45
544.681	6119.81
545.045	6191
545.41	6268.51
545.774	6282.29
546.138	6301.05
546.503	6278.9
546.867	6329.07
547.231	6317.55
547.595	6375.62
547.959	6341.05
548.324	6415.4
548.688	6422.18
549.052	6473.93
549.416	6469.86
549.779	6444.55
550.143	6546.24
550.507	6568.84
550.871	6553.7
551.235	6535.62
551.599	6582.17
551.962	6571.78
552.326	6574.49
552.689	6678.67
553.053	6633.24
553.417	6644.54
553.78	6768.83
554.143	6707.82
554.507	6747.36
554.87	6762.96
555.234	6791.88
555.597	6772.22
555.96	6862.39
556.323	6823.07
556.686	6873.46
557.05	6878.43
557.413	6972.22
557.776	6952.33
558.139	6943.07
558.502	6979.68
558.865	6960.92
559.228	6921.6
559.59	7005.21
559.953	7079.56
560.316	7090.41
560.679	7054.93
561.041	7109.84
561.404	7168.6
561.767	7220.35
562.129	7175.83
562.492	7217.64
562.854	7220.57
563.217	7201.14
563.579	7237.3
563.941	7293.79
564.304	7307.8
564.666	7338.54
565.028	7378.99
565.39	7341.25
565.753	7444.97
566.115	7461.02
566.477	7518.64
566.839	7485.42
567.201	7574.69
567.563	7512.32
567.925	7584.63
568.287	7580.56
568.648	7598.87
569.01	7674.8
569.372	7729.94
569.734	7703.72
570.095	7805.87
570.457	7854.91
570.819	7800.67
571.18	7889.03
571.542	7952.53
571.903	7927.45
572.265	7975.36
572.626	8024.62
572.987	8088.57
573.349	8122.24
573.71	8125.63
574.071	8242.24
574.432	8209.25
574.794	8370.15
575.155	8364.72
575.516	8471.16
575.877	8390.03
576.238	8510.93
576.599	8597.94
576.96	8731.27
577.32	8740.76
577.681	8834.54
578.042	8919.06
578.403	8967.65
578.763	9096.91
579.124	9172.16
579.485	9299.16
579.845	9422.77
580.206	9534.18
580.566	9644.24
580.927	9735.08
581.287	9946.38
581.648	10021.18
582.008	10173.72
582.368	10344.78
582.728	10481.05
583.089	10666.36
583.449	10817.54
583.809	10972.34
584.169	11167.81
584.529	11346.34
584.889	11665.65
585.249	11759.89
585.609	11890.05
585.969	12171.18
586.329	12297.95
586.688	12574.33
587.048	12848.45
587.408	13041.21
587.768	13231.71
588.127	13436.45
588.487	13773.85
588.846	14118.47
589.206	14275.3
589.565	14494.05
589.925	14851.33
590.284	15058.33
590.643	15345.78
591.003	15723.85
591.362	16002.71
591.721	16168.13
592.08	16579.2
592.44	16831.62
592.799	17126.3
593.158	17383.92
593.517	17703.46
593.876	18112.26
594.235	18328.3
594.593	18603.78
594.952	19032.92
595.311	19246.7
595.67	19605.11
596.029	19925.32
596.387	20283.73
596.746	20520.11
597.104	20839.2
597.463	21122.81
597.822	21465.85
598.18	21634.43
598.538	21961.2
598.897	22408.2
599.255	22476.89
599.613	23077.11
599.972	23199.59
600.33	23586.24
600.688	23836.18
601.046	24057.42
601.404	24502.83
601.762	24712.77
602.12	25117.73
602.478	25319.53
602.836	25533.31
603.194	25708.22
603.552	26100.3
603.91	26234.99
604.268	26598.82
604.625	26695.54
604.983	27011.24
605.341	27188.64
605.698	27632.47
606.056	27869.75
606.413	28034.94
606.771	28467.02
607.128	28677.18
607.485	28642.83
607.843	29008.93
608.2	29322.36
608.557	29614.33
608.914	29755.12
609.272	30142.46
609.629	30334.32
609.986	30628.32
610.343	30548.77
610.7	31101.75
611.057	31264.01
611.414	31424.46
611.771	31604.34
612.127	31829.42
612.484	32030.77
612.841	32360.02
613.198	32266.24
613.554	32606.57
613.911	32795.27
614.267	32855.83
614.624	33119.78
614.98	33226.44
615.337	33554.34
615.693	33590.5
616.05	33700.1
616.406	34067.55
616.762	34023.94
617.118	34190.49
617.475	34345.28
617.831	34677.03
618.187	34622.79
618.543	34888.09
618.899	35121.53
619.255	35137.8
619.611	35180.97
619.967	35441.75
620.323	35713.16
620.678	35616.21
621.034	35652.59
621.39	35881.06
621.746	35918.12
622.101	36270.88
622.457	36059.36
622.812	36338
623.168	36391.56
623.523	36405.57
623.879	36696.41
624.234	36459.8
624.589	36661.61
624.945	36789.06
625.3	36850.75
625.655	36927.36
626.01	37069.96
626.365	37137.98
626.72	37099.34
627.075	37236.28
627.43	37371.19
627.785	37260.23
628.14	37510.4
628.495	37261.36
628.85	37594.24
629.205	37496.61
629.559	37665.87
629.914	37584.97
630.269	37752.88
630.623	37683.5
630.978	37647.8
631.332	37825.87
631.687	37863.38
632.041	37701.58
632.396	37862.71
632.75	37732.31
633.104	37988.58
633.459	37690.73
633.813	37940.9
634.167	37849.6
634.521	38015.02
634.875	37963.72
635.229	37847.11
635.583	37788.81
635.937	37921.46
636.291	37926.66
636.645	37846.21
636.999	37935.47
637.352	38103.38
637.706	37802.14
638.06	38009.82
638.413	37974.57
638.767	37795.59
639.121	37969.37
639.474	37729.6
639.828	37854.34
640.181	37893.89
640.534	37962.36
640.888	37807.34
641.241	37561.24
641.594	37730.73
641.947	37829.71
642.301	37734.8
642.654	37855.47
643.007	37864.06
643.36	37813.89
643.713	37746.55
644.066	37893.66
644.419	37641.02
644.771	37489.61
645.124	37206.68
645.477	37137.3
645.83	36919.9
646.182	36824.77
646.535	36692.11
646.888	36756.29
647.24	36579.8
647.593	36872.67
647.945	37000.13
648.298	36673.81
648.65	36572.12
649.002	36635.84
649.355	36843.07
649.707	36726.46
650.059	36822.05
650.411	37167.81
650.763	37288.48
651.115	37609.83
651.467	37518.08
651.819	37579.77
652.171	37486.22
652.523	37465.88
652.875	37495.03
653.227	37393.56
653.578	37618.64
653.93	37633.33
654.282	37187.69
654.633	37132.55
654.985	37398.31
655.337	37435.6
655.688	37297.3
656.039	37526.22
656.391	37118.09
656.742	37215.26
657.094	37300.46
657.445	37404.41
657.796	37359.89
658.147	37276.05
658.498	37140.92
658.849	37334.13
659.2	37085.1
659.551	37205.55
659.902	37286.45
660.253	37178.43
660.604	37174.36
660.955	37157.41
661.306	37257.3
661.656	37102.27
662.007	37135.49
662.358	37228.15
662.708	37206.68
663.059	37144.08
663.409	36980.47
663.76	37253.68
664.11	37140.46
664.461	37214.59
664.811	37049.17
665.161	37151.76
665.511	37086.91
665.862	37139.79
666.212	37265.43
666.562	37086.91
666.912	37234.47
667.262	37190.86
667.612	37126
667.962	37231.76
668.312	37102.72
668.662	37191.54
669.011	37262.04
669.361	36980.47
669.711	37119.67
670.06	37111.09
670.41	36882.62
670.76	36978.43
671.109	37125.32
671.459	36977.53
671.808	36995.16
672.157	37096.4
672.507	36920.36
672.856	36897.98
673.205	36914.03
673.554	36999.45
673.904	36952.9
674.253	36980.24
674.602	36886.01
674.951	36364.67
675.3	36284.44
675.649	36769.63
675.998	36808.95
676.346	36655.73
676.695	36813.92
677.044	36715.16
677.393	36740.25
677.741	36833.35
678.09	36661.38
678.438	36593.59
678.787	36597.2
679.135	36593.36
679.484	36439.24
679.832	36446.47
680.181	36334.61
680.529	36376.87
680.877	36398.34
681.225	36194.27
681.573	36498.22
681.922	36316.08
682.27	36108.4
682.618	36116.31
682.966	36125.35
683.314	36271.33
683.661	35950.66
684.009	35773.72
684.357	35783.89
684.705	35765.13
685.053	35881.06
685.4	35695.3
685.748	35526.72
686.095	35607.85
686.443	35469.55
686.79	35304.58
687.138	35469.55
687.485	35492.6
687.832	35196.56
688.18	35491.92
688.527	35113.4
688.874	35041.08
689.221	35057.36
689.568	34922.9
689.915	34853.29
690.262	34788.21
690.609	34754.76
690.956	34633.86
691.303	34670.47
691.65	34311.39
691.997	34511.83
692.344	34280.88
692.69	34237.49
693.037	34296.02
693.383	33955.01
693.73	34215.8
694.077	34087.44
694.423	34066.65
694.769	33821.91
695.116	33848.12
695.462	33789.37
695.808	33631.4
696.155	33790.72
696.501	33465.76
696.847	33499.43
697.193	33265.76
697.539	33522.93
697.885	33028.03
698.231	33059.89
698.577	32940.8
698.923	32896.06
699.269	32837.07
699.614	32666.23
699.96	32647.25
700.306	32645.67
700.651	32449.06
700.997	32423.98
701.342	32237.77
701.688	32306.69
702.033	32261.27
702.379	32129.07
702.724	32004.78
703.069	32203.64
703.415	31759.36
703.76	31801.62
704.105	31763.2
704.45	31619.93
704.795	31519.82
705.14	31438.47
705.485	31400.73
705.83	31226.95
706.175	31317.57
706.52	31238.02
706.865	31162.99
707.209	31060.62
707.554	30904.24
707.899	31033.51
708.243	30784.02
708.588	30786.96
708.932	30547.64
709.277	30555.55
709.621	30609.34
709.966	30388.1
710.31	30434.88
710.654	30223.58
710.998	30248.67
711.342	30420.19
711.687	30225.84
712.031	29964.61
712.375	29941.56
712.719	29930.26
713.063	29941.78
713.407	29979.3
713.75	29821.33
714.094	29855.46
714.438	29750.38
714.782	29693.43
715.125	29583.6
715.469	29578.18
715.812	29431.06
716.156	29335.02
716.499	29367.34
716.843	29328.24
717.186	29072.2
717.53	29271.52
717.873	29226.32
718.216	29184.97
718.559	29128.02
718.902	28925.09
719.246	29036.5
719.589	28820.23
719.932	28797.86
720.275	28778.42
720.617	28832.43
720.96	28759.22
721.303	28719.67
721.646	28739.56
721.989	28556.74
722.331	28598.99
722.674	28609.16
723.016	28572.78
723.359	28434.7
723.701	28579.11
724.044	28323.52
724.386	28192.45
724.729	28311.32
725.071	28270.41
725.413	28226.8
725.755	28088.05
726.097	27979.58
726.439	27820.48
726.782	28016.64
727.124	28075.62
727.465	27883.76
727.807	27841.5
728.149	27789.98
728.491	27850.31
728.833	27788.62
729.175	27710.66
729.516	27659.36
729.858	27524.67
730.199	27814.16
730.541	27522.64
730.882	27453.49
731.224	27517.21
731.565	27445.8
731.906	27381.85
732.248	27465.69
732.589	27195.87
732.93	27161.29
733.271	27112.93
733.612	27291.68
733.953	27201.06
734.294	27123.78
734.635	26997.91
734.976	27076.77
735.317	26978.02
735.658	26957
735.999	26873.39
736.339	26953.39
736.68	26893.5
737.021	27006.95
737.361	26725.6
737.702	26822.32
738.042	26817.57
738.383	26615.54
738.723	26755.43
739.063	26675.43
739.404	26611.93
739.744	26510.46
740.084	26491.93
740.424	26510.91
740.764	26489.44
741.104	26598.14
741.444	26363.12
741.784	26312.95
742.124	26385.72
742.464	26373.52
742.804	26354.76
743.143	26335.78
743.483	26274.54
743.823	26232.73
744.162	26173.97
744.502	26111.6
744.841	26043.58
745.181	26187.98
745.52	26048.1
745.86	26072.28
746.199	26005.16
746.538	25956.13
746.877	26034.99
747.216	25976.69
747.556	25903.92
747.895	25896.92
748.234	25859.86
748.573	25711.39
748.911	25789.12
749.25	25793.42
749.589	25591.16
749.928	25686.98
750.267	25805.62
750.605	25604.95
750.944	25598.85
751.283	25557.72
751.621	25664.38
751.96	25439.08
752.298	25493.31
752.636	25437.04
752.975	25448.57
753.313	25245.18
753.651	25440.88
753.989	25303.49
754.327	25299.42
754.666	25128.35
755.004	25108.69
755.342	25027.79
755.679	25192.76
756.017	25042.93
756.355	25133.1
756.693	24859.43
757.031	24978.3
757.368	24824.63
757.706	24818.3
758.044	24773.78
758.381	24760
758.719	24756.61
759.056	24686.55
759.394	24655.82
759.731	24512.55
760.068	24520.46
760.405	24462.61
760.743	24393
761.08	24450.18
761.417	24374.47
761.754	24343.29
762.091	24195.27
762.428	24092.9
762.765	24067.59
763.102	24089.06
763.438	23968.83
763.775	23819.91
764.112	23874.82
764.449	23824.88
764.785	23741.04
765.122	23573.59
765.458	23511.44
765.795	23485.46
766.131	23502.86
766.467	23298.34
766.804	23277.78
767.14	23179.02
767.476	23180.15
767.812	23125.47
768.148	23107.39
768.485	22824
768.821	22842.76
769.157	22877.56
769.492	22722.09
769.828	22673.27
770.164	22534.52
770.5	22544.46
770.836	22361.19
771.171	22392.6
771.507	22247.97
771.842	22105.38
772.178	22113.06
772.513	22090.01
772.849	22019.96
773.184	22057.02
773.519	21985.16
773.855	21826.97
774.19	21766.41
774.525	21682.34
774.86	21713.98
775.195	21600.31
775.53	21468.56
775.865	21331.84
776.2	21274.21
776.535	21086.65
776.87	21144.5
777.205	20987.89
777.539	20869.03
777.874	21020.44
778.209	20684.85
778.543	20766.88
778.878	20636.27
779.212	20621.8
779.547	20562.82
779.881	20532.99
780.215	20387.23
780.55	20569.37
780.884	20365.54
781.218	20239.89
781.552	20246.67
781.886	20063.62
782.22	20037.41
782.554	19931.43
782.888	19762.16
783.222	19809.39
783.556	19702.73
783.889	19656.86
784.223	19502.06
784.557	19399.01
784.89	19474.94
785.224	19373.25
785.557	19314.04
785.891	19293.48
786.224	19238.34
786.558	19183.87
786.891	19012.58
787.224	18922.64
787.557	18763.77
787.891	18822.75
788.224	18865.69
788.557	18771.91
788.89	18649.88
789.223	18684.68
789.556	18498.02
789.888	18446.27
790.221	18282.88
790.554	18130.34
790.887	18322.65
791.219	18129.21
791.552	18044.7
791.884	18121.98
792.217	18033.17
792.549	17826.85
792.882	17842.21
793.214	17752.05
793.546	17729.9
793.879	17639.73
794.211	17509.34
794.543	17672.5
794.875	17565.84
795.207	17561.54
795.539	17558.83
795.871	17382.11
796.203	17214.21
796.535	17170.82
796.867	17192.74
797.198	17150.48
797.53	17091.5
797.862	17006.76
798.193	17030.26
798.525	16885.86
798.856	16884.27
799.188	16735.35
799.519	16731.51
799.85	16621.91
800.182	16571.29
800.513	16610.61
800.844	16418.3
801.175	16447.45
801.506	16385.53
801.837	16342.59
802.168	16358.19
802.499	16326.55
802.83	16204.52
803.161	16140.34
803.491	16128.14
803.822	16137.17
804.153	16037.52
804.483	15985.54
804.814	15847.92
805.145	15870.51
805.475	15950.29
805.805	15808.37
806.136	15861.25
806.466	15771.53
806.796	15637.3
807.126	15617.41
807.457	15455.38
807.787	15596.62
808.117	15445.67
808.447	15412.9
808.777	15508.72
809.107	15346.23
809.436	15309.17
809.766	15292.45
810.096	15164.54
810.426	15158.44
810.755	15131.78
811.085	15088.84
811.414	15177.65
811.744	15025.79
812.073	15047.26
812.403	14971.1
812.732	14857.89
813.061	14847.72
813.39	14790.32
813.719	14762.75
814.049	14813.82
814.378	14743.76
814.707	14673.26
815.036	14730.88
815.365	14512.13
815.693	14528.86
816.022	14553.49
816.351	14445.69
816.68	14378.12
817.008	14478.46
817.337	14374.74
817.665	14273.27
817.994	14276.43
818.322	14313.04
818.651	14139.49
818.979	14148.98
819.307	14230.11
819.636	14254.96
819.964	14077.57
820.292	14070.79
820.62	14052.48
820.948	14016.1
821.276	14002.32
821.604	14013.16
821.932	14014.07
822.259	14017
822.587	13923.45
822.915	14021.98
823.243	14007.97
823.57	13966.61
823.898	13948.31
824.225	13960.28
824.553	13859.49
824.88	13939.94
825.207	13994.63
825.535	13949.66
825.862	13978.81
826.189	13914.18
826.516	14020.17
826.843	14014.74
827.17	14017.23
827.497	13953.28
827.824	13932.26
828.151	13958.93
828.478	13910.79
828.805	14039.38
829.131	14028.76
829.458	13880.96
829.785	13899.95
830.111	13900.85
830.438	13955.76
830.764	13864.24
831.09	13948.98
831.417	13815.43
831.743	13873.05
832.069	13862.88
832.395	13840.96
832.722	13836.67
833.048	13735.66
833.374	13811.59
833.7	13793.06
834.026	13802.77
834.351	13771.81
834.677	13755.54
835.003	13789.21
835.329	13635.77
835.654	13746.5
835.98	13547.19
836.306	13693.4
836.631	13667.41
836.956	13636
837.282	13692.72
837.607	13621.53
837.932	13554.87
838.258	13485.04
838.583	13617.47
838.908	13495.44
839.233	13489.11
839.558	13415.44
839.883	13439.39
840.208	13328.21
840.533	13318.49
840.858	13354.42
841.182	13291.6
841.507	13364.59
841.832	13199.62
842.156	13222.22
842.481	13278.72
842.805	13199.17
843.13	13168.67
843.454	13160.98
843.778	13140.42
844.103	13069.23
844.427	13045.28
844.751	13079.63
845.075	12923.25
845.399	12925.06
845.723	12794.21
846.047	12941.33
846.371	12785.62
846.695	12788.79
847.019	12644.16
847.343	12617.49
847.666	12476.25
847.99	12510.38
848.313	12519.42
848.637	12459.76
848.96	12342.02
849.284	12316.71
849.607	12272.64
849.931	12249.59
850.254	12170.73
850.577	12127.34
850.9	12005.53
851.223	12005.08
851.546	11959.88
851.869	11887.79
852.192	11909.26
852.515	11788.59
852.838	11747.23
853.161	11754.24
853.483	11697.52
853.806	11680.57
854.129	11636.5
854.451	11692.77
854.774	11573.68
855.096	11465.43
855.419	11483.06
855.741	11543.85
856.063	11392.44
856.385	11394.7
856.708	11376.85
857.03	11291.65
857.352	11304.08
857.674	11316.51
857.996	11199.23
858.318	11210.3
858.64	11178.21
858.961	11137.08
859.283	11099.79
859.605	11066.8
859.926	11088.49
860.248	11018.89
860.57	10975.73
860.891	11010.08
861.212	10892.57
861.534	10847.82
861.855	10803.53
862.176	10865.9
862.498	10889.63
862.819	10736.41
863.14	10808.5
863.461	10773.25
863.782	10782.29
864.103	10730.99
864.424	10664.32
864.745	10715.85
865.065	10609.64
865.386	10606.02
865.707	10633.36
866.027	10656.64
866.348	10589.75
866.668	10591.11
866.989	10543.65
867.309	10559.69
867.63	10536.87
867.95	10497.55
868.27	10460.49
868.59	10421.84
868.91	10463.88
869.23	10362.64
869.55	10409.87
869.87	10452.8
870.19	10382.52
870.51	10319.47
870.83	10337.1
871.15	10335.75
871.469	10312.47
871.789	10238.8
872.109	10241.28
872.428	10158.8
872.748	10314.05
873.067	10234.28
873.386	10250.55
873.706	10216.43
874.025	10110.89
874.344	10135.98
874.663	10110.44
874.982	10093.27
875.301	10099.82
875.62	10066.83
875.939	10081.29
876.258	10055.98
876.577	10026.15
876.896	10000.39
877.214	10002.42
877.533	9961.74
877.852	9909.77
878.17	9998.58
878.489	10022.99
878.807	9898.69
879.125	9918.81
879.444	9854.18
879.762	9857.57
880.08	9789.77
880.398	9808.98
880.716	9850.56
881.034	9756.1
881.352	9774.86
881.67	9693.95
881.988	9727.17
882.306	9691.47
882.624	9637.91
882.941	9665.93
883.259	9615.09
883.577	9539.16
883.894	9590.68
884.212	9554.75
884.529	9603.56
884.846	9498.71
885.164	9446.73
885.481	9513.62
885.798	9484.24
886.115	9441.31
886.432	9398.82
886.75	9361.08
887.067	9416
887.383	9383.23
887.7	9344.13
888.017	9320.63
888.334	9298.03
888.651	9261.42
888.967	9167.64
889.284	9166.51
889.6	9170.35
889.917	9129.9
890.233	9148.66
890.55	9078.83
890.866	9106.4
891.182	9046.74
891.498	9022.33
891.815	9001.99
892.131	8982.33
892.447	8963.35
892.763	8891.04
893.079	8859.4
893.395	8857.59
893.71	8813.53
894.026	8806.97
894.342	8779.63
894.657	8715.45
894.973	8703.02
895.289	8745.28
895.604	8698.05
895.92	8587.09
896.235	8547.09
896.55	8546.87
896.865	8564.94
897.181	8490.37
897.496	8505.28
897.811	8510.48
898.126	8444.27
898.441	8397.49
898.756	8346.42
899.071	8318.62
899.386	8374.67
899.7	8257.16
900.015	8296.25
900.33	8197.27
900.644	8210.6
900.959	8197.27
901.273	8163.15
901.588	8051.74
901.902	8071.17
902.216	8050.83
902.531	7977.39
902.845	8003.6
903.159	7949.82
903.473	7983.26
903.787	7881.35
904.101	7901.91
904.415	7843.83
904.729	7827.34
905.042	7779.2
905.356	7698.53
905.67	7738.53
905.984	7807.68
906.297	7688.13
906.611	7708.92
906.924	7636.61
907.237	7600.9
907.551	7598.42
907.864	7519.32
908.177	7456.27
908.491	7496.05
908.804	7466.89
909.117	7383.96
909.43	7367.69
909.743	7418.76
910.056	7386.22
910.368	7284.75
910.681	7293.11
910.994	7186.68
911.307	7239.78
911.619	7124.98
911.932	7112.78
912.244	7101.48
912.557	7078.43
912.869	7086.34
913.181	7032.1
913.494	7010.18
913.806	6952.33
914.118	6940.35
914.43	6939.22
914.742	6842.96
915.054	6840.47
915.366	6832.56
915.678	6836.85
915.99	6757.76
916.302	6763.64
916.613	6696.52
916.925	6664.66
917.236	6692
917.548	6639.35
917.859	6623.3
918.171	6581.72
918.482	6557.99
918.794	6531.55
919.105	6511.89
919.416	6444.55
919.727	6487.26
920.038	6417.66
920.349	6401.61
920.66	6333.14
920.971	6366.81
921.282	6337.88
921.593	6310.31
921.903	6281.39
922.214	6189.64
922.525	6183.54
922.835	6129.53
923.146	6095.86
923.456	6152.35
923.767	6078
924.077	6094.5
924.387	6025.35
924.697	5968.85
925.008	5977.22
925.318	5919.36
925.628	5958.23
925.938	5928.18
926.248	5931.57
926.558	5909.42
926.867	5799.82
927.177	5805.47
927.487	5777.9
927.796	5732.93
928.106	5754.85
928.416	5695.42
928.725	5706.04
929.034	5679.82
929.344	5700.84
929.653	5642.31
929.962	5582.88
930.271	5602.99
930.581	5584.46
930.89	5522.54
931.199	5534.74
931.508	5450.45
931.817	5452.26
932.125	5468.08
932.434	5425.59
932.743	5357.8
933.051	5372.49
933.36	5321.87
933.669	5314.18
933.977	5317.8
934.286	5256.33
934.594	5284.35
934.902	5201.64
935.21	5215.88
935.519	5191.47
935.827	5174.52
936.135	5117.13
936.443	5076.45
936.751	5144.02
937.059	5124.58
937.367	5036.22
937.674	5012.95
937.982	5029.9
938.29	4993.96
938.597	5019.27
938.905	4956
939.213	4939.5
939.52	4893.4
939.827	4898.6
940.135	4880.07
940.442	4830.35
940.749	4807.53
941.056	4830.58
941.363	4762.33
941.67	4783.12
941.977	4718.72
942.284	4705.61
942.591	4706.74
942.898	4654.54
943.205	4677.14
943.511	4631.94
943.818	4634.2
944.125	4575.22
944.431	4590.13
944.738	4578.61
945.044	4550.13
945.35	4534.09
945.657	4516.69
945.963	4527.54
946.269	4440.31
946.575	4382.68
946.881	4419.06
947.187	4382.46
947.493	4428.1
947.799	4329.58
948.105	4351.27
948.41	4310.37
948.716	4349.91
949.022	4315.11
949.327	4272.4
949.633	4238.05
949.938	4251.16
950.244	4245.06
950.549	4137.72
950.854	4201.67
951.16	4167.77
951.465	4140.88
951.77	4120.32
952.075	4093.42
952.38	4072.63
952.685	4067.21
952.99	4034.44
953.294	4035.35
953.599	4025.18
953.904	3974.56
954.209	3985.18
954.513	3963.26
954.818	3965.97
955.122	3912.86
955.426	3940.66
955.731	3904.95
956.035	3897.27
956.339	3900.66
956.643	3842.36
956.948	3814.33
957.252	3801.45
957.556	3798.97
957.86	3769.82
958.163	3745.86
958.467	3760.32
958.771	3702.7
959.075	3697.5
959.378	3707.22
959.682	3688.69
959.985	3678.29
960.289	3627.9
960.592	3634.9
960.896	3593.1
961.199	3612.08
961.502	3634.23
961.805	3571.4
962.108	3521.69
962.411	3532.53
962.714	3551.29
963.017	3517.85
963.32	3529.6
963.623	3463.61
963.926	3447.79
964.228	3443.5
964.531	3422.03
964.833	3464.29
965.136	3418.41
965.438	3391.3
965.741	3366.66
966.043	3355.59
966.345	3361.24
966.648	3350.17
966.95	3332.54
967.252	3331.86
967.554	3294.12
967.856	3289.83
968.158	3266.1
968.46	3264.52
968.761	3233.79
969.063	3205.31
969.365	3210.06
969.666	3177.06
969.968	3113.34
970.269	3156.05
970.571	3178.19
970.872	3138.65
971.174	3125.31
971.475	3126.44
971.776	3071.3
972.077	3068.82
972.378	3081.47
972.679	3057.07
972.98	3071.76
973.281	3004.41
973.582	3026.78
973.883	3007.8
974.183	3020.91
974.484	2971.87
974.785	2987.24
975.085	2940.69
975.386	2952.66
975.686	2922.61
975.986	2912.66
976.287	2933.91
976.587	2842.61
976.887	2889.16
977.187	2882.38
977.487	2848.26
977.787	2837.41
978.087	2822.27
978.387	2820.69
978.687	2825.21
978.987	2761.26
979.286	2761.71
979.586	2750.86
979.885	2746.79
980.185	2749.28
980.484	2687.58
980.784	2706.12
981.083	2721.03
981.382	2707.02
981.682	2687.13
981.981	2640.58
982.28	2615.5
982.579	2662.95
982.878	2670.41
983.177	2594.71
983.475	2576.18
983.774	2567.59
984.073	2576.4
984.372	2562.39
984.67	2567.59
984.969	2544.54
985.267	2531.43
985.566	2511.54
985.864	2518.1
986.162	2494.14
986.461	2478.1
986.759	2486.46
987.057	2475.39
987.355	2437.42
987.653	2439.46
987.951	2429.29
988.249	2414.37
988.547	2399.91
988.844	2397.42
989.142	2392
989.44	2346.58
989.737	2349.74
990.035	2347.03
990.332	2354.03
990.63	2293.92
990.927	2335.96
991.224	2299.12
991.521	2304.32
991.819	2303.87
992.116	2272
992.413	2253.25
992.71	2268.61
993.006	2251.66
993.303	2216.41
993.6	2233.36
993.897	2207.82
994.193	2204.66
994.49	2180.25
994.787	2187.94
995.083	2178.22
995.379	2170.08
995.676	2174.6
995.972	2163.98
996.268	2140.25
996.565	2112.23
996.861	2086.02
997.157	2090.09
997.453	2098.22
997.749	2076.98
998.044	2083.98
998.34	2056.41
998.636	2063.65
998.932	2019.81
999.227	2057.32
999.523	2033.82
999.818	1993.37
1000.114	2007.6
1000.409	2007.15
1000.704	1959.69
1001	1973.03
1001.295	1952.91
1001.59	1944.1
1001.885	1949.53
1002.18	1903.42
1002.475	1920.6
1002.77	1921.28
1003.065	1881.5
1003.359	1916.53
1003.654	1872.01
1003.949	1827.27
1004.243	1818.23
1004.538	1839.7
1004.832	1828.4
1005.127	1852.8
1005.421	1805.57
1005.715	1790.66
1006.009	1764.9
1006.304	1784.11
1006.598	1812.35
1006.892	1771.22
1007.186	1739.36
1007.48	1764.67
1007.773	1752.69
1008.067	1719.47
1008.361	1694.84
1008.655	1716.31
1008.948	1701.62
1009.242	1705.92
1009.535	1656.65
1009.829	1639.7
1010.122	1651
1010.415	1655.52
1010.708	1651.68
1011.001	1622.75
1011.295	1615.97
1011.588	1607.84
1011.881	1583.88
1012.173	1578.46
1012.466	1605.58
1012.759	1568.52
1013.052	1558.8
1013.344	1559.7
1013.637	1515.41
1013.93	1562.19
1014.222	1542.98
1014.514	1538.01
1014.807	1530.55
1015.099	1518.35
1015.391	1502.98
1015.683	1490.78
1015.976	1470.22
1016.268	1461.18
1016.56	1473.15
1016.851	1435.19
1017.143	1457.79
1017.435	1439.26
1017.727	1427.5
1018.018	1448.97
1018.31	1406.94
1018.602	1386.6
1018.893	1389.31
1019.185	1394.74
1019.476	1386.83
1019.767	1361.52
1020.058	1353.38
1020.35	1353.38
1020.641	1341.41
1020.932	1352.25
1021.223	1325.13
1021.514	1319.94
1021.804	1290.56
1022.095	1277.68
1022.386	1279.26
1022.677	1279.71
1022.967	1275.42
1023.258	1249.43
1023.548	1254.85
1023.839	1249.66
1024.129	1253.72
1024.419	1215.98
1024.709	1225.48
1025	1222.31
1025.29	1203.1
1025.58	1190.45
1025.87	1192.48
1026.16	1176.66
1026.449	1183.44
1026.739	1168.3
1027.029	1163.11
1027.319	1154.52
1027.608	1157.68
1027.898	1118.36
1028.187	1141.41
1028.477	1122.2
1028.766	1132.15
1029.055	1102.32
1029.344	1098.7
1029.634	1081.98
1029.923	1082.43
1030.212	1077.01
1030.501	1087.17
1030.79	1071.13
1031.078	1049.21
1031.367	1044.69
1031.656	1060.06
1031.945	1041.07
1032.233	1021.87
1032.522	1025.26
1032.81	1013.96
1033.099	1043.79
1033.387	1026.39
1033.675	988.42
1033.963	990.91
1034.251	1001.53
1034.54	979.38
1034.828	995.88
1035.116	973.73
1035.403	976.9
1035.691	965.37
1035.979	973.96
1036.267	965.37
1036.554	953.62
1036.842	944.81
1037.129	925.15
1037.417	898.71
1037.704	923.34
1037.992	925.37
1038.279	886.73
1038.566	915.43
1038.853	915.43
1039.14	915.43
