Data from hue_60_FLMS001491_68.txt Node
Date: Mon Feb 06 15:17:44 GMT 2017
User: dcchb
Spectrometer: FLMS00149
Trigger mode: 0
Integration Time (sec): 2.000000E-2
Scans to average: 10
Electric dark correction enabled: true
Nonlinearity correction enabled: false
Boxcar width: 0
XAxis mode: Wavelengths
Number of Pixels in Spectrum: 2048
>>>>>Begin Spectral Data<<<<<
341.393	-5.83
341.776	-5.83
342.16	-5.83
342.543	-57.58
342.927	-69.11
343.31	-72.5
343.693	-73.63
344.077	-57.81
344.46	-70.69
344.843	-49
345.226	-43.8
345.61	-27.3
345.993	-42.22
346.376	-15.1
346.759	7.73
347.142	32.81
347.525	48.4
347.908	55.18
348.291	62.19
348.674	113.71
349.057	132.02
349.44	133.6
349.823	128.4
350.206	155.29
350.588	217.21
350.971	208.4
351.354	220.6
351.737	231.67
352.119	241.84
352.502	234.84
352.884	284.55
353.267	293.82
353.65	305.35
354.032	276.42
354.414	306.7
354.797	313.71
355.179	317.77
355.562	309.86
355.944	321.84
356.326	322.07
356.709	338.79
357.091	341.28
357.473	341.95
357.855	363.2
358.238	333.14
358.62	352.58
359.002	350.54
359.384	346.02
359.766	332.69
360.148	337.89
360.53	339.69
360.912	352.12
361.294	336.53
361.676	341.5
362.057	322.97
362.439	325.23
362.821	337.66
363.203	312.8
363.584	316.87
363.966	349.19
364.348	324.78
364.729	324.1
365.111	312.58
365.493	322.52
365.874	308.96
366.256	313.03
366.637	310.32
367.019	335.4
367.4	319.81
367.781	310.99
368.163	313.03
368.544	294.5
368.925	306.25
369.306	323.88
369.688	333.82
370.069	327.04
370.45	317.32
370.831	318.45
371.212	317.77
371.593	299.7
371.974	314.61
372.355	306.93
372.736	309.64
373.117	333.37
373.498	318.45
373.879	318.9
374.26	308.73
374.641	304.89
375.021	319.81
375.402	320.49
375.783	339.24
376.163	335.4
376.544	332.24
376.925	314.84
377.305	312.35
377.686	318.9
378.066	318.9
378.447	347.38
378.827	318.68
379.208	328.4
379.588	329.07
379.968	324.78
380.349	330.88
380.729	317.1
381.109	314.38
381.489	347.6
381.87	320.49
382.25	318.23
382.63	334.04
383.01	346.93
383.39	335.63
383.77	341.05
384.15	330.2
384.53	343.08
384.91	334.27
385.29	334.72
385.67	333.37
386.049	361.61
386.429	341.95
386.809	347.15
387.189	348.96
387.568	346.02
387.948	351.67
388.328	330.43
388.707	332.24
389.087	341.28
389.466	331.56
389.846	357.77
390.225	354.84
390.605	360.71
390.984	355.51
391.363	360.26
391.743	339.47
392.122	352.58
392.501	365
392.881	358.45
393.26	363.2
393.639	380.82
394.018	354.84
394.397	357.55
394.776	376.76
395.155	348.51
395.534	357.32
395.913	360.94
396.292	371.78
396.671	368.17
397.05	385.57
397.429	360.94
397.808	398.68
398.186	376.53
398.565	391.22
398.944	377.43
399.323	392.12
399.701	378.11
400.08	380.37
400.458	382.86
400.837	381.95
401.215	389.86
401.594	368.85
401.972	392.57
402.351	389.41
402.729	381.5
403.107	387.15
403.486	384.44
403.864	383.31
404.242	387.15
404.62	396.87
404.999	408.85
405.377	389.18
405.755	383.99
406.133	410.88
406.511	422.86
406.889	399.35
407.267	403.42
407.645	428.51
408.023	417.43
408.401	405.46
408.779	423.08
409.156	423.99
409.534	415.62
409.912	412.01
410.29	429.41
410.667	426.47
411.045	440.48
411.422	444.55
411.8	428.28
412.178	447.71
412.555	445.45
412.933	440.71
413.31	453.36
413.687	466.92
414.065	456.08
414.442	475.51
414.819	456.53
415.197	471.22
415.574	468.73
415.951	467.37
416.328	476.64
416.705	458.34
417.082	463.53
417.46	459.24
417.837	470.54
418.214	474.15
418.591	492.91
418.967	487.49
419.344	492.91
419.721	501.72
420.098	506.47
420.475	481.16
420.852	497.43
421.228	501.72
421.605	506.24
421.982	501.27
422.358	507.37
422.735	525.45
423.111	501.05
423.488	525.68
423.864	531.78
424.241	529.52
424.617	529.52
424.994	522.29
425.37	542.85
425.746	547.82
426.123	558.45
426.499	533.36
426.875	533.81
427.251	566.81
427.627	541.95
428.003	567.26
428.379	555.73
428.756	561.16
429.132	565.9
429.507	566.36
429.883	565.45
430.259	572.68
430.635	571.78
431.011	579.91
431.387	594.38
431.763	613.36
432.138	598.22
432.514	588.28
432.89	596.64
433.265	629.86
433.641	624.66
434.016	629.18
434.392	638.44
434.767	647.03
435.143	630.76
435.518	627.82
435.894	661.04
436.269	670.53
436.644	659.91
437.02	653.13
437.395	643.87
437.77	662.17
438.145	682.06
438.52	666.92
438.895	676.86
439.271	668.73
439.646	666.47
440.021	676.41
440.395	713.7
440.77	692.91
441.145	702.17
441.52	713.92
441.895	712.79
442.27	720.7
442.645	693.13
443.019	720.48
443.394	720.93
443.769	742.17
444.143	734.71
444.518	747.82
444.892	736.07
445.267	750.76
445.641	745.56
446.016	741.04
446.39	769.06
446.764	745.11
447.139	768.38
447.513	770.19
447.887	770.42
448.262	768.61
448.636	780.13
449.01	783.75
449.384	792.56
449.758	798.67
450.132	798.44
450.506	817.42
450.88	802.51
451.254	799.34
451.628	793.24
452.002	813.58
452.376	824.88
452.75	825.33
453.123	841.6
453.497	843.86
453.871	848.61
454.244	862.62
454.618	898.55
454.992	895.61
455.365	875.5
455.739	903.07
456.112	898.78
456.486	902.62
456.859	930.41
457.232	955.05
457.606	953.92
457.979	934.03
458.352	972.67
458.725	970.64
459.099	990.75
459.472	991.43
459.845	988.49
460.218	991.65
460.591	1014.7
460.964	1027.13
461.337	1035.27
461.71	1065.1
462.083	1056.29
462.456	1076.62
462.829	1088.6
463.201	1087.7
463.574	1104.65
463.947	1110.3
464.32	1154.59
464.692	1150.97
465.065	1166.11
465.438	1176.06
465.81	1211.76
466.183	1224.19
466.555	1250.86
466.928	1263.96
467.3	1264.19
467.672	1275.49
468.045	1305.32
468.417	1322.72
468.789	1332.44
469.161	1368.14
469.534	1381.25
469.906	1468.48
470.278	1422.38
470.65	1426.9
471.022	1455.6
471.394	1500.12
471.766	1513.45
472.138	1562.71
472.51	1604.29
472.882	1617.63
473.253	1669.15
473.625	1689.04
473.997	1735.59
474.369	1763.16
474.74	1816.04
475.112	1846.32
475.484	1919.54
475.855	1950.27
476.227	1971.52
476.598	2037.95
476.97	2061.23
477.341	2134.9
477.713	2180.78
478.084	2268.68
478.455	2311.62
478.827	2355.01
479.198	2428.45
479.569	2507.77
479.94	2581.22
480.311	2641.55
480.682	2723.13
481.053	2815.79
481.424	2931.49
481.795	2969.91
482.166	3042.45
482.537	3143.69
482.908	3291.48
483.279	3325.38
483.65	3449.22
484.021	3539.61
484.391	3631.81
484.762	3731.24
485.133	3827.29
485.503	3930.79
485.874	4060.27
486.244	4132.14
486.615	4306.14
486.985	4376.88
487.356	4545.91
487.726	4608.06
488.097	4814.83
488.467	4868.16
488.837	5032.68
489.207	5163.52
489.578	5339.11
489.948	5451.88
490.318	5533
490.688	5667.69
491.058	5885.99
491.428	6025.87
491.798	6103.61
492.168	6319.2
492.538	6488.23
492.908	6609.36
493.278	6789.02
493.648	6870.82
494.017	7005.28
494.387	7141.1
494.757	7340.41
495.126	7532.5
495.496	7650.46
495.866	7722.1
496.235	7910.12
496.605	8103.11
496.974	8214.97
497.344	8397.56
497.713	8485.47
498.082	8649.31
498.452	8822.86
498.821	8891.33
499.19	9103.08
499.559	9245.45
499.928	9402.73
500.298	9529.28
500.667	9740.13
501.036	9803.4
501.405	9964.07
501.774	10035.48
502.143	10205.2
502.512	10305.53
502.88	10486.32
503.249	10600.44
503.618	10769.7
503.987	10847.21
504.356	11065.06
504.724	11236.81
505.093	11265.28
505.462	11434.32
505.83	11613.52
506.199	11686.29
506.567	11965.15
506.936	11992.27
507.304	12168.54
507.672	12260.74
508.041	12429.09
508.409	12570.33
508.777	12709.31
509.145	12790.67
509.514	12862.3
509.882	13171.22
510.25	13171.9
510.618	13343.42
510.986	13479.01
511.354	13607.37
511.722	13723.3
512.09	13888.49
512.458	13940.69
512.826	14156.96
513.193	14267.92
513.561	14403.05
513.929	14488.25
514.297	14712.88
514.664	14778.86
515.032	14880.78
515.4	15077.84
515.767	15166.88
516.135	15258.85
516.502	15286.65
516.869	15570.71
517.237	15692.06
517.604	15692.06
517.972	15926.18
518.339	16033.07
518.706	16160.52
519.073	16275.09
519.44	16328.2
519.808	16604.8
520.175	16558.03
520.542	16872.82
520.909	16851.58
521.276	16945.13
521.643	17272.58
522.009	17311
522.376	17468.51
522.743	17663.31
523.11	17799.35
523.477	18030.3
523.843	18070.53
524.21	18323.63
524.577	18418.32
524.943	18488.14
525.31	18741.24
525.676	18877.96
526.043	18926.1
526.409	19113.66
526.776	19327.9
527.142	19392.75
527.508	19482.69
527.874	19656.25
528.241	19657.6
528.607	19888.56
528.973	19994.77
529.339	19980.53
529.705	20258.04
530.071	20426.17
530.437	20467.98
530.803	20692.83
531.169	20778.71
531.535	20838.59
531.901	20854.41
532.267	20980.06
532.632	21180.05
532.998	21206.94
533.364	21427.95
533.73	21398.58
534.095	21581.17
534.461	21694.61
534.826	21859.35
535.192	21900.03
535.557	22051.44
535.923	22049.18
536.288	22043.53
536.653	22276.74
537.019	22265.9
537.384	22342.96
537.749	22459.56
538.114	22562.16
538.479	22596.51
538.845	22695.72
539.21	22706.56
539.575	22826.33
539.94	22938.65
540.305	23021.36
540.67	23039.89
541.034	23120.56
541.399	23211.41
541.764	23324.63
542.129	23434.23
542.494	23549.03
542.858	23546.09
543.223	23638.29
543.587	23824.5
543.952	23704.5
544.316	23815.01
544.681	23821.34
545.045	24033.76
545.41	24045.51
545.774	24156.7
546.138	24230.37
546.503	24328.67
546.867	24287.31
547.231	24521.88
547.595	24608.66
547.959	24570.7
548.324	24755.55
548.688	24720.75
549.052	24808.43
549.416	24822.44
549.779	24901.31
550.143	25004.81
550.507	25172.04
550.871	25163
551.235	25312.37
551.599	25519.82
551.962	25557.34
552.326	25581.52
552.689	25741.06
553.053	25701.97
553.417	25657.9
553.78	26091.79
554.143	25996.87
554.507	26186.02
554.87	26136.98
555.234	26550.53
555.597	26219.47
555.96	26472.34
556.323	26611.55
556.686	26531.55
557.05	26830.3
557.413	26859.68
557.776	26946.68
558.139	27078.2
558.502	27229.16
558.865	27240.68
559.228	27491.3
559.59	27585.31
559.953	27648.58
560.316	27894.9
560.679	27933.77
561.041	28024.39
561.404	28106.2
561.767	28379.18
562.129	28304.38
562.492	28594.09
562.854	28540.99
563.217	28605.17
563.579	28759.29
563.941	28952.73
564.304	28998.38
564.666	29161.76
565.028	29256.9
565.39	29407.86
565.753	29530.11
566.115	29568.08
566.477	29873.61
566.839	29832.48
567.201	30069.08
567.563	30101.62
567.925	30232.92
568.287	30350.2
568.648	30317.21
569.01	30631.1
569.372	30637.88
569.734	30699.35
570.095	30887.82
570.457	31014.37
570.819	31120.81
571.18	31043.29
571.542	31172.56
571.903	31410.97
572.265	31486.9
572.626	31554.47
572.987	31536.16
573.349	31665.42
573.71	31803.27
574.071	31911.07
574.432	32123.49
574.794	32328.91
575.155	32194.45
575.516	32201.68
575.877	32322.13
576.238	32342.47
576.599	32452.3
576.96	32571.16
577.32	32616.13
577.681	32714.21
578.042	32765.96
578.403	32836.02
578.763	32810.03
579.124	32935.9
579.485	32925.05
579.845	33139.74
580.206	33048.21
580.566	33169.11
580.927	33167.31
581.287	33293.4
581.648	33172.5
582.008	33277.36
582.368	33388.99
582.728	33411.82
583.089	33367.07
583.449	33425.83
583.809	33485.94
584.169	33564.81
584.529	33389.45
584.889	33715.99
585.249	33427.41
585.609	33278.26
585.969	33635.54
586.329	33575.2
586.688	33588.09
587.048	33538.82
587.408	33609.78
587.768	33604.58
588.127	33657.01
588.487	33537.92
588.846	33737.69
589.206	33704.92
589.565	33614.98
589.925	33816.55
590.284	33652.49
590.643	33737.46
591.003	33898.81
591.362	33993.72
591.721	34050.9
592.08	33822.43
592.44	33923.22
592.799	33884.58
593.158	33913.95
593.517	33882.77
593.876	34056.32
594.235	33953.73
594.593	33958.47
594.952	34169.77
595.311	34079.15
595.67	34020.84
596.029	34348.52
596.387	34288.18
596.746	34407.73
597.104	34247.5
597.463	34167.28
597.822	34348.97
598.18	34306.26
598.538	34281.85
598.897	34550.77
599.255	34234.4
599.613	34784.21
599.972	34471.68
600.33	34574.27
600.688	34423.32
601.046	34609.3
601.404	34833.02
601.762	34642.52
602.12	34900.59
602.478	34871.44
602.836	34999.12
603.194	34887.71
603.552	34889.75
603.91	34750.32
604.268	35026.92
604.625	34866.24
604.983	35187.82
605.341	35007.48
605.698	35173.58
606.056	35265.78
606.413	35230.3
606.771	35275.05
607.128	35507.58
607.485	35263.75
607.843	35253.13
608.2	35525.21
608.557	35784.41
608.914	35592.33
609.272	35649.73
609.629	35797.75
609.986	36057.85
610.343	35917.97
610.7	35889.49
611.057	36001.81
611.414	35900.57
611.771	36094.46
612.127	36295.81
612.484	36051.3
612.841	36409.25
613.198	36321.57
613.554	36237.51
613.911	36418.52
614.267	36453.1
614.624	36417.62
614.98	36474.79
615.337	36693.99
615.693	36719.08
616.05	36595.01
616.406	36885.63
616.762	36751.17
617.118	36794.1
617.475	36909.81
617.831	36902.8
618.187	36997.94
618.543	37051.95
618.899	37236.35
619.255	37067.99
619.611	37378.49
619.967	37285.84
620.323	37415.1
620.678	37345.95
621.034	37188.9
621.39	37314.09
621.746	37354.09
622.101	37746.17
622.457	37357.25
622.812	37490.13
623.168	37615.55
623.523	37640.41
623.879	37747.98
624.234	37571.26
624.589	37653.97
624.945	37744.13
625.3	37768.99
625.655	37786.62
626.01	37705.49
626.365	37798.37
626.72	37816.22
627.075	37726.28
627.43	37789.78
627.785	37805.6
628.14	37832.04
628.495	37988.42
628.85	37843.57
629.205	37764.47
629.559	37972.15
629.914	37943.68
630.269	37809.67
630.623	37759.73
630.978	37741.65
631.332	37879.27
631.687	37948.88
632.041	37780.52
632.396	37884.02
632.75	37705.27
633.104	37770.35
633.459	37659.17
633.813	37714.3
634.167	37563.12
634.521	37706.17
634.875	37605.16
635.229	37698.71
635.583	37583.23
635.937	37457.36
636.291	37481.09
636.645	37459.17
636.999	37302.11
637.352	37611.03
637.706	37233.41
638.06	37712.27
638.413	37366.52
638.767	37304.6
639.121	37305.05
639.474	37087.88
639.828	37163.13
640.181	37113.19
640.534	37325.84
640.888	37101.89
641.241	37089.24
641.594	37197.93
641.947	37216.24
642.301	37108.45
642.654	37138.05
643.007	37061.44
643.36	37061.44
643.713	37070.93
644.066	37168.33
644.419	36870.49
644.771	36633.2
645.124	36245.42
645.477	36273.44
645.83	36126.1
646.182	35946.44
646.535	35921.81
646.888	36002.94
647.24	35746.45
647.593	35916.61
647.945	35691.31
648.298	35673.23
648.65	35557.98
649.002	35451.09
649.355	35666.68
649.707	35741.7
650.059	35716.17
650.411	36208.81
650.763	36153.22
651.115	36594.11
651.467	36365.64
651.819	36478.18
652.171	36384.17
652.523	36425.75
652.875	36410.16
653.227	36220.33
653.578	36328.35
653.93	36285.64
654.282	36152.54
654.633	36084.07
654.985	36160.9
655.337	36169.49
655.688	36268.02
656.039	36330.61
656.391	35900.57
656.742	35994.58
657.094	36143.72
657.445	36169.94
657.796	36168.58
658.147	35992.77
658.498	36175.36
658.849	36048.36
659.2	36065.31
659.551	35880.45
659.902	36129.71
660.253	35968.14
660.604	36071.86
660.955	35740.57
661.306	36043.39
661.656	35957.51
662.007	36002.03
662.358	35958.42
662.708	35974.46
663.059	35802.04
663.409	35723.62
663.76	35968.81
664.11	35907.57
664.461	35880.45
664.811	35963.39
665.161	35903.51
665.511	35791.42
665.862	35867.35
666.212	35889.49
666.562	35898.53
666.912	35831.42
667.262	35726.11
667.612	35834.81
667.962	35800.46
668.312	35696.73
668.662	35894.01
669.011	35788.93
669.361	35715.49
669.711	35693.57
670.06	35597.98
670.41	35620.35
670.76	35578.77
671.109	35700.8
671.459	35661.48
671.808	35501.93
672.157	35743.96
672.507	35368.38
672.856	35441.14
673.205	35533.35
673.554	35535.38
673.904	35452.44
674.253	35595.72
674.602	35503.74
674.951	35009.74
675.3	34778.11
675.649	35435.04
675.998	35346.68
676.346	35293.8
676.695	35480.69
677.044	35270.53
677.393	35421.94
677.741	35235.73
678.09	35235.27
678.438	35234.14
678.787	35237.08
679.135	35329.96
679.484	35022.62
679.832	35133.58
680.181	34858.79
680.529	35062.62
680.877	34830.99
681.225	34851.56
681.573	35122.06
681.922	34907.83
682.27	34734.72
682.618	34694.27
682.966	34548.96
683.314	34799.35
683.661	34616.08
684.009	34428.74
684.357	34472.58
684.705	34318.24
685.053	34379.25
685.4	34334.73
685.748	34236.66
686.095	34184
686.443	33999.83
686.79	34103.55
687.138	34133.61
687.485	34138.58
687.832	33938.13
688.18	33945.82
688.527	33696.78
688.874	33687.97
689.221	33731.58
689.568	33616.56
689.915	33550.35
690.262	33575.2
690.609	33503.57
690.956	33376.57
691.303	33265.38
691.65	33270.35
691.997	33220.19
692.344	32996.91
692.69	33009.34
693.037	32926.86
693.383	32761.21
693.73	32880.76
694.077	32679.64
694.423	32657.71
694.769	32538.85
695.116	32547.21
695.462	32398.96
695.808	32325.07
696.155	32300.66
696.501	32149.71
696.847	32209.14
697.193	31866.78
697.539	32006.43
697.885	31752.2
698.231	31729.6
698.577	31724.41
698.923	31671.53
699.269	31582.71
699.614	31225.66
699.96	31265.89
700.306	31305.43
700.651	31321.03
700.997	31022.96
701.342	30966.46
701.688	30946.8
702.033	30959.91
702.379	30754.49
702.724	30818.89
703.069	30764.43
703.415	30391.33
703.76	30443.99
704.105	30460.26
704.45	30326.02
704.795	30192.92
705.14	30199.7
705.485	30162.64
705.83	29946.37
706.175	30035.18
706.52	29939.14
706.865	29828.18
707.209	29741.63
707.554	29728.98
707.899	29756.1
708.243	29585.03
708.588	29565.82
708.932	29243.34
709.277	29299.84
709.621	29319.05
709.966	29140.29
710.31	29369.44
710.654	29022.56
710.998	29050.58
711.342	29084.02
711.687	28983.91
712.031	28793.41
712.375	28809.23
712.719	28820.53
713.063	28715.67
713.407	28886.06
713.75	28679.29
714.094	28529.01
714.438	28481.1
714.782	28646.97
715.125	28456.92
715.469	28391.61
715.812	28135.35
716.156	28235.46
716.499	28161.56
716.843	28120.66
717.186	27900.1
717.53	28137.83
717.873	28143.26
718.216	27981
718.559	27834.79
718.902	27739.88
719.246	27773.32
719.589	27632.54
719.932	27591.86
720.275	27607
720.617	27508.25
720.96	27539.43
721.303	27460.56
721.646	27426.89
721.989	27239.78
722.331	27442.03
722.674	27335.82
723.016	27333.79
723.359	27320.68
723.701	27270.51
724.044	27089.27
724.386	26976.06
724.729	27048.6
725.071	26994.59
725.413	27007.92
725.755	26964.53
726.097	26735.61
726.439	26623.98
726.782	26753.69
727.124	26800.24
727.465	26624.43
727.807	26675.27
728.149	26536.52
728.491	26573.13
728.833	26540.59
729.175	26354.83
729.516	26362.06
729.858	26376.98
730.199	26481.15
730.541	26280.26
730.882	26213.14
731.224	26236.19
731.565	26182.63
731.906	26173.82
732.248	26118.9
732.589	26012.01
732.93	25983.54
733.271	25962.07
733.612	25883.43
733.953	25924.33
734.294	25956.42
734.635	25833.71
734.976	25866.25
735.317	25786.48
735.658	25710.1
735.999	25686.6
736.339	25605.02
736.68	25692.7
737.021	25586.04
737.361	25410.22
737.702	25574.51
738.042	25514.17
738.383	25461.52
738.723	25534.51
739.063	25353.27
739.404	25442.31
739.744	25259.94
740.084	25193.5
740.424	25364.57
740.764	25225.37
741.104	25353.95
741.444	25017.01
741.784	24989.22
742.124	25159.83
742.464	24991.93
742.804	24987.18
743.143	24932.72
743.483	24934.98
743.823	24827.41
744.162	24810.69
744.502	24855.43
744.841	24745.38
745.181	24825.15
745.52	24658.6
745.86	24676.91
746.199	24628.55
746.538	24522.56
746.877	24712.16
747.216	24680.07
747.556	24615.89
747.895	24472.39
748.234	24457.25
748.573	24327.31
748.911	24292.06
749.25	24264.26
749.589	24242.12
749.928	24232.17
750.267	24272.4
750.605	24171.16
750.944	24234.66
751.283	24084.83
751.621	24178.62
751.96	23885.74
752.298	23935.68
752.636	23903.82
752.975	23781.56
753.313	23694.79
753.651	23789.47
753.989	23676.48
754.327	23600.1
754.666	23497.96
755.004	23529.82
755.342	23501.8
755.679	23421.12
756.017	23375.7
756.355	23319.88
756.693	23218.64
757.031	23247.79
757.368	23173.67
757.706	23042.37
758.044	23021.58
758.381	23060.68
758.719	22917.63
759.056	22997.86
759.394	22941.13
759.731	22739.56
760.068	22660.92
760.405	22591.09
760.743	22679.45
761.08	22548.38
761.417	22430.19
761.754	22453.69
762.091	22463.41
762.428	22250.76
762.765	22177.99
763.102	22239.68
763.438	22158.78
763.775	22016.19
764.112	22002.85
764.449	21904.33
764.785	21862.97
765.122	21753.82
765.458	21712.92
765.795	21673.37
766.131	21680.6
766.467	21533.49
766.804	21469.76
767.14	21498.01
767.476	21293.95
767.812	21286.26
768.148	21391.8
768.485	21128.75
768.821	21083.56
769.157	21081.97
769.492	20975.99
769.828	20887.85
770.164	20752.72
770.5	20656.9
770.836	20713.17
771.171	20537.58
771.507	20560.18
771.842	20384.37
772.178	20373.52
772.513	20339.17
772.849	20304.59
773.184	20134.65
773.519	20185.95
773.855	19946.86
774.19	19996.35
774.525	19949.57
774.86	19924.72
775.195	19799.52
775.53	19723.14
775.865	19585.52
776.2	19514.11
776.535	19366.76
776.87	19430.27
777.205	19297.39
777.539	19181.46
777.874	19302.81
778.209	19037.28
778.543	18987.34
778.878	18921.35
779.212	18858.3
779.547	18780.79
779.881	18789.38
780.215	18707.8
780.55	18682.94
780.884	18543.51
781.218	18559.1
781.552	18501.48
781.886	18416.06
782.22	18312.1
782.554	18239.11
782.888	18171.09
783.222	18057.42
783.556	17940.36
783.889	17840.03
784.223	17717.99
784.557	17687.71
784.89	17818.1
785.224	17640.93
785.557	17581.95
785.891	17556.64
786.224	17432.58
786.558	17427.61
786.891	17256.31
787.224	17267.16
787.557	17246.37
787.891	17185.13
788.224	17187.16
788.557	17118.01
788.89	17055.87
789.223	17047.96
789.556	16871.01
789.888	16806.38
790.221	16813.84
790.554	16703.33
790.887	16739.72
791.219	16704.24
791.552	16591.47
791.884	16473.96
792.217	16548.31
792.549	16410.01
792.882	16264.25
793.214	16265.83
793.546	16185.61
793.879	16053.41
794.211	16029.45
794.543	16149.9
794.875	16023.35
795.207	16002.33
795.539	15978.61
795.871	15956.46
796.203	15838.5
796.535	15689.8
796.867	15660.65
797.198	15598.95
797.53	15529.35
797.862	15492.29
798.193	15574.77
798.525	15404.84
798.856	15447.77
799.188	15249.58
799.519	15269.92
799.85	15167.55
800.182	15159.64
800.513	15190.38
800.844	14999.42
801.175	15110.61
801.506	15019.53
801.837	14990.61
802.168	14936.6
802.499	14921.01
802.83	14844.62
803.161	14774.12
803.491	14724.63
803.822	14692.31
804.153	14604.86
804.483	14529.15
804.814	14519.21
805.145	14556.95
805.475	14440.79
805.805	14282.15
806.136	14482.37
806.466	14348.59
806.796	14257.75
807.126	14272.44
807.457	14232.21
807.787	14217.3
808.117	14072.21
808.447	14146.11
808.777	14107.47
809.107	14050.75
809.436	14026.57
809.766	13979.11
810.096	13943.86
810.426	13862.28
810.755	13797.19
811.085	13846.23
811.414	13733.47
811.744	13702.28
812.073	13680.36
812.403	13638.78
812.732	13540.93
813.061	13578.44
813.39	13472
813.719	13410.99
814.049	13483.3
814.378	13433.81
814.707	13451.89
815.036	13357.88
815.365	13324.66
815.693	13281.95
816.022	13261.39
816.351	13172.13
816.68	13149.98
817.008	13123.54
817.337	13026.59
817.665	13034.28
817.994	12990.89
818.322	12991.57
818.651	13020.49
818.979	12849.2
819.307	12988.85
819.636	12893.71
819.964	12845.58
820.292	12879.25
820.62	12819.37
820.948	12873.83
821.276	12847.61
821.604	12725.58
821.932	12822.76
822.259	12809.65
822.587	12837.67
822.915	12717.22
823.243	12773.04
823.57	12770.33
823.898	12746.6
824.225	12682.42
824.553	12702.76
824.88	12746.6
825.207	12745.92
825.535	12642.87
825.862	12755.41
826.189	12750.89
826.516	12779.14
826.843	12753.15
827.17	12756.09
827.497	12773.49
827.824	12683.55
828.151	12768.07
828.478	12684.68
828.805	12750.44
829.131	12638.58
829.458	12592.03
829.785	12575.3
830.111	12670.9
830.438	12690.56
830.764	12732.59
831.09	12716.77
831.417	12649.65
831.743	12688.07
832.069	12670.22
832.395	12608.07
832.722	12716.09
833.048	12596.32
833.374	12635.42
833.7	12571.46
834.026	12605.13
834.351	12625.7
834.677	12593.16
835.003	12589.32
835.329	12601.74
835.654	12565.59
835.98	12480.39
836.306	12505.02
836.631	12499.37
836.956	12464.8
837.282	12473.84
837.607	12367.4
837.932	12365.59
838.258	12291.7
838.583	12404.24
838.908	12338.7
839.233	12342.54
839.558	12266.61
839.883	12211.02
840.208	12159.27
840.533	12105.03
840.858	12194.3
841.182	12244.24
841.507	12183.68
841.832	12036.56
842.156	12112.94
842.481	12067.75
842.805	12064.58
843.13	11971.03
843.454	12007.18
843.778	11961.76
844.103	11865.49
844.427	11930.35
844.751	11845.83
845.075	11832.05
845.399	11843.57
845.723	11776.46
846.047	11792.27
846.371	11608.32
846.695	11564.03
847.019	11591.15
847.343	11529.23
847.666	11489.01
847.99	11453.07
848.313	11392.06
848.637	11276.81
848.96	11283.59
849.284	11192.06
849.607	11143.7
849.931	11198.17
850.254	11070.26
850.577	11031.84
850.9	10931.73
851.223	10963.37
851.546	10912.52
851.869	10816.03
852.192	10851.96
852.515	10807.67
852.838	10728.35
853.161	10750.72
853.483	10657.84
853.806	10617.39
854.129	10634.11
854.451	10567.22
854.774	10479.09
855.096	10522.7
855.419	10468.02
855.741	10456.72
856.063	10377.85
856.385	10392.99
856.708	10281.81
857.03	10282.03
857.352	10299.43
857.674	10212.66
857.996	10205.42
858.318	10134.92
858.64	10122.49
858.961	10116.61
859.283	10072.09
859.605	10051.08
859.926	10116.61
860.248	10020.8
860.57	9995.71
860.891	9988.03
861.212	9893.34
861.534	9896.28
861.855	9927.24
862.176	9977.18
862.498	9866.45
862.819	9925.66
863.14	9747.58
863.461	9760.46
863.782	9764.08
864.103	9799.78
864.424	9775.83
864.745	9776.73
865.065	9668.04
865.386	9652.44
865.707	9679.79
866.027	9670.3
866.348	9615.38
866.668	9575.16
866.989	9643.86
867.309	9531.09
867.63	9586.23
867.95	9596.17
868.27	9519.11
868.59	9495.61
868.91	9524.31
869.23	9481.37
869.55	9465.78
869.87	9494.03
870.19	9449.96
870.51	9443.41
870.83	9443.41
871.15	9342.17
871.469	9419.68
871.789	9370.42
872.109	9367.03
872.428	9327.48
872.748	9304.66
873.067	9328.84
873.386	9318.44
873.706	9301.49
874.025	9259.91
874.344	9212.46
874.663	9200.25
874.982	9201.61
875.301	9169.07
875.62	9138.33
875.939	9157.09
876.258	9184.89
876.577	9077.09
876.896	9093.36
877.214	9054.72
877.533	9125.23
877.852	9110.99
878.17	9066.47
878.489	9036.19
878.807	9023.53
879.125	9064.89
879.444	8990.77
879.762	9006.36
880.08	8984.21
880.398	8908.51
880.716	8967.26
881.034	8970.2
881.352	8908.73
881.67	8846.14
881.988	8887.72
882.306	8871.45
882.624	8869.19
882.941	8734.73
883.259	8758
883.577	8745.58
883.894	8681.62
884.212	8693.37
884.529	8727.5
884.846	8656.76
885.164	8710.55
885.481	8692.02
885.798	8655.18
886.115	8587.39
886.432	8541.74
886.75	8557.33
887.067	8546.71
887.383	8492.7
887.7	8502.42
888.017	8424.91
888.334	8479.82
888.651	8424.91
888.967	8411.12
889.284	8336.09
889.6	8410.89
889.917	8243.44
890.233	8336.32
890.55	8343.78
890.866	8326.6
891.182	8261.75
891.498	8250.45
891.815	8184.91
892.131	8157.79
892.447	8127.29
892.763	8198.24
893.079	8100.17
893.395	8092.48
893.71	8049.1
894.026	8054.75
894.342	8033.28
894.657	7956.9
894.973	7955.09
895.289	7954.64
895.604	7939.27
895.92	7838.93
896.235	7794.87
896.55	7813.85
896.865	7793.96
897.181	7812.27
897.496	7767.97
897.811	7722.55
898.126	7664.25
898.441	7687.98
898.756	7661.76
899.071	7624.47
899.386	7617.02
899.7	7551.93
900.015	7530.24
900.33	7484.82
900.644	7474.42
900.959	7493.63
901.273	7454.54
901.588	7389
901.902	7343.13
902.216	7346.06
902.531	7369.11
902.845	7266.97
903.159	7275.78
903.473	7224.26
903.787	7218.38
904.101	7195.33
904.415	7106.3
904.729	7136.35
905.042	7058.84
905.356	7083.92
905.67	7019.97
905.984	7058.61
906.297	6996.69
906.611	6991.27
906.924	6940.88
907.237	6954.44
907.551	6892.06
907.864	6883.25
908.177	6876.47
908.491	6790.6
908.804	6798.73
909.117	6814.1
909.43	6725.52
909.743	6757.83
910.056	6687.32
910.368	6675.12
910.681	6630.83
910.994	6601.22
911.307	6575.01
911.619	6504.73
911.932	6542.92
912.244	6528.68
912.557	6511.06
912.869	6438.74
913.181	6400.55
913.494	6446.88
913.806	6370.5
914.118	6343.38
914.43	6345.64
914.742	6271.06
915.054	6265.19
915.366	6238.07
915.678	6235.58
915.99	6142.03
916.302	6163.72
916.613	6125.53
916.925	6160.78
917.236	6113.78
917.548	6048.02
917.859	6053.67
918.171	6012.09
918.482	5968.92
918.794	5998.75
919.105	5939.32
919.416	5959.43
919.727	5918.08
920.038	5897.74
920.349	5844.63
920.66	5855.03
920.971	5814.58
921.282	5789.95
921.593	5750.63
921.903	5737.52
922.214	5731.64
922.525	5665.43
922.835	5644.64
923.146	5631.53
923.456	5643.28
923.767	5547.47
924.077	5612.55
924.387	5594.92
924.697	5471.76
925.008	5506.56
925.318	5470.41
925.628	5491.88
925.938	5471.31
926.248	5366
926.558	5386.57
926.867	5344.76
927.177	5281.03
927.487	5310.64
927.796	5243.07
928.106	5294.59
928.416	5274.25
928.725	5260.92
929.034	5217.76
929.344	5182.73
929.653	5186.8
929.962	5140.7
930.271	5083.98
930.581	5047.37
930.89	5049.63
931.199	5037.42
931.508	5017.76
931.817	5015.5
932.125	4984.77
932.434	4902.06
932.743	4935.28
933.051	4924.88
933.36	4887.37
933.669	4838.11
933.977	4836.3
934.286	4869.29
934.594	4833.14
934.902	4757.66
935.21	4818.45
935.519	4743.87
935.827	4726.92
936.135	4721.27
936.443	4725.57
936.751	4665.68
937.059	4676.08
937.367	4612.8
937.674	4644.44
937.982	4606.7
938.29	4570.77
938.597	4564.44
938.905	4513.82
939.213	4519.47
939.52	4473.15
939.827	4475.4
940.135	4470.89
940.442	4414.62
940.749	4394.28
941.056	4451.68
941.363	4388.85
941.67	4375.75
941.977	4313.6
942.284	4300.49
942.591	4317.89
942.898	4313.38
943.205	4287.39
943.511	4274.73
943.818	4241.06
944.125	4164.45
944.431	4170.1
944.738	4150.89
945.044	4181.4
945.35	4121.29
945.657	4105.25
945.963	4114.74
946.269	4067.05
946.575	4066.6
946.881	4037.45
947.187	4051.01
947.493	4018.92
947.799	4012.14
948.105	3986.6
948.41	3940.05
948.716	3930.79
949.022	3927.17
949.327	3950.45
949.633	3894.63
949.938	3900.28
950.244	3872.03
950.549	3834.29
950.854	3847.4
951.16	3833.16
951.465	3786.61
951.77	3829.55
952.075	3818.93
952.38	3808.53
952.685	3750.9
952.99	3714.97
953.294	3693.96
953.599	3704.58
953.904	3672.26
954.209	3666.84
954.513	3659.38
954.818	3649.66
955.122	3625.26
955.426	3623.68
955.731	3588.2
956.035	3597.01
956.339	3566.73
956.643	3518.14
956.948	3505.03
957.252	3495.09
957.556	3547.75
957.86	3488.09
958.163	3477.92
958.467	3463
958.771	3439.95
959.075	3447.64
959.378	3425.26
959.682	3385.49
959.985	3354.08
960.289	3345.49
960.592	3342.78
960.896	3329.45
961.199	3349.33
961.502	3296.45
961.805	3303.68
962.108	3282.44
962.411	3236.34
962.714	3246.96
963.017	3210.58
963.32	3239.51
963.623	3172.84
963.926	3208.09
964.228	3165.61
964.531	3171.48
964.833	3148.66
965.136	3147.08
965.438	3131.71
965.741	3097.59
966.043	3067.98
966.345	3107.76
966.648	3090.36
966.95	3072.05
967.252	3064.82
967.554	3053.07
967.856	3036.35
968.158	3026.4
968.46	3016.23
968.761	2999.96
969.063	2941.21
969.365	2950.02
969.666	2976.01
969.968	2933.98
970.269	2925.84
970.571	2914.32
970.872	2893.53
971.174	2869.35
971.475	2889.01
971.776	2844.94
972.077	2867.09
972.378	2830.93
972.679	2825.96
972.98	2829.57
973.281	2775.34
973.582	2775.79
973.883	2781.21
974.183	2729.01
974.484	2760.42
974.785	2744.15
975.085	2750.7
975.386	2749.35
975.686	2682.01
975.986	2672.97
976.287	2685.4
976.587	2645.62
976.887	2634.55
977.187	2630.48
977.487	2653.53
977.787	2684.49
978.087	2589.13
978.387	2570.82
978.687	2553.42
978.987	2584.83
979.286	2548.45
979.586	2580.99
979.885	2532.18
980.185	2562.91
980.484	2518.62
980.784	2496.25
981.083	2511.84
981.382	2501.9
981.682	2457.6
981.981	2460.09
982.28	2478.17
982.579	2460.32
982.878	2401.34
983.177	2424.84
983.475	2432.75
983.774	2404.95
984.073	2432.52
984.372	2397.27
984.67	2378.74
984.969	2354.56
985.267	2364.5
985.566	2334.9
985.864	2327.21
986.162	2325.18
986.461	2316.82
986.759	2308.46
987.057	2256.03
987.355	2277.5
987.653	2296.71
987.951	2272.3
988.249	2276.14
988.547	2235.46
988.844	2211.96
989.142	2210.38
989.44	2185.97
989.737	2171.06
990.035	2205.86
990.332	2169.7
990.63	2150.72
990.927	2162.7
991.224	2119.99
991.521	2149.59
991.819	2121.57
992.116	2098.74
992.413	2108.91
992.71	2120.44
993.006	2093.32
993.303	2086.77
993.6	2090.16
993.897	2065.75
994.193	2047.67
994.49	2067.11
994.787	2031.85
995.083	2044.28
995.379	2008.58
995.676	1984.17
995.972	2002.7
996.268	2022.59
996.565	1997.05
996.861	1941.01
997.157	1961.35
997.453	1926.77
997.749	1959.09
998.044	1924.51
998.34	1912.08
998.636	1902.14
998.932	1895.81
999.227	1889.71
999.523	1915.7
999.818	1867.79
1000.114	1864.17
1000.409	1852.42
1000.704	1834.12
1001	1837.51
1001.295	1840.67
1001.59	1830.95
1001.885	1830.5
1002.18	1832.31
1002.475	1781.01
1002.77	1756.61
1003.065	1785.31
1003.359	1768.58
1003.654	1766.78
1003.949	1743.27
1004.243	1745.76
1004.538	1727
1004.832	1717.06
1005.127	1701.47
1005.421	1716.16
1005.715	1707.57
1006.009	1688.81
1006.304	1690.17
1006.598	1631.19
1006.892	1644.52
1007.186	1644.29
1007.48	1646.78
1007.773	1634.58
1008.067	1661.24
1008.361	1603.16
1008.655	1586.89
1008.948	1584.18
1009.242	1590.06
1009.535	1591.19
1009.829	1561.13
1010.122	1547.57
1010.415	1544.63
1010.708	1554.8
1011.001	1558.65
1011.295	1527.46
1011.588	1516.61
1011.881	1503.96
1012.173	1517.06
1012.466	1503.51
1012.759	1472.09
1013.052	1470.51
1013.344	1463.73
1013.637	1458.99
1013.93	1425.54
1014.222	1418.99
1014.514	1430.51
1014.807	1432.32
1015.099	1425.09
1015.391	1404.3
1015.683	1404.53
1015.976	1395.26
1016.268	1395.94
1016.56	1374.7
1016.851	1338.54
1017.143	1353.91
1017.435	1360.46
1017.727	1341.25
1018.018	1339.67
1018.31	1362.94
1018.602	1319.1
1018.893	1322.27
1019.185	1314.81
1019.476	1277.52
1019.767	1277.52
1020.058	1291.53
1020.35	1256.05
1020.641	1272.1
1020.932	1272.1
1021.223	1228.26
1021.514	1246.56
1021.804	1198.43
1022.095	1212.21
1022.386	1221.48
1022.677	1219.45
1022.967	1193.46
1023.258	1201.82
1023.548	1203.85
1023.839	1182.84
1024.129	1152.33
1024.419	1163.4
1024.709	1157.53
1025	1129.28
1025.29	1156.17
1025.58	1131.31
1025.87	1128.37
1026.16	1110.3
1026.449	1148.49
1026.739	1105.1
1027.029	1096.74
1027.319	1094.93
1027.608	1085.66
1027.898	1065.78
1028.187	1087.25
1028.477	1069.84
1028.766	1054.93
1029.055	1042.27
1029.344	1073.01
1029.634	1038.66
1029.923	1029.17
1030.212	1046.79
1030.501	1012.45
1030.79	1021.94
1031.078	1031.2
1031.367	1010.86
1031.656	990.07
1031.945	1012.67
1032.233	977.42
1032.522	982.62
1032.81	976.97
1033.099	977.19
1033.387	971.54
1033.675	949.62
1033.963	954.82
1034.251	954.59
1034.54	947.14
1034.828	950.75
1035.116	928.61
1035.403	913.92
1035.691	920.47
1035.979	923.63
1036.267	905.56
1036.554	902.39
1036.842	902.39
1037.129	882.96
1037.417	884.99
1037.704	884.54
1037.992	875.5
1038.279	843.64
1038.566	868.04
1038.853	868.04
1039.14	868.04
