Data from hue_40_FLMS001491_66.txt Node
Date: Mon Feb 06 15:08:16 GMT 2017
User: dcchb
Spectrometer: FLMS00149
Trigger mode: 0
Integration Time (sec): 2.000000E-2
Scans to average: 10
Electric dark correction enabled: true
Nonlinearity correction enabled: false
Boxcar width: 0
XAxis mode: Wavelengths
Number of Pixels in Spectrum: 2048
>>>>>Begin Spectral Data<<<<<
341.393	-6.1
341.776	-6.1
342.16	-6.1
342.543	-72.31
342.927	-72.54
343.31	-75.03
343.693	-77.96
344.077	-70.28
344.46	-43.61
344.843	-65.99
345.226	-62.6
345.61	-34.35
345.993	-29.38
346.376	-4.75
346.759	30.51
347.142	46.55
347.525	38.19
347.908	71.41
348.291	90.39
348.674	87.91
349.057	98.98
349.44	134.69
349.823	133.56
350.206	183.5
350.588	208.36
350.971	207.45
351.354	236.38
351.737	242.71
352.119	244.97
352.502	259.2
352.884	265.3
353.267	276.15
353.65	300.78
354.032	292.42
354.414	305.3
354.797	326.09
355.179	345.3
355.562	322.93
355.944	328.8
356.326	337.17
356.709	329.26
357.091	345.53
357.473	337.39
357.855	339.2
358.238	344.62
358.62	334.68
359.002	338.75
359.384	340.78
359.766	345.08
360.148	343.27
360.53	342.82
360.912	347.56
361.294	333.32
361.676	335.58
362.057	341.01
362.439	342.36
362.821	346.21
363.203	333.32
363.584	325.19
363.966	328.8
364.348	337.39
364.729	349.6
365.111	338.75
365.493	331.97
365.874	338.07
366.256	318.41
366.637	324.29
367.019	327.9
367.4	340.56
367.781	309.6
368.163	322.48
368.544	319.77
368.925	341.23
369.306	346.66
369.688	319.77
370.069	316.6
370.45	315.02
370.831	313.89
371.212	331.74
371.593	286.32
371.974	323.83
372.355	305.53
372.736	329.26
373.117	316.15
373.498	310.73
373.879	311.63
374.26	317.73
374.641	327.9
375.021	313.44
375.402	331.74
375.783	328.35
376.163	340.33
376.544	344.62
376.925	333.32
377.305	324.74
377.686	329.03
378.066	311.63
378.447	353.44
378.827	329.71
379.208	328.8
379.588	341.69
379.968	338.97
380.349	343.72
380.729	350.95
381.109	335.58
381.489	350.95
381.87	348.47
382.25	359.54
382.63	348.47
383.01	365.41
383.39	355.02
383.77	360.44
384.15	335.13
384.53	373.32
384.91	368.8
385.29	336.04
385.67	342.14
386.049	362.48
386.429	360.89
386.809	365.19
387.189	334.91
387.568	369.03
387.948	364.96
388.328	371.06
388.707	358.63
389.087	385.07
389.466	371.06
389.846	358.18
390.225	360.67
390.605	383.49
390.984	374.23
391.363	366.54
391.743	377.62
392.122	376.04
392.501	391.63
392.881	378.75
393.26	374.68
393.639	406.54
394.018	414.68
394.397	378.52
394.776	411.06
395.155	394.34
395.534	399.76
395.913	401.57
396.292	404.96
396.671	398.41
397.05	401.12
397.429	407.22
397.808	412.87
398.186	385.75
398.565	396.6
398.944	409.93
399.323	390.95
399.701	409.71
400.08	426.88
400.458	414.23
400.837	409.93
401.215	435.69
401.594	417.84
401.972	435.92
402.351	426.66
402.729	442.93
403.107	426.43
403.486	439.54
403.864	420.55
404.242	430.05
404.62	447.9
404.999	441.8
405.377	431.85
405.755	432.31
406.133	442.25
406.511	434.56
406.889	458.74
407.267	456.03
407.645	438.86
408.023	458.07
408.401	469.59
408.779	454.23
409.156	456.49
409.534	472.76
409.912	479.31
410.29	507.56
410.667	473.89
411.045	496.71
411.422	486.09
411.8	496.26
412.178	478.18
412.555	491.51
412.933	494.45
413.31	490.16
413.687	499.2
414.065	526.99
414.442	503.26
414.819	536.26
415.197	510.72
415.574	550.95
415.951	550.04
416.328	546.43
416.705	517.73
417.082	520.89
417.46	533.32
417.837	552.53
418.214	537.39
418.591	551.62
418.967	554.56
419.344	562.7
419.721	536.94
420.098	570.83
420.475	564.73
420.852	571.96
421.228	576.03
421.605	567.22
421.982	553.43
422.358	564.73
422.735	578.74
423.111	573.32
423.488	591.85
423.864	592.53
424.241	601.57
424.617	618.51
424.994	591.17
425.37	614.22
425.746	605.41
426.123	632.53
426.499	629.14
426.875	617.84
427.251	640.44
427.627	624.84
428.003	645.86
428.379	621.23
428.756	639.98
429.132	649.93
429.507	662.58
429.883	665.75
430.259	659.64
430.635	650.15
431.011	639.53
431.387	656.03
431.763	702.58
432.138	684.28
432.514	722.24
432.89	710.72
433.265	721.11
433.641	713.88
434.016	745.97
434.392	745.29
434.767	745.52
435.143	728.12
435.518	729.47
435.894	764.27
436.269	751.39
436.644	786.87
437.02	778.74
437.395	811.05
437.77	781.9
438.145	773.09
438.52	813.99
438.895	791.39
439.271	813.76
439.646	794.78
440.021	836.81
440.395	853.08
440.77	818.06
441.145	818.28
441.52	835.23
441.895	839.75
442.27	846.76
442.645	842.01
443.019	863.03
443.394	879.07
443.769	877.49
444.143	868.68
444.518	889.92
444.892	879.75
445.267	903.25
445.641	848.11
446.016	878.39
446.39	912.97
446.764	912.52
447.139	900.54
447.513	929.47
447.887	914.33
448.262	926.98
448.636	937.15
449.01	956.81
449.384	949.81
449.758	935.57
450.132	953.87
450.506	976.92
450.88	960.2
451.254	982.57
451.628	981.22
452.002	982.12
452.376	1011.05
452.75	1006.3
453.123	1015.79
453.497	1051.27
453.871	1021.89
454.244	1061.89
454.618	1037.26
454.992	1068.9
455.365	1062.8
455.739	1074.77
456.112	1113.42
456.486	1106.86
456.859	1142.79
457.232	1123.36
457.606	1150.7
457.979	1133.98
458.352	1170.14
458.725	1172.62
459.099	1200.42
459.472	1220.31
459.845	1204.49
460.218	1265.05
460.591	1219.63
460.964	1246.97
461.337	1262.79
461.71	1302.79
462.083	1317.03
462.456	1302.34
462.829	1305.05
463.201	1324.48
463.574	1348.89
463.947	1371.49
464.32	1384.37
464.692	1416.46
465.065	1387.08
465.438	1449.68
465.81	1471.83
466.183	1502.79
466.555	1491.94
466.928	1518.6
467.3	1517.47
467.672	1561.77
468.045	1587.3
468.417	1612.84
468.789	1625.72
469.161	1642.67
469.534	1640.86
469.906	1696.45
470.278	1743.01
470.65	1769.44
471.022	1774.19
471.394	1814.64
471.766	1820.29
472.138	1870.01
472.51	1910.46
472.882	1939.38
473.253	1982.32
473.625	2008.08
473.997	2065.48
474.369	2102.77
474.74	2108.42
475.112	2195.2
475.484	2245.82
475.855	2257.57
476.227	2298.47
476.598	2369.88
476.97	2438.35
477.341	2474.51
477.713	2527.62
478.084	2589.31
478.455	2607.62
478.827	2705.01
479.198	2774.39
479.569	2786.82
479.94	2919.7
480.311	2935.29
480.682	3071.78
481.053	3170.54
481.424	3213.47
481.795	3267.94
482.166	3302.29
482.537	3392
482.908	3501.15
483.279	3619.11
483.65	3671.77
484.021	3794.02
484.391	3858.88
484.762	3954.25
485.133	4052.1
485.503	4135.94
485.874	4205.77
486.244	4315.59
486.615	4425.65
486.985	4525.98
487.356	4647.11
487.726	4724.4
488.097	4899.53
488.467	4939.31
488.837	5106.76
489.207	5204.61
489.578	5304.27
489.948	5403.02
490.318	5524.83
490.688	5611.38
491.058	5712.17
491.428	5824.25
491.798	5977.92
492.168	6090.91
492.538	6144.47
492.908	6231.02
493.278	6478.25
493.648	6464.69
494.017	6669.66
494.387	6711.91
494.757	6858.35
495.126	6921.85
495.496	7039.36
495.866	7151.68
496.235	7320.03
496.605	7433.48
496.974	7457.66
497.344	7583.3
497.713	7734.49
498.082	7840.25
498.452	7905.78
498.821	7998.43
499.19	8042.05
499.559	8233
499.928	8353.9
500.298	8449.27
500.667	8548.02
501.036	8597.06
501.405	8654.01
501.774	8775.81
502.143	8891.52
502.512	8949.6
502.88	9098.74
503.249	9185.07
503.618	9174
503.987	9339.19
504.356	9358.17
504.724	9446.31
505.093	9509.58
505.462	9642.68
505.83	9689.91
506.199	9778.27
506.567	9923.35
506.936	9964.26
507.304	10072.05
507.672	10143.24
508.041	10260.52
508.409	10261.65
508.777	10398.6
509.145	10544.13
509.514	10526.5
509.882	10696.44
510.25	10768.08
510.618	10819.38
510.986	10861.64
511.354	11016.21
511.722	11030.67
512.09	11150.22
512.458	11255.07
512.826	11322.64
513.193	11422.3
513.561	11454.61
513.929	11434.95
514.297	11694.61
514.664	11756.3
515.032	11820.03
515.4	11849.86
515.767	11944.09
516.135	12055.73
516.502	12001.49
516.869	12257.08
517.237	12222.05
517.604	12270.64
517.972	12416.17
518.339	12507.69
518.706	12516.96
519.073	12607.13
519.44	12682.83
519.808	12848.02
520.175	12838.53
520.542	12954.69
520.909	13147.45
521.276	13131.18
521.643	13225.87
522.009	13309.03
522.376	13413.43
522.743	13444.62
523.11	13572.75
523.477	13615.91
523.843	13802.57
524.21	13924.61
524.577	13981.55
524.943	14082.79
525.31	14128.22
525.676	14297.93
526.043	14391.71
526.409	14379.06
526.776	14580.63
527.142	14665.83
527.508	14706.96
527.874	14728.2
528.241	14817.92
528.607	14977.69
528.973	15011.58
529.339	15033.28
529.705	15348.52
530.071	15358.69
530.437	15386.71
530.803	15551.91
531.169	15641.62
531.535	15660.38
531.901	15607.05
532.267	15774.05
532.632	15833.03
532.998	15870.54
533.364	16010.88
533.73	16084.77
534.095	16178.56
534.461	16091.55
534.826	16261.72
535.192	16405.9
535.557	16431.66
535.923	16452.9
536.288	16624.65
536.653	16614.48
537.019	16675.95
537.384	16735.38
537.749	16864.64
538.114	16817.41
538.479	16927.69
538.845	17067.35
539.21	17037.97
539.575	17105.54
539.94	17244.07
540.305	17353.89
540.67	17336.27
541.034	17429.37
541.399	17567.22
541.764	17449.71
542.129	17689.03
542.494	17605.86
542.858	17753.21
543.223	17698.29
543.587	17872.98
543.952	17806.31
544.316	17889.93
544.681	17919.53
545.045	18104.38
545.41	18180.54
545.774	18189.35
546.138	18270.93
546.503	18205.62
546.867	18328.56
547.231	18593.18
547.595	18557.7
547.959	18585.05
548.324	18621.66
548.688	18677.02
549.052	18748.21
549.416	18777.59
549.779	18846.74
550.143	18915.21
550.507	19026.39
550.871	19204.01
551.235	19101.87
551.599	19252.15
551.962	19241.53
552.326	19406.27
552.689	19423.9
553.053	19350.9
553.417	19376.44
553.78	19664.34
554.143	19688.07
554.507	19699.82
554.87	19794.51
555.234	19981.62
555.597	19880.38
555.96	20084.44
556.323	20121.73
556.686	20102.75
557.05	20256.87
557.413	20314.72
557.776	20372.35
558.139	20523.3
558.502	20518.78
558.865	20607.37
559.228	20773.01
559.59	20817.08
559.953	20761.71
560.316	21036.74
560.679	21021.14
561.041	21183.4
561.404	21336.16
561.767	21384.97
562.129	21238.54
562.492	21560.56
562.854	21478.53
563.217	21570.96
563.579	21590.84
563.941	21688.47
564.304	21859.09
564.666	22042.13
565.028	21917.62
565.39	22006.88
565.753	22158.51
566.115	22225.86
566.477	22418.85
566.839	22401.9
567.201	22542.68
567.563	22434.89
567.925	22687.77
568.287	22653.42
568.648	22761.44
569.01	23004.82
569.372	23141.54
569.734	22961.88
570.095	23222.21
570.457	23198.03
570.819	23298.6
571.18	23405.03
571.542	23406.16
571.903	23567.74
572.265	23634.63
572.626	23766.61
572.987	23891.12
573.349	23908.3
573.71	24136.77
574.071	24071.91
574.432	24287.72
574.794	24490.2
575.155	24402.75
575.516	24473.48
575.877	24656.53
576.238	24797.31
576.599	24994.15
576.96	25093.13
577.32	25074.37
577.681	25244.08
578.042	25416.96
578.403	25448.6
578.763	25615.37
579.124	25667.12
579.485	25826.21
579.845	26089.71
580.206	26191.63
580.566	26261.91
580.927	26372.64
581.287	26740.54
581.648	26589.81
582.008	26814.89
582.368	26903.7
582.728	27143.47
583.089	27211.71
583.449	27432.73
583.809	27608.99
584.169	27636.11
584.529	27767.63
584.889	28193.38
585.249	28071.35
585.609	28233.61
585.969	28599.02
586.329	28677.44
586.688	28782.52
587.048	29041.95
587.408	29189.29
587.768	29447.36
588.127	29529.17
588.487	29683.51
588.846	30070.4
589.206	30015.48
589.565	30209.83
589.925	30509.03
590.284	30678.74
590.643	30838.74
591.003	31079.18
591.362	31444.14
591.721	31377.03
592.08	31654.08
592.44	31882.33
592.799	31995.32
593.158	32061.3
593.517	32320.73
593.876	32451.12
594.235	32611.35
594.593	32778.8
594.952	33114.84
595.311	33140.82
595.67	33337.2
596.029	33714.14
596.387	33735.16
596.746	34019.9
597.104	34034.59
597.463	34186.67
597.822	34439.32
598.18	34461.92
598.538	34634.12
598.897	34925.18
599.255	34835.69
599.613	35493.08
599.972	35300.99
600.33	35585.05
600.688	35614.2
601.046	35890.36
601.404	36207.18
601.762	36118.82
602.12	36570.56
602.478	36610.11
602.836	36799.48
603.194	36629.09
603.552	36832.93
603.91	36819.6
604.268	37196.54
604.625	37169.64
604.983	37404.89
605.341	37342.52
605.698	37618.22
606.056	37872.45
606.413	37852.34
606.771	38047.14
607.128	38199
607.485	38148.6
607.843	38321.7
608.2	38651.41
608.557	38706.55
608.914	38665.88
609.272	38912.88
609.629	39033.55
609.986	39252.53
610.343	39105.41
610.7	39491.62
611.057	39622.46
611.414	39529.58
611.771	39602.12
612.127	39886.86
612.484	39991.94
612.841	40092.73
613.198	40020.42
613.554	40181.99
613.911	40510.57
614.267	40551.93
614.624	40477.81
614.98	40605.03
615.337	40941.3
615.693	40865.37
616.05	40957.79
616.406	41060.62
616.762	41022.2
617.118	41112.14
617.475	41086.38
617.831	41479.81
618.187	41447.72
618.543	41559.59
618.899	41789.64
619.255	41639.13
619.611	41794.16
619.967	41970.2
620.323	42023.08
620.678	41904.43
621.034	41743.08
621.39	42031.44
621.746	41939.69
622.101	42361.15
622.457	42253.35
622.812	42260.81
623.168	42303.52
623.523	42451.31
623.879	42631.2
624.234	42323.63
624.589	42509.39
624.945	42586
625.3	42737.63
625.655	42599.56
626.01	42736.05
626.365	42695.6
626.72	42709.84
627.075	42694.02
627.43	42787.8
627.785	42687.24
628.14	42943.96
628.495	42828.48
628.85	42767.69
629.205	42726.11
629.559	43045.87
629.914	42824.64
630.269	42898.53
630.623	42839.1
630.978	42875.71
631.332	42922.49
631.687	43025.76
632.041	42774.92
632.396	43035.7
632.75	42952.32
633.104	42848.36
633.459	42796.16
633.813	42751.19
634.167	42817.18
634.521	42769.27
634.875	42834.81
635.229	42813.11
635.583	42528.37
635.937	42737.63
636.291	42655.83
636.645	42784.19
636.999	42706.45
637.352	42797.74
637.706	42610.63
638.06	42742.38
638.413	42601.82
638.767	42576.28
639.121	42480.92
639.474	42434.36
639.828	42498.09
640.181	42492.44
640.534	42456.28
640.888	42417.87
641.241	42223.75
641.594	42329.96
641.947	42328.15
642.301	42329.73
642.654	42368.38
643.007	42310.07
643.36	42307.36
643.713	42179
644.066	42395.04
644.419	42161.38
644.771	41736.08
645.124	41572.01
645.477	41404.79
645.83	41189.88
646.182	41099.94
646.535	40985.36
646.888	41170.44
647.24	40871.24
647.593	40954.63
647.945	40890.68
648.298	40764.13
648.65	40859.04
649.002	40770
649.355	40894.29
649.707	40696.33
650.059	40920.51
650.411	41564.78
650.763	41248.41
651.115	41846.58
651.467	41742.86
651.819	41707.6
652.171	41696.76
652.523	41578.34
652.875	41525.01
653.227	41276.88
653.578	41515.74
653.93	41403.21
654.282	41378.57
654.633	41242.08
654.985	41303.55
655.337	41356.88
655.688	41377.22
656.039	41491.11
656.391	41187.17
656.742	41178.35
657.094	41154.4
657.445	41259.25
657.796	41343.32
658.147	41228.75
658.498	41121.63
658.849	41327.05
659.2	41117.79
659.551	41180.61
659.902	41268.52
660.253	41114.63
660.604	41248.86
660.955	41017.45
661.306	41181.74
661.656	40999.15
662.007	41040.5
662.358	41136.09
662.708	41040.73
663.059	41051.35
663.409	40671.25
663.76	41184.68
664.11	41050.67
664.461	40952.82
664.811	41058.58
665.161	41056.1
665.511	40981.75
665.862	41045.7
666.212	41059.26
666.562	41177.9
666.912	41010.45
667.262	40939.49
667.612	40909.66
667.962	40957.79
668.312	40813.16
668.662	41090.44
669.011	40915.99
669.361	40705.37
669.711	40851.58
670.06	40738.59
670.41	40716.44
670.76	40705.6
671.109	40812.03
671.459	40887.06
671.808	40742.88
672.157	40711.47
672.507	40500.86
672.856	40586.28
673.205	40671.25
673.554	40750.11
673.904	40584.47
674.253	40837.57
674.602	40630.12
674.951	40127.08
675.3	39950.59
675.649	40593.28
675.998	40490.23
676.346	40528.88
676.695	40638.93
677.044	40379.96
677.393	40449.56
677.741	40349.67
678.09	40348.77
678.438	40325.49
678.787	40278.26
679.135	40378.15
679.484	40035.56
679.832	40225.38
680.181	39993.98
680.529	40096.57
680.877	40024.94
681.225	40026.52
681.573	40202.11
681.922	39875.34
682.27	39741.78
682.618	39791.27
682.966	39786.52
683.314	39910.36
683.661	39633.31
684.009	39605.74
684.357	39364.61
684.705	39372.75
685.053	39374.33
685.4	39372.3
685.748	39206.88
686.095	39347.21
686.443	39048.69
686.79	39084.85
687.138	38973.89
687.485	39200.55
687.832	39008.01
688.18	38926.21
688.527	38781.81
688.874	38675.37
689.221	38622.71
689.568	38489.16
689.915	38544.75
690.262	38517.63
690.609	38396.28
690.956	38178.66
691.303	38171.65
691.65	38070.19
691.997	38010.75
692.344	37826.35
692.69	37821.15
693.037	37752.91
693.383	37596.07
693.73	37535.06
694.077	37345.23
694.423	37372.8
694.769	37199.7
695.116	37287.83
695.462	37110.21
695.808	37072.92
696.155	37203.09
696.501	36749.09
696.847	36795.87
697.193	36575.31
697.539	36667.74
697.885	36526.5
698.231	36325.37
698.577	36421.42
698.923	36201.99
699.269	36118.37
699.614	35953.86
699.96	35956.79
700.306	35927.87
700.651	35804.71
700.997	35696.69
701.342	35765.16
701.688	35545.96
702.033	35428.45
702.379	35379.18
702.724	35291.95
703.069	35348.9
703.415	34810.84
703.76	35053.99
704.105	35107.1
704.45	34881.12
704.795	34759.99
705.14	34712.08
705.485	34600.45
705.83	34618.52
706.175	34479.32
706.52	34454.91
706.865	34273.22
707.209	34253.56
707.554	34220.57
707.899	34247.69
708.243	33963.17
708.588	33953.01
708.932	33762.05
709.277	33722.96
709.621	33809.28
709.966	33621.49
710.31	33610.64
710.654	33332.23
710.998	33588.27
711.342	33457.2
711.687	33341.27
712.031	33298.11
712.375	33026.02
712.719	33193.93
713.063	33093.59
713.407	33193.93
713.75	33004.56
714.094	32966.14
714.438	32775.86
714.782	32871.45
715.125	32646.37
715.469	32693.38
715.812	32531.57
716.156	32373.61
716.499	32328.19
716.843	32401.41
717.186	32280.96
717.53	32448.19
717.873	32274.86
718.216	32323.67
718.559	31986.05
718.902	31906.51
719.246	32021.53
719.589	31793.74
719.932	31827.19
720.275	31711.03
720.617	31737.92
720.96	31685.04
721.303	31611.15
721.646	31745.83
721.989	31346.29
722.331	31605.95
722.674	31386.29
723.016	31356.92
723.359	31398.27
723.701	31383.58
724.044	31106.75
724.386	31036.25
724.729	31106.3
725.071	31099.75
725.413	30953.54
725.755	31044.61
726.097	30943.37
726.439	30707.67
726.782	30706.09
727.124	30829.47
727.465	30606.65
727.807	30635.35
728.149	30571.85
728.491	30592.19
728.833	30443.27
729.175	30462.48
729.516	30323.27
729.858	30305.64
730.199	30417.73
730.541	30240.56
730.882	30244.18
731.224	30257.96
731.565	30147.46
731.906	30077.63
732.248	30086.44
732.589	29907.46
732.93	29783.85
733.271	29921.02
733.612	29822.72
733.953	29856.62
734.294	29766.22
734.635	29716.51
734.976	29739.33
735.317	29561.26
735.658	29675.83
735.999	29553.8
736.339	29439.45
736.68	29657.75
737.021	29568.26
737.361	29344.77
737.702	29472.9
738.042	29320.58
738.383	29254.15
738.723	29295.5
739.063	29194.03
739.404	29303.64
739.744	29169.4
740.084	29022.29
740.424	29052.12
740.764	29086.01
741.104	29058.22
741.444	28925.12
741.784	28871.11
742.124	28790.88
742.464	28801.5
742.804	28652.35
743.143	28805.8
743.483	28674.95
743.823	28549.31
744.162	28531.45
744.502	28546.82
744.841	28298.01
745.181	28477.67
745.52	28372.81
745.86	28315.19
746.199	28351.8
746.538	28455.52
746.877	28446.26
747.216	28348.41
747.556	28209.2
747.895	28166.94
748.234	28110.9
748.573	28113.16
748.911	27943.9
749.25	27922.88
749.589	27856.89
749.928	27785.03
750.267	27860.28
750.605	27835.88
750.944	27734.19
751.283	27600.4
751.621	27673.62
751.96	27518.37
752.298	27434.98
752.636	27607.64
752.975	27344.59
753.313	27281.77
753.651	27507.07
753.989	27213.52
754.327	27220.3
754.666	26952.96
755.004	27091.49
755.342	27120.42
755.679	27049.23
756.017	26792.06
756.355	26886.98
756.693	26752.06
757.031	26812.18
757.368	26584.61
757.706	26752.29
758.044	26545.74
758.381	26596.81
758.719	26433.43
759.056	26437.5
759.394	26368.12
759.731	26152.31
760.068	26187.56
760.405	26008.36
760.743	25970.62
761.08	26002.03
761.417	25824.63
761.754	25888.81
762.091	25738.76
762.428	25680
762.765	25525.43
763.102	25659.66
763.438	25418.09
763.775	25306.45
764.112	25271.2
764.449	25297.41
764.785	25152.56
765.122	25117.08
765.458	24907.82
765.795	24919.8
766.131	24774.49
766.467	24699.01
766.804	24612.91
767.14	24580.37
767.476	24463.31
767.812	24296.54
768.148	24505.34
768.485	24239.36
768.821	24148.07
769.157	24176.77
769.492	24129.54
769.828	23939.03
770.164	23778.58
770.5	23756.44
770.836	23682.09
771.171	23543.34
771.507	23632.82
771.842	23343.79
772.178	23353.06
772.513	23323.45
772.849	23331.59
773.184	23158.94
773.519	23135.89
773.855	22956.91
774.19	22873.75
774.525	22884.82
774.86	22874.43
775.195	22741.32
775.53	22669.91
775.865	22581.1
776.2	22417.49
776.535	22226.53
776.87	22299.3
777.205	22188.8
777.539	22147.89
777.874	22124.16
778.209	21870.16
778.543	21891.4
778.878	21725.53
779.212	21794.23
779.547	21699.99
779.881	21547.91
780.215	21505.2
780.55	21392.88
780.884	21405.31
781.218	21299.1
781.552	21311.76
781.886	21182.27
782.22	21130.29
782.554	20947.92
782.888	20795.39
783.222	20757.65
783.556	20815.72
783.889	20704.77
784.223	20495.73
784.557	20461.61
784.89	20457.54
785.224	20389.52
785.557	20250.09
785.891	20140.04
786.224	20044.44
786.558	20043.54
786.891	19942.07
787.224	19826.15
787.557	19812.36
787.891	19737.79
788.224	19709.31
788.557	19695.98
788.89	19554.74
789.223	19485.59
789.556	19475.19
789.888	19293.28
790.221	19238.59
790.554	19091.48
790.887	19203.11
791.219	19083.34
791.552	19035.43
791.884	18908.88
792.217	18881.54
792.549	18877.92
792.882	18650.58
793.214	18633.63
793.546	18725.38
793.879	18538.95
794.211	18562
794.543	18596.35
794.875	18417.59
795.207	18542.11
795.539	18294.66
795.871	18308.67
796.203	18129.92
796.535	18097.83
796.867	18007.66
797.198	17918.17
797.53	18007.21
797.862	17788.68
798.193	17784.39
798.525	17751.85
798.856	17846.54
799.188	17518.86
799.519	17608.58
799.85	17407
800.182	17480.22
800.513	17396.15
800.844	17284.52
801.175	17389.6
801.506	17271.41
801.837	17233.9
802.168	17178.76
802.499	17126.56
802.83	16995.26
803.161	16932.21
803.491	16951.19
803.822	16930.63
804.153	16855.38
804.483	16696.96
804.814	16678.43
805.145	16687.47
805.475	16684.99
805.805	16557.98
806.136	16567.02
806.466	16514.37
806.796	16450.41
807.126	16315.5
807.457	16349.4
807.787	16346.91
808.117	16277.31
808.447	16185.79
808.777	16173.36
809.107	16167.03
809.436	16174.04
809.766	16045.23
810.096	16028.73
810.426	15944.89
810.755	15907.15
811.085	15861.05
811.414	15939.24
811.744	15787.61
812.073	15731.34
812.403	15774.05
812.732	15689.98
813.061	15585.58
813.39	15480.27
813.719	15537.67
814.049	15572.25
814.378	15494.28
814.707	15361.18
815.036	15371.12
815.365	15313.04
815.693	15229.2
816.022	15251.35
816.351	15170
816.68	15140.62
817.008	15081.19
817.337	14965.71
817.665	14971.13
817.994	14988.53
818.322	15013.62
818.651	14820.4
818.979	14843.45
819.307	14940.85
819.636	14838.93
819.964	14748.31
820.292	14771.59
820.62	14705.38
820.948	14624.47
821.276	14797.8
821.604	14701.31
821.932	14686.62
822.259	14751.48
822.587	14726.62
822.915	14636.68
823.243	14723.45
823.57	14643.23
823.898	14689.11
824.225	14584.02
824.553	14676.45
824.88	14635.32
825.207	14594.19
825.535	14572.05
825.862	14641.87
826.189	14550.8
826.516	14565.72
826.843	14685.94
827.17	14577.7
827.497	14616.11
827.824	14644.59
828.151	14641.65
828.478	14548.09
828.805	14660.18
829.131	14574.98
829.458	14567.3
829.785	14477.13
830.111	14523.91
830.438	14587.41
830.764	14553.29
831.09	14588.77
831.417	14481.88
831.743	14548.32
832.069	14520.52
832.395	14441.65
832.722	14516.91
833.048	14416.34
833.374	14428.32
833.7	14426.06
834.026	14404.14
834.351	14431.71
834.677	14459.73
835.003	14460.64
835.329	14459.73
835.654	14372.5
835.98	14277.59
836.306	14332.28
836.631	14328.21
836.956	14331.15
837.282	14348.32
837.607	14177.71
837.932	14202.11
838.258	14222
838.583	14172.28
838.908	14092.96
839.233	14107.43
839.558	14127.76
839.883	14017.71
840.208	13945.85
840.533	13982.01
840.858	13943.81
841.182	13973.64
841.507	14040.31
841.832	13916.47
842.156	13889.13
842.481	13864.27
842.805	13843.48
843.13	13787.89
843.454	13755.8
843.778	13763.48
844.103	13673.31
844.427	13732.52
844.751	13629.7
845.075	13616.82
845.399	13611.39
845.723	13467.89
846.047	13457.73
846.371	13378.63
846.695	13465.41
847.019	13254.79
847.343	13218.18
847.666	13098.86
847.99	13117.4
848.313	13135.47
848.637	13080.11
848.96	13122.37
849.284	12992.43
849.607	12890.96
849.931	12842.6
850.254	12797.63
850.577	12716.73
850.9	12610.52
851.223	12628.82
851.546	12531.65
851.869	12446.45
852.192	12504.76
852.515	12346.57
852.838	12337.53
853.161	12316.29
853.483	12251.66
853.806	12238.77
854.129	12216.85
854.451	12102.05
854.774	12059.12
855.096	12009.4
855.419	11983.64
855.741	11983.87
856.063	11900.93
856.385	11841.95
856.708	11906.58
857.03	11863.87
857.352	11829.52
857.674	11780.93
857.996	11735.74
858.318	11632.69
858.64	11711.78
858.961	11607.15
859.283	11639.47
859.605	11510.66
859.926	11567.83
860.248	11453.03
860.57	11496.42
860.891	11487.61
861.212	11396.54
861.534	11395.63
861.855	11369.64
862.176	11386.59
862.498	11415.97
862.819	11412.13
863.14	11332.81
863.461	11185.69
863.782	11204
864.103	11140.72
864.424	11208.74
864.745	11199.03
865.065	11195.19
865.386	11128.29
865.707	11081.06
866.027	11056.43
866.348	10988.86
866.668	11033.61
866.989	11051.69
867.309	11016.66
867.63	11073.61
867.95	10948.41
868.27	10922.88
868.59	10947.73
868.91	10916.55
869.23	10852.37
869.55	10837.91
869.87	10927.85
870.19	10852.82
870.51	10902.76
870.83	10841.75
871.15	10830.68
871.469	10722.2
871.789	10802.65
872.109	10791.13
872.428	10673.39
872.748	10725.82
873.067	10705.93
873.386	10668.19
873.706	10689.21
874.025	10602.66
874.344	10575.54
874.663	10571.02
874.982	10525.82
875.301	10614.41
875.62	10538.48
875.939	10564.69
876.258	10463.23
876.577	10455.54
876.896	10458.26
877.214	10424.36
877.533	10441.31
877.852	10450.35
878.17	10365.15
878.489	10442.21
878.807	10362.67
879.125	10373.96
879.444	10356.11
879.762	10281.09
880.08	10363.57
880.398	10247.41
880.716	10256.23
881.034	10190.01
881.352	10294.19
881.67	10168.32
881.988	10203.35
882.306	10187.53
882.624	10134.65
882.941	10110.69
883.259	10036.35
883.577	10030.47
883.894	10021.43
884.212	9992.73
884.529	9999.29
884.846	9964.48
885.164	9894.66
885.481	9919.51
885.798	9988.21
886.115	9893.53
886.432	9833.87
886.75	9821.66
887.067	9796.58
887.383	9755.68
887.7	9759.52
888.017	9762.68
888.334	9775.11
888.651	9701.89
888.967	9655.79
889.284	9607.21
889.6	9631.39
889.917	9555.68
890.233	9503.48
890.55	9482.24
890.866	9449.24
891.182	9437.49
891.498	9411.5
891.815	9337.38
892.131	9313.88
892.447	9348
892.763	9271.17
893.079	9336.7
893.395	9214.22
893.71	9218.74
894.026	9241.79
894.342	9147.1
894.657	9094.9
894.973	9145.75
895.289	9114.56
895.604	9136.93
895.92	9032.53
896.235	8953.44
896.55	8972.19
896.865	8945.75
897.181	8897.85
897.496	8886.77
897.811	8910.05
898.126	8823.04
898.441	8808.81
898.756	8779.88
899.071	8792.09
899.386	8758.19
899.7	8660.11
900.015	8600
900.33	8624.18
900.644	8632.77
900.959	8579.89
901.273	8573.33
901.588	8541.02
901.902	8517.29
902.216	8408.59
902.531	8404.07
902.845	8339.22
903.159	8303.96
903.473	8356.39
903.787	8248.14
904.101	8263.96
904.415	8230.07
904.729	8205.66
905.042	8178.77
905.356	8128.6
905.67	8139.22
905.984	8116.4
906.297	7982.39
906.611	7963.86
906.924	8011.31
907.237	7928.83
907.551	7921.15
907.864	7908.49
908.177	7868.27
908.491	7821.04
908.804	7832.11
909.117	7819.91
909.43	7737.42
909.743	7680.48
910.056	7743.07
910.368	7621.49
910.681	7587.15
910.994	7536.52
911.307	7606.13
911.619	7492.01
911.932	7499.01
912.244	7411.78
912.557	7426.47
912.869	7363.65
913.181	7347.6
913.494	7369.52
913.806	7287.49
914.118	7276.64
914.43	7212.47
914.742	7216.53
915.054	7130.43
915.366	7143.77
915.678	7121.85
915.99	7135.86
916.302	7063.09
916.613	7005.92
916.925	7072.13
917.236	6971.12
917.548	6887.95
917.859	6949.2
918.171	6876.43
918.482	6853.15
918.794	6818.13
919.105	6900.84
919.416	6788.75
919.727	6738.35
920.038	6769.31
920.349	6676.21
920.66	6685.93
920.971	6699.71
921.282	6590.56
921.593	6562.31
921.903	6567.96
922.214	6453.84
922.525	6515.53
922.835	6467.4
923.146	6428.76
923.456	6443.67
923.767	6412.26
924.077	6398.93
924.387	6352.6
924.697	6350.34
925.008	6305.37
925.318	6258.14
925.628	6278.48
925.938	6258.14
926.248	6128.2
926.558	6116.45
926.867	6118.48
927.177	6089.11
927.487	6038.49
927.796	6011.37
928.106	5969.56
928.416	6016.11
928.725	6017.47
929.034	5978.15
929.344	5956.45
929.653	5914.87
929.962	5877.81
930.271	5843.24
930.581	5795.33
930.89	5821.09
931.199	5729.11
931.508	5772.73
931.817	5740.64
932.125	5722.56
932.434	5712.17
932.743	5627.87
933.051	5595.33
933.36	5570.47
933.669	5537.71
933.977	5563.24
934.286	5459.29
934.594	5549.01
934.902	5462.91
935.21	5409.12
935.519	5452.06
935.827	5427.43
936.135	5387.2
936.443	5385.85
936.751	5318.5
937.059	5302.91
937.367	5283.02
937.674	5285.74
937.982	5231.5
938.29	5212.74
938.597	5239.41
938.905	5209.35
939.213	5109.24
939.52	5088.68
939.827	5179.52
940.135	5132.07
940.442	5133.42
940.749	5050.04
941.056	5066.31
941.363	4941.11
941.67	5030.6
941.977	4975.46
942.284	4977.5
942.591	4908.8
942.898	4884.84
943.205	4855.92
943.511	4831.74
943.818	4828.35
944.125	4783.6
944.431	4784.51
944.738	4785.64
945.044	4780.44
945.35	4695.02
945.657	4689.82
945.963	4617.51
946.269	4686.43
946.575	4669.48
946.881	4662.93
947.187	4664.51
947.493	4593.78
947.799	4615.02
948.105	4592.42
948.41	4550.16
948.716	4537.96
949.022	4516.94
949.327	4502.03
949.633	4426.1
949.938	4452.99
950.244	4421.58
950.549	4331.86
950.854	4382.94
951.16	4361.02
951.465	4313.56
951.77	4307.91
952.075	4315.59
952.38	4311.07
952.685	4289.6
952.99	4213
953.294	4248.25
953.599	4228.59
953.904	4214.13
954.209	4151.3
954.513	4176.84
954.818	4172.55
955.122	4120.57
955.426	4076.73
955.731	4056.62
956.035	4058.2
956.339	4028.37
956.643	4069.05
956.948	4017.3
957.252	3999.44
957.556	3989.27
957.86	3962.16
958.163	3948.37
958.467	3961.25
958.771	3885.55
959.075	3922.61
959.378	3886.45
959.682	3869.5
959.985	3864.08
960.289	3795.83
960.592	3804.19
960.896	3776.17
961.199	3787.92
961.502	3760.58
961.805	3728.49
962.108	3716.51
962.411	3695.27
962.714	3701.37
963.017	3660.24
963.32	3680.81
963.623	3716.96
963.926	3639
964.228	3624.31
964.531	3608.72
964.833	3577.08
965.136	3606.91
965.438	3584.09
965.741	3512
966.043	3464.32
966.345	3518.55
966.648	3542.05
966.95	3470.19
967.252	3481.04
967.554	3469.29
967.856	3433.58
968.158	3424.09
968.46	3374.37
968.761	3396.29
969.063	3366.69
969.365	3353.36
969.666	3382.06
969.968	3326.69
970.269	3315.17
970.571	3315.85
970.872	3298.67
971.174	3260.93
971.475	3238.56
971.776	3237.43
972.077	3235.62
972.378	3224.55
972.679	3195.4
972.98	3162.63
973.281	3161.5
973.582	3175.74
973.883	3120.6
974.183	3108.39
974.484	3139.13
974.785	3099.81
975.085	3092.57
975.386	3082.4
975.686	3051.9
975.986	3054.38
976.287	3063.42
976.587	3052.58
976.887	3009.64
977.187	3000.15
977.487	2989.53
977.787	2982.75
978.087	2950.2
978.387	2986.59
978.687	2930.77
978.987	2902.3
979.286	2912.69
979.586	2879.92
979.885	2873.6
980.185	2878.12
980.484	2831.34
980.784	2809.42
981.083	2822.75
981.382	2782.53
981.682	2802.41
981.981	2784.56
982.28	2807.38
982.579	2721.74
982.878	2781.17
983.177	2782.75
983.475	2753.6
983.774	2692.13
984.073	2664.79
984.372	2676.54
984.67	2740.27
984.969	2685.58
985.267	2660.04
985.566	2683.55
985.864	2675.64
986.162	2617.78
986.461	2606.03
986.759	2593.38
987.057	2567.16
987.355	2566.94
987.653	2583.43
987.951	2538.92
988.249	2540.95
988.547	2555.87
988.844	2524.45
989.142	2524.68
989.44	2484.45
989.737	2455.98
990.035	2469.99
990.332	2462.53
990.63	2469.77
990.927	2422.99
991.224	2435.64
991.521	2436.77
991.819	2412.14
992.116	2400.84
992.413	2376.21
992.71	2413.95
993.006	2351.12
993.303	2390.22
993.6	2380.73
993.897	2331.69
994.193	2342.76
994.49	2328.53
994.787	2297.79
995.083	2308.41
995.379	2302.09
995.676	2260.05
995.972	2260.96
996.268	2214.63
996.565	2226.61
996.861	2235.42
997.157	2224.12
997.453	2210.34
997.749	2196.55
998.044	2153.84
998.34	2184.58
998.636	2171.47
998.932	2151.58
999.227	2145.25
999.523	2097.8
999.818	2093.28
1000.114	2090.34
1000.409	2097.8
1000.704	2063.9
1001	2072.26
1001.295	2093.28
1001.59	2064.8
1001.885	2038.82
1002.18	2027.52
1002.475	2042.21
1002.77	1993.17
1003.065	2005.15
1003.359	2004.92
1003.654	1999.27
1003.949	1993.85
1004.243	1953.17
1004.538	1943.45
1004.832	1953.62
1005.127	1917.24
1005.421	1922.89
1005.715	1893.06
1006.009	1915.66
1006.304	1907.07
1006.598	1858.48
1006.892	1862.78
1007.186	1858.71
1007.48	1845.6
1007.773	1814.42
1008.067	1837.47
1008.361	1775.55
1008.655	1772.16
1008.948	1811.25
1009.242	1786.39
1009.535	1787.07
1009.829	1729.67
1010.122	1734.19
1010.415	1717.69
1010.708	1765.83
1011.001	1737.81
1011.295	1712.27
1011.588	1697.13
1011.881	1694.42
1012.173	1684.25
1012.466	1680.86
1012.759	1669.33
1013.052	1646.96
1013.344	1638.6
1013.637	1637.7
1013.93	1604.48
1014.222	1630.47
1014.514	1618.26
1014.807	1584.82
1015.099	1572.39
1015.391	1604.25
1015.683	1545.04
1015.976	1580.75
1016.268	1545.72
1016.56	1523.12
1016.851	1549.34
1017.143	1516.57
1017.435	1533.29
1017.727	1512.05
1018.018	1500.75
1018.31	1462.33
1018.602	1498.49
1018.893	1448.78
1019.185	1451.71
1019.476	1471.6
1019.767	1449.91
1020.058	1450.13
1020.35	1448.32
1020.641	1429.34
1020.932	1405.39
1021.223	1407.87
1021.514	1374.43
1021.804	1361.55
1022.095	1361.09
1022.386	1329.68
1022.677	1353.64
1022.967	1358.61
1023.258	1322.45
1023.548	1298.5
1023.839	1327.87
1024.129	1323.36
1024.419	1292.4
1024.709	1270.7
1025	1281.1
1025.29	1297.37
1025.58	1254.66
1025.87	1245.16
1026.16	1246.97
1026.449	1246.52
1026.739	1240.65
1027.029	1219.4
1027.319	1205.17
1027.608	1225.28
1027.898	1202.68
1028.187	1200.19
1028.477	1213.98
1028.766	1180.31
1029.055	1156.13
1029.344	1145.73
1029.634	1182.57
1029.923	1153.64
1030.212	1131.95
1030.501	1150.48
1030.79	1118.16
1031.078	1121.33
1031.367	1093.76
1031.656	1096.24
1031.945	1098.28
1032.233	1080.65
1032.522	1063.93
1032.81	1067.77
1033.099	1067.32
1033.387	1069.58
1033.675	1044.04
1033.963	1075
1034.251	1028.45
1034.54	1012.63
1034.828	1023.93
1035.116	1003.36
1035.403	1023.25
1035.691	1035.68
1035.979	988.67
1036.267	974.44
1036.554	978.05
1036.842	983.25
1037.129	994.78
1037.417	971.27
1037.704	966.3
1037.992	961.33
1038.279	993.19
1038.566	963.82
1038.853	963.82
1039.14	963.82
