Data from hue_30_FLMS001491_8.txt Node
Date: Mon Feb 06 15:04:34 GMT 2017
User: dcchb
Spectrometer: FLMS00149
Trigger mode: 0
Integration Time (sec): 2.000000E-2
Scans to average: 10
Electric dark correction enabled: true
Nonlinearity correction enabled: false
Boxcar width: 0
XAxis mode: Wavelengths
Number of Pixels in Spectrum: 2048
>>>>>Begin Spectral Data<<<<<
341.393	-10.24
341.776	-10.24
342.16	-10.24
342.543	-64.25
342.927	-64.48
343.31	-76.68
343.693	-65.61
344.077	-55.66
344.46	-45.49
344.843	-64.48
345.226	-58.6
345.61	-22.22
345.993	-27.41
346.376	-11.14
346.759	8.52
347.142	20.95
347.525	58.23
347.908	60.49
348.291	66.59
348.674	101.85
349.057	110.66
349.44	129.19
349.823	128.29
350.206	154.5
350.588	202.41
350.971	202.86
351.354	232.01
351.737	223.88
352.119	270.88
352.502	270.66
352.884	262.3
353.267	266.59
353.65	278.79
354.032	294.61
354.414	282.63
354.797	310.2
355.179	314.27
355.562	307.04
355.944	324.89
356.326	324.67
356.709	342.75
357.091	328.51
357.473	327.38
357.855	321.28
358.238	349.75
358.62	332.35
359.002	351.78
359.384	325.12
359.766	314.05
360.148	329.86
360.53	331.67
360.912	325.34
361.294	338.23
361.676	328.51
362.057	333.71
362.439	333.03
362.821	313.14
363.203	308.62
363.584	313.14
363.966	334.61
364.348	323.99
364.729	325.12
365.111	310.66
365.493	331.9
365.874	308.4
366.256	306.81
366.637	315.18
367.019	305.68
367.4	301.84
367.781	312.69
368.163	300.49
368.544	297.77
368.925	306.81
369.306	312.01
369.688	308.62
370.069	300.71
370.45	293.71
370.831	310.43
371.212	312.92
371.593	300.03
371.974	306.59
372.355	316.31
372.736	304.78
373.117	290.54
373.498	304.78
373.879	325.8
374.26	287.61
374.641	299.13
375.021	324.21
375.402	330.54
375.783	331.45
376.163	306.81
376.544	314.95
376.925	331.9
377.305	309.75
377.686	319.92
378.066	330.09
378.447	320.82
378.827	331.67
379.208	321.95
379.588	328.73
379.968	312.01
380.349	325.8
380.729	315.4
381.109	310.88
381.489	334.84
381.87	329.86
382.25	301.84
382.63	356.08
383.01	345.23
383.39	340.71
383.77	313.37
384.15	339.81
384.53	338
384.91	337.55
385.29	334.16
385.67	337.55
386.049	345.46
386.429	340.03
386.809	366.93
387.189	340.94
387.568	325.12
387.948	332.12
388.328	347.04
388.707	361.95
389.087	354.72
389.466	345.23
389.846	357.21
390.225	350.88
390.605	353.59
390.984	330.09
391.363	354.5
391.743	337.77
392.122	352.46
392.501	363.99
392.881	377.55
393.26	347.49
393.639	351.56
394.018	353.14
394.397	375.51
394.776	373.48
395.155	351.33
395.534	363.54
395.913	367.6
396.292	388.85
396.671	358.79
397.05	371.9
397.429	367.6
397.808	362.63
398.186	361.05
398.565	379.13
398.944	368.28
399.323	375.74
399.701	354.95
400.08	382.97
400.458	375.06
400.837	386.59
401.215	368.06
401.594	360.82
401.972	377.32
402.351	380.71
402.729	378.45
403.107	389.52
403.486	393.37
403.864	399.92
404.242	393.37
404.62	379.35
404.999	407.15
405.377	395.4
405.755	396.53
406.133	417.55
406.511	410.54
406.889	396.3
407.267	414.83
407.645	403.53
408.023	423.87
408.401	407.15
408.779	430.65
409.156	427.26
409.534	432.23
409.912	429.75
410.29	439.69
410.667	441.73
411.045	434.04
411.422	443.53
411.8	443.53
412.178	423.42
412.555	428.84
412.933	448.51
413.31	451.22
413.687	437.43
414.065	449.41
414.442	443.53
414.819	450.09
415.197	472.23
415.574	463.42
415.951	462.74
416.328	451.22
416.705	459.35
417.082	467.94
417.46	456.41
417.837	456.41
418.214	461.61
418.591	507.94
418.967	468.39
419.344	469.97
419.721	469.07
420.098	474.72
420.475	514.72
420.852	485.79
421.228	488.28
421.605	497.09
421.982	511.78
422.358	503.19
422.735	478.79
423.111	506.81
423.488	521.5
423.864	484.21
424.241	495.96
424.617	513.81
424.994	507.26
425.37	523.76
425.746	518.79
426.123	526.47
426.499	509.52
426.875	530.31
427.251	560.82
427.627	524.21
428.003	531.21
428.379	545.68
428.756	554.72
429.132	532.12
429.507	549.75
429.883	573.7
430.259	553.59
430.635	577.32
431.011	565.79
431.387	578.22
431.763	576.64
432.138	581.38
432.514	594.04
432.89	610.31
433.265	598.11
433.641	605.11
434.016	613.02
434.392	596.07
434.767	638.1
435.143	625.45
435.518	614.83
435.894	597.88
436.269	636.52
436.644	645.79
437.02	656.18
437.395	639.69
437.77	648.73
438.145	643.3
438.52	652.12
438.895	683.08
439.271	655.73
439.646	690.98
440.021	662.96
440.395	681.04
440.77	659.57
441.145	680.14
441.52	690.31
441.895	700.48
442.27	693.92
442.645	714.49
443.019	696.18
443.394	696.86
443.769	723.98
444.143	704.32
444.518	720.36
444.892	729.4
445.267	707.48
445.641	731.44
446.016	713.13
446.39	728.5
446.764	711.32
447.139	747.25
447.513	734.83
447.887	749.06
448.262	756.97
448.636	744.09
449.01	738.44
449.384	761.27
449.758	738.44
450.132	776.41
450.506	784.09
450.88	789.97
451.254	795.39
451.628	775.95
452.002	795.16
452.376	789.29
452.75	805.56
453.123	810.08
453.497	807.37
453.871	807.14
454.244	827.7
454.618	819.34
454.992	837.87
455.365	837.42
455.739	863.86
456.112	881.26
456.486	879.91
456.859	891.21
457.232	885.33
457.606	926.91
457.979	903.86
458.352	924.42
458.725	918.32
459.099	937.53
459.472	937.98
459.845	939.34
460.218	973.01
460.591	947.25
460.964	951.77
461.337	987.25
461.71	1008.04
462.083	1014.14
462.456	1003.52
462.829	1024.08
463.201	1030.64
463.574	1039.45
463.947	1043.97
464.32	1057.3
464.692	1073.57
465.065	1084.65
465.438	1071.31
465.81	1110.18
466.183	1103.86
466.555	1138.88
466.928	1130.52
467.3	1126.68
467.672	1167.58
468.045	1190.41
468.417	1213
468.789	1202.16
469.161	1217.98
469.534	1243.74
469.906	1263.17
470.278	1280.57
470.65	1276.96
471.022	1330.97
471.394	1316.96
471.766	1334.58
472.138	1354.7
472.51	1405.32
472.882	1391.98
473.253	1437.86
473.625	1447.8
473.997	1486.67
474.369	1465.2
474.74	1491.87
475.112	1547.23
475.484	1576.39
475.855	1577.74
476.227	1613.45
476.598	1647.57
476.97	1694.8
477.341	1719.43
477.713	1769.6
478.084	1769.15
478.455	1801.46
478.827	1830.39
479.198	1868.58
479.569	1931.18
479.94	1959.2
480.311	1986.77
480.682	2061.34
481.053	2098.18
481.424	2141.12
481.795	2148.35
482.166	2203.26
482.537	2281.9
482.908	2310.38
483.279	2372.07
483.65	2369.36
484.021	2433.09
484.391	2499.75
484.762	2513.31
485.133	2512.18
485.503	2603.7
485.874	2656.36
486.244	2705.39
486.615	2784.04
486.985	2850.02
487.356	2915.33
487.726	2905.39
488.097	2980.87
488.467	2999.17
488.837	3106.06
489.207	3152.39
489.578	3243.69
489.948	3240.07
490.318	3339.05
490.688	3340.41
491.058	3427.64
491.428	3485.94
491.798	3547.41
492.168	3607.97
492.538	3626.95
492.908	3669.44
493.278	3726.16
493.648	3779.04
494.017	3881.41
494.387	3905.36
494.757	3971.12
495.126	3967.73
495.496	4063.1
495.866	4068.52
496.235	4138.13
496.605	4185.13
496.974	4222.87
497.344	4307.61
497.713	4337.67
498.082	4343.32
498.452	4448.85
498.821	4449.76
499.19	4484.56
499.559	4530.66
499.928	4580.37
500.298	4611.56
500.667	4682.52
501.036	4645
501.405	4708.51
501.774	4740.6
502.143	4800.93
502.512	4806.58
502.88	4847.03
503.249	4908.05
503.618	4955.05
503.987	4989.18
504.356	5007.93
504.724	5066.24
505.093	5021.72
505.462	5115.5
505.83	5146.46
506.199	5196.63
506.567	5226.91
506.936	5251.09
507.304	5295.61
507.672	5336.51
508.041	5368.15
508.409	5383.06
508.777	5433.23
509.145	5499.67
509.514	5491.76
509.882	5563.17
510.25	5552.55
510.618	5625.77
510.986	5572.21
511.354	5672.77
511.722	5729.95
512.09	5756.61
512.458	5735.6
512.826	5737.86
513.193	5798.87
513.561	5854.46
513.929	5864.63
514.297	5911.86
514.664	5935.14
515.032	5915.71
515.4	5970.62
515.767	6040.45
516.135	6112.54
516.502	6021.47
516.869	6103.05
517.237	6141.46
517.604	6108.7
517.972	6157.51
518.339	6185.3
518.706	6232.08
519.073	6244.96
519.44	6310.05
519.808	6334.68
520.175	6293.32
520.542	6425.3
520.909	6480.21
521.276	6463.49
521.643	6460.1
522.009	6505.97
522.376	6534.22
522.743	6613.99
523.11	6577.61
523.477	6719.53
523.843	6729.02
524.21	6740.09
524.577	6797.04
524.943	6816.02
525.31	6829.35
525.676	6917.94
526.043	6921.33
526.409	6921.1
526.776	7012.4
527.142	7009.91
527.508	7060.31
527.874	7126.3
528.241	7173.3
528.607	7192.73
528.973	7184.6
529.339	7217.82
529.705	7279.06
530.071	7363.13
530.437	7349.79
530.803	7468.66
531.169	7446.97
531.535	7451.26
531.901	7460.52
532.267	7518.83
532.632	7604.7
532.998	7593.4
533.364	7672.5
533.73	7705.04
534.095	7757.24
534.461	7825.03
534.826	7797.92
535.192	7816.45
535.557	7863.45
535.923	7901.87
536.288	7929.21
536.653	7998.59
537.019	7922.66
537.384	7988.87
537.749	8056.89
538.114	8032.03
538.479	8093.95
538.845	8101.86
539.21	8081.98
539.575	8154.74
539.94	8234.06
540.305	8275.19
540.67	8177.79
541.034	8280.62
541.399	8294.63
541.764	8385.02
542.129	8459.37
542.494	8472.47
542.858	8526.71
543.223	8463.66
543.587	8504.34
543.952	8531
544.316	8557.44
544.681	8630.89
545.045	8671.57
545.41	8694.62
545.774	8725.8
546.138	8773.26
546.503	8821.39
546.867	8834.5
547.231	8870.66
547.595	8889.64
547.959	8891.9
548.324	8931.67
548.688	8951.78
549.052	8940.94
549.416	9005.12
549.779	9123.76
550.143	9126.47
550.507	9172.12
550.871	9175.28
551.235	9154.04
551.599	9211.44
551.962	9295.05
552.326	9243.53
552.689	9352.23
553.053	9368.5
553.417	9322.17
553.78	9429.06
554.143	9423.64
554.507	9481.71
554.87	9426.57
555.234	9582.5
555.597	9536.18
555.96	9523.97
556.323	9609.85
556.686	9615.04
557.05	9738.88
557.413	9671.09
557.776	9745.21
558.139	9841.48
558.502	9811.2
558.865	9800.58
559.228	9889.61
559.59	9938.43
559.953	9926.67
560.316	10017.52
560.679	10006.9
561.041	10113.56
561.404	10084.86
561.767	10140
562.129	10147.23
562.492	10238.98
562.854	10210.73
563.217	10219.32
563.579	10263.16
563.941	10288.02
564.304	10292.54
564.666	10443.95
565.028	10402.37
565.39	10490.95
565.753	10488.02
566.115	10503.38
566.477	10598.29
566.839	10616.6
567.201	10678.52
567.563	10669.48
567.925	10751.96
568.287	10763.26
568.648	10793.32
569.01	10885.52
569.372	10942.69
569.734	10909.02
570.095	10984.5
570.457	11057.49
570.819	11061.79
571.18	11120.09
571.542	11153.99
571.903	11234.21
572.265	11256.36
572.626	11369.35
572.987	11341.78
573.349	11390.59
573.71	11509.68
574.071	11490.7
574.432	11592.39
574.794	11698.6
575.155	11778.15
575.516	11792.61
575.877	11913.29
576.238	11935.89
576.599	12031.48
576.96	12084.13
577.32	12146.73
577.681	12271.02
578.042	12361.41
578.403	12436.44
578.763	12549.88
579.124	12596.43
579.485	12800.5
579.845	12942.87
580.206	12977.67
580.566	13019.7
580.927	13164.1
581.287	13467.37
581.648	13468.95
582.008	13693.13
582.368	13762.73
582.728	13984.42
583.089	14096.96
583.449	14233.45
583.809	14388.03
584.169	14566.1
584.529	14696.94
584.889	15080.44
585.249	15065.75
585.609	15166.76
585.969	15564.27
586.329	15734.43
586.688	15900.3
587.048	16174.65
587.408	16366.05
587.768	16548.65
588.127	16766.95
588.487	16958.35
588.846	17244.22
589.206	17338.68
589.565	17632.23
589.925	17935.73
590.284	18016.18
590.643	18323.97
591.003	18568.48
591.362	18870.39
591.721	19021.58
592.08	19337.5
592.44	19589.02
592.799	19915.11
593.158	20046.86
593.517	20296.34
593.876	20702.66
594.235	20871.7
594.593	21102.88
594.952	21373.83
595.311	21605.69
595.67	21889.98
596.029	22369.06
596.387	22561.6
596.746	22814.92
597.104	22969.95
597.463	23163.84
597.822	23537.16
598.18	23581.46
598.538	23946.42
598.897	24292.4
599.255	24320.87
599.613	25057.35
599.972	25043.34
600.33	25351.35
600.688	25441.75
601.046	25756.54
601.404	26082.63
601.762	26263.65
602.12	26464.09
602.478	26814.14
602.836	26928.26
603.194	27106.79
603.552	27437.85
603.91	27367.57
604.268	27752.65
604.625	27882.59
604.983	28219.3
605.341	28247.32
605.698	28599.63
606.056	28870.81
606.413	28871.94
606.771	29259.5
607.128	29464.24
607.485	29489.1
607.843	29754.63
608.2	30099.7
608.557	30311.45
608.914	30302.64
609.272	30650.2
609.629	30859.68
609.986	31068.04
610.343	31027.81
610.7	31347.35
611.057	31494.02
611.414	31710.06
611.771	31867.79
612.127	32066.66
612.484	32193.21
612.841	32419.42
613.198	32393.2
613.554	32516.14
613.911	32697.83
614.267	32984.15
614.624	32954.32
614.98	33221.88
615.337	33465.26
615.693	33381.2
616.05	33487.18
616.406	33822.32
616.762	33810.11
617.118	34048.53
617.475	34059.82
617.831	34262.08
618.187	34355.64
618.543	34424.11
618.899	34708.17
619.255	34727.6
619.611	34776.42
619.967	35037.88
620.323	35062.74
620.678	34991.55
621.034	35045.34
621.39	35162.85
621.746	35215.05
622.101	35584.98
622.457	35474.7
622.812	35558.32
623.168	35749.95
623.523	35788.82
623.879	35968.02
624.234	35824.75
624.589	35889.83
624.945	36175.48
625.3	36082.6
625.655	36218.86
626.01	36276.49
626.365	36279.43
626.72	36300.22
627.075	36205.76
627.43	36441.01
627.785	36347
628.14	36525.07
628.495	36516.71
628.85	36528.69
629.205	36405.75
629.559	36767.32
629.914	36814.1
630.269	36584.5
630.623	36636.71
630.978	36540.66
631.332	36913.54
631.687	36835.12
632.041	36662.47
632.396	36835.12
632.75	36676.71
633.104	36787.21
633.459	36650.49
633.813	36699.53
634.167	36805.74
634.521	36720.09
634.875	36958.51
635.229	36864.5
635.583	36669.7
635.937	36748.79
636.291	36608.68
636.645	36695.69
636.999	36636.03
637.352	36730.26
637.706	36652.07
638.06	36743.37
638.413	36663.15
638.767	36493.21
639.121	36690.72
639.474	36522.13
639.828	36489.37
640.181	36561.23
640.534	36541.34
640.888	36462.02
641.241	36535.92
641.594	36439.65
641.947	36612.07
642.301	36471.51
642.654	36496.82
643.007	36602.13
643.36	36498.4
643.713	36423.15
644.066	36577.27
644.419	36317.17
644.771	36215.93
645.124	35869.49
645.477	35693.91
645.83	35582.27
646.182	35540.69
646.535	35448.04
646.888	35429.96
647.24	35310.41
647.593	35419.11
647.945	35429.05
648.298	35175.5
648.65	35269.96
649.002	35088.05
649.355	35343.41
649.707	35215.95
650.059	35344.54
650.411	35711.98
650.763	35826.11
651.115	36126.89
651.467	35967.57
651.819	36085.99
652.171	35934.13
652.523	35868.36
652.875	35880.34
653.227	35782.27
653.578	36089.15
653.93	35884.64
654.282	35806.22
654.633	35741.14
654.985	35755.37
655.337	35838.31
655.688	35845.99
656.039	35939.32
656.391	35633.57
656.742	35663.17
657.094	35690.29
657.445	35935.26
657.796	35797.86
658.147	35717.86
658.498	35794.02
658.849	35733
659.2	35630.63
659.551	35628.15
659.902	35744.07
660.253	35669.5
660.604	35764.19
660.955	35450.97
661.306	35710.18
661.656	35610.74
662.007	35408.04
662.358	35528.71
662.708	35570.75
663.059	35502.95
663.409	35286.91
663.76	35636.73
664.11	35563.06
664.461	35588.6
664.811	35593.8
665.161	35537.53
665.511	35288.72
665.862	35512.89
666.212	35536.62
666.562	35606.22
666.912	35558.99
667.262	35573.01
667.612	35527.58
667.962	35509.73
668.312	35497.53
668.662	35653.68
669.011	35425.66
669.361	35444.42
669.711	35514.25
670.06	35325.1
670.41	35338.66
670.76	35283.75
671.109	35523.29
671.459	35278.32
671.808	35229.06
672.157	35334.59
672.507	35158.55
672.856	35121.27
673.205	35199.46
673.554	35300.02
673.904	35237.19
674.253	35442.61
674.602	35322.16
674.951	34803.08
675.3	34631.56
675.649	35079.01
675.998	35079.46
676.346	35106.12
676.695	35208.72
677.044	35003.3
677.393	35113.13
677.741	34990.2
678.09	34929.86
678.438	34882.4
678.787	35005.11
679.135	35046.69
679.484	34706.59
679.832	34942.74
680.181	34541.62
680.529	34880.82
680.877	34673.59
681.225	34576.42
681.573	34834.72
681.922	34536.65
682.27	34538
682.618	34498.46
682.966	34388.18
683.314	34526.71
683.661	34483.09
684.009	34223.44
684.357	34247.84
684.705	34309.99
685.053	34252.14
685.4	34100.28
685.748	33902.31
686.095	33925.37
686.443	33766.95
686.79	33728.31
687.138	33958.58
687.485	33861.86
687.832	33718.82
688.18	33649.21
688.527	33595.88
688.874	33607.86
689.221	33567.63
689.568	33466.85
689.915	33306.4
690.262	33449.22
690.609	33302.1
690.956	33140.53
691.303	33013.98
691.65	32924.26
691.997	32960.19
692.344	32795.23
692.69	32738.05
693.037	32717.71
693.383	32571.95
693.73	32635.23
694.077	32489.02
694.423	32415.12
694.769	32329.47
695.116	32252.41
695.462	32148.91
695.808	32075.92
696.155	32013.1
696.501	31850.84
696.847	31983.72
697.193	31591.42
697.539	31748.47
697.885	31435.71
698.231	31517.29
698.577	31475.03
698.923	31493.56
699.269	31218.32
699.614	31032.56
699.96	30987.82
700.306	31031.2
700.651	30826.69
700.997	30816.52
701.342	30853.81
701.688	30774.49
702.033	30578.79
702.379	30495.4
702.724	30572.68
703.069	30535.4
703.415	30287.27
703.76	30266.7
704.105	30226.48
704.45	30265.57
704.795	29876.43
705.14	29952.14
705.485	29914.17
705.83	29845.25
706.175	29819.03
706.52	29668.53
706.865	29576.55
707.209	29583.11
707.554	29577.68
707.899	29460.62
708.243	29372.26
708.588	29438.93
708.932	29163.91
709.277	29230.35
709.621	29171.82
709.966	29080.52
710.31	29097.02
710.654	28746.07
710.998	28827.19
711.342	28839.17
711.687	28824.03
712.031	28614.54
712.375	28549.69
712.719	28573.87
713.063	28547.43
713.407	28671.94
713.75	28524.83
714.094	28417.71
714.438	28241.9
714.782	28312.18
715.125	28146.76
715.469	28266.3
715.812	27998.74
716.156	27973.66
716.499	28027.22
716.843	28009.36
717.186	27838.97
717.53	27960.78
717.873	27934.79
718.216	27804.17
718.559	27689.6
718.902	27544.52
719.246	27622.25
719.589	27368.25
719.932	27447.8
720.275	27409.38
720.617	27425.2
720.96	27365.54
721.303	27388.59
721.646	27357.18
721.989	27110.18
722.331	27291.42
722.674	27089.84
723.016	27111.76
723.359	27052.33
723.701	27133
724.044	26821.6
724.386	26878.77
724.729	26937.75
725.071	26819.79
725.413	26762.39
725.755	26761.49
726.097	26651.21
726.439	26514.49
726.782	26623.86
727.124	26647.14
727.465	26486.69
727.807	26550.42
728.149	26424.77
728.491	26429.29
728.833	26399.46
729.175	26266.36
729.516	26243.08
729.858	26219.58
730.199	26172.35
730.541	26129.86
730.882	26160.37
731.224	26155.17
731.565	25952.02
731.906	26029.75
732.248	25928.51
732.589	25839.48
732.93	25691.91
733.271	25693.49
733.612	25757.22
733.953	25800.38
734.294	25658.46
734.635	25628.86
734.976	25629.54
735.317	25512.48
735.658	25619.37
735.999	25592.7
736.339	25491.46
736.68	25465.93
737.021	25435.87
737.361	25329.21
737.702	25539.82
738.042	25375.99
738.383	25310.68
738.723	25397
739.063	25259.83
739.404	25281.3
739.744	25150
740.084	25122.66
740.424	25243.56
740.764	25063.9
741.104	25145.26
741.444	24955.88
741.784	24997.69
742.124	24963.57
742.464	25010.12
742.804	24899.39
743.143	24854.64
743.483	24882.44
743.823	24807.86
744.162	24792.5
744.502	24830.69
744.841	24699.62
745.181	24744.59
745.52	24701.65
745.86	24756.11
746.199	24629.11
746.538	24613.29
746.877	24625.95
747.216	24539.4
747.556	24512.28
747.895	24515.89
748.234	24300.31
748.573	24282
748.911	24295.34
749.25	24323.36
749.589	24155.9
749.928	24170.82
750.267	24201.78
750.605	24091.73
750.944	24116.81
751.283	23911.62
751.621	24108.67
751.96	23941.9
752.298	23959.98
752.636	23869.81
752.975	23882.69
753.313	23658.29
753.651	23899.87
753.989	23760.21
754.327	23753.2
754.666	23607.44
755.004	23774.67
755.342	23707.33
755.679	23559.76
756.017	23539.65
756.355	23524.06
756.693	23349.15
757.031	23394.79
757.368	23273.89
757.706	23357.73
758.044	23242.03
758.381	23311.41
758.719	23138.53
759.056	23087.23
759.394	23009.27
759.731	22945.99
760.068	22809.73
760.405	22730.86
760.743	22775.38
761.08	22806.56
761.417	22765.66
761.754	22672.1
762.091	22630.52
762.428	22476.4
762.765	22275.95
763.102	22447.25
763.438	22280.25
763.775	22210.87
764.112	22239.57
764.449	22132.68
764.785	22201.83
765.122	21858.11
765.458	21967.94
765.795	21948.05
766.131	21906.47
766.467	21725.46
766.804	21720.04
767.14	21534.96
767.476	21591.45
767.812	21509.19
768.148	21552.36
768.485	21374.51
768.821	21252.48
769.157	21279.37
769.492	21045.25
769.828	21170.67
770.164	20937.23
770.5	20834.64
770.836	20897.23
771.171	20775.2
771.507	20803.9
771.842	20562.55
772.178	20556.9
772.513	20542.89
772.849	20429.67
773.184	20447.3
773.519	20367.98
773.855	20263.8
774.19	20156.24
774.525	20064.71
774.86	20080.76
775.195	20045.5
775.53	20126.86
775.865	19887.09
776.2	19792.63
776.535	19666.98
776.87	19634.67
777.205	19564.39
777.539	19460.89
777.874	19468.57
778.209	19267.45
778.543	19257.73
778.878	19159.43
779.212	19153.78
779.547	19064.51
779.881	19038.52
780.215	18960.11
780.55	18968.92
780.884	18763.05
781.218	18824.97
781.552	18805.08
781.886	18645.54
782.22	18537.07
782.554	18524.41
782.888	18292.78
783.222	18309.05
783.556	18229.51
783.889	18181.6
784.223	17981.83
784.557	17948.61
784.89	18053.47
785.224	17923.53
785.557	17810.31
785.891	17833.13
786.224	17732.57
786.558	17758.56
786.891	17647.83
787.224	17498.23
787.557	17417.32
787.891	17465.23
788.224	17422.3
788.557	17391.34
788.89	17312.92
789.223	17301.85
789.556	17157.22
789.888	17070.89
790.221	17105.92
790.554	16882.65
790.887	16860.95
791.219	16854.85
791.552	16782.09
791.884	16646.72
792.217	16706.83
792.549	16602.66
792.882	16544.81
793.214	16389.1
793.546	16492.6
793.879	16299.16
794.211	16286.28
794.543	16365.6
794.875	16200.41
795.207	16266.39
795.539	16128.09
795.871	16046.51
796.203	16006.51
796.535	15878.38
796.867	15936.46
797.198	15857.59
797.53	15842.22
797.862	15719.74
798.193	15781.21
798.525	15693.98
798.856	15689.46
799.188	15456.02
799.519	15353.2
799.85	15437.94
800.182	15456.25
800.513	15320.43
800.844	15218.96
801.175	15320.66
801.506	15308
801.837	15076.82
802.168	15109.59
802.499	15108.01
802.83	14941.91
803.161	15072.53
803.491	14963.38
803.822	15003.83
804.153	14896.71
804.483	14791.4
804.814	14690.39
805.145	14781.01
805.475	14645.19
805.805	14617.17
806.136	14626.66
806.466	14518.42
806.796	14498.76
807.126	14424.86
807.457	14386.44
807.787	14342.15
808.117	14339.44
808.447	14279.1
808.777	14267.58
809.107	14267.12
809.436	14198.2
809.766	14147.81
810.096	14191.65
810.426	13984.42
810.755	14047.7
811.085	13971.77
811.414	14068.03
811.744	13951.2
812.073	13846.8
812.403	13913.01
812.732	13800.7
813.061	13677.08
813.39	13626.69
813.719	13633.47
814.049	13682.51
814.378	13661.49
814.707	13620.59
815.036	13629.4
815.365	13551.44
815.693	13322.06
816.022	13409.07
816.351	13304.66
816.68	13270.77
817.008	13332.23
817.337	13175.85
817.665	13259.92
817.994	13214.05
818.322	13213.14
818.651	13155.52
818.979	13102.41
819.307	13186.93
819.636	13139.24
819.964	12957.55
820.292	13091.56
820.62	13047.72
820.948	13038.91
821.276	13006.82
821.604	13020.38
821.932	13085.69
822.259	12958.23
822.587	12987.61
822.915	12925.69
823.243	12881.85
823.57	12971.57
823.898	12962.3
824.225	12872.13
824.553	12938.12
824.88	12918.23
825.207	12962.75
825.535	12911.68
825.862	12903.77
826.189	12854.05
826.516	12972.02
826.843	13012.24
827.17	12903.09
827.497	12962.53
827.824	12965.01
828.151	12945.35
828.478	12875.98
828.805	12976.76
829.131	12840.72
829.458	12833.94
829.785	12817.22
830.111	12842.76
830.438	12904.67
830.764	12862.42
831.09	12859.03
831.417	12858.35
831.743	12929.08
832.069	12825.35
832.395	12819.48
832.722	12816.77
833.048	12776.77
833.374	12817.22
833.7	12729.09
834.026	12736.09
834.351	12787.84
834.677	12695.87
835.003	12705.13
835.329	12687.05
835.654	12697.9
835.98	12594.63
836.306	12770.22
836.631	12595.98
836.956	12633.95
837.282	12645.02
837.607	12599.37
837.932	12595.53
838.258	12561.63
838.583	12539.26
838.908	12490.9
839.233	12549.66
839.558	12463.1
839.883	12420.39
840.208	12394.18
840.533	12354.18
840.858	12414.74
841.182	12310.79
841.507	12365.48
841.832	12228.31
842.156	12237.8
842.481	12223.11
842.805	12144.69
843.13	12189.89
843.454	12159.84
843.778	12111.25
844.103	11987.18
844.427	12054.98
844.751	12070.12
845.075	12002.55
845.399	11936.79
845.723	11903.57
846.047	11897.92
846.371	11807.98
846.695	11833.74
847.019	11735.89
847.343	11656.8
847.666	11589
847.99	11579.29
848.313	11525.5
848.637	11497.25
848.96	11471.72
849.284	11443.24
849.607	11299.75
849.931	11344.04
850.254	11275.79
850.577	11181.33
850.9	11176.81
851.223	11057.27
851.546	11111.73
851.869	10999.19
852.192	11037.61
852.515	10974.1
852.838	10929.36
853.161	11019.3
853.483	10864.5
853.806	10771.62
854.129	10746.31
854.451	10716.03
854.774	10679.42
855.096	10635.13
855.419	10616.6
855.741	10577.05
856.063	10510.16
856.385	10513.33
856.708	10541.35
857.03	10509.94
857.352	10482.82
857.674	10454.57
857.996	10408.47
858.318	10354.91
858.64	10303.61
858.961	10339.32
859.283	10221.58
859.605	10231.52
859.926	10243.73
860.248	10109.49
860.57	10130.74
860.891	10155.37
861.212	10116.5
861.534	10043.06
861.855	10034.69
862.176	10060.91
862.498	10087.12
862.819	10021.36
863.14	9997.86
863.461	9973
863.782	9916.28
864.103	9876.28
864.424	9918.31
864.745	9940.68
865.065	9842.83
865.386	9834.02
865.707	9817.3
866.027	9724.65
866.348	9791.54
866.668	9784.53
866.989	9739.33
867.309	9623.86
867.63	9758.99
867.95	9671.09
868.27	9581.15
868.59	9635.16
868.91	9639.68
869.23	9619.79
869.55	9629.51
869.87	9608.72
870.19	9600.13
870.51	9636.29
870.83	9620.47
871.15	9509.51
871.469	9562.84
871.789	9567.81
872.109	9478.78
872.428	9508.83
872.748	9514.48
873.067	9514.26
873.386	9463.86
873.706	9420.7
874.025	9397.2
874.344	9393.81
874.663	9389.06
874.982	9340.93
875.301	9358.33
875.62	9320.59
875.939	9262.51
876.258	9251.66
876.577	9279.69
876.896	9190.65
877.214	9235.39
877.533	9203.08
877.852	9253.25
878.17	9269.74
878.489	9185.22
878.807	9147.26
879.125	9166.02
879.444	9152.68
879.762	9180.03
880.08	9131.44
880.398	9052.8
880.716	9140.03
881.034	9079.24
881.352	9095.51
881.67	9004.21
881.988	9012.12
882.306	8999.01
882.624	8981.84
882.941	8880.15
883.259	8894.84
883.577	8886.02
883.894	8896.64
884.212	8789.53
884.529	8862.52
884.846	8795.18
885.164	8790.88
885.481	8804.67
885.798	8801.96
886.115	8653.26
886.432	8730.32
886.75	8690.32
887.067	8730.1
887.383	8584.34
887.7	8603.09
888.017	8603.54
888.334	8618.01
888.651	8561.96
888.967	8505.47
889.284	8482.87
889.6	8507.28
889.917	8357
890.233	8432.7
890.55	8435.19
890.866	8419.14
891.182	8358.81
891.498	8315.42
891.815	8293.5
892.131	8253.95
892.447	8295.53
892.763	8203.78
893.079	8228.41
893.395	8199.49
893.71	8180.28
894.026	8169.88
894.342	8160.39
894.657	8054.18
894.973	8112.94
895.289	8039.94
895.604	8031.58
895.92	8016.67
896.235	7943.45
896.55	8030.23
896.865	7974.86
897.181	7920.85
897.496	7951.81
897.811	7817.58
898.126	7825.26
898.441	7766.73
898.756	7727.41
899.071	7737.35
899.386	7805.15
899.7	7693.29
900.015	7633.63
900.33	7618.26
900.644	7629.79
900.959	7536
901.273	7552.27
901.588	7522.67
901.902	7489.22
902.216	7406.29
902.531	7439.96
902.845	7422.79
903.159	7362
903.473	7290.36
903.787	7308.66
904.101	7284.48
904.415	7270.7
904.729	7275.44
905.042	7204.71
905.356	7099.4
905.67	7206.97
905.984	7131.04
906.297	7194.54
906.611	7082.23
906.924	7064.6
907.237	7059.63
907.551	6985.96
907.864	7027.32
908.177	6950.03
908.491	6933.76
908.804	6930.37
909.117	6863.25
909.43	6848.79
909.743	6790.94
910.056	6818.06
910.368	6780.54
910.681	6743.71
910.994	6700.77
911.307	6668.23
911.619	6634.33
911.932	6610.83
912.244	6625.52
912.557	6639.75
912.869	6495.8
913.181	6524.05
913.494	6490.83
913.806	6465.97
914.118	6446.31
914.43	6339.42
914.742	6460.32
915.054	6345.98
915.366	6341.91
915.678	6320.22
915.99	6315.02
916.302	6236.83
916.613	6206.32
916.925	6210.16
917.236	6181.24
917.548	6101.92
917.859	6138.98
918.171	6099.2
918.482	6069.15
918.794	6029.38
919.105	6006.55
919.416	6001.81
919.727	6022.82
920.038	5978.08
920.349	5922.94
920.66	5889.27
920.971	5857.18
921.282	5877.06
921.593	5864.18
921.903	5813.79
922.214	5806.33
922.525	5761.81
922.835	5676.62
923.146	5716.84
923.456	5673.68
923.767	5685.43
924.077	5636.17
924.387	5600.46
924.697	5563.17
925.008	5567.69
925.318	5543.74
925.628	5574.47
925.938	5486.11
926.248	5493.8
926.558	5475.94
926.867	5448.15
927.177	5430.3
927.487	5357.53
927.796	5377.42
928.106	5323.18
928.416	5346.68
928.725	5311.2
929.034	5278.89
929.344	5316.4
929.653	5226.46
929.962	5221.26
930.271	5189.17
930.581	5144.2
930.89	5138.33
931.199	5096.97
931.508	5141.94
931.817	5116.18
932.125	5079.12
932.434	5043.19
932.743	5027.14
933.051	5005.9
933.36	4963.19
933.669	4901.27
933.977	4902.85
934.286	4920.25
934.594	4900.14
934.902	4866.02
935.21	4894.94
935.519	4863.08
935.827	4804.55
936.135	4813.59
936.443	4775.85
936.751	4749.64
937.059	4732.01
937.367	4736.75
937.674	4719.81
937.982	4676.19
938.29	4620.6
938.597	4670.32
938.905	4588.28
939.213	4573.37
939.52	4562.3
939.827	4566.81
940.135	4518.91
940.442	4534.05
940.749	4507.61
941.056	4523.88
941.363	4449.53
941.67	4424.22
941.977	4412.24
942.284	4399.14
942.591	4389.19
942.898	4346.26
943.205	4391.9
943.511	4297.22
943.818	4321.17
944.125	4251.12
944.431	4264.45
944.738	4237.56
945.044	4227.39
945.35	4224
945.657	4144.45
945.963	4154.85
946.269	4145.13
946.575	4147.16
946.881	4097.45
947.187	4111.46
947.493	4103.55
947.799	4069.65
948.105	4052.48
948.41	4039.15
948.716	4021.74
949.022	3982.65
949.327	3981.29
949.633	3962.99
949.938	3963.89
950.244	3943.78
950.549	3902.2
950.854	3902.2
951.16	3908.53
951.465	3848.19
951.77	3831.69
952.075	3847.51
952.38	3825.14
952.685	3791.92
952.99	3770.23
953.294	3815.65
953.599	3770.45
953.904	3748.08
954.209	3717.8
954.513	3741.75
954.818	3666.27
955.122	3649.55
955.426	3661.53
955.731	3628.76
956.035	3634.86
956.339	3599.16
956.643	3609.78
956.948	3574.75
957.252	3544.24
957.556	3548.31
957.86	3518.71
958.163	3537.01
958.467	3529.1
958.771	3549.89
959.075	3470.35
959.378	3464.92
959.682	3428.31
959.985	3435.55
960.289	3408.65
960.592	3378.6
960.896	3378.37
961.199	3378.82
961.502	3343.8
961.805	3349.22
962.108	3298.83
962.411	3327.07
962.714	3303.35
963.017	3281.88
963.32	3312.61
963.623	3263.35
963.926	3230.58
964.228	3224.48
964.531	3224.03
964.833	3211.82
965.136	3207.08
965.438	3193.29
965.741	3190.35
966.043	3177.02
966.345	3132.28
966.648	3131.82
966.95	3123.92
967.252	3121.43
967.554	3059.74
967.856	3080.75
968.158	3042.34
968.46	3025.84
968.761	3032.39
969.063	3015.67
969.365	3037.14
969.666	2991.94
969.968	2989.46
970.269	2937.71
970.571	2941.77
970.872	2927.08
971.174	2915.78
971.475	2896.12
971.776	2922.79
972.077	2851.61
972.378	2899.74
972.679	2871.27
972.98	2899.97
973.281	2843.24
973.582	2844.6
973.883	2823.13
974.183	2776.81
974.484	2766.41
974.785	2767.54
975.085	2740.42
975.386	2798.73
975.686	2751.72
975.986	2717.82
976.287	2727.99
976.587	2720.08
976.887	2669.01
977.187	2670.82
977.487	2698.39
977.787	2666.98
978.087	2605.28
978.387	2658.84
978.687	2631.05
978.987	2634.21
979.286	2592.63
979.586	2620.2
979.885	2605.28
980.185	2604.83
980.484	2526.64
980.784	2537.04
981.083	2552.86
981.382	2509.92
981.682	2513.31
981.981	2525.06
982.28	2500.43
982.579	2480.54
982.878	2458.17
983.177	2448.9
983.475	2442.58
983.774	2421.56
984.073	2416.36
984.372	2428.34
984.67	2414.56
984.969	2430.6
985.267	2399.41
985.566	2385.18
985.864	2352.41
986.162	2344.05
986.461	2357.61
986.759	2324.61
987.057	2309.7
987.355	2340.43
987.653	2281.23
987.951	2335.01
988.249	2293.65
988.547	2290.04
988.844	2244.16
989.142	2254.79
989.44	2253.66
989.737	2221.57
990.035	2238.29
990.332	2211.17
990.63	2198.97
990.927	2200.55
991.224	2183.37
991.521	2162.13
991.819	2163.26
992.116	2140.66
992.413	2142.92
992.71	2134.11
993.006	2091.85
993.303	2103.38
993.6	2100.44
993.897	2119.87
994.193	2077.84
994.49	2097.28
994.787	2092.53
995.083	2078.07
995.379	2035.36
995.676	2045.3
995.972	1996.71
996.268	1988.35
996.565	1981.8
996.861	2001.46
997.157	2009.59
997.453	1975.92
997.749	1966.43
998.044	1927.11
998.34	1955.58
998.636	1986.77
998.932	1933.44
999.227	1903.16
999.523	1936.38
999.818	1918.52
1000.114	1920.33
1000.409	1858.64
1000.704	1848.47
1001	1845.53
1001.295	1851.63
1001.59	1865.64
1001.885	1814.34
1002.18	1806.89
1002.475	1803.5
1002.77	1795.81
1003.065	1816.83
1003.359	1805.08
1003.654	1789.49
1003.949	1778.64
1004.243	1766.21
1004.538	1755.82
1004.832	1735.7
1005.127	1727.57
1005.421	1708.59
1005.715	1724.4
1006.009	1731.41
1006.304	1681.92
1006.598	1689.15
1006.892	1655.25
1007.186	1634.46
1007.48	1649.15
1007.773	1657.74
1008.067	1638.98
1008.361	1611.86
1008.655	1613.22
1008.948	1614.35
1009.242	1621.81
1009.535	1598.31
1009.829	1549.27
1010.122	1583.39
1010.415	1532.09
1010.708	1554.46
1011.001	1572.32
1011.295	1546.33
1011.588	1555.14
1011.881	1520.34
1012.173	1540.45
1012.466	1509.95
1012.759	1506.1
1013.052	1500.68
1013.344	1495.03
1013.637	1461.36
1013.93	1483.28
1014.222	1471.08
1014.514	1446.9
1014.807	1435.82
1015.099	1426.78
1015.391	1440.8
1015.683	1388.14
1015.976	1413
1016.268	1405.32
1016.56	1385.43
1016.851	1365.77
1017.143	1397.41
1017.435	1400.57
1017.727	1348.59
1018.018	1376.16
1018.31	1332.55
1018.602	1348.82
1018.893	1322.61
1019.185	1327.35
1019.476	1333.45
1019.767	1324.41
1020.058	1286.45
1020.35	1283.06
1020.641	1263.4
1020.932	1259.33
1021.223	1252.55
1021.514	1248.03
1021.804	1221.14
1022.095	1249.61
1022.386	1220.24
1022.677	1244.19
1022.967	1220.46
1023.258	1231.08
1023.548	1203.51
1023.839	1203.06
1024.129	1166.23
1024.419	1183.85
1024.709	1137.98
1025	1195.38
1025.29	1183.18
1025.58	1167.36
1025.87	1154.93
1026.16	1124.65
1026.449	1134.81
1026.739	1138.43
1027.029	1142.72
1027.319	1108.83
1027.608	1079.22
1027.898	1093.01
1028.187	1117.19
1028.477	1083.74
1028.766	1072.9
1029.055	1076.74
1029.344	1064.76
1029.634	1056.4
1029.923	1082.16
1030.212	1069.73
1030.501	1053.01
1030.79	1046.68
1031.078	1023.86
1031.367	1013.69
1031.656	1010.52
1031.945	984.08
1032.233	1006
1032.522	1010.07
1032.81	960.58
1033.099	962.16
1033.387	980.92
1033.675	958.1
1033.963	969.62
1034.251	933.46
1034.54	923.29
1034.828	951.54
1035.116	929.62
1035.403	932.79
1035.691	944.31
1035.979	910.64
1036.267	941.15
1036.554	919.91
1036.842	921.94
1037.129	917.87
1037.417	877.19
1037.704	901.37
1037.992	884.2
1038.279	878.78
1038.566	879.68
1038.853	879.68
1039.14	879.68
