Data from hue_130_FLMS001491_00011.txt Node
Date: Tue Feb 07 16:57:13 GMT 2017
User: dcchb
Spectrometer: FLMS00149
Trigger mode: 0
Integration Time (sec): 2.000000E-2
Scans to average: 10
Electric dark correction enabled: true
Nonlinearity correction enabled: false
Boxcar width: 0
XAxis mode: Wavelengths
Number of Pixels in Spectrum: 2048
>>>>>Begin Spectral Data<<<<<
341.393	-11.36
341.776	-11.36
342.16	-11.36
342.543	-85.25
342.927	-87.06
343.31	-79.38
343.693	-48.64
344.077	-65.37
344.46	-59.04
344.843	-69.43
345.226	-47.06
345.61	-34.41
345.993	-8.42
346.376	-19.72
346.759	19.83
347.142	30.45
347.525	54.41
347.908	59.83
348.291	68.42
348.674	95.31
349.057	103.22
349.44	119.49
349.823	134.4
350.206	167.17
350.588	201.29
350.971	194.29
351.354	207.4
351.737	229.32
352.119	239.71
352.502	233.84
352.884	264.12
353.267	281.29
353.65	278.35
354.032	305.02
354.414	281.29
354.797	303.66
355.179	316.55
355.562	306.6
355.944	328.3
356.326	314.51
356.709	321.97
357.091	355.64
357.473	330.56
357.855	314.74
358.238	342.99
358.62	344.34
359.002	333.27
359.384	332.14
359.766	328.3
360.148	339.14
360.53	334.85
360.912	321.74
361.294	330.56
361.676	334.62
362.057	325.81
362.439	329.43
362.821	317.9
363.203	310.22
363.584	316.32
363.966	326.94
364.348	330.78
364.729	339.37
365.111	327.39
365.493	320.84
365.874	314.96
366.256	303.89
366.637	307.51
367.019	311.8
367.4	340.5
367.781	303.44
368.163	300.05
368.544	317.45
368.925	290.78
369.306	317.68
369.688	311.12
370.069	305.02
370.45	303.44
370.831	312.25
371.212	288.52
371.593	301.4
371.974	302.99
372.355	291.69
372.736	323.55
373.117	315.64
373.498	311.57
373.879	297.11
374.26	303.89
374.641	302.53
375.021	306.83
375.402	306.6
375.783	302.99
376.163	298.92
376.544	340.05
376.925	326.49
377.305	323.32
377.686	307.51
378.066	326.49
378.447	303.21
378.827	317.68
379.208	319.48
379.588	312.25
379.968	310.44
380.349	308.64
380.729	335.08
381.109	320.61
381.489	331.91
381.87	321.97
382.25	316.77
382.63	317.45
383.01	326.49
383.39	337.56
383.77	330.1
384.15	324.23
384.53	329.43
384.91	334.17
385.29	351.8
385.67	345.47
386.049	333.72
386.429	359.03
386.809	343.89
387.189	329.43
387.568	339.37
387.948	359.03
388.328	350.44
388.707	335.53
389.087	353.38
389.466	338.01
389.846	339.37
390.225	356.77
390.605	357.9
390.984	360.84
391.363	375.3
391.743	356.77
392.122	372.59
392.501	340.05
392.881	366.71
393.26	364.91
393.639	354.51
394.018	375.98
394.397	372.59
394.776	363.1
395.155	374.62
395.534	356.09
395.913	381.85
396.292	369.65
396.671	378.69
397.05	388.63
397.429	378.24
397.808	371.46
398.186	387.28
398.565	373.72
398.944	397.9
399.323	384.11
399.701	381.18
400.08	396.77
400.458	385.24
400.837	387.5
401.215	381.63
401.594	409.65
401.972	400.16
402.351	401.74
402.729	392.93
403.107	398.8
403.486	416.88
403.864	408.52
404.242	403.55
404.62	385.24
404.999	398.8
405.377	412.36
405.755	404.23
406.133	413.27
406.511	423.66
406.889	440.84
407.267	439.71
407.645	397.45
408.023	420.72
408.401	414.4
408.779	442.87
409.156	436.77
409.534	454.17
409.912	466.15
410.29	449.42
410.667	441.97
411.045	458.46
411.422	445.81
411.8	465.47
412.178	443.32
412.555	455.52
412.933	464.79
413.31	489.87
413.687	465.02
414.065	470.67
414.442	476.99
414.819	473.83
415.197	479.25
415.574	490.33
415.951	477.45
416.328	494.39
416.705	483.32
417.082	492.59
417.46	512.02
417.837	511.34
418.214	522.42
418.591	497.78
418.967	498.24
419.344	496.88
419.721	524
420.098	519.93
420.475	521.06
420.852	513.38
421.228	545.92
421.605	534.39
421.982	534.39
422.358	539.36
422.735	536.88
423.111	536.88
423.488	552.47
423.864	535.52
424.241	560.15
424.617	558.57
424.994	563.09
425.37	596.09
425.746	554.73
426.123	579.14
426.499	578.69
426.875	565.8
427.251	608.06
427.627	600.61
428.003	585.46
428.379	629.76
428.756	576.65
429.132	623.66
429.507	599.25
429.883	621.85
430.259	611
430.635	634.5
431.011	609.19
431.387	621.85
431.763	643.32
432.138	644.67
432.514	643.99
432.89	669.76
433.265	665.91
433.641	676.08
434.016	692.35
434.392	667.04
434.767	675.18
435.143	686.93
435.518	706.14
435.894	699.59
436.269	715.86
436.644	706.59
437.02	722.86
437.395	719.47
437.77	735.29
438.145	747.72
438.52	739.59
438.895	738.23
439.271	757.66
439.646	748.17
440.021	792.24
440.395	769.64
440.77	783.88
441.145	788.17
441.52	789.3
441.895	806.93
442.27	781.17
442.645	799.02
443.019	806.48
443.394	797.89
443.769	808.51
444.143	798.34
444.518	820.94
444.892	801.05
445.267	818.91
445.641	826.36
446.016	831.56
446.39	840.83
446.764	846.93
447.139	849.64
447.513	858
447.887	851.22
448.262	858.23
448.636	854.61
449.01	872.91
449.384	905.46
449.758	902.97
450.132	926.7
450.506	889.86
450.88	899.81
451.254	907.72
451.628	931.22
452.002	936.64
452.376	921.73
452.75	961.95
453.123	969.86
453.497	961.73
453.871	938
454.244	999.24
454.618	977.09
454.992	992.46
455.365	1011.22
455.739	1015.74
456.112	1057.54
456.486	1058.22
456.859	1053.02
457.232	1079.92
457.606	1085.11
457.979	1077.2
458.352	1099.8
458.725	1121.27
459.099	1129.63
459.472	1160.36
459.845	1173.7
460.218	1170.08
460.591	1201.04
460.964	1195.17
461.337	1209.4
461.71	1234.26
462.083	1233.58
462.456	1236.3
462.829	1253.92
463.201	1256.86
463.574	1270.42
463.947	1309.74
464.32	1340.25
464.692	1332.56
465.065	1344.99
465.438	1370.75
465.81	1411.43
466.183	1455.72
466.555	1454.14
466.928	1444.2
467.3	1442.39
467.672	1508.38
468.045	1520.13
468.417	1537.08
468.789	1546.34
469.161	1578.66
469.534	1620.92
469.906	1664.53
470.278	1684.64
470.65	1696.62
471.022	1715.6
471.394	1757.19
471.766	1781.14
472.138	1807.81
472.51	1872.89
472.882	1922.6
473.253	1948.59
473.625	1980.91
473.997	2041.92
474.369	2094.13
474.74	2115.14
475.112	2191.52
475.484	2216.38
475.855	2283.05
476.227	2336.83
476.598	2392.65
476.97	2419.54
477.341	2533.66
477.713	2567.56
478.084	2598.75
478.455	2670.16
478.827	2759.64
479.198	2826.31
479.569	2858.17
479.94	2995.8
480.311	3046.42
480.682	3153.98
481.053	3232.63
481.424	3343.58
481.795	3400.31
482.166	3499.29
482.537	3597.82
482.908	3695.89
483.279	3765.49
483.65	3888.65
484.021	4049.55
484.391	4088.88
484.762	4159.61
485.133	4262.2
485.503	4375.42
485.874	4524.8
486.244	4606.83
486.615	4775.64
486.985	4843.43
487.356	5041.17
487.726	5098.79
488.097	5280.71
488.467	5406.58
488.837	5540.59
489.207	5645.67
489.578	5833.46
489.948	5928.6
490.318	6068.71
490.688	6209.05
491.058	6303.73
491.428	6450.62
491.798	6623.5
492.168	6750.05
492.538	6810.16
492.908	7014.9
493.278	7152.3
493.648	7221.67
494.017	7356.81
494.387	7449.24
494.757	7597.48
495.126	7844.93
495.496	7908.21
495.866	8028.43
496.235	8145.72
496.605	8264.13
496.974	8425.03
497.344	8489.66
497.713	8595.88
498.082	8729.21
498.452	8866.38
498.821	9005.13
499.19	9039.93
499.559	9196.31
499.928	9289.87
500.298	9345.69
500.667	9554.49
501.036	9522.18
501.405	9686.69
501.774	9775.96
502.143	9842.4
502.512	9956.07
502.88	10162.84
503.249	10099.34
503.618	10215.27
503.987	10238.32
504.356	10400.12
504.724	10522.15
505.093	10588.59
505.462	10635.37
505.83	10689.61
506.199	10869.04
506.567	10989.49
506.936	10933.89
507.304	11108.8
507.672	11070.61
508.041	11173.66
508.409	11327.56
508.777	11412.07
509.145	11463.82
509.514	11461.79
509.882	11612.52
510.25	11568.45
510.618	11674.89
510.986	11656.81
511.354	11856.35
511.722	11843.25
512.09	11988.1
512.458	12038.95
512.826	12046.41
513.193	12053.64
513.561	12175.44
513.929	12184.93
514.297	12282.11
514.664	12295.21
515.032	12388.32
515.4	12417.24
515.767	12497.69
516.135	12576.34
516.502	12497.47
516.869	12589.89
517.237	12652.94
517.604	12587.86
517.972	12657.69
518.339	12711.47
518.706	12678.93
519.073	12732.94
519.44	12833.28
519.808	12914.86
520.175	12908.3
520.542	13027.17
520.909	13062.2
521.276	12980.17
521.643	13171.8
522.009	13134.51
522.376	13225.36
522.743	13159.15
523.11	13274.4
523.477	13347.16
523.843	13365.24
524.21	13460.15
524.577	13510.1
524.943	13462.41
525.31	13549.42
525.676	13529.76
526.043	13573.6
526.409	13623.99
526.776	13739.7
527.142	13656.08
527.508	13658.34
527.874	13843.42
528.241	13752.58
528.607	13717.32
528.973	13847.49
529.339	13796.42
529.705	13879.13
530.071	13834.38
530.437	13866.25
530.803	13892.69
531.169	13916.41
531.535	13858.56
531.901	13812.69
532.267	13838.45
532.632	13922.29
532.998	13858.34
533.364	13901.5
533.73	13913.7
534.095	13941.95
534.461	13862.86
534.826	13896.08
535.192	13817.89
535.557	13985.34
535.923	13773.59
536.288	13841.84
536.653	13795.29
537.019	13783.31
537.384	13731.33
537.749	13693.37
538.114	13706.02
538.479	13640.71
538.845	13651.79
539.21	13628.96
539.575	13640.49
539.94	13549.19
540.305	13571.11
540.67	13513.03
541.034	13523.88
541.399	13464.9
541.764	13435.75
542.129	13463.32
542.494	13423.32
542.858	13394.62
543.223	13399.82
543.587	13367.95
543.952	13212.48
544.316	13353.04
544.681	13162.54
545.045	13189.2
545.41	13278.24
545.774	13161.18
546.138	13190.78
546.503	13167.05
546.867	13035.31
547.231	13115.53
547.595	12998.47
547.959	13096.32
548.324	13007.29
548.688	12962.99
549.052	12914.63
549.416	12933.61
549.779	12895.65
550.143	12887.06
550.507	12945.82
550.871	12802.54
551.235	12804.58
551.599	12856.55
551.962	12777.69
552.326	12679.38
552.689	12776.56
553.053	12597.58
553.417	12558.26
553.78	12747.86
554.143	12596.67
554.507	12671.93
554.87	12621.08
555.234	12656.79
555.597	12449.56
555.96	12495.66
556.323	12468.77
556.686	12516.22
557.05	12553.06
557.413	12527.75
557.776	12498.82
558.139	12529.11
558.502	12444.59
558.865	12463.57
559.228	12562.78
559.59	12514.87
559.953	12479.39
560.316	12557.58
560.679	12509.67
561.041	12571.36
561.404	12519.16
561.767	12562.78
562.129	12532.72
562.492	12556.45
562.854	12519.39
563.217	12471.25
563.579	12495.21
563.941	12545.15
564.304	12599.16
564.666	12586.73
565.028	12637.13
565.39	12647.29
565.753	12638.26
566.115	12641.19
566.477	12643.45
566.839	12661.98
567.201	12698.82
567.563	12676.22
567.925	12696.78
568.287	12687.97
568.648	12644.13
569.01	12752.6
569.372	12807.97
569.734	12681.64
570.095	12813.62
570.457	12857.91
570.819	12789.89
571.18	12799.83
571.542	12865.59
571.903	12895.65
572.265	12943.11
572.626	12927.51
572.987	12821.75
573.349	12936.1
573.71	12988.3
574.071	12891.13
574.432	12905.37
574.794	13019.26
575.155	12996.66
575.516	12970.45
575.877	12975.2
576.238	12956.21
576.599	13000.05
576.96	13002.99
577.32	12969.55
577.681	13051.58
578.042	13019.49
578.403	13007.51
578.763	12992.14
579.124	12989.43
579.485	13034.4
579.845	13019.94
580.206	13028.53
580.566	13036.21
580.927	13032.37
581.287	13049.09
581.648	13050.45
582.008	12994.86
582.368	12968.87
582.728	12978.13
583.089	12943.78
583.449	12988.75
583.809	12954.63
584.169	12981.3
584.529	12996.66
584.889	13005.25
585.249	12890.45
585.609	12896.1
585.969	12961.41
586.329	12862.66
586.688	12929.77
587.048	13021.07
587.408	12918.93
587.768	12898.14
588.127	12871.92
588.487	12873.05
588.846	12967.74
589.206	12759.83
589.565	12808.19
589.925	12795.77
590.284	12839.38
590.643	12822.43
591.003	12915.54
591.362	12952.15
591.721	12801.19
592.08	12829.21
592.44	12798.7
592.799	12805.71
593.158	12841.87
593.517	12859.27
593.876	12793.05
594.235	12767.07
594.593	12755.31
594.952	12789.44
595.311	12737.24
595.67	12740.17
596.029	12868.53
596.387	12818.14
596.746	12829.21
597.104	12763.68
597.463	12804.58
597.822	12709.21
598.18	12780.85
598.538	12749.89
598.897	12730.68
599.255	12594.87
599.613	12848.19
599.972	12755.09
600.33	12698.37
600.688	12689.1
601.046	12746.05
601.404	12795.31
601.762	12712.6
602.12	12810.91
602.478	12777.69
602.836	12795.77
603.194	12796.22
603.552	12705.15
603.91	12687.75
604.268	12755.99
604.625	12661.08
604.983	12770.91
605.341	12738.37
605.698	12724.13
606.056	12758.25
606.413	12788.53
606.771	12746.28
607.128	12793.28
607.485	12741.76
607.843	12678.25
608.2	12788.99
608.557	12845.93
608.914	12797.57
609.272	12841.19
609.629	12912.37
609.986	12869.21
610.343	12891.58
610.7	12884.8
611.057	12927.97
611.414	12867.4
611.771	12784.92
612.127	12911.47
612.484	12937
612.841	12944.01
613.198	12852.26
613.554	12968.64
613.911	13011.8
614.267	12980.62
614.624	12868.08
614.98	12994.4
615.337	13001.18
615.693	13107.4
616.05	12966.83
616.406	13043.22
616.762	12972.48
617.118	13066.27
617.475	13029.88
617.831	13109.2
618.187	13056.78
618.543	13107.62
618.899	13138.81
619.255	13119.15
619.611	13048.87
619.967	13102.88
620.323	13153.72
620.678	13071.92
621.034	13111.24
621.39	13061.07
621.746	13141.97
622.101	13260.84
622.457	13123.21
622.812	13110.11
623.168	13186.49
623.523	13162.08
623.879	13189.88
624.234	13146.04
624.589	13176.09
624.945	13112.14
625.3	13147.17
625.655	13193.27
626.01	13128.41
626.365	13264
626.72	13164.8
627.075	13153.27
627.43	13114.4
627.785	13146.26
628.14	13154.4
628.495	13091.8
628.85	13143.55
629.205	13066.94
629.559	13190.33
629.914	13067.85
630.269	13172.48
630.623	13096.1
630.978	13100.62
631.332	13125.7
631.687	13166.6
632.041	13056.78
632.396	13005.93
632.75	12954.41
633.104	13017
633.459	13000.05
633.813	12966.16
634.167	12942.43
634.521	12938.59
634.875	13002.77
635.229	12897.46
635.583	12801.19
635.937	12913.95
636.291	12826.05
636.645	12832.83
636.999	12790.12
637.352	12781.75
637.706	12756.22
638.06	12815.43
638.413	12730.46
638.767	12734.98
639.121	12774.75
639.474	12751.02
639.828	12719.38
640.181	12703.56
640.534	12676.67
640.888	12719.38
641.241	12609.56
641.594	12585.6
641.947	12601.42
642.301	12641.65
642.654	12578.37
643.007	12663.11
643.36	12590.57
643.713	12523.91
644.066	12626.28
644.419	12473.06
644.771	12392.16
645.124	12406.17
645.477	12367.53
645.83	12341.09
646.182	12244.59
646.535	12149
646.888	12181.54
647.24	12150.58
647.593	12205.27
647.945	12245.95
648.298	12165.5
648.65	12076.24
649.002	12090.7
649.355	12163.69
649.707	12151.71
650.059	12279.17
650.411	12374.53
650.763	12401.88
651.115	12418.37
651.467	12485.94
651.819	12413.18
652.171	12482.55
652.523	12332.73
652.875	12363.23
653.227	12341.77
653.578	12482.55
653.93	12392.84
654.282	12316.46
654.633	12371.37
654.985	12407.53
655.337	12395.55
655.688	12347.64
656.039	12521.87
656.391	12403.69
656.742	12314.2
657.094	12419.28
657.445	12445.94
657.796	12415.66
658.147	12378.38
658.498	12436.68
658.849	12440.97
659.2	12422.22
659.551	12400.3
659.902	12406.17
660.253	12406.17
660.604	12438.49
660.955	12401.43
661.306	12491.37
661.656	12459.73
662.007	12480.75
662.358	12481.2
662.708	12495.89
663.059	12398.94
663.409	12411.37
663.76	12474.42
664.11	12446.85
664.461	12531.37
664.811	12430.58
665.161	12483.23
665.511	12407.75
665.862	12445.27
666.212	12495.43
666.562	12480.75
666.912	12444.59
667.262	12385.61
667.612	12464.47
667.962	12463.34
668.312	12366.62
668.662	12426.28
669.011	12517.58
669.361	12471.25
669.711	12412.27
670.06	12429
670.41	12385.38
670.76	12411.59
671.109	12461.99
671.459	12414.53
671.808	12388.09
672.157	12433.97
672.507	12408.43
672.856	12310.58
673.205	12390.58
673.554	12464.7
673.904	12333.86
674.253	12343.12
674.602	12348.09
674.951	12230.81
675.3	12131.83
675.649	12352.61
675.998	12318.94
676.346	12200.3
676.695	12356
677.044	12236.01
677.393	12237.14
677.741	12294.08
678.09	12238.94
678.438	12160.08
678.787	12261.54
679.135	12198.04
679.484	12092.05
679.832	12158.04
680.181	12106.29
680.529	12062.9
680.877	12058.16
681.225	11990.14
681.573	12157.82
681.922	12054.54
682.27	12025.16
682.618	11939.29
682.966	12072.85
683.314	11989.01
683.661	11913.98
684.009	11887.54
684.357	11812.06
684.705	11766.87
685.053	11835.11
685.4	11798.28
685.748	11699.97
686.095	11746.98
686.443	11677.15
686.79	11615.46
687.138	11665.63
687.485	11738.62
687.832	11608
688.18	11587.89
688.527	11575.91
688.874	11647.77
689.221	11493.2
689.568	11513.54
689.915	11501.11
690.262	11478.96
690.609	11441.9
690.956	11340.89
691.303	11382.92
691.65	11286.2
691.997	11314.9
692.344	11203.26
692.69	11123.94
693.037	11176.6
693.383	11088.69
693.73	11109.03
694.077	11033.1
694.423	10996.94
694.769	10962.14
695.116	10993.78
695.462	10914.91
695.808	10857.74
696.155	10882.6
696.501	10761.02
696.847	10760.34
697.193	10739.77
697.539	10724.63
697.885	10672.66
698.231	10580
698.577	10623.39
698.923	10545.2
699.269	10525.32
699.614	10425.43
699.96	10447.58
700.306	10534.58
700.651	10356.51
700.997	10286.23
701.342	10335.72
701.688	10261.37
702.033	10231.31
702.379	10216.4
702.724	10150.86
703.069	10259.56
703.415	10081.26
703.76	10083.52
704.105	10081.49
704.45	9969.4
704.795	9923.07
705.14	9949.51
705.485	9913.58
705.83	9846.46
706.175	9867.93
706.52	9895.05
706.865	9834.94
707.209	9759.46
707.554	9748.61
707.899	9787.71
708.243	9746.13
708.588	9681.27
708.932	9579.13
709.277	9543.2
709.621	9521.05
709.966	9452.12
710.31	9543.2
710.654	9441.96
710.998	9471.11
711.342	9503.65
711.687	9364.9
712.031	9314.5
712.375	9391.11
712.719	9294.84
713.063	9356.99
713.407	9382.75
713.75	9307.27
714.094	9262.75
714.438	9229.53
714.782	9285.35
715.125	9300.26
715.469	9224.56
715.812	9218.68
716.156	9199.48
716.499	9153.6
716.843	9189.53
717.186	9099.82
717.53	9168.74
717.873	9132.58
718.216	9119.03
718.559	9003.77
718.902	8988.63
719.246	9073.6
719.589	9022.98
719.932	8985.24
720.275	8980.27
720.617	8940.05
720.96	8901.4
721.303	8982.76
721.646	8946.6
721.989	8901.18
722.331	8996.32
722.674	8894.4
723.016	8977.11
723.359	8904.57
723.701	8880.39
724.044	8873.61
724.386	8853.04
724.729	8867.51
725.071	8801.52
725.413	8845.59
725.755	8871.12
726.097	8807.62
726.439	8725.14
726.782	8786.61
727.124	8806.49
727.465	8777.57
727.807	8758.13
728.149	8777.11
728.491	8758.58
728.833	8782.54
729.175	8671.81
729.516	8690.34
729.858	8737.57
730.199	8751.8
730.541	8722.65
730.882	8759.26
731.224	8726.27
731.565	8707.29
731.906	8714.06
732.248	8708.42
732.589	8763.1
732.93	8658.25
733.271	8735.31
733.612	8712.48
733.953	8706.16
734.294	8686.04
734.635	8659.6
734.976	8642.65
735.317	8611.92
735.658	8691.47
735.999	8637.68
736.339	8673.39
736.68	8739.83
737.021	8657.57
737.361	8687.17
737.702	8745.7
738.042	8665.03
738.383	8710
738.723	8676.78
739.063	8728.98
739.404	8691.92
739.744	8719.71
740.084	8782.54
740.424	8779.83
740.764	8726.95
741.104	8844.23
741.444	8709.55
741.784	8765.59
742.124	8855.98
742.464	8816.89
742.804	8829.77
743.143	8877.45
743.483	8851.46
743.823	8869.99
744.162	8880.39
744.502	8978.46
744.841	8952.02
745.181	9030.89
745.52	9033.83
745.86	9020.72
746.199	9093.49
746.538	9146.37
746.877	9189.53
747.216	9299.81
747.556	9182.98
747.895	9269.76
748.234	9301.62
748.573	9326.25
748.911	9482.63
749.25	9524.66
749.589	9519.47
749.928	9645.79
750.267	9711.1
750.605	9770.53
750.944	9844.66
751.283	9881.04
751.621	9955.39
751.96	10050.53
752.298	10123.97
752.636	10208.71
752.975	10254.59
753.313	10348.37
753.651	10561.93
753.989	10540.91
754.327	10694.8
754.666	10737.29
755.004	10945.87
755.342	11028.35
755.679	11198.52
756.017	11309.7
756.355	11380.21
756.693	11556.25
757.031	11685.96
757.368	11821.78
757.706	11942.23
758.044	12033.07
758.381	12206.85
758.719	12384.93
759.056	12572.49
759.394	12690.23
759.731	12687.07
760.068	12980.85
760.405	13109.2
760.743	13223.1
761.08	13436.88
761.417	13552.13
761.754	13750.09
762.091	13899.47
762.428	14018.33
762.765	14046.35
763.102	14362.05
763.438	14417.42
763.775	14578.54
764.112	14821.25
764.449	14952.32
764.785	15120.22
765.122	15182.6
765.458	15353.44
765.795	15451.51
766.131	15637.05
766.467	15807.44
766.804	15895.12
767.14	15946.19
767.476	16213.75
767.812	16246.52
768.148	16493.75
768.485	16468.44
768.821	16536.23
769.157	16673.63
769.492	16825.72
769.828	16926.96
770.164	16920.63
770.5	17075.2
770.836	17211.92
771.171	17221.19
771.507	17317.68
771.842	17380.28
772.178	17486.04
772.513	17600.84
772.849	17739.14
773.184	17653.04
773.519	17829.53
773.855	17857.1
774.19	17833.15
774.525	17838.8
774.86	18044.89
775.195	18127.83
775.53	18144.55
775.865	18196.08
776.2	18152.01
776.535	18059.81
776.87	18216.41
777.205	18180.71
777.539	18336.64
777.874	18442.17
778.209	18242.63
778.543	18304.32
778.878	18293.7
779.212	18382.29
779.547	18330.08
779.881	18619.11
780.215	18335.96
780.55	18536.41
780.884	18381.61
781.218	18399.23
781.552	18502.96
781.886	18450.53
782.22	18285.11
782.554	18386.58
782.888	18349.29
783.222	18322.63
783.556	18266.13
783.889	18214.61
784.223	18232.46
784.557	18178.9
784.89	18176.19
785.224	18262.97
785.557	18189.07
785.891	18225.45
786.224	18153.14
786.558	18189.97
786.891	18037.66
787.224	18069.3
787.557	17941.17
787.891	17972.35
788.224	18069.98
788.557	18013.71
788.89	17983.43
789.223	18053.71
789.556	18040.15
789.888	17872.92
790.221	17907.95
790.554	17715.41
790.887	17761.74
791.219	17674.28
791.552	17779.81
791.884	17715.41
792.217	17669.76
792.549	17546.15
792.882	17558.8
793.214	17484.91
793.546	17453.27
793.879	17440.61
794.211	17339.15
794.543	17426.83
794.875	17425.47
795.207	17414.17
795.539	17368.53
795.871	17326.95
796.203	17268.64
796.535	17059.61
796.867	17077.46
797.198	17156.1
797.53	17153.39
797.862	16970.34
798.193	17036.56
798.525	16917.69
798.856	16897.58
799.188	16738.03
799.519	16767.19
799.85	16621.65
800.182	16794.53
800.513	16766.73
800.844	16580.3
801.175	16652.16
801.506	16687.41
801.837	16496.23
802.168	16593.41
802.499	16466.63
802.83	16410.13
803.161	16340.98
803.491	16424.14
803.822	16362.9
804.153	16306.63
804.483	16176.47
804.814	16026.64
805.145	16179.18
805.475	16090.37
805.805	16063.25
806.136	16049.47
806.466	15990.03
806.796	16058.05
807.126	15918.62
807.457	15917.04
807.787	15835.69
808.117	15822.8
808.447	15745.29
808.777	15815.12
809.107	15633.66
809.436	15669.36
809.766	15682.69
810.096	15674.56
810.426	15524.06
810.755	15646.31
811.085	15511.85
811.414	15486.77
811.744	15479.99
812.073	15383.27
812.403	15385.53
812.732	15319.31
813.061	15301.46
813.39	15317.28
813.719	15234.57
814.049	15195.48
814.378	15226.66
814.707	15183.27
815.036	15175.36
815.365	15032.54
815.693	14945.31
816.022	15044.52
816.351	14955.93
816.68	14885.65
817.008	14901.92
817.337	14840.68
817.665	14825.77
817.994	14836.16
818.322	14871.19
818.651	14709.16
818.979	14643.85
819.307	14759.78
819.636	14756.84
819.964	14645.43
820.292	14636.17
820.62	14641.59
820.948	14593.46
821.276	14672.55
821.604	14633.68
821.932	14638.2
822.259	14605.66
822.587	14574.48
822.915	14590.75
823.243	14588.03
823.57	14574.48
823.898	14576.51
824.225	14590.75
824.553	14538.09
824.88	14580.35
825.207	14583.06
825.535	14591.2
825.862	14582.38
826.189	14684.3
826.516	14574.93
826.843	14693.34
827.17	14674.36
827.497	14581.71
827.824	14617.19
828.151	14574.25
828.478	14594.81
828.805	14662.16
829.131	14517.75
829.458	14595.94
829.785	14572.44
830.111	14545.78
830.438	14609.95
830.764	14558.43
831.09	14580.8
831.417	14591.88
831.743	14598.88
832.069	14557.3
832.395	14534.93
832.722	14574.93
833.048	14460.58
833.374	14514.14
833.7	14401.6
834.026	14498.55
834.351	14483.4
834.677	14556.62
835.003	14529.73
835.329	14614.25
835.654	14480.69
835.98	14362.05
836.306	14454.48
836.631	14314.6
836.956	14468.72
837.282	14444.08
837.607	14342.39
837.932	14290.87
838.258	14329.96
838.583	14238.89
838.908	14239.12
839.233	14156.63
839.558	14193.69
839.883	14112.34
840.208	14147.59
840.533	14171.1
840.858	14109.85
841.182	14083.87
841.507	14106.01
841.832	13985.34
842.156	13888.62
842.481	13986.92
842.805	13914.83
843.13	13894.04
843.454	13962.06
843.778	13816.08
844.103	13838.45
844.427	13810.43
844.751	13750.09
845.075	13696.31
845.399	13736.53
845.723	13660.83
846.047	13628.06
846.371	13508.74
846.695	13553.71
847.019	13378.12
847.343	13345.36
847.666	13312.36
847.99	13227.62
848.313	13231.91
848.637	13150.11
848.96	13095.64
849.284	13141.97
849.607	12955.08
849.931	13023.1
850.254	12866.72
850.577	12814.3
850.9	12768.42
851.223	12739.27
851.546	12625.6
851.869	12557.13
852.192	12621.08
852.515	12537.01
852.838	12435.32
853.161	12521.42
853.483	12358.71
853.806	12296.8
854.129	12300.41
854.451	12227.87
854.774	12221.32
855.096	12205.05
855.419	12176.12
855.741	12134.09
856.063	12050.47
856.385	12103.35
856.708	12038.95
857.03	12008.67
857.352	11885.05
857.674	11908.33
857.996	11909.23
858.318	11810.48
858.64	11835.11
858.961	11859.52
859.283	11803.02
859.605	11663.14
859.926	11677.38
860.248	11658.39
860.57	11565.74
860.891	11582.01
861.212	11623.37
861.534	11559.41
861.855	11482.35
862.176	11533.43
862.498	11497.04
862.819	11466.53
863.14	11410.94
863.461	11436.7
863.782	11378.18
864.103	11397.16
864.424	11369.36
864.745	11336.82
865.065	11260.44
865.386	11268.12
865.707	11286.65
866.027	11293.88
866.348	11226.77
866.668	11236.26
866.989	11256.82
867.309	11060.22
867.63	11176.15
867.95	11140.67
868.27	11054.12
868.59	11088.24
868.91	11156.71
869.23	11094.12
869.55	10989.71
869.87	11010.05
870.19	11081.01
870.51	11026.55
870.83	11041.46
871.15	10947.45
871.469	10879.88
871.789	11041.91
872.109	10907.68
872.428	10930.05
872.748	10933.22
873.067	10814.8
873.386	10831.3
873.706	10845.76
874.025	10724.41
874.344	10701.58
874.663	10769.6
874.982	10698.65
875.301	10674.47
875.62	10686.67
875.939	10651.87
876.258	10653.67
876.577	10642.15
876.896	10670.85
877.214	10556.28
877.533	10584.52
877.852	10593.11
878.17	10567.35
878.489	10570.51
878.807	10511.53
879.125	10493
879.444	10489.39
879.762	10455.26
880.08	10424.08
880.398	10389.27
880.716	10404.64
881.034	10340.69
881.352	10393.57
881.67	10361.25
881.988	10318.99
882.306	10337.52
882.624	10231.54
882.941	10178.21
883.259	10214.14
883.577	10241.93
883.894	10189.73
884.212	10120.81
884.529	10206.68
884.846	10079
885.164	10087.81
885.481	10019.34
885.798	10113.12
886.115	9987.03
886.432	10027.7
886.75	9935.5
887.067	9974.37
887.383	9880.81
887.7	9946.57
888.017	9852.34
888.334	9836.52
888.651	9864.77
888.967	9838.55
889.284	9711.1
889.6	9745.45
889.917	9757.88
890.233	9721.5
890.55	9668.16
890.866	9626.81
891.182	9623.19
891.498	9615.74
891.815	9557.88
892.131	9500.48
892.447	9476.3
892.763	9491.67
893.079	9432.69
893.395	9365.12
893.71	9392.46
894.026	9334.61
894.342	9355.4
894.657	9247.61
894.973	9303.43
895.289	9211.23
895.604	9238.8
895.92	9127.39
896.235	9081.29
896.55	9144.79
896.865	9055.52
897.181	9057.11
897.496	8974.85
897.811	9006.49
898.126	8980.5
898.441	8922.42
898.756	8909.99
899.071	8796.1
899.386	8827.28
899.7	8778.47
900.015	8769.2
900.33	8691.01
900.644	8702.99
900.959	8654.41
901.273	8649.66
901.588	8598.59
901.902	8526.95
902.216	8523.34
902.531	8471.59
902.845	8455.31
903.159	8416.45
903.473	8445.15
903.787	8361.53
904.101	8345.94
904.415	8320.85
904.729	8292.15
905.042	8297.13
905.356	8218.71
905.67	8271.82
905.984	8150.46
906.297	8133.97
906.611	8060.52
906.924	8054.42
907.237	8044.93
907.551	8041.54
907.864	7961.54
908.177	7918.38
908.491	7973.29
908.804	7827.76
909.117	7832.96
909.43	7743.24
909.743	7808.55
910.056	7783.24
910.368	7650.36
910.681	7605.17
910.994	7626.64
911.307	7589.57
911.619	7630.48
911.932	7566.52
912.244	7525.4
912.557	7481.1
912.869	7445.17
913.181	7426.19
913.494	7374.21
913.806	7344.84
914.118	7351.39
914.43	7222.13
914.742	7264.39
915.054	7235.69
915.366	7186.42
915.678	7183.71
915.99	7203.14
916.302	7110.94
916.613	7083.15
916.925	7068.01
917.236	7080.44
917.548	7017.39
917.859	6996.37
918.171	6949.37
918.482	6909.37
918.794	6903.49
919.105	6889.48
919.416	6825.98
919.727	6859.88
920.038	6763.16
920.349	6793.89
920.66	6696.49
920.971	6719.31
921.282	6711.63
921.593	6702.37
921.903	6642.71
922.214	6611.07
922.525	6586.89
922.835	6565.87
923.146	6518.42
923.456	6551.18
923.767	6483.61
924.077	6475.71
924.387	6375.82
924.697	6381.7
925.008	6365.2
925.318	6340.34
925.628	6335.6
925.938	6236.62
926.248	6274.58
926.558	6222.6
926.867	6214.02
927.177	6224.19
927.487	6195.49
927.796	6103.06
928.106	6110.29
928.416	6067.35
928.725	6051.31
929.034	6026
929.344	6037.3
929.653	5978.77
929.962	5942.61
930.271	5930.86
930.581	5873.91
930.89	5864.2
931.199	5847.25
931.508	5809.51
931.817	5853.8
932.125	5856.51
932.434	5795.72
932.743	5750.3
933.051	5721.83
933.36	5672.34
933.669	5626.69
933.977	5688.38
934.286	5602.73
934.594	5578.55
934.902	5570.64
935.21	5495.84
935.519	5555.96
935.827	5556.41
936.135	5475.96
936.443	5446.58
936.751	5439.35
937.059	5424.89
937.367	5429.18
937.674	5436.18
937.982	5392.57
938.29	5335.85
938.597	5328.39
938.905	5254.95
939.213	5299.24
939.52	5268.28
939.827	5202.29
940.135	5156.19
940.442	5156.87
940.749	5146.7
941.056	5118.23
941.363	5093.14
941.67	5118.9
941.977	5006.82
942.284	5044.56
942.591	5002.3
942.898	4966.37
943.205	4988.06
943.511	4922.07
943.818	4950.55
944.125	4924.11
944.431	4892.7
944.738	4895.63
945.044	4811.57
945.35	4794.85
945.657	4826.48
945.963	4760.72
946.269	4757.11
946.575	4731.12
946.881	4699.03
947.187	4718.46
947.493	4678.92
947.799	4668.97
948.105	4645.92
948.41	4599.14
948.716	4624.91
949.022	4578.81
949.327	4607.05
949.633	4542.65
949.938	4507.62
950.244	4529.09
950.549	4480.96
950.854	4430.11
951.16	4506.27
951.465	4431.01
951.77	4423.1
952.075	4396.66
952.38	4343.11
952.685	4427.4
952.99	4323.45
953.294	4307.85
953.599	4281.86
953.904	4239.38
954.209	4233.05
954.513	4242.09
954.818	4231.7
955.122	4229.89
955.426	4167.07
955.731	4166.61
956.035	4158.93
956.339	4134.75
956.643	4148.53
956.948	4086.62
957.252	4082.1
957.556	4045.03
957.86	4020.63
958.163	3982.21
958.467	4007.97
958.771	4042.78
959.075	3978.14
959.378	3917.58
959.682	3984.25
959.985	3906.96
960.289	3917.35
960.592	3885.72
960.896	3867.86
961.199	3889.78
961.502	3831.93
961.805	3826.06
962.108	3814.31
962.411	3743.35
962.714	3737.47
963.017	3729.11
963.32	3796.23
963.623	3718.94
963.926	3731.37
964.228	3671.94
964.531	3705.38
964.833	3684.14
965.136	3624.48
965.438	3632.62
965.741	3593.3
966.043	3597.36
966.345	3580.87
966.648	3586.29
966.95	3577.7
967.252	3498.83
967.554	3516.69
967.856	3514.65
968.158	3493.41
968.46	3465.62
968.761	3479.4
969.063	3415.22
969.365	3434.2
969.666	3427.65
969.968	3385.84
970.269	3388.1
970.571	3375.9
970.872	3324.38
971.174	3350.14
971.475	3315.11
971.776	3338.39
972.077	3291.38
972.378	3290.93
972.679	3282.8
972.98	3259.52
973.281	3240.99
973.582	3234.21
973.883	3193.08
974.183	3226.3
974.484	3165.51
974.785	3174.32
975.085	3182.01
975.386	3161.22
975.686	3147.21
975.986	3137.94
976.287	3115.79
976.587	3055.46
976.887	3108.34
977.187	3046.19
977.487	3062.69
977.787	3070.37
978.087	3019.98
978.387	3006.64
978.687	3050.94
978.987	2985.63
979.286	2958.74
979.586	2994.67
979.885	2967.55
980.185	2912.41
980.484	2900.88
980.784	2926.42
981.083	2885.52
981.382	2885.29
981.682	2823.15
981.981	2875.35
982.28	2834.9
982.579	2821.56
982.878	2809.36
983.177	2806.42
983.475	2787.21
983.774	2767.1
984.073	2755.8
984.372	2742.24
984.67	2708.35
984.969	2710.61
985.267	2697.05
985.566	2679.87
985.864	2699.31
986.162	2662.02
986.461	2646.88
986.759	2612.3
987.057	2627.22
987.355	2621.57
987.653	2612.76
987.951	2609.59
988.249	2557.62
988.547	2562.59
988.844	2568.46
989.142	2581.12
989.44	2568.24
989.737	2579.08
990.035	2504.96
990.332	2533.66
990.63	2495.92
990.927	2482.59
991.224	2505.41
991.521	2455.7
991.819	2475.58
992.116	2442.14
992.413	2427.22
992.71	2404.4
993.006	2415.47
993.303	2391.75
993.6	2383.84
993.897	2351.29
994.193	2346.32
994.49	2340.45
994.787	2321.24
995.083	2336.38
995.379	2307.45
995.676	2309.26
995.972	2296.38
996.268	2252.54
996.565	2235.36
996.861	2278.3
997.157	2234.69
997.453	2238.53
997.749	2235.82
998.044	2236.95
998.34	2225.42
998.636	2216.16
998.932	2193.11
999.227	2187.46
999.523	2177.29
999.818	2173.45
1000.114	2100.68
1000.409	2144.75
1000.704	2133.67
1001	2124.41
1001.295	2103.84
1001.59	2081.02
1001.885	2087.35
1002.18	2055.93
1002.475	2068.59
1002.77	2039.21
1003.065	2006.67
1003.359	2057.97
1003.654	2023.39
1003.949	1969.84
1004.243	1983.39
1004.538	1985.2
1004.832	1937.29
1005.127	1935.26
1005.421	1959.44
1005.715	1943.17
1006.009	1896.16
1006.304	1904.98
1006.598	1885.32
1006.892	1889.39
1007.186	1841.03
1007.48	1864.75
1007.773	1850.29
1008.067	1842.61
1008.361	1834.7
1008.655	1831.08
1008.948	1798.77
1009.242	1791.08
1009.535	1789.05
1009.829	1763.51
1010.122	1751.54
1010.415	1736.85
1010.708	1746.56
1011.001	1758.99
1011.295	1714.02
1011.588	1697.07
1011.881	1720.8
1012.173	1679.67
1012.466	1652.78
1012.759	1674.48
1013.052	1718.54
1013.344	1677.41
1013.637	1662.27
1013.93	1608.94
1014.222	1608.94
1014.514	1635.61
1014.807	1613.91
1015.099	1590.41
1015.391	1593.35
1015.683	1618.43
1015.976	1568.49
1016.268	1552.22
1016.56	1558.32
1016.851	1545.21
1017.143	1522.62
1017.435	1518.1
1017.727	1531.65
1018.018	1514.93
1018.31	1504.08
1018.602	1515.61
1018.893	1489.4
1019.185	1454.37
1019.476	1481.26
1019.767	1458.44
1020.058	1434.71
1020.35	1414.14
1020.641	1432.67
1020.932	1408.49
1021.223	1395.84
1021.514	1399.91
1021.804	1395.61
1022.095	1357.42
1022.386	1380.25
1022.677	1349.74
1022.967	1344.77
1023.258	1344.54
1023.548	1322.39
1023.839	1349.29
1024.129	1332.56
1024.419	1306.35
1024.709	1303.64
1025	1315.62
1025.29	1266.8
1025.58	1290.98
1025.87	1292.34
1026.16	1257.76
1026.449	1228.84
1026.739	1245.56
1027.029	1214.6
1027.319	1239.46
1027.608	1229.74
1027.898	1220.7
1028.187	1187.71
1028.477	1168.95
1028.766	1190.42
1029.055	1176.41
1029.344	1189.29
1029.634	1159.01
1029.923	1146.58
1030.212	1159.01
1030.501	1147.03
1030.79	1147.48
1031.078	1131.89
1031.367	1103.64
1031.656	1114.49
1031.945	1070.88
1032.233	1111.33
1032.522	1090.76
1032.81	1065.68
1033.099	1090.99
1033.387	1093.7
1033.675	1076.53
1033.963	1057.32
1034.251	1046.24
1034.54	1023.65
1034.828	1053.48
1035.116	1013.93
1035.403	1002.18
1035.691	1039.69
1035.979	1022.29
1036.267	1016.19
1036.554	987.71
1036.842	989.75
1037.129	995.4
1037.417	979.58
1037.704	951.56
1037.992	960.6
1038.279	941.16
1038.566	961.95
1038.853	961.95
1039.14	961.95
