Data from hue_130_FLMS001491_00032.txt Node
Date: Tue Feb 07 16:57:31 GMT 2017
User: dcchb
Spectrometer: FLMS00149
Trigger mode: 0
Integration Time (sec): 2.000000E-2
Scans to average: 10
Electric dark correction enabled: true
Nonlinearity correction enabled: false
Boxcar width: 0
XAxis mode: Wavelengths
Number of Pixels in Spectrum: 2048
>>>>>Begin Spectral Data<<<<<
341.393	-9.19
341.776	-9.19
342.16	-9.19
342.543	-47.16
342.927	-65.46
343.31	-51.68
343.693	-62.75
344.077	-78.35
344.46	-68.18
344.843	-58.68
345.226	-48.52
345.61	-34.28
345.993	-20.49
346.376	11.14
346.759	14.99
347.142	34.65
347.525	26.06
347.908	52.72
348.291	71.93
348.674	93.18
349.057	118.26
349.44	147.41
349.823	113.51
350.206	160.29
350.588	190.35
350.971	187.18
351.354	220.86
351.737	245.71
352.119	246.62
352.502	234.87
352.884	266.96
353.267	286.62
353.65	286.62
354.032	311.93
354.414	310.8
354.797	307.86
355.179	317.35
355.562	304.24
355.944	336.33
356.326	329.33
356.709	332.94
357.091	345.6
357.473	326.84
357.855	331.81
358.238	336.33
358.62	319.16
359.002	336.78
359.384	343.56
359.766	320.51
360.148	344.24
360.53	323.9
360.912	325.49
361.294	324.13
361.676	342.43
362.057	334.3
362.439	297.69
362.821	327.52
363.203	333.17
363.584	312.38
363.966	308.54
364.348	306.05
364.729	329.78
365.111	318.48
365.493	289.1
365.874	326.62
366.256	306.28
366.637	307.18
367.019	304.24
367.4	299.72
367.781	306.5
368.163	315.09
368.544	305.37
368.925	317.12
369.306	291.14
369.688	314.86
370.069	315.54
370.45	313.06
370.831	319.38
371.212	297.01
371.593	316.67
371.974	318.03
372.355	315.99
372.736	328.65
373.117	327.52
373.498	330.46
373.879	319.38
374.26	312.83
374.641	313.73
375.021	305.15
375.402	324.81
375.783	320.74
376.163	313.06
376.544	308.76
376.925	318.93
377.305	329.33
377.686	323.68
378.066	314.19
378.447	313.96
378.827	344.69
379.208	350.34
379.588	350.34
379.968	353.51
380.349	338.59
380.729	310.57
381.109	330.68
381.489	330.91
381.87	339.04
382.25	337.46
382.63	336.11
383.01	332.27
383.39	330.23
383.77	355.09
384.15	341.98
384.53	342.43
384.91	338.37
385.29	340.4
385.67	323.68
386.049	344.92
386.429	354.64
386.809	346.28
387.189	350.12
387.568	339.04
387.948	347.86
388.328	339.72
388.707	357.12
389.087	361.64
389.466	345.6
389.846	375.2
390.225	346.28
390.605	358.03
390.984	363.22
391.363	369.33
391.743	358.48
392.122	371.13
392.501	354.64
392.881	361.19
393.26	387.86
393.639	372.26
394.018	375.88
394.397	386.28
394.776	368.65
395.155	386.05
395.534	384.47
395.913	404.81
396.292	373.62
396.671	396.44
397.05	372.04
397.429	413.85
397.808	392.83
398.186	381.53
398.565	399.61
398.944	376.78
399.323	389.44
399.701	385.6
400.08	387.86
400.458	396.67
400.837	390.79
401.215	406.39
401.594	393.73
401.972	398.25
402.351	394.41
402.729	431.92
403.107	407.29
403.486	443.22
403.864	392.83
404.242	440.74
404.62	410.68
404.999	414.75
405.377	419.27
405.755	426.27
406.133	408.65
406.511	429.44
406.889	435.09
407.267	431.47
407.645	435.99
408.023	451.58
408.401	428.76
408.779	436.22
409.156	440.96
409.534	447.06
409.912	460.4
410.29	450.45
410.667	444.13
411.045	464.92
411.422	463.79
411.8	485.93
412.178	476.22
412.555	463.34
412.933	488.65
413.31	486.61
413.687	471.7
414.065	500.17
414.442	487.52
414.819	485.71
415.197	484.35
415.574	486.16
415.951	512.37
416.328	489.32
416.705	511.24
417.082	509.66
417.46	518.25
417.837	490.68
418.214	512.37
418.591	508.08
418.967	522.77
419.344	516.67
419.721	524.12
420.098	527.29
420.475	542.88
420.852	534.29
421.228	530.23
421.605	537.01
421.982	553.5
422.358	551.69
422.735	557.8
423.111	537.91
423.488	547.4
423.864	567.29
424.241	554.63
424.617	568.64
424.994	583.33
425.37	570.45
425.746	542.88
426.123	573.84
426.499	616.55
426.875	590.11
427.251	605.25
427.627	621.3
428.003	612.26
428.379	602.09
428.756	605.25
429.132	609.09
429.507	632.6
429.883	637.79
430.259	637.12
430.635	674.18
431.011	647.74
431.387	675.99
431.763	666.95
432.138	667.62
432.514	680.28
432.89	690.22
433.265	695.87
433.641	672.14
434.016	702.43
434.392	699.71
434.767	711.46
435.143	732.93
435.518	714.85
435.894	742.88
436.269	744.91
436.644	719.15
437.02	718.02
437.395	742.65
437.77	765.93
438.145	766.6
438.52	767.96
438.895	756.66
439.271	767.06
439.646	786.04
440.021	812.25
440.395	786.94
440.77	810.67
441.145	780.84
441.52	825.59
441.895	816.77
442.27	820.84
442.645	816.09
443.019	822.65
443.394	836.88
443.769	847.28
444.143	855.87
444.518	857.68
444.892	846.83
445.267	853.83
445.641	839.82
446.016	867.62
446.39	877.11
446.764	881.4
447.139	888.41
447.513	871.01
447.887	901.29
448.262	918.46
448.636	906.26
449.01	887.96
449.384	915.98
449.758	939.03
450.132	920.5
450.506	931.8
450.88	974.06
451.254	966.37
451.628	977.9
452.002	993.94
452.376	960.27
452.75	985.81
453.123	1001.17
453.497	1019.93
453.871	1018.12
454.244	1032.36
454.618	1042.53
454.992	1054.05
455.365	1064.45
455.739	1080.49
456.112	1102.41
456.486	1089.99
456.859	1101.06
457.232	1105.35
457.606	1098.12
457.979	1124.33
458.352	1170.66
458.725	1168.85
459.099	1151
459.472	1198.46
459.845	1221.28
460.218	1236.65
460.591	1255.4
460.964	1261.73
461.337	1284.56
461.71	1296.76
462.083	1322.3
462.456	1301.73
462.829	1328.4
463.201	1353.93
463.574	1365.01
463.947	1378.57
464.32	1377.66
464.692	1439.81
465.065	1440.71
465.438	1447.49
465.81	1477.55
466.183	1490.88
466.555	1503.99
466.928	1541.95
467.3	1558.45
467.672	1581.27
468.045	1597.32
468.417	1635.51
468.789	1652.91
469.161	1728.61
469.534	1720.7
469.906	1733.58
470.278	1771.78
470.65	1797.09
471.022	1824.2
471.394	1863.98
471.766	1909.17
472.138	1910.08
472.51	1983.07
472.882	2030.98
473.253	2091.54
473.625	2104.2
473.997	2149.84
474.369	2198.88
474.74	2235.04
475.112	2280.91
475.484	2339.22
475.855	2436.16
476.227	2457.18
476.598	2494.69
476.97	2557.07
477.341	2632.09
477.713	2712.09
478.084	2745.99
478.455	2860.79
478.827	2894.46
479.198	2978.3
479.569	3058.52
479.94	3133.1
480.311	3211.74
480.682	3299.64
481.053	3404.05
481.424	3495.35
481.795	3562.46
482.166	3704.83
482.537	3735.34
482.908	3881.32
483.279	3915.9
483.65	4116.8
484.021	4161.32
484.391	4301.88
484.762	4385.49
485.133	4481.53
485.503	4609.67
485.874	4733.51
486.244	4873.61
486.615	4987.06
486.985	5110.67
487.356	5217.11
487.726	5319.93
488.097	5547.5
488.467	5581.62
488.837	5756.53
489.207	5911.55
489.578	5994.72
489.948	6184.54
490.318	6316.97
490.688	6350.19
491.058	6580.91
491.428	6691.87
491.798	6874.01
492.168	7031.98
492.538	7111.3
492.908	7262.48
493.278	7404.85
493.648	7488.69
494.017	7626.08
494.387	7788.11
494.757	7916.7
495.126	8031.72
495.496	8181.55
495.866	8285.28
496.235	8402.34
496.605	8541.09
496.974	8638.04
497.344	8805.04
497.713	8931.36
498.082	9017.23
498.452	9170.9
498.821	9308.98
499.19	9347.62
499.559	9476.66
499.928	9653.6
500.298	9668.06
500.667	9829.42
501.036	9820.15
501.405	9954.16
501.774	9983.99
502.143	10158.22
502.512	10193.7
502.88	10380.36
503.249	10466.46
503.618	10542.39
503.987	10603.41
504.356	10746
504.724	10771.99
505.093	10841.14
505.462	10905.55
505.83	10994.36
506.199	11114.81
506.567	11375.36
506.936	11266.44
507.304	11369.26
507.672	11448.58
508.041	11501.92
508.409	11639.54
508.777	11691.74
509.145	11748.69
509.514	11770.61
509.882	11860.1
510.25	11865.07
510.618	11946.88
510.986	12049.47
511.354	12119.98
511.722	12174.44
512.09	12221.44
512.458	12271.16
512.826	12397.94
513.193	12432.29
513.561	12472.96
513.929	12511.38
514.297	12597.93
514.664	12704.14
515.032	12711.15
515.4	12838.6
515.767	12807.42
516.135	12827.3
516.502	12752.73
516.869	12965.15
517.237	12947.07
517.604	13017.13
517.972	13081.99
518.339	13142.1
518.706	13098.94
519.073	13131.02
519.44	13171.7
519.808	13340.06
520.175	13191.36
520.542	13353.62
520.909	13491.92
521.276	13397.01
521.643	13497.79
522.009	13506.61
522.376	13492.37
522.743	13585.02
523.11	13635.42
523.477	13709.77
523.843	13800.16
524.21	13842.87
524.577	13829.76
524.943	13864.56
525.31	13816.66
525.676	14014.62
526.043	14023.88
526.409	14044.67
526.776	14105.91
527.142	14084.9
527.508	14161.73
527.874	14183.88
528.241	14127.83
528.607	14150.88
528.973	14285.8
529.339	14242.41
529.705	14366.25
530.071	14347.49
530.437	14367.6
530.803	14236.98
531.169	14323.76
531.535	14209.87
531.901	14272.69
532.267	14341.39
532.632	14303.65
532.998	14223.2
533.364	14317.89
533.73	14299.36
534.095	14384.55
534.461	14342.07
534.826	14314.72
535.192	14386.58
535.557	14450.31
535.923	14302.75
536.288	14295.74
536.653	14250.09
537.019	14224.1
537.384	14246.7
537.749	14180.26
538.114	14172.58
538.479	14217.55
538.845	14144.33
539.21	14133.71
539.575	14117.21
539.94	14095.97
540.305	14178.68
540.67	14025.24
541.034	14018.91
541.399	13940.95
541.764	13957.9
542.129	13902.53
542.494	13948.86
542.858	13865.02
543.223	13803.78
543.587	13896.43
543.952	13777.11
544.316	13848.75
544.681	13691.01
545.045	13718.13
545.41	13662.31
545.774	13703.89
546.138	13611.01
546.503	13670.9
546.867	13565.59
547.231	13684.23
547.595	13613.72
547.959	13528.75
548.324	13457.12
548.688	13466.61
549.052	13425.03
549.416	13408.53
549.779	13446.04
550.143	13364.01
550.507	13388.42
550.871	13378.48
551.235	13353.17
551.599	13343.9
551.962	13305.71
552.326	13295.31
552.689	13286.27
553.053	13174.19
553.417	13174.19
553.78	13254.64
554.143	13130.12
554.507	13222.32
554.87	13252.15
555.234	13187.52
555.597	13133.06
555.96	13119.95
556.323	13113.62
556.686	13028.65
557.05	13072.04
557.413	13181.87
557.776	12989.79
558.139	13033.4
558.502	13042.67
558.865	13032.27
559.228	13150.91
559.59	13083.34
559.953	12991.82
560.316	13083.12
560.679	13127.18
561.041	13116.56
561.404	13162.21
561.767	13164.92
562.129	13035.43
562.492	13152.04
562.854	13119.5
563.217	13026.62
563.579	13052.61
563.941	13138.93
564.304	13129.44
564.666	13233.62
565.028	13206.95
565.39	13187.97
565.753	13198.37
566.115	13264.13
566.477	13276.11
566.839	13258.03
567.201	13287.86
567.563	13210.12
567.925	13309.78
568.287	13365.59
568.648	13310.91
569.01	13307.74
569.372	13383.67
569.734	13319.27
570.095	13452.15
570.457	13472.94
570.819	13436.78
571.18	13344.13
571.542	13518.36
571.903	13525.59
572.265	13544.35
572.626	13411.02
572.987	13500.96
573.349	13495.53
573.71	13485.82
574.071	13578.7
574.432	13480.39
574.794	13661.18
575.155	13613.95
575.516	13486.72
575.877	13613.95
576.238	13628.19
576.599	13563.56
576.96	13671.8
577.32	13604.23
577.681	13668.19
578.042	13632.48
578.403	13600.39
578.763	13659.37
579.124	13589.77
579.485	13616.21
579.845	13724.23
580.206	13607.4
580.566	13599.49
580.927	13496.89
581.287	13679.26
581.648	13547.51
582.008	13678.81
582.368	13605.36
582.728	13707.28
583.089	13622.31
583.449	13596.1
583.809	13604.01
584.169	13667.28
584.529	13647.62
584.889	13629.09
585.249	13565.36
585.609	13553.84
585.969	13587.06
586.329	13554.74
586.688	13559.26
587.048	13566.49
587.408	13531.47
587.768	13441.3
588.127	13517.91
588.487	13483.11
588.846	13620.96
589.206	13484.46
589.565	13408.53
589.925	13511.35
590.284	13416.89
590.643	13492.82
591.003	13508.42
591.362	13504.57
591.721	13438.59
592.08	13455.76
592.44	13432.49
592.799	13494.18
593.158	13404.69
593.517	13420.51
593.876	13484.01
594.235	13319.27
594.593	13453.73
594.952	13394.29
595.311	13314.75
595.67	13455.99
596.029	13449.43
596.387	13494.86
596.746	13453.5
597.104	13282.89
597.463	13286.95
597.822	13388.42
598.18	13352.26
598.538	13341.41
598.897	13401.98
599.255	13235.43
599.613	13517
599.972	13321.98
600.33	13387.52
600.688	13279.72
601.046	13350.23
601.404	13436.33
601.762	13404.24
602.12	13409.44
602.478	13396.55
602.836	13360.85
603.194	13311.36
603.552	13375.54
603.91	13266.16
604.268	13326.5
604.625	13331.47
604.983	13347.29
605.341	13242.21
605.698	13366.5
606.056	13428.64
606.413	13339.15
606.771	13355.2
607.128	13429.55
607.485	13327.4
607.843	13293.73
608.2	13432.26
608.557	13426.16
608.914	13364.46
609.272	13417.12
609.629	13475.2
609.986	13509.32
610.343	13502.09
610.7	13530.11
611.057	13521.97
611.414	13429.55
611.771	13500.05
612.127	13537.12
612.484	13507.29
612.841	13562.88
613.198	13474.74
613.554	13506.38
613.911	13570.34
614.267	13649.66
614.624	13543.22
614.98	13573.95
615.337	13673.38
615.693	13658.47
616.05	13635.87
616.406	13684
616.762	13615.76
617.118	13631.58
617.475	13660.5
617.831	13637.45
618.187	13726.72
618.543	13698.47
618.899	13785.92
619.255	13801.06
619.611	13728.3
619.967	13773.95
620.323	13729.88
620.678	13735.3
621.034	13708.64
621.39	13724.46
621.746	13735.98
622.101	13861.4
622.457	13672.71
622.812	13851.01
623.168	13787.5
623.523	13822.08
623.879	13787.73
624.234	13639.26
624.589	13752.25
624.945	13774.4
625.3	13827.5
625.655	13737.11
626.01	13749.99
626.365	13771.91
626.72	13720.16
627.075	13665.47
627.43	13678.81
627.785	13724.23
628.14	13729.65
628.495	13693.04
628.85	13752.7
629.205	13595.65
629.559	13712.03
629.914	13685.13
630.269	13719.26
630.623	13616.21
630.978	13627.06
631.332	13705.7
631.687	13720.84
632.041	13699.15
632.396	13680.84
632.75	13554.74
633.104	13610.33
633.459	13567.4
633.813	13589.32
634.167	13511.58
634.521	13571.47
634.875	13593.84
635.229	13575.76
635.583	13454.18
635.937	13446.95
636.291	13491.02
636.645	13431.13
636.999	13408.76
637.352	13437.01
637.706	13330.12
638.06	13341.87
638.413	13300.51
638.767	13271.36
639.121	13282.43
639.474	13222.55
639.828	13223
640.181	13279.27
640.534	13274.98
640.888	13252.38
641.241	13114.3
641.594	13233.85
641.947	13237.91
642.301	13214.19
642.654	13219.61
643.007	13209.21
643.36	13232.94
643.713	13235.43
644.066	13260.06
644.419	13166.28
644.771	13072.95
645.124	12983.91
645.477	12980.29
645.83	12877.92
646.182	12788.89
646.535	12812.39
646.888	12806.29
647.24	12758.38
647.593	12849.45
647.945	12625.28
648.298	12699.4
648.65	12698.04
649.002	12620.76
649.355	12746.85
649.707	12763.58
650.059	12789.34
650.411	12980.75
650.763	13018.71
651.115	13024.13
651.467	13038.82
651.819	13018.26
652.171	12997.92
652.523	13001.99
652.875	12956.11
653.227	12975.77
653.578	13002.44
653.93	13073.85
654.282	12917.47
654.633	12868.21
654.985	12971.71
655.337	12947.53
655.688	12866.4
656.039	13054.87
656.391	12892.84
656.742	12959.73
657.094	12924.48
657.445	12953.85
657.796	12996.34
658.147	12922.89
658.498	12941.43
658.849	12937.81
659.2	13008.77
659.551	12952.95
659.902	13037.02
660.253	12944.59
660.604	13028.65
660.955	13055.55
661.306	13043.8
661.656	12979.39
662.007	13099.39
662.358	12999.05
662.708	13027.98
663.059	13011.48
663.409	12881.09
663.76	13067.3
664.11	13016.23
664.461	12996.57
664.811	13042.67
665.161	13056.45
665.511	13005.38
665.862	13037.24
666.212	13030.01
666.562	13067.52
666.912	13041.08
667.262	13037.69
667.612	13093.74
667.962	13023.46
668.312	13034.08
668.662	13056.9
669.011	13089.67
669.361	13049.22
669.711	12994.98
670.06	12970.13
670.41	13007.41
670.76	12942.33
671.109	13012.16
671.459	13027.07
671.808	12987.53
672.157	13056.68
672.507	12883.57
672.856	12948.43
673.205	12917.47
673.554	13021.2
673.904	12960.86
674.253	12927.87
674.602	12948.66
674.951	12735.1
675.3	12701.21
675.649	12796.12
675.998	12887.42
676.346	12818.49
676.695	12817.13
677.044	12774.65
677.393	12795.21
677.741	12831.15
678.09	12826.17
678.438	12776.01
678.787	12810.58
679.135	12751.15
679.484	12630.7
679.832	12771.49
680.181	12754.31
680.529	12713.63
680.877	12693.97
681.225	12605.16
681.573	12666.18
681.922	12554.32
682.27	12534.66
682.618	12606.52
682.966	12507.54
683.314	12565.39
683.661	12492.4
684.009	12395.9
684.357	12421.21
684.705	12434.32
685.053	12365.17
685.4	12384.38
685.748	12258.28
686.095	12322.68
686.443	12228.22
686.79	12185.06
687.138	12265.74
687.485	12255.34
687.832	12178.73
688.18	12191.16
688.527	12123.37
688.874	12080.2
689.221	12055.35
689.568	12040.43
689.915	11959.08
690.262	11908.46
690.609	11934.9
690.956	11833.88
691.303	11791.17
691.65	11780.1
691.997	11785.07
692.344	11746.88
692.69	11712.31
693.037	11675.47
693.383	11545.76
693.73	11633.66
694.077	11571.97
694.423	11434.8
694.769	11512.54
695.116	11523.38
695.462	11403.16
695.808	11388.7
696.155	11463.72
696.501	11353.9
696.847	11351.41
697.193	11258.31
697.539	11179.89
697.885	11147.35
698.231	11067.58
698.577	11060.12
698.923	10995.26
699.269	10995.71
699.614	10896.06
699.96	10821.48
700.306	10855.38
700.651	10844.31
700.997	10794.82
701.342	10722.05
701.688	10714.82
702.033	10688.38
702.379	10661.94
702.724	10660.81
703.069	10611.32
703.415	10544.43
703.76	10577.87
704.105	10510.98
704.45	10534.71
704.795	10410.42
705.14	10412.9
705.485	10395.5
705.83	10220.37
706.175	10295.39
706.52	10248.16
706.865	10232.12
707.209	10219.91
707.554	10163.19
707.899	10174.94
708.243	10133.36
708.588	10150.31
708.932	10049.07
709.277	10035.29
709.621	10066.47
709.966	9923.88
710.31	9993.71
710.654	9896.99
710.998	9941.05
711.342	9887.95
711.687	9896.76
712.031	9861.73
712.375	9734.73
712.719	9763.43
713.063	9780.6
713.407	9801.62
713.75	9749.42
714.094	9755.75
714.438	9625.58
714.782	9643.66
715.125	9649.99
715.469	9650.66
715.812	9595.98
716.156	9562.53
716.499	9554.4
716.843	9536.54
717.186	9466.26
717.53	9565.47
717.873	9534.74
718.216	9571.34
718.559	9500.84
718.902	9451.57
719.246	9377.23
719.589	9459.93
719.932	9419.03
720.275	9367.96
720.617	9399.82
720.96	9341.75
721.303	9364.8
721.646	9334.97
721.989	9203.22
722.331	9383.33
722.674	9355.3
723.016	9305.81
723.359	9276.89
723.701	9319.37
724.044	9228.75
724.386	9180.62
724.729	9229.21
725.071	9254.29
725.413	9255.42
725.755	9197.34
726.097	9173.61
726.439	9147.85
726.782	9137.68
727.124	9185.59
727.465	9145.14
727.807	9181.52
728.149	9145.14
728.491	9096.78
728.833	9165.48
729.175	9129.55
729.516	9072.6
729.858	9107.18
730.199	9188.08
730.541	9094.97
730.882	9092.03
731.224	9125.03
731.565	9051.81
731.906	9089.55
732.248	9104.24
732.589	9034.64
732.93	9048.19
733.271	9045.03
733.612	9096.1
733.953	9064.69
734.294	9067.4
734.635	9059.95
734.976	9098.59
735.317	9081.41
735.658	9095.65
735.999	9068.76
736.339	9036.9
736.68	9075.76
737.021	9093.39
737.361	9090.45
737.702	9108.31
738.042	9121.86
738.383	9028.76
738.723	9089.32
739.063	9051.81
739.404	9162.54
739.744	9100.4
740.084	9075.54
740.424	9084.35
740.764	9088.65
741.104	9132.94
741.444	9132.71
741.784	9128.64
742.124	9193.05
742.464	9188.08
742.804	9221.52
743.143	9170.9
743.483	9245.93
743.823	9238.02
744.162	9214.29
744.502	9314.85
744.841	9320.73
745.181	9382.87
745.52	9404.12
745.86	9430.11
746.199	9348.98
746.538	9526.6
746.877	9574.06
747.216	9636.2
747.556	9642.98
747.895	9695.63
748.234	9668.97
748.573	9692.47
748.911	9840.72
749.25	9831.9
749.589	9904.89
749.928	10005.46
750.267	10038
750.605	10102.4
750.944	10158
751.283	10207.49
751.621	10351.89
751.96	10365.67
752.298	10497.87
752.636	10558.89
752.975	10682.95
753.313	10699
753.651	10864.42
753.989	10854.93
754.327	11054.02
754.666	11070.29
755.004	11233
755.342	11404.52
755.679	11470.73
756.017	11555.25
756.355	11780.55
756.693	11859.87
757.031	12127.66
757.368	12105.29
757.706	12218.51
758.044	12336.02
758.381	12497.6
758.719	12689
759.056	12825.5
759.394	12918.83
759.731	13040.41
760.068	13194.3
760.405	13361.53
760.743	13451.92
761.08	13760.16
761.417	13810.1
761.754	13957.44
762.091	14189.75
762.428	14306.81
762.765	14385.91
763.102	14638.78
763.438	14660.02
763.775	14898.66
764.112	14948.38
764.449	15205.77
764.785	15326.9
765.122	15364.41
765.458	15509.27
765.795	15704.97
766.131	15851.86
766.467	15916.94
766.804	16071.96
767.14	16185.18
767.476	16382.92
767.812	16371.84
768.148	16549.47
768.485	16687.54
768.821	16704.04
769.157	16859.06
769.492	16988.32
769.828	17111.94
770.164	17055.44
770.5	17252.27
770.836	17420.86
771.171	17398.71
771.507	17511.93
771.842	17523.45
772.178	17656.78
772.513	17707.4
772.849	17804.57
773.184	17816.33
773.519	18015.64
773.855	17911.46
774.19	18014.96
774.525	18037.79
774.86	18178.12
775.195	18212.7
775.53	18181.29
775.865	18230.1
776.2	18166.82
776.535	18301.96
776.87	18192.81
777.205	18320.27
777.539	18294.05
777.874	18435.29
778.209	18348.29
778.543	18354.16
778.878	18314.39
779.212	18488.62
779.547	18416.31
779.881	18556.19
780.215	18459.25
780.55	18590.77
780.884	18501.73
781.218	18536.31
781.552	18546.7
781.886	18528.4
782.22	18443.43
782.554	18464.9
782.888	18447.27
783.222	18286.14
783.556	18292.7
783.889	18368.4
784.223	18362.3
784.557	18337.44
784.89	18300.83
785.224	18273.71
785.557	18196.2
785.891	18343.09
786.224	18226.26
786.558	18272.36
786.891	18157.11
787.224	18069.65
787.557	18162.76
787.891	18052.93
788.224	18144
788.557	18120.5
788.89	18140.38
789.223	18141.97
789.556	17975.42
789.888	18007.73
790.221	17975.87
790.554	17820.17
790.887	17812.48
791.219	17749.89
791.552	17756.21
791.884	17795.76
792.217	17663.56
792.549	17834.63
792.882	17530.23
793.214	17490.46
793.546	17631.25
793.879	17481.87
794.211	17425.83
794.543	17469.67
794.875	17443.91
795.207	17404.13
795.539	17417.24
795.871	17413.62
796.203	17315.1
796.535	17119.39
796.867	17163.46
797.198	17082.79
797.53	17147.87
797.862	17044.37
798.193	17114.2
798.525	16920.76
798.856	16910.59
799.188	16817.26
799.519	16818.61
799.85	16737.94
800.182	16710.82
800.513	16741.33
800.844	16509.92
801.175	16659.97
801.506	16589.46
801.837	16645.73
802.168	16572.74
802.499	16429.02
802.83	16442.58
803.161	16361.22
803.491	16441.67
803.822	16418.62
804.153	16265.18
804.483	16156.03
804.814	16138.4
805.145	16129.14
805.475	16161.68
805.805	16085.75
806.136	16078.29
806.466	16139.31
806.796	15943.61
807.126	15825.19
807.457	15889.6
807.787	15914.23
808.117	15875.13
808.447	15809.15
808.777	15840.56
809.107	15678.98
809.436	15693.22
809.766	15799.43
810.096	15624.29
810.426	15624.07
810.755	15572.99
811.085	15549.49
811.414	15474.24
811.744	15414.81
812.073	15409.83
812.403	15392.21
812.732	15337.75
813.061	15278.99
813.39	15259.56
813.719	15105.44
814.049	15292.1
814.378	15148.6
814.707	15180.46
815.036	15146.79
815.365	15164.64
815.693	14952.45
816.022	15014.82
816.351	14991.77
816.68	14896.63
817.008	14989.96
817.337	14834.03
817.665	14776.63
817.994	14778.44
818.322	14728.95
818.651	14756.07
818.979	14695.73
819.307	14664.54
819.636	14607.37
819.964	14625
820.292	14685.11
820.62	14740.7
820.948	14591.78
821.276	14622.96
821.604	14565.79
821.932	14646.47
822.259	14709.97
822.587	14608.73
822.915	14589.29
823.243	14603.53
823.57	14540.48
823.898	14598.33
824.225	14517.65
824.553	14552.91
824.88	14585.68
825.207	14568.28
825.535	14598.33
825.862	14596.07
826.189	14538.45
826.516	14554.04
826.843	14602.17
827.17	14534.15
827.497	14643.08
827.824	14637.43
828.151	14533.7
828.478	14591.55
828.805	14669.52
829.131	14601.27
829.458	14634.49
829.785	14496.86
830.111	14603.3
830.438	14616.86
830.764	14660.48
831.09	14639.69
831.417	14578.22
831.743	14570.76
832.069	14537.54
832.395	14565.56
832.722	14515.17
833.048	14504.55
833.374	14592.23
833.7	14497.77
834.026	14531.89
834.351	14505.23
834.677	14444.44
835.003	14390.2
835.329	14521.27
835.654	14425.45
835.98	14397.88
836.306	14416.64
836.631	14371.67
836.956	14348.17
837.282	14429.3
837.607	14299.81
837.932	14263.65
838.258	14366.47
838.583	14250.77
838.908	14183.43
839.233	14180.49
839.558	14105.01
839.883	14136.65
840.208	14146.14
840.533	14145.24
840.858	14067.72
841.182	13980.04
841.507	14072.24
841.832	14051.68
842.156	13966.03
842.481	13993.6
842.805	13982.53
843.13	13922.42
843.454	13876.99
843.778	13827.5
844.103	13838.35
844.427	13771.46
844.751	13760.16
845.075	13674.74
845.399	13648.07
845.723	13599.94
846.047	13530.79
846.371	13517.23
846.695	13482.43
847.019	13428.19
847.343	13340.28
847.666	13234.07
847.99	13270.91
848.313	13181.42
848.637	13113.17
848.96	13169.22
849.284	13140.97
849.607	13039.73
849.931	12975.55
850.254	12948.66
850.577	12766.29
850.9	12779.85
851.223	12754.54
851.546	12694.65
851.869	12510.48
852.192	12615.78
852.515	12519.97
852.838	12438.84
853.161	12473.19
853.483	12392.74
853.806	12372.17
854.129	12315.68
854.451	12261.22
854.774	12258.05
855.096	12178.28
855.419	12197.94
855.741	12192.97
856.063	12020.09
856.385	12011.28
856.708	11938.51
857.03	11931.73
857.352	11938.06
857.674	11887.22
857.996	11946.42
858.318	11789.37
858.64	11812.42
858.961	11776.94
859.283	11743.49
859.605	11667.79
859.926	11736.03
860.248	11633.44
860.57	11581.91
860.891	11661.46
861.212	11529.94
861.534	11481.35
861.855	11445.87
862.176	11498.53
862.498	11521.12
862.819	11441.13
863.14	11426.66
863.461	11338.08
863.782	11367
864.103	11391.64
864.424	11337.63
864.745	11318.42
865.065	11283.16
865.386	11203.84
865.707	11204.07
866.027	11193.9
866.348	11181.92
866.668	11207.91
866.989	11170.62
867.309	11108.25
867.63	11050.18
867.95	11083.62
868.27	10995.04
868.59	11016.5
868.91	11064.19
869.23	11008.82
869.55	10970.63
869.87	11092.43
870.19	10922.72
870.51	10953.91
870.83	10972.89
871.15	10888.15
871.469	10913.68
871.789	10886.79
872.109	10919.11
872.428	10832.33
872.748	10894.7
873.067	10811.31
873.386	10803.18
873.706	10806.34
874.025	10676.63
874.344	10691.77
874.663	10805.66
874.982	10727.7
875.301	10742.61
875.62	10647.7
875.939	10650.19
876.258	10667.59
876.577	10598.89
876.896	10596.63
877.214	10530.19
877.533	10613.58
877.852	10621.03
878.17	10502.62
878.489	10609.06
878.807	10525.22
879.125	10470.53
879.444	10550.3
879.762	10440.7
880.08	10459.23
880.398	10401.83
880.716	10476.86
881.034	10369.52
881.352	10425.33
881.67	10371.1
881.988	10379.01
882.306	10328.16
882.624	10263.53
882.941	10216.53
883.259	10206.36
883.577	10147.15
883.894	10098.56
884.212	10138.56
884.529	10116.19
884.846	10095.62
885.164	10071.67
885.481	10037.32
885.798	10042.29
886.115	9921.17
886.432	9955.06
886.75	9941.5
887.067	9918
887.383	9959.36
887.7	9866.03
888.017	9818.8
888.334	9874.61
888.651	9839.36
888.967	9873.71
889.284	9757.1
889.6	9776.99
889.917	9731.11
890.233	9683.66
890.55	9629.87
890.866	9635.07
891.182	9662.64
891.498	9589.2
891.815	9528.63
892.131	9564.11
892.447	9523.21
892.763	9503.1
893.079	9369.77
893.395	9455.64
893.71	9317.79
894.026	9351.69
894.342	9285.93
894.657	9232.37
894.973	9252.03
895.289	9257.45
895.604	9240.05
895.92	9065.37
896.235	9109.44
896.55	9108.53
896.865	9077.12
897.181	9047.29
897.496	9027.86
897.811	8959.16
898.126	8991.25
898.441	8942.21
898.756	8861.98
899.071	8788.54
899.386	8779.5
899.7	8739.95
900.015	8743.8
900.33	8594.42
900.644	8603.23
900.959	8699.5
901.273	8643.69
901.588	8613.18
901.902	8530.69
902.216	8506.06
902.531	8527.3
902.845	8488.89
903.159	8402.34
903.473	8370.47
903.787	8351.04
904.101	8294.77
904.415	8301.55
904.729	8245.28
905.042	8200.98
905.356	8216.13
905.67	8172.96
905.984	8201.21
906.297	8136.35
906.611	8083.02
906.924	8085.73
907.237	8083.25
907.551	8019.07
907.864	7970.48
908.177	7992.18
908.491	7880.99
908.804	7910.15
909.117	7826.98
909.43	7780.66
909.743	7731.17
910.056	7705.4
910.368	7703.82
910.681	7713.77
910.994	7678.51
911.307	7623.6
911.619	7564.62
911.932	7564.84
912.244	7452.08
912.557	7448.91
912.869	7471.29
913.181	7445.52
913.494	7401.01
913.806	7362.81
914.118	7366.43
914.43	7335.24
914.742	7289.82
915.054	7252.54
915.366	7276.49
915.678	7197.85
915.99	7149.04
916.302	7077.85
916.613	7112.65
916.925	7046.21
917.236	7012.32
917.548	7013.45
917.859	7052.77
918.171	6931.19
918.482	6945.42
918.794	6849.83
919.105	6901.81
919.416	6799.44
919.727	6802.6
920.038	6811.87
920.349	6717.63
920.66	6681.93
920.971	6705.88
921.282	6666.34
921.593	6617.98
921.903	6618.65
922.214	6625.89
922.525	6504.98
922.835	6527.81
923.146	6504.53
923.456	6466.57
923.767	6426.34
924.077	6462.27
924.387	6394.25
924.697	6369.39
925.008	6343.18
925.318	6326.91
925.628	6308.15
925.938	6281.94
926.248	6258.44
926.558	6213.01
926.867	6238.55
927.177	6156.29
927.487	6125.56
927.796	6142.51
928.106	6098.67
928.416	6080.59
928.725	6060.02
929.034	5984.32
929.344	6032.91
929.653	6022.51
929.962	5959.46
930.271	5905
930.581	5860.93
930.89	5889.41
931.199	5812.35
931.508	5916.3
931.817	5838.34
932.125	5793.82
932.434	5763.31
932.743	5728.51
933.051	5697.32
933.36	5688.28
933.669	5617.55
933.977	5559.25
934.286	5633.14
934.594	5590.66
934.902	5542.3
935.21	5558.57
935.519	5585.69
935.827	5472.92
936.135	5442.41
936.443	5453.03
936.751	5413.71
937.059	5376.65
937.367	5383.66
937.674	5388.86
937.982	5355.41
938.29	5312.25
938.597	5298.01
938.905	5207.17
939.213	5209.2
939.52	5185.47
939.827	5193.83
940.135	5174.17
940.442	5145.02
940.749	5166.26
941.056	5143.44
941.363	5092.14
941.67	5069.99
941.977	5026.38
942.284	5015.08
942.591	5002.65
942.898	4978.47
943.205	4950.22
943.511	4939.6
943.818	4896.44
944.125	4896.44
944.431	4885.37
944.738	4905.25
945.044	4859.15
945.35	4821.19
945.657	4743
945.963	4716.78
946.269	4743.9
946.575	4752.26
946.881	4759.49
947.187	4686.73
947.493	4668.87
947.799	4644.47
948.105	4644.92
948.41	4647.63
948.716	4635.88
949.022	4583.68
949.327	4555.88
949.633	4498.94
949.938	4503.23
950.244	4543.91
950.549	4505.04
950.854	4438.37
951.16	4440.63
951.465	4411.48
951.77	4407.86
952.075	4406.73
952.38	4404.02
952.685	4352.95
952.99	4333.52
953.294	4308.43
953.599	4271.82
953.904	4213.97
954.209	4278.15
954.513	4239.73
954.818	4214.42
955.122	4186.18
955.426	4163.58
955.731	4135.33
956.035	4156.8
956.339	4107.53
956.643	4076.35
956.948	4092.39
957.252	4029.57
957.556	4058.49
957.86	4063.01
958.163	4007.2
958.467	3992.96
958.771	4006.74
959.075	3959.97
959.378	3925.62
959.682	3971.04
959.985	3910.7
960.289	3896.69
960.592	3890.36
960.896	3852.17
961.199	3860.31
961.502	3838.16
961.805	3846.52
962.108	3780.08
962.411	3816.92
962.714	3770.82
963.017	3725.62
963.32	3757.94
963.623	3744.38
963.926	3693.76
964.228	3709.13
964.531	3689.01
964.833	3664.83
965.136	3663.7
965.438	3638.62
965.741	3607.89
966.043	3619.41
966.345	3622.57
966.648	3572.86
966.95	3604.04
967.252	3513.42
967.554	3541.45
967.856	3541.9
968.158	3489.47
968.46	3509.81
968.761	3453.31
969.063	3472.97
969.365	3424.39
969.666	3436.59
969.968	3359.76
970.269	3359.3
970.571	3386.87
970.872	3375.8
971.174	3355.24
971.475	3340.55
971.776	3291.51
972.077	3295.58
972.378	3277.27
972.679	3275.92
972.98	3254
973.281	3250.38
973.582	3222.13
973.883	3252.19
974.183	3204.73
974.484	3197.5
974.785	3138.97
975.085	3161.12
975.386	3138.07
975.686	3116.6
975.986	3086.09
976.287	3088.35
976.587	3076.83
976.887	3105.98
977.187	3062.59
977.487	3078.63
977.787	3058.07
978.087	3023.04
978.387	2987.34
978.687	2971.29
978.987	2966.77
979.286	2976.94
979.586	2951.41
979.885	2944.4
980.185	2923.84
980.484	2880.9
980.784	2891.75
981.083	2891.97
981.382	2867.57
981.682	2877.96
981.981	2836.83
982.28	2829.15
982.579	2772.43
982.878	2817.62
983.177	2800
983.475	2834.35
983.774	2801.35
984.073	2745.31
984.372	2728.59
984.67	2740.56
984.969	2716.84
985.267	2715.48
985.566	2708.02
985.864	2671.64
986.162	2703.73
986.461	2670.06
986.759	2657.85
987.057	2600.23
987.355	2603.62
987.653	2621.7
987.951	2617.18
988.249	2592.32
988.547	2584.41
988.844	2560.46
989.142	2571.08
989.44	2536.28
989.737	2509.61
990.035	2495.37
990.332	2526.11
990.63	2503.51
990.927	2485.88
991.224	2448.14
991.521	2452.44
991.819	2473.68
992.116	2479.55
992.413	2442.49
992.71	2409.95
993.006	2440.68
993.303	2388.93
993.6	2375.6
993.897	2370.63
994.193	2364.75
994.49	2340.57
994.787	2345.32
995.083	2332.44
995.379	2354.13
995.676	2283.85
995.972	2270.07
996.268	2287.24
996.565	2271.42
996.861	2267.81
997.157	2261.03
997.453	2259.45
997.749	2225.32
998.044	2216.06
998.34	2194.82
998.636	2218.09
998.932	2173.57
999.227	2164.08
999.523	2164.08
999.818	2190.07
1000.114	2117.08
1000.409	2104.42
1000.704	2135.38
1001	2087.47
1001.295	2084.99
1001.59	2071.2
1001.885	2056.06
1002.18	2059.68
1002.475	2039.79
1002.77	2070.98
1003.065	1983.07
1003.359	2045.21
1003.654	2014.93
1003.949	2000.7
1004.243	1967.93
1004.538	1996.63
1004.832	1970.19
1005.127	1923.64
1005.421	1971.09
1005.715	1953.47
1006.009	1898.1
1006.304	1908.5
1006.598	1901.94
1006.892	1902.39
1007.186	1869.85
1007.48	1866.46
1007.773	1851.77
1008.067	1837.31
1008.361	1805.45
1008.655	1827.37
1008.948	1788.27
1009.242	1786.24
1009.535	1804.54
1009.829	1784.88
1010.122	1780.81
1010.415	1761.38
1010.708	1744.66
1011.001	1751.21
1011.295	1715.51
1011.588	1705.79
1011.881	1725
1012.173	1705.79
1012.466	1701.95
1012.759	1658.56
1013.052	1677.31
1013.344	1671.67
1013.637	1671.67
1013.93	1649.52
1014.222	1623.08
1014.514	1609.52
1014.807	1609.97
1015.099	1624.89
1015.391	1606.13
1015.683	1602.97
1015.976	1576.75
1016.268	1560.48
1016.56	1547.15
1016.851	1532.91
1017.143	1534.04
1017.435	1528.39
1017.727	1513.93
1018.018	1513.25
1018.31	1485.23
1018.602	1475.96
1018.893	1490.43
1019.185	1459.47
1019.476	1468.51
1019.767	1439.58
1020.058	1453.59
1020.35	1430.77
1020.641	1432.12
1020.932	1428.06
1021.223	1409.07
1021.514	1372.24
1021.804	1342.63
1022.095	1365.68
1022.386	1381.5
1022.677	1360.03
1022.967	1359.81
1023.258	1352.35
1023.548	1321.39
1023.839	1316.87
1024.129	1318
1024.419	1323.43
1024.709	1282.52
1025	1314.39
1025.29	1282.97
1025.58	1288.17
1025.87	1254.05
1026.16	1274.84
1026.449	1238.46
1026.739	1250.43
1027.029	1242.75
1027.319	1219.7
1027.608	1222.19
1027.898	1212.47
1028.187	1222.64
1028.477	1214.5
1028.766	1177.21
1029.055	1167.27
1029.344	1181.96
1029.634	1174.5
1029.923	1175.86
1030.212	1172.02
1030.501	1165.69
1030.79	1147.84
1031.078	1137.22
1031.367	1153.03
1031.656	1085.01
1031.945	1114.84
1032.233	1111.68
1032.522	1087.5
1032.81	1080.72
1033.099	1079.82
1033.387	1062.64
1033.675	1051.57
1033.963	1047.95
1034.251	1068.52
1034.54	1065.58
1034.828	1060.83
1035.116	1027.39
1035.403	1047.5
1035.691	1022.87
1035.979	1016.09
1036.267	1005.69
1036.554	999.82
1036.842	988.75
1037.129	982.64
1037.417	995.75
1037.704	958.24
1037.992	971.34
1038.279	948.97
1038.566	962.08
1038.853	962.08
1039.14	962.08
