Data from hue_90_FLMS001491_69.txt Node
Date: Mon Feb 06 15:25:29 GMT 2017
User: dcchb
Spectrometer: FLMS00149
Trigger mode: 0
Integration Time (sec): 2.000000E-2
Scans to average: 10
Electric dark correction enabled: true
Nonlinearity correction enabled: false
Boxcar width: 0
XAxis mode: Wavelengths
Number of Pixels in Spectrum: 2048
>>>>>Begin Spectral Data<<<<<
341.393	-20
341.776	-20
342.16	-20
342.543	-70.62
342.927	-94.57
343.31	-51.19
343.693	-78.75
344.077	-74.01
344.46	-66.33
344.843	-59.77
345.226	-33.78
345.61	-17.97
345.993	-22.71
346.376	20.9
346.759	-3.05
347.142	27.91
347.525	45.31
347.908	62.26
348.291	70.39
348.674	66.78
349.057	114.01
349.44	132.76
349.823	143.16
350.206	153.1
350.588	182.48
350.971	195.81
351.354	212.31
351.737	232.2
352.119	252.31
352.502	257.51
352.884	265.19
353.267	262.7
353.65	297.05
354.032	278.98
354.414	288.47
354.797	299.77
355.179	323.27
355.562	314.23
355.944	329.14
356.326	336.15
356.709	318.75
357.091	314.91
357.473	337.51
357.855	330.5
358.238	341.35
358.62	325.75
359.002	326.43
359.384	313.55
359.766	351.29
360.148	311.07
360.53	335.47
360.912	339.99
361.294	339.09
361.676	366.66
362.057	319.43
362.439	335.7
362.821	336.38
363.203	307.9
363.584	286.66
363.966	315.58
364.348	323.72
364.729	330.73
365.111	327.79
365.493	339.31
365.874	319.65
366.256	289.82
366.637	318.07
367.019	313.33
367.4	317.84
367.781	292.31
368.163	315.81
368.544	319.2
368.925	305.87
369.306	309.71
369.688	322.82
370.069	331.86
370.45	318.07
370.831	318.07
371.212	319.65
371.593	323.04
371.974	315.36
372.355	299.77
372.736	306.55
373.117	301.8
373.498	321.91
373.879	314
374.26	326.21
374.641	327.79
375.021	329.14
375.402	311.97
375.783	312.42
376.163	331.4
376.544	330.73
376.925	328.69
377.305	316.04
377.686	334.79
378.066	338.18
378.447	330.27
378.827	323.95
379.208	324.85
379.588	344.06
379.968	323.27
380.349	325.98
380.729	332.31
381.109	340.67
381.489	323.72
381.87	337.28
382.25	355.58
382.63	332.76
383.01	375.24
383.39	340.67
383.77	337.51
384.15	350.39
384.53	361.23
384.91	333.89
385.29	376.15
385.67	366.66
386.049	357.17
386.429	358.07
386.809	368.69
387.189	347.22
387.568	328.47
387.948	351.52
388.328	377.28
388.707	363.72
389.087	371.18
389.466	386.77
389.846	366.66
390.225	381.12
390.605	372.53
390.984	370.72
391.363	362.59
391.743	361.69
392.122	378.18
392.501	356.71
392.881	396.26
393.26	384.74
393.639	383.83
394.018	376.6
394.397	374.11
394.776	383.83
395.155	398.07
395.534	388.35
395.913	382.7
396.292	389.71
396.671	391.29
397.05	403.72
397.429	416.6
397.808	388.35
398.186	394.45
398.565	395.13
398.944	398.52
399.323	395.13
399.701	399.2
400.08	417.73
400.458	419.31
400.837	424.51
401.215	421.12
401.594	418.86
401.972	421.8
402.351	408.46
402.729	437.39
403.107	417.73
403.486	427.45
403.864	432.42
404.242	420.67
404.62	428.8
404.999	434.23
405.377	439.2
405.755	431.51
406.133	425.19
406.511	424.28
406.889	433.77
407.267	441.46
407.645	445.53
408.023	453.43
408.401	460.44
408.779	453.66
409.156	460.21
409.534	448.69
409.912	474.68
410.29	454.34
410.667	470.61
411.045	481
411.422	473.77
411.8	471.06
412.178	458.86
412.555	486.2
412.933	480.1
413.31	476.03
413.687	490.04
414.065	490.95
414.442	493.66
414.819	504.05
415.197	507.22
415.574	522.59
415.951	521.68
416.328	504.28
416.705	537.05
417.082	523.94
417.46	529.36
417.837	527.1
418.214	531.4
418.591	528.46
418.967	541.34
419.344	551.96
419.721	530.27
420.098	547.9
420.475	541.57
420.852	551.28
421.228	555.13
421.605	567.78
421.982	545.41
422.358	551.51
422.735	580.89
423.111	565.97
423.488	579.98
423.864	567.78
424.241	577.72
424.617	584.73
424.994	610.72
425.37	597.16
425.746	604.62
426.123	607.55
426.499	621.79
426.875	606.2
427.251	637.61
427.627	625.86
428.003	618.4
428.379	621.34
428.756	635.58
429.132	647.55
429.507	634.67
429.883	651.85
430.259	632.41
430.635	670.38
431.011	666.76
431.387	687.33
431.763	685.29
432.138	661.79
432.514	699.76
432.89	702.24
433.265	700.21
433.641	708.34
434.016	709.25
434.392	722.81
434.767	736.14
435.143	729.36
435.518	723.03
435.894	727.78
436.269	727.78
436.644	759.42
437.02	769.58
437.395	780.43
437.77	782.24
438.145	791.96
438.52	796.7
438.895	776.59
439.271	769.81
439.646	787.21
440.021	803.71
440.395	811.39
440.77	808
441.145	809.36
441.52	824.05
441.895	839.41
442.27	825.18
442.645	841.67
443.019	847.32
443.394	850.94
443.769	850.94
444.143	867.66
444.518	852.75
444.892	862.24
445.267	887.1
445.641	886.64
446.016	892.52
446.39	907.43
446.764	880.09
447.139	898.39
447.513	913.99
447.887	931.16
448.262	921.22
448.636	914.89
449.01	932.07
449.384	918.28
449.758	939.75
450.132	965.29
450.506	984.04
450.88	960.09
451.254	970.71
451.628	963.25
452.002	998.73
452.376	1008
452.75	1012.06
453.123	1020.65
453.497	1059.07
453.871	1036.02
454.244	1059.97
454.618	1048.22
454.992	1076.92
455.365	1078.5
455.739	1081.89
456.112	1090.25
456.486	1102.23
456.859	1130.03
457.232	1145.85
457.606	1157.37
457.979	1142.68
458.352	1187.65
458.725	1208.89
459.099	1199.63
459.472	1231.27
459.845	1238.05
460.218	1226.07
460.591	1246.86
460.964	1256.58
461.337	1307.88
461.71	1297.71
462.083	1336.58
462.456	1346.07
462.829	1321.66
463.201	1352.17
463.574	1369.12
463.947	1390.13
464.32	1419.96
464.692	1455.67
465.065	1450.24
465.438	1482.11
465.81	1498.83
466.183	1470.81
466.555	1541.09
466.928	1561.2
467.3	1599.17
467.672	1625.16
468.045	1622.9
468.417	1656.79
468.789	1682.1
469.161	1688.66
469.534	1723.01
469.906	1781.54
470.278	1810.69
470.65	1825.83
471.022	1887.07
471.394	1901.31
471.766	1964.81
472.138	1944.69
472.51	1992.38
472.882	2060.85
473.253	2085.03
473.625	2139.04
473.997	2204.57
474.369	2224.46
474.74	2261.97
475.112	2293.39
475.484	2382.88
475.855	2424
476.227	2485.7
476.598	2546.71
476.97	2643.21
477.341	2671
477.713	2731.57
478.084	2767.05
478.455	2903.99
478.827	2973.82
479.198	3058.34
479.569	3083.65
479.94	3239.12
480.311	3238.67
480.682	3378.78
481.053	3515.27
481.424	3572.22
481.795	3638.66
482.166	3741.03
482.537	3800.01
482.908	3949.84
483.279	4032.78
483.65	4124.98
484.021	4312.99
484.391	4366.33
484.762	4461.24
485.133	4574
485.503	4691.97
485.874	4860.55
486.244	4994.78
486.615	5122.01
486.985	5250.6
487.356	5393.19
487.726	5532.85
488.097	5632.06
488.467	5693.52
488.837	5910.92
489.207	6037.92
489.578	6233.17
489.948	6319.04
490.318	6448.08
490.688	6534.18
491.058	6771.69
491.428	6927.16
491.798	7056.2
492.168	7237.21
492.538	7345
492.908	7464.32
493.278	7648.5
493.648	7783.64
494.017	7938.21
494.387	8051.88
494.757	8165.55
495.126	8357.86
495.496	8450.29
495.866	8610.06
496.235	8737.96
496.605	8914.91
496.974	9015.24
497.344	9177.27
497.713	9257.27
498.082	9413.65
498.452	9555.34
498.821	9624.27
499.19	9752.4
499.559	9885.05
499.928	9968.66
500.298	10160.3
500.667	10331.37
501.036	10303.57
501.405	10465.37
501.774	10524.36
502.143	10649.55
502.512	10748.53
502.88	10854.97
503.249	10945.14
503.618	11028.75
503.987	11178.8
504.356	11188.97
504.724	11338.12
505.093	11422.41
505.462	11494.95
505.83	11661.95
506.199	11694.49
506.567	11954.37
506.936	11785.11
507.304	11939.01
507.672	12132.45
508.041	12129.51
508.409	12197.53
508.777	12328.15
509.145	12393.01
509.514	12468.03
509.882	12476.62
510.25	12478.2
510.618	12629.61
510.986	12748.93
511.354	12775.37
511.722	12905.99
512.09	12990.73
512.458	13032.76
512.826	13140.78
513.193	13241.35
513.561	13202.48
513.929	13264.62
514.297	13348.91
514.664	13390.72
515.032	13497.39
515.4	13474.11
515.767	13512.07
516.135	13620.55
516.502	13470.95
516.869	13748.45
517.237	13749.81
517.604	13781.67
517.972	13865.29
518.339	13920.88
518.706	13817.83
519.073	13971.5
519.44	14003.13
519.808	14177.14
520.175	14018.28
520.542	14155.9
520.909	14191.15
521.276	14183.92
521.643	14216.01
522.009	14342.79
522.376	14344.59
522.743	14390.47
523.11	14471.6
523.477	14589.56
523.843	14545.95
524.21	14734.87
524.577	14769.44
524.943	14806.05
525.31	14721.08
525.676	14856.9
526.043	14846.05
526.409	14846.95
526.776	14990.91
527.142	14966.5
527.508	14912.26
527.874	15126.49
528.241	15029.55
528.607	15055.99
528.973	15121.07
529.339	15047.17
529.705	15027.97
530.071	15166.95
530.437	15198.58
530.803	15158.13
531.169	15187.96
531.535	15124.69
531.901	15042.88
532.267	15112.26
532.632	15145.03
532.998	15183.22
533.364	15193.61
533.73	15162.88
534.095	15210.33
534.461	15166.95
534.826	15241.52
535.192	15200.84
535.557	15194.52
535.923	15152.71
536.288	15204.91
536.653	15164.91
537.019	14990.91
537.384	15111.13
537.749	15075.42
538.114	14973.5
538.479	14994.07
538.845	14944.35
539.21	14958.14
539.575	14905.26
539.94	14890.57
540.305	14926.95
540.67	14785.71
541.034	14851.02
541.399	14812.38
541.764	14800.85
542.129	14688.99
542.494	14646.51
542.858	14789.78
543.223	14634.76
543.587	14647.41
543.952	14575.32
544.316	14606.28
544.681	14540.52
545.045	14563.8
545.41	14522.44
545.774	14475.21
546.138	14449.22
546.503	14433.18
546.867	14337.36
547.231	14358.61
547.595	14314.09
547.959	14270.02
548.324	14264.14
548.688	14131.49
549.052	14268.44
549.416	14207.88
549.779	14130.59
550.143	14135.11
550.507	14141.66
550.871	14073.19
551.235	13994.77
551.599	14037.26
551.962	13987.32
552.326	14027.77
552.689	14065.51
553.053	13991.84
553.417	13938.05
553.78	14022.57
554.143	13864.83
554.507	13861.67
554.87	13841.56
555.234	14005.39
555.597	13760.88
555.96	13767.89
556.323	13812.63
556.686	13716.36
557.05	13750.03
557.413	13800.65
557.776	13655.35
558.139	13804.5
558.502	13761.33
558.865	13689.24
559.228	13767.66
559.59	13725.4
559.953	13700.54
560.316	13772.41
560.679	13743.71
561.041	13777.38
561.404	13770.37
561.767	13808.11
562.129	13663.48
562.492	13827.55
562.854	13815.57
563.217	13640.43
563.579	13769.24
563.941	13867.77
564.304	13833.65
564.666	13847.66
565.028	13855.34
565.39	13858.96
565.753	13884.95
566.115	13828.68
566.477	13961.78
566.839	13850.6
567.201	13876.13
567.563	13915.45
567.925	13948.67
568.287	13886.08
568.648	13904.15
569.01	13907.54
569.372	14033.42
569.734	13985.06
570.095	14043.13
570.457	14093.98
570.819	14044.26
571.18	14067.09
571.542	14134.88
571.903	13985.51
572.265	14112.51
572.626	14117.03
572.987	14074.55
573.349	14099.18
573.71	14103.02
574.071	14139.85
574.432	14166.75
574.794	14213.07
575.155	14171.94
575.516	14109.35
575.877	14218.95
576.238	14187.76
576.599	14115.9
576.96	14221.66
577.32	14254.65
577.681	14254.65
578.042	14187.76
578.403	14218.04
578.763	14152.06
579.124	14160.64
579.485	14208.33
579.845	14305.73
580.206	14242.22
580.566	14233.19
580.927	14165.16
581.287	14226.41
581.648	14209.91
582.008	14282
582.368	14204.71
582.728	14242.22
583.089	14199.97
583.449	14277.25
583.809	14199.97
584.169	14223.02
584.529	14089.91
584.889	14265.5
585.249	14141.66
585.609	14112.74
585.969	14164.71
586.329	14158.38
586.688	14141.21
587.048	14123.13
587.408	14053.3
587.768	14159.29
588.127	14014.43
588.487	14010.59
588.846	14118.16
589.206	14001.1
589.565	14003.13
589.925	14072.29
590.284	14100.99
590.643	13980.08
591.003	14080.87
591.362	14015.34
591.721	14058.27
592.08	14000.65
592.44	13974.21
592.799	13988.45
593.158	13943.7
593.517	13962.91
593.876	13952.74
594.235	13934.21
594.593	13933.76
594.952	13961.78
595.311	13835
595.67	13834.78
596.029	14072.74
596.387	13964.27
596.746	14003.36
597.104	13813.76
597.463	13869.35
597.822	13887.43
598.18	13885.4
598.538	13865.96
598.897	13954.1
599.255	13880.2
599.613	14008.33
599.972	13858.96
600.33	13899.41
600.688	13839.98
601.046	13913.42
601.404	13879.07
601.762	13839.75
602.12	13972.63
602.478	13945.74
602.836	13870.03
603.194	13829.13
603.552	13806.76
603.91	13806.08
604.268	13943.7
604.625	13803.59
604.983	13924.27
605.341	13841.56
605.698	13875.23
606.056	13849.92
606.413	13854.89
606.771	13956.58
607.128	13889.69
607.485	13847.88
607.843	13775.34
608.2	13873.42
608.557	13905.06
608.914	13852.18
609.272	13944.61
609.629	13916.81
609.986	13940.09
610.343	13935.34
610.7	13986.64
611.057	14032.06
611.414	14033.42
611.771	13945.74
612.127	13939.41
612.484	14071.61
612.841	14025.28
613.198	14064.38
613.554	13997.26
613.911	14093.53
614.267	14069.57
614.624	14015.56
614.98	14153.41
615.337	14120.65
615.693	14053.08
616.05	14086.52
616.406	14138.27
616.762	14059.4
617.118	14149.12
617.475	14099.63
617.831	14227.31
618.187	14102.57
618.543	14121.1
618.899	14264.37
619.255	14174.66
619.611	14268.89
619.967	14221.66
620.323	14232.28
620.678	14174.66
621.034	14131.49
621.39	14236.8
621.746	14274.54
622.101	14319.06
622.457	14179.4
622.812	14244.94
623.168	14314.76
623.523	14234.31
623.879	14260.53
624.234	14183.69
624.589	14292.62
624.945	14254.43
625.3	14206.07
625.655	14324.03
626.01	14212.17
626.365	14287.87
626.72	14313.41
627.075	14197.03
627.43	14274.09
627.785	14194.32
628.14	14228.21
628.495	14176.24
628.85	14216.91
629.205	14139.85
629.559	14223.92
629.914	14163.36
630.269	14201.77
630.623	14078.16
630.978	14082.68
631.332	14144.6
631.687	14144.6
632.041	14133.07
632.396	14073.42
632.75	13966.07
633.104	14080.42
633.459	14017.6
633.813	14025.28
634.167	14030.48
634.521	14060.08
634.875	14043.81
635.229	13984.15
635.583	13884.27
635.937	13941.89
636.291	13906.87
636.645	13864.61
636.999	13815.12
637.352	13828.68
637.706	13811.5
638.06	13896.24
638.413	13883.36
638.767	13787.55
639.121	13882.91
639.474	13775.57
639.828	13762.69
640.181	13752.29
640.534	13764.27
640.888	13734.22
641.241	13655.12
641.594	13674.33
641.947	13736.02
642.301	13638.62
642.654	13591.17
643.007	13740.54
643.36	13664.39
643.713	13678.17
644.066	13687.44
644.419	13522.24
644.771	13436.82
645.124	13451.51
645.477	13294.9
645.83	13211.74
646.182	13198.86
646.535	13191.18
646.888	13260.56
647.24	13145.76
647.593	13197.05
647.945	13165.42
648.298	13155.47
648.65	13137.39
649.002	13165.42
649.355	13143.72
649.707	13110.73
650.059	13223.49
650.411	13312.31
650.763	13315.47
651.115	13408.57
651.467	13378.52
651.819	13403.38
652.171	13406.54
652.523	13425.3
652.875	13439.76
653.227	13350.27
653.578	13393.21
653.93	13443.83
654.282	13453.09
654.633	13307.79
654.985	13447.22
655.337	13410.83
655.688	13501.9
656.039	13453.54
656.391	13399.99
656.742	13426.65
657.094	13411.74
657.445	13476.37
657.796	13453.54
658.147	13422.58
658.498	13395.47
658.849	13456.26
659.2	13393.43
659.551	13452.64
659.902	13524.05
660.253	13378.52
660.604	13478.85
660.955	13399.76
661.306	13441.57
661.656	13461.45
662.007	13440.89
662.358	13530.15
662.708	13518.18
663.059	13516.37
663.409	13390.27
663.76	13528.34
664.11	13484.5
664.461	13494.22
664.811	13510.94
665.161	13559.08
665.511	13501
665.862	13548.68
666.212	13547.78
666.562	13529.25
666.912	13519.98
667.262	13473.43
667.612	13525.18
667.962	13551.85
668.312	13473.21
668.662	13508.91
669.011	13517.72
669.361	13485.18
669.711	13436.14
670.06	13505.75
670.41	13514.56
670.76	13446.54
671.109	13507.78
671.459	13445.41
671.808	13499.65
672.157	13498.52
672.507	13414.22
672.856	13391.85
673.205	13359.76
673.554	13361.8
673.904	13390.04
674.253	13499.65
674.602	13388.46
674.951	13225.3
675.3	13094.91
675.649	13312.98
675.998	13336.03
676.346	13298.29
676.695	13347.78
677.044	13203.16
677.393	13304.62
677.741	13258.3
678.09	13256.26
678.438	13191.63
678.787	13179.2
679.135	13203.83
679.484	13156.15
679.832	13189.6
680.181	13075.93
680.529	13123.61
680.877	13032.09
681.225	13080
681.573	13146.89
681.922	13104.18
682.27	13029.83
682.618	12995.7
682.966	12994.8
683.314	12989.6
683.661	12908.7
684.009	12856.72
684.357	12836.84
684.705	12735.15
685.053	12783.05
685.4	12832.32
685.748	12663.96
686.095	12682.72
686.443	12692.66
686.79	12583.74
687.138	12666.67
687.485	12648.82
687.832	12520.01
688.18	12642.04
688.527	12453.34
688.874	12524.98
689.221	12399.11
689.568	12404.53
689.915	12369.96
690.262	12425.77
690.609	12359.11
690.956	12224.42
691.303	12191.66
691.65	12187.14
691.997	12209.51
692.344	12115.5
692.69	12142.62
693.037	12087.93
693.383	11952.57
693.73	11992.57
694.077	11961.83
694.423	11938.1
694.769	11888.84
695.116	11851.1
695.462	11836.19
695.808	11767.71
696.155	11770.88
696.501	11628.73
696.847	11695.85
697.193	11485.01
697.539	11630.99
697.885	11514.84
698.231	11393.94
698.577	11385.58
698.923	11416.31
699.269	11337.89
699.614	11256.31
699.96	11232.13
700.306	11273.26
700.651	11173.15
700.997	11121.85
701.342	11092.7
701.688	11017.68
702.033	11108.52
702.379	11023.33
702.724	10953.95
703.069	10917.57
703.415	10805.25
703.76	10801.86
704.105	10821.52
704.45	10787.17
704.795	10700.62
705.14	10711.24
705.485	10704.24
705.83	10581.3
706.175	10632.15
706.52	10539.5
706.865	10520.97
707.209	10516.45
707.554	10523.9
707.899	10539.5
708.243	10354.19
708.588	10470.8
708.932	10332.27
709.277	10306.73
709.621	10288.43
709.966	10311.03
710.31	10277.81
710.654	10206.62
710.998	10247.75
711.342	10240.07
711.687	10150.58
712.031	10142.22
712.375	10014.31
712.719	10129.56
713.063	10010.92
713.407	10102.9
713.75	10043.24
714.094	10051.6
714.438	9991.94
714.782	9960.98
715.125	9920.08
715.469	9900.42
715.812	9860.19
716.156	9776.35
716.499	9824.26
716.843	9889.57
717.186	9778.16
717.53	9798.27
717.873	9814.54
718.216	9780.19
718.559	9750.82
718.902	9671.95
719.246	9697.03
719.589	9686.41
719.932	9676.02
720.275	9638.05
720.617	9690.03
720.96	9649.58
721.303	9560.09
721.646	9692.51
721.989	9589.69
722.331	9612.06
722.674	9598.96
723.016	9556.25
723.359	9547.88
723.701	9570.03
724.044	9503.82
724.386	9465.63
724.729	9526.19
725.071	9482.12
725.413	9535.23
725.755	9502.01
726.097	9460.66
726.439	9366.42
726.782	9443.03
727.124	9451.84
727.465	9484.61
727.807	9434.22
728.149	9448.9
728.491	9356.48
728.833	9432.86
729.175	9401.67
729.516	9377.72
729.858	9404.16
730.199	9377.95
730.541	9295.24
730.882	9373.88
731.224	9419.98
731.565	9398.74
731.906	9335.91
732.248	9387.44
732.589	9300.66
732.93	9320.55
733.271	9334.33
733.612	9396.7
733.953	9328
734.294	9337.95
734.635	9310.83
734.976	9312.18
735.317	9296.82
735.658	9327.1
735.999	9313.99
736.339	9325.07
736.68	9384.95
737.021	9407.78
737.361	9384.95
737.702	9393.09
738.042	9378.62
738.383	9395.12
738.723	9465.17
739.063	9390.15
739.404	9443.93
739.744	9407.78
740.084	9408.23
740.424	9477.83
740.764	9460.88
741.104	9518.28
741.444	9497.94
741.784	9452.52
742.124	9561.9
742.464	9517.6
742.804	9514.44
743.143	9545.62
743.483	9634.66
743.823	9606.41
744.162	9605.74
744.502	9667.88
744.841	9662.91
745.181	9728.22
745.52	9742
745.86	9793.98
746.199	9875.33
746.538	9862.68
746.877	9995.33
747.216	9958.27
747.556	10028.78
747.895	10095.67
748.234	10024.48
748.573	10110.81
748.911	10177.25
749.25	10285.27
749.589	10296.57
749.928	10432.16
750.267	10518.71
750.605	10495.66
750.944	10526.39
751.283	10636.44
751.621	10737.91
751.96	10832.6
752.298	10923.22
752.636	11032.14
752.975	11149.2
753.313	11221.51
753.651	11391.68
753.989	11576.76
754.327	11598.23
754.666	11660.6
755.004	11894.26
755.342	11960.93
755.679	12096.29
756.017	12235.95
756.355	12406.34
756.693	12509.16
757.031	12688.59
757.368	12811.98
757.706	12894.92
758.044	13106.89
758.381	13326.54
758.719	13419.65
759.056	13621.45
759.394	13727.44
759.731	13825.06
760.068	14013.76
760.405	14113.41
760.743	14317.93
761.08	14516.57
761.417	14688.54
761.754	14798.14
762.091	14893.28
762.428	15111.81
762.765	15285.36
763.102	15430.67
763.438	15615.97
763.775	15731.9
764.112	15902.29
764.449	16155.39
764.785	16295.5
765.122	16314.03
765.458	16509.74
765.795	16624.99
766.131	16809.16
766.467	16934.13
766.804	17031.08
767.14	17188.81
767.476	17298.64
767.812	17459.99
768.148	17635.13
768.485	17633.77
768.821	17786.09
769.157	17995.8
769.492	18102.46
769.828	18169.35
770.164	18156.47
770.5	18269.01
770.836	18398.5
771.171	18527.54
771.507	18647.53
771.842	18676.91
772.178	18719.17
772.513	18902.21
772.849	19033.28
773.184	18962.33
773.519	19114.41
773.855	19197.8
774.19	19142.89
774.525	19215.43
774.86	19372.48
775.195	19387.17
775.53	19347.17
775.865	19397.34
776.2	19407.74
776.535	19363.67
776.87	19635.75
777.205	19462.65
777.539	19557.79
777.874	19556.89
778.209	19556.66
778.543	19589.2
778.878	19563.67
779.212	19581.07
779.547	19571.12
779.881	19641.86
780.215	19580.39
780.55	19795.75
780.884	19574.97
781.218	19772.25
781.552	19671.23
781.886	19583.55
782.22	19598.02
782.554	19570.45
782.888	19516.21
783.222	19491.13
783.556	19488.64
783.889	19506.72
784.223	19401.41
784.557	19469.66
784.89	19512.14
785.224	19499.94
785.557	19334.29
785.891	19358.02
786.224	19355.99
786.558	19325.25
786.891	19114.19
787.224	19215.43
787.557	19172.26
787.891	19191.92
788.224	19334.75
788.557	19244.58
788.89	19207.07
789.223	19116.9
789.556	19000.07
789.888	19025.15
790.221	18978.6
790.554	19005.04
790.887	18947.86
791.219	18866.51
791.552	18910.58
791.884	18852.5
792.217	18756.23
792.549	18774.31
792.882	18680.53
793.214	18543.35
793.546	18671.94
793.879	18617.48
794.211	18431.49
794.543	18563.69
794.875	18497.48
795.207	18683.01
795.539	18430.81
795.871	18429.91
796.203	18246.19
796.535	18220.2
796.867	18161.9
797.198	18129.13
797.53	18122.57
797.862	18082.35
798.193	18173.19
798.525	17925.52
798.856	18162.35
799.188	17916.03
799.519	17825.18
799.85	17777.95
800.182	17821.79
800.513	17849.59
800.844	17702.92
801.175	17750.83
801.506	17716.03
801.837	17585.41
802.168	17544.28
802.499	17408.69
802.83	17414.8
803.161	17358.07
803.491	17393.33
803.822	17393.1
804.153	17306.32
804.483	17138.65
804.814	17131.41
805.145	17093
805.475	17156.5
805.805	17007.12
806.136	17008.93
806.466	17050.96
806.796	17027.91
807.126	16798.54
807.457	16837.86
807.787	16799.22
808.117	16832.21
808.447	16766.23
808.777	16812.1
809.107	16617.53
809.436	16646
809.766	16700.69
810.096	16577.53
810.426	16542.05
810.755	16579.11
811.085	16556.06
811.414	16529.17
811.744	16365.56
812.073	16287.14
812.403	16255.05
812.732	16179.8
813.061	16230.19
813.39	16217.54
813.719	16120.14
814.049	16313.36
814.378	16158.56
814.707	16118.33
815.036	16062.97
815.365	16090.31
815.693	15841.73
816.022	15951.11
816.351	15830.66
816.68	15779.59
817.008	15819.13
817.337	15816.87
817.665	15667.95
817.994	15836.53
818.322	15712.02
818.651	15628.85
818.979	15617.56
819.307	15648.52
819.636	15597.22
819.964	15517.45
820.292	15551.79
820.62	15480.84
820.948	15462.31
821.276	15622.3
821.604	15475.64
821.932	15547.73
822.259	15455.07
822.587	15475.86
822.915	15528.29
823.243	15479.71
823.57	15459.82
823.898	15498.69
824.225	15428.41
824.553	15442.64
824.88	15464.11
825.207	15544.79
825.535	15404.45
825.862	15555.64
826.189	15444.9
826.516	15491.91
826.843	15457.79
827.17	15507.73
827.497	15511.12
827.824	15491.01
828.151	15652.13
828.478	15502.53
828.805	15563.77
829.131	15393.15
829.458	15438.35
829.785	15389.76
830.111	15507.05
830.438	15514.96
830.764	15528.97
831.09	15464.79
831.417	15495.98
831.743	15495.75
832.069	15515.86
832.395	15353.16
832.722	15429.99
833.048	15433.15
833.374	15417.56
833.7	15359.03
834.026	15456.2
834.351	15414.85
834.677	15423.66
835.003	15359.94
835.329	15315.19
835.654	15281.52
835.98	15235.42
836.306	15231.8
836.631	15147.74
836.956	15225.02
837.282	15227.74
837.607	15067.97
837.932	15153.16
838.258	15107.74
838.583	15106.16
838.908	15023.22
839.233	15051.92
839.558	15002.66
839.883	15018.25
840.208	14947.06
840.533	14913.85
840.858	14974.18
841.182	15014.86
841.507	15008.08
841.832	14830.46
842.156	14771.25
842.481	14827.97
842.805	14799.5
843.13	14750.69
843.454	14737.58
843.778	14646.06
844.103	14682.66
844.427	14606.73
844.751	14607.86
845.075	14561.99
845.399	14576.68
845.723	14401.32
846.047	14561.31
846.371	14355.22
846.695	14358.15
847.019	14328.78
847.343	14182.79
847.666	14053.75
847.99	14041.1
848.313	14063.92
848.637	13895.57
848.96	13904.38
849.284	13898.05
849.607	13762.69
849.931	13731.5
850.254	13660.54
850.577	13553.2
850.9	13456.26
851.223	13495.13
851.546	13415.13
851.869	13358.18
852.192	13405.41
852.515	13256.94
852.838	13161.35
853.161	13195.92
853.483	13142.82
853.806	13067.11
854.129	13029.6
854.451	13024.63
854.774	12934.24
855.096	12927.46
855.419	12849.04
855.741	12775.82
856.063	12817.63
856.385	12755.94
856.708	12677.29
857.03	12619.22
857.352	12678.88
857.674	12635.04
857.996	12570.18
858.318	12540.8
858.64	12508.03
858.961	12499.22
859.283	12521.14
859.605	12283.18
859.926	12466.9
860.248	12293.35
860.57	12245.44
860.891	12246.8
861.212	12258.32
861.534	12227.81
861.855	12219.45
862.176	12214.48
862.498	12164.09
862.819	12115.73
863.14	12041.83
863.461	12049.51
863.782	12049.97
864.103	12064.88
864.424	12001.38
864.745	12011.32
865.065	11878.44
865.386	11895.62
865.707	11924.77
866.027	11922.51
866.348	11824.21
866.668	11874.83
866.989	11838.67
867.309	11747.6
867.63	11774.04
867.95	11710.99
868.27	11701.27
868.59	11752.57
868.91	11662.86
869.23	11684.33
869.55	11643.2
869.87	11671.44
870.19	11631.45
870.51	11617.21
870.83	11588.73
871.15	11532.01
871.469	11554.84
871.789	11576.98
872.109	11529.98
872.428	11460.6
872.748	11475.74
873.067	11434.16
873.386	11475.07
873.706	11432.81
874.025	11417.89
874.344	11401.62
874.663	11410.43
874.982	11336.09
875.301	11364.11
875.62	11292.25
875.939	11285.01
876.258	11301.74
876.577	11236.43
876.896	11216.09
877.214	11110.78
877.533	11120.05
877.852	11144.68
878.17	11176.32
878.489	11198.01
878.807	11126.15
879.125	11120.95
879.444	11118.24
879.762	11013.16
880.08	11001.86
880.398	10989.65
880.716	11014.51
881.034	10927.28
881.352	11010.22
881.67	10907.17
881.988	10921.41
882.306	10894.29
882.624	10872.37
882.941	10800.73
883.259	10798.02
883.577	10793.28
883.894	10824.46
884.212	10703.79
884.529	10677.12
884.846	10661.08
885.164	10667.86
885.481	10599.38
885.798	10661.08
886.115	10553.73
886.432	10572.72
886.75	10543.11
887.067	10604.81
887.383	10451.59
887.7	10522.77
888.017	10463.57
888.334	10386.51
888.651	10318.71
888.967	10382.66
889.284	10292.95
889.6	10295.89
889.917	10228.54
890.233	10219.51
890.55	10175.66
890.866	10244.14
891.182	10146.96
891.498	10085.72
891.815	10042.11
892.131	10062.45
892.447	10025.16
892.763	9936.57
893.079	9939.06
893.395	9970.47
893.71	9896.8
894.026	9864.71
894.342	9886.41
894.657	9777.48
894.973	9757.82
895.289	9777.93
895.604	9717.6
895.92	9678.05
896.235	9531.16
896.55	9643.48
896.865	9577.26
897.181	9495.68
897.496	9542.46
897.811	9496.13
898.126	9448.23
898.441	9405.06
898.756	9384.72
899.071	9308.79
899.386	9324.16
899.7	9263.82
900.015	9221.57
900.33	9157.84
900.644	9170.04
900.959	9166.2
901.273	9113.09
901.588	9011.4
901.902	8965.08
902.216	8962.59
902.531	8918.97
902.845	8902.7
903.159	8893.89
903.473	8841.46
903.787	8812.99
904.101	8795.14
904.415	8720.56
904.729	8741.8
905.042	8703.16
905.356	8707.68
905.67	8615.25
905.984	8630.62
906.297	8579.77
906.611	8531.19
906.924	8491.19
907.237	8528.25
907.551	8480.57
907.864	8419.1
908.177	8419.78
908.491	8411.64
908.804	8239.9
909.117	8350.63
909.43	8278.99
909.743	8188.37
910.056	8207.81
910.368	8159.22
910.681	8129.39
910.994	8061.6
911.307	8078.32
911.619	8044.42
911.932	8021.82
912.244	7931.43
912.557	7947.47
912.869	7883.52
913.181	7815.5
913.494	7806.46
913.806	7794.03
914.118	7762.62
914.43	7714.71
914.742	7722.62
915.054	7619.35
915.366	7646.24
915.678	7537.77
915.99	7533.47
916.302	7483.98
916.613	7461.61
916.925	7454.38
917.236	7410.99
917.548	7387.26
917.859	7399.92
918.171	7261.39
918.482	7279.47
918.794	7219.36
919.105	7231.56
919.416	7158.57
919.727	7166.93
920.038	7157.66
920.349	7120.83
920.66	7103.66
920.971	7062.07
921.282	7081.96
921.593	7000.61
921.903	6951.34
922.214	6937.56
922.525	6920.16
922.835	6890.33
923.146	6860.05
923.456	6859.82
923.767	6822.98
924.077	6829.54
924.387	6831.8
924.697	6754.96
925.008	6719.03
925.318	6679.03
925.628	6607.17
925.938	6657.11
926.248	6578.7
926.558	6527.4
926.867	6554.29
927.177	6537.12
927.487	6516.55
927.796	6436.33
928.106	6429.77
928.416	6398.14
928.725	6407.63
929.034	6338.25
929.344	6314.07
929.653	6310.46
929.962	6318.36
930.271	6232.04
930.581	6231.36
930.89	6190.46
931.199	6084.02
931.508	6203.11
931.817	6125.38
932.125	6069.56
932.434	6043.34
932.743	6004.93
933.051	5988.2
933.36	6007.86
933.669	5913.4
933.977	5900.97
934.286	5910.92
934.594	5870.69
934.902	5857.81
935.21	5815.55
935.519	5799.06
935.827	5828.89
936.135	5745.5
936.443	5703.47
936.751	5668.21
937.059	5710.02
937.367	5676.35
937.674	5646.97
937.982	5603.81
938.29	5565.84
938.597	5607.2
938.905	5534.88
939.213	5514.32
939.52	5500.31
939.827	5486.97
940.135	5411.27
940.442	5399.07
940.749	5393.42
941.056	5390.93
941.363	5321.78
941.67	5322.68
941.977	5317.94
942.284	5306.41
942.591	5266.42
942.898	5254.21
943.205	5303.25
943.511	5273.42
943.818	5119.3
944.125	5136.25
944.431	5138.96
944.738	5118.17
945.044	5097.15
945.35	5068.91
945.657	5035.23
945.963	5050.83
946.269	4959.76
946.575	5006.99
946.881	4953.66
947.187	4953.2
947.493	4934.22
947.799	4845.64
948.105	4897.61
948.41	4839.53
948.716	4826.88
949.022	4789.59
949.327	4780.78
949.633	4694.68
949.938	4718.18
950.244	4739.2
950.549	4669.14
950.854	4697.16
951.16	4680.89
951.465	4646.54
951.77	4581.91
952.075	4619.65
952.38	4560.22
952.685	4627.11
952.99	4531.29
953.294	4538.98
953.599	4521.58
953.904	4477.06
954.209	4442.03
954.513	4472.31
954.818	4423.95
955.122	4402.03
955.426	4425.53
955.731	4343.95
956.035	4370.62
956.339	4320.23
956.643	4344.41
956.948	4283.84
957.252	4296.72
957.556	4316.16
957.86	4248.14
958.163	4268.93
958.467	4209.27
958.771	4178.76
959.075	4198.42
959.378	4166.78
959.682	4147.57
959.985	4105.77
960.289	4106.9
960.592	4065.99
960.896	4090.63
961.199	4094.47
961.502	4055.83
961.805	4043.62
962.108	3991.65
962.411	4016.73
962.714	3983.51
963.017	3965.66
963.32	3914.59
963.623	3896.51
963.926	3901.03
964.228	3888.15
964.531	3877.07
964.833	3848.83
965.136	3804.53
965.438	3803.18
965.741	3806.11
966.043	3761.82
966.345	3764.53
966.648	3743.29
966.95	3739
967.252	3648.6
967.554	3694.25
967.856	3660.36
968.158	3661.71
968.46	3621.26
968.761	3596.63
969.063	3643.18
969.365	3617.64
969.666	3566.35
969.968	3545.78
970.269	3560.92
970.571	3539
970.872	3544.2
971.174	3529.06
971.475	3517.08
971.776	3458.1
972.077	3451.55
972.378	3447.48
972.679	3420.81
972.98	3419.46
973.281	3369.06
973.582	3382.85
973.883	3376.52
974.183	3348.5
974.484	3352.79
974.785	3316.18
975.085	3353.92
975.386	3312.57
975.686	3305.79
975.986	3279.57
976.287	3200.03
976.587	3207.03
976.887	3220.14
977.187	3237.32
977.487	3205.23
977.787	3128.39
978.087	3150.99
978.387	3135.62
978.687	3113.03
978.987	3142.63
979.286	3039.36
979.586	3090.65
979.885	3056.53
980.185	3073.03
980.484	3044.1
980.784	3032.12
981.083	3041.16
981.382	3016.3
981.682	3049.07
981.981	3014.72
982.28	2951.45
982.579	2951.67
982.878	2977.21
983.177	2905.57
983.475	2896.53
983.774	2885.69
984.073	2894.05
984.372	2868.74
984.67	2886.36
984.969	2860.6
985.267	2831.68
985.566	2836.87
985.864	2847.04
986.162	2796.65
986.461	2744.22
986.759	2782.64
987.057	2775.18
987.355	2767.95
987.653	2715.3
987.951	2746.93
988.249	2734.73
988.547	2675.97
988.844	2674.17
989.142	2681.85
989.44	2646.37
989.737	2643.89
990.035	2667.16
990.332	2639.82
990.63	2586.94
990.927	2613.15
991.224	2590.55
991.521	2599.82
991.819	2576.77
992.116	2565.24
992.413	2551.46
992.71	2523.66
993.006	2528.86
993.303	2497
993.6	2502.42
993.897	2488.41
994.193	2485.92
994.49	2446.83
994.787	2458.13
995.083	2424
995.379	2437.11
995.676	2421.74
995.972	2418.35
996.268	2423.55
996.565	2370.9
996.861	2348.3
997.157	2368.86
997.453	2367.28
997.749	2338.58
998.044	2286.83
998.34	2301.3
998.636	2288.41
998.932	2269.88
999.227	2280.05
999.523	2221.75
999.818	2240.28
1000.114	2242.31
1000.409	2202.77
1000.704	2211.81
1001	2180.39
1001.295	2144.69
1001.59	2184.91
1001.885	2167.06
1002.18	2134.97
1002.475	2118.25
1002.77	2130.68
1003.065	2127.29
1003.359	2097.23
1003.654	2099.94
1003.949	2082.32
1004.243	2056.33
1004.538	2083.9
1004.832	2049.78
1005.127	2052.49
1005.421	2004.35
1005.715	2026.73
1006.009	2014.3
1006.304	2003
1006.598	1981.3
1006.892	1947.18
1007.186	1942.21
1007.48	1933.17
1007.773	1933.85
1008.067	1908.09
1008.361	1907.63
1008.655	1919.38
1008.948	1899.95
1009.242	1870.57
1009.535	1878.48
1009.829	1834.87
1010.122	1840.97
1010.415	1822.66
1010.708	1836.22
1011.001	1810.01
1011.295	1803.91
1011.588	1800.52
1011.881	1774.08
1012.173	1766.39
1012.466	1768.88
1012.759	1727.98
1013.052	1758.03
1013.344	1759.84
1013.637	1729.11
1013.93	1726.4
1014.222	1714.64
1014.514	1711.03
1014.807	1686.62
1015.099	1696.79
1015.391	1656.57
1015.683	1657.92
1015.976	1639.62
1016.268	1621.77
1016.56	1621.99
1016.851	1602.56
1017.143	1590.58
1017.435	1620.18
1017.727	1561.88
1018.018	1595.1
1018.31	1568.21
1018.602	1581.09
1018.893	1553.52
1019.185	1527.3
1019.476	1516.23
1019.767	1532.73
1020.058	1516.68
1020.35	1483.01
1020.641	1481.66
1020.932	1473.07
1021.223	1473.07
1021.514	1475.55
1021.804	1416.35
1022.095	1412.73
1022.386	1413.18
1022.677	1406.18
1022.967	1410.92
1023.258	1412.51
1023.548	1407.53
1023.839	1406.63
1024.129	1380.87
1024.419	1368.66
1024.709	1362.34
1025	1331.83
1025.29	1321.21
1025.58	1332.28
1025.87	1317.37
1026.16	1296.8
1026.449	1302.45
1026.739	1282.11
1027.029	1266.97
1027.319	1288.89
1027.608	1275.56
1027.898	1278.5
1028.187	1267.2
1028.477	1245.05
1028.766	1246.18
1029.055	1218.84
1029.344	1221.32
1029.634	1203.02
1029.923	1200.08
1030.212	1202.57
1030.501	1170.25
1030.79	1188.78
1031.078	1155.34
1031.367	1152.85
1031.656	1168.44
1031.945	1111.72
1032.233	1126.86
1032.522	1144.94
1032.81	1110.14
1033.099	1124.15
1033.387	1121.89
1033.675	1114.21
1033.963	1106.75
1034.251	1101.33
1034.54	1080.76
1034.828	1082.34
1035.116	1056.58
1035.403	1099.75
1035.691	1061.55
1035.979	1043.02
1036.267	1071.05
1036.554	1028.11
1036.842	1027.66
1037.129	1034.21
1037.417	1016.36
1037.704	1023.59
1037.992	989.92
1038.279	982.91
1038.566	986.53
1038.853	986.53
1039.14	986.53
