Data from hue_150_FLMS001491_00085.txt Node
Date: Tue Feb 07 16:54:39 GMT 2017
User: dcchb
Spectrometer: FLMS00149
Trigger mode: 0
Integration Time (sec): 2.000000E-2
Scans to average: 10
Electric dark correction enabled: true
Nonlinearity correction enabled: false
Boxcar width: 0
XAxis mode: Wavelengths
Number of Pixels in Spectrum: 2048
>>>>>Begin Spectral Data<<<<<
341.393	-24.18
341.776	-24.18
342.16	-24.18
342.543	-63.05
342.927	-62.15
343.31	-51.07
343.693	-58.76
344.077	-73.22
344.46	-47.91
344.843	-62.6
345.226	-38.19
345.61	-24.18
345.993	-12.43
346.376	-11.3
346.759	18.98
347.142	22.82
347.525	41.35
347.908	27.12
348.291	61.02
348.674	86.55
349.057	121.8
349.44	134.46
349.823	143.73
350.206	162.48
350.588	175.36
350.971	210.84
351.354	211.52
351.737	235.02
352.119	236.83
352.502	245.87
352.884	257.85
353.267	286.09
353.65	305.98
354.032	315.47
354.414	303.95
354.797	307.34
355.179	321.35
355.562	331.97
355.944	323.16
356.326	335.13
356.709	327.67
357.091	326.09
357.473	343.49
357.855	327.22
358.238	315.92
358.62	310.73
359.002	353.89
359.384	344.85
359.766	336.26
360.148	341.01
360.53	339.43
360.912	328.35
361.294	336.71
361.676	352.76
362.057	334.68
362.439	332.19
362.821	336.26
363.203	316.15
363.584	324.29
363.966	323.38
364.348	314.79
364.729	318.18
365.111	291.52
365.493	322.25
365.874	316.38
366.256	320.22
366.637	307.79
367.019	319.99
367.4	314.34
367.781	323.83
368.163	309.6
368.544	305.08
368.925	325.19
369.306	331.29
369.688	322.7
370.069	320.9
370.45	301.24
370.831	307.11
371.212	315.02
371.593	312.08
371.974	310.5
372.355	331.74
372.736	296.26
373.117	322.7
373.498	308.69
373.879	293.78
374.26	313.44
374.641	343.04
375.021	309.37
375.402	311.63
375.783	314.79
376.163	334
376.544	338.3
376.925	340.33
377.305	326.55
377.686	309.37
378.066	336.49
378.447	325.42
378.827	333.1
379.208	347.11
379.588	305.3
379.968	325.64
380.349	326.32
380.729	339.2
381.109	358.63
381.489	353.66
381.87	327.9
382.25	335.81
382.63	343.04
383.01	345.98
383.39	331.29
383.77	359.54
384.15	329.93
384.53	335.36
384.91	347.34
385.29	341.23
385.67	333.55
386.049	349.6
386.429	349.37
386.809	367.9
387.189	337.62
387.568	357.5
387.948	366.09
388.328	366.09
388.707	346.88
389.087	353.21
389.466	371.29
389.846	381.46
390.225	363.15
390.605	373.78
390.984	365.64
391.363	379.88
391.743	366.77
392.122	374.23
392.501	382.81
392.881	374.45
393.26	377.62
393.639	405.64
394.018	374.45
394.397	379.88
394.776	383.04
395.155	399.76
395.534	386.43
395.913	387.11
396.292	381.23
396.671	388.01
397.05	378.3
397.429	405.87
397.808	384.62
398.186	393.21
398.565	412.87
398.944	386.43
399.323	402.02
399.701	380.33
400.08	392.31
400.458	414.23
400.837	428.46
401.215	395.24
401.594	423.49
401.972	428.01
402.351	406.09
402.729	421.46
403.107	431.4
403.486	416.94
403.864	414.9
404.242	424.62
404.62	420.1
404.999	408.58
405.377	462.36
405.755	453.77
406.133	442.93
406.511	447.22
406.889	473.66
407.267	431.85
407.645	436.6
408.023	448.12
408.401	430.05
408.779	465.3
409.156	465.98
409.534	467.33
409.912	470.5
410.29	469.37
410.667	454
411.045	478.63
411.422	486.77
411.8	492.87
412.178	492.19
412.555	492.42
412.933	478.86
413.31	510.5
413.687	494.9
414.065	486.31
414.442	512.3
414.819	520.21
415.197	515.92
415.574	529.25
415.951	531.96
416.328	521.12
416.705	533.09
417.082	532.42
417.46	529.7
417.837	531.96
418.214	517.05
418.591	535.13
418.967	554.56
419.344	549.36
419.721	561.34
420.098	535.35
420.475	565.18
420.852	583.04
421.228	542.13
421.605	576.26
421.982	574
422.358	570.38
422.735	590.04
423.111	577.84
423.488	603.37
423.864	606.09
424.241	599.98
424.617	636.37
424.994	602.47
425.37	611.74
425.746	591.4
426.123	603.37
426.499	604.05
426.875	628.91
427.251	615.35
427.627	639.08
428.003	629.36
428.379	640.44
428.756	663.71
429.132	649.25
429.507	672.3
429.883	672.98
430.259	671.85
430.635	671.17
431.011	668.01
431.387	693.77
431.763	704.39
432.138	686.08
432.514	729.7
432.89	696.7
433.265	717.04
433.641	724.73
434.016	733.09
434.392	734.22
434.767	769.92
435.143	759.53
435.518	752.07
435.894	771.96
436.269	797.95
436.644	783.26
437.02	783.71
437.395	785.74
437.77	799.08
438.145	811.28
438.52	821.45
438.895	809.02
439.271	811.5
439.646	862.35
440.021	855.57
440.395	835.46
440.77	861.9
441.145	859.86
441.52	881.33
441.895	867.1
442.27	851.95
442.645	877.04
443.019	882.91
443.394	888.56
443.769	915.23
444.143	898.96
444.518	921.33
444.892	897.38
445.267	913.2
445.641	934.44
446.016	927.21
446.39	937.15
446.764	932.63
447.139	945.74
447.513	978.05
447.887	936.92
448.262	982.35
448.636	971.95
449.01	977.83
449.384	1017.37
449.758	993.87
450.132	999.75
450.506	1016.47
450.88	1030.03
451.254	996.81
451.628	1028.9
452.002	1029.58
452.376	1028.67
452.75	1065.73
453.123	1080.65
453.497	1094.21
453.871	1106.64
454.244	1091.27
454.618	1135.11
454.992	1126.07
455.365	1125.17
455.739	1167.43
456.112	1162.46
456.486	1214.66
456.859	1206.3
457.232	1219.85
457.606	1221.21
457.979	1232.06
458.352	1263.24
458.725	1265.28
459.099	1275.67
459.472	1282.23
459.845	1302.11
460.218	1319.51
460.591	1355.44
460.964	1368.1
461.337	1384.6
461.71	1418.95
462.083	1402
462.456	1421.88
462.829	1413.3
463.201	1437.02
463.574	1494.42
463.947	1491.94
464.32	1550.69
464.692	1531.03
465.065	1556.34
465.438	1553.18
465.81	1598.6
466.183	1620.07
466.555	1616.91
466.928	1655.1
467.3	1680.41
467.672	1697.36
468.045	1730.58
468.417	1767.86
468.789	1752.04
469.161	1781.42
469.534	1826.17
469.906	1881.98
470.278	1903
470.65	1911.81
471.022	1951.59
471.394	2008.08
471.766	2070.91
472.138	2075.65
472.51	2148.19
472.882	2131.7
473.253	2203.78
473.625	2231.81
473.997	2276.1
474.369	2313.39
474.74	2387.51
475.112	2429.54
475.484	2502.08
475.855	2576.88
476.227	2598.58
476.598	2645.35
476.97	2726.03
477.341	2829.76
477.713	2848.51
478.084	2883.99
478.455	3008.51
478.827	3035.85
479.198	3189.29
479.569	3193.59
479.94	3329.86
480.311	3352.23
480.682	3502.05
481.053	3545.22
481.424	3674.93
481.795	3731.65
482.166	3894.13
482.537	3933
482.908	4036.05
483.279	4123.28
483.65	4215.93
484.021	4315.14
484.391	4484.18
484.762	4557.85
485.133	4628.35
485.503	4734.34
485.874	4937.27
486.244	4972.52
486.615	5154.21
486.985	5225.63
487.356	5368.45
487.726	5440.31
488.097	5630.59
488.467	5657.25
488.837	5867.42
489.207	6053.63
489.578	6127.07
489.948	6218.37
490.318	6433.5
490.688	6494.97
491.058	6677.34
491.428	6809.54
491.798	6880.95
492.168	7099.47
492.538	7193.03
492.908	7292.92
493.278	7514.15
493.648	7575.85
494.017	7682.06
494.387	7866.46
494.757	8004.54
495.126	8081.37
495.496	8234.59
495.866	8348.48
496.235	8442.49
496.605	8601.58
496.974	8666.66
497.344	8790.5
497.713	8917.73
498.082	8962.02
498.452	9094.9
498.821	9176.48
499.19	9264.39
499.559	9425.51
499.928	9543.93
500.298	9532.63
500.667	9743.02
501.036	9785.96
501.405	9905.73
501.774	9948.44
502.143	10053.29
502.512	10141.2
502.88	10162.44
503.249	10293.51
503.618	10399.73
503.987	10440.18
504.356	10580.29
504.724	10639.04
505.093	10699.15
505.462	10798.59
505.83	10906.83
506.199	10959.26
506.567	11046.94
506.936	11112.02
507.304	11272.25
507.672	11217.78
508.041	11311.12
508.409	11371.9
508.777	11443.31
509.145	11557.21
509.514	11605.57
509.882	11692.8
510.25	11661.61
510.618	11787.49
510.986	11804.89
511.354	11861.38
511.722	12006.69
512.09	12074.71
512.458	12048.04
512.826	12186.8
513.193	12192
513.561	12201.04
513.929	12282.61
514.297	12288.49
514.664	12466.56
515.032	12411.2
515.4	12454.36
515.767	12463.63
516.135	12589.05
516.502	12567.81
516.869	12689.61
517.237	12673.57
517.604	12653
517.972	12722.15
518.339	12826.56
518.706	12872.43
519.073	12852.32
519.44	12857.29
519.808	12979.32
520.175	12890.28
520.542	13084.63
520.909	13108.81
521.276	13111.52
521.643	13111.07
522.009	13202.59
522.376	13261.57
522.743	13204.62
523.11	13364.62
523.477	13445.75
523.843	13472.19
524.21	13527.33
524.577	13542.02
524.943	13549.25
525.31	13541.11
525.676	13619.08
526.043	13610.72
526.409	13697.72
526.776	13701.33
527.142	13768.9
527.508	13785.17
527.874	13786.3
528.241	13882.35
528.607	13782.91
528.973	13914.66
529.339	13847.77
529.705	13948.11
530.071	13923.7
530.437	13879.18
530.803	13957.83
531.169	13955.34
531.535	13898.84
531.901	13979.07
532.267	13904.04
532.632	13941.55
532.998	13986.98
533.364	13996.47
533.73	13963.02
534.095	13996.69
534.461	14019.52
534.826	13952.4
535.192	13993.08
535.557	13923.25
535.923	13884.61
536.288	13928
536.653	13926.19
537.019	13856.58
537.384	13817.49
537.749	13797.15
538.114	13817.26
538.479	13769.58
538.845	13801.22
539.21	13660.88
539.575	13676.48
539.94	13656.82
540.305	13694.56
540.67	13600.55
541.034	13660.21
541.399	13665.18
541.764	13589.7
542.129	13519.19
542.494	13589.02
542.858	13566.2
543.223	13458.4
543.587	13429.03
543.952	13455.69
544.316	13446.2
544.681	13336.15
545.045	13342.7
545.41	13498.4
545.774	13292.76
546.138	13292.53
546.503	13277.17
546.867	13215.7
547.231	13232.42
547.595	13217.51
547.959	13177.51
548.324	13193.78
548.688	13162.37
549.052	13102.48
549.416	13084.18
549.779	13036.27
550.143	12970.73
550.507	13032.88
550.871	13046.21
551.235	13011.64
551.599	13048.47
551.962	12993.1
552.326	13004.63
552.689	12971.86
553.053	12835.14
553.417	12876.05
553.78	12957.17
554.143	12847.8
554.507	12831.3
554.87	12843.05
555.234	12831.98
555.597	12793.56
555.96	12811.87
556.323	12766.22
556.686	12822.94
557.05	12848.25
557.413	12821.36
557.776	12709.04
558.139	12818.19
558.502	12756.27
558.865	12753.34
559.228	12820
559.59	12827.23
559.953	12775.26
560.316	12854.8
560.679	12745.43
561.041	12861.13
561.404	12870.17
561.767	12876.05
562.129	12802.15
562.492	12892.99
562.854	12841.7
563.217	12814.35
563.579	12891.41
563.941	12953.56
564.304	12937.06
564.666	12963.05
565.028	12951.52
565.39	12914.24
565.753	13015.93
566.115	12928.02
566.477	13085.08
566.839	13008.25
567.201	13022.26
567.563	13118.07
567.925	13088.92
568.287	13103.16
568.648	13089.15
569.01	13135.7
569.372	13163.72
569.734	13092.31
570.095	13209.14
570.457	13108.81
570.819	13127.11
571.18	13154.23
571.542	13258.86
571.903	13224.96
572.265	13247.11
572.626	13320.78
572.987	13301.8
573.349	13355.13
573.71	13380.67
574.071	13316.03
574.432	13293.89
574.794	13365.3
575.155	13363.26
575.516	13305.19
575.877	13390.83
576.238	13379.76
576.599	13450.27
576.96	13454.11
577.32	13416.82
577.681	13437.16
578.042	13392.19
578.403	13447.78
578.763	13427.67
579.124	13474.45
579.485	13350.84
579.845	13430.61
580.206	13516.93
580.566	13492.3
580.927	13410.49
581.287	13505.86
581.648	13459.08
582.008	13514.67
582.368	13479.87
582.728	13509.93
583.089	13466.31
583.449	13468.8
583.809	13496.59
584.169	13430.16
584.529	13454.34
584.889	13443.49
585.249	13352.64
585.609	13407.78
585.969	13368.91
586.329	13357.84
586.688	13348.58
587.048	13395.58
587.408	13235.36
587.768	13297.28
588.127	13234.68
588.487	13280.33
588.846	13358.74
589.206	13313.1
589.565	13297.28
589.925	13336.6
590.284	13307.22
590.643	13240.33
591.003	13241.91
591.362	13298.18
591.721	13299.54
592.08	13294.79
592.44	13317.39
592.799	13323.04
593.158	13236.26
593.517	13308.35
593.876	13235.13
594.235	13282.81
594.593	13197.62
594.952	13297.5
595.311	13202.14
595.67	13184.29
596.029	13338.18
596.387	13258.41
596.746	13352.19
597.104	13260.67
597.463	13310.84
597.822	13288.92
598.18	13238.3
598.538	13195.81
598.897	13215.47
599.255	13162.82
599.613	13239.65
599.972	13158.75
600.33	13267
600.688	13159.65
601.046	13217.73
601.404	13231.06
601.762	13152.65
602.12	13197.17
602.478	13175.92
602.836	13329.59
603.194	13121.01
603.552	13220.44
603.91	13212.99
604.268	13161.69
604.625	13259.76
604.983	13210.5
605.341	13245.53
605.698	13245.53
606.056	13220.44
606.413	13224.96
606.771	13229.93
607.128	13371.63
607.485	13226.54
607.843	13219.99
608.2	13287.33
608.557	13366.65
608.914	13243.04
609.272	13278.29
609.629	13291.85
609.986	13376.82
610.343	13323.72
610.7	13353.32
611.057	13334.79
611.414	13400.78
611.771	13356.71
612.127	13439.87
612.484	13315.58
612.841	13394.9
613.198	13388.12
613.554	13357.84
613.911	13530.27
614.267	13456.37
614.624	13421.57
614.98	13468.57
615.337	13479.42
615.693	13487.78
616.05	13497.05
616.406	13600.32
616.762	13505.41
617.118	13563.71
617.475	13459.53
617.831	13504.5
618.187	13568.46
618.543	13612.52
618.899	13580.43
619.255	13623.6
619.611	13601.45
619.967	13593.77
620.323	13678.28
620.678	13613.65
621.034	13600.09
621.39	13628.12
621.746	13587.44
622.101	13761.22
622.457	13665.4
622.812	13565.75
623.168	13624.27
623.523	13629.47
623.879	13735.91
624.234	13577.04
624.589	13636.03
624.945	13675.57
625.3	13690.49
625.655	13668.57
626.01	13609.13
626.365	13596.48
626.72	13606.65
627.075	13606.2
627.43	13676.93
627.785	13558.51
628.14	13543.37
628.495	13601.68
628.85	13605.29
629.205	13527.55
629.559	13565.07
629.914	13567.55
630.269	13599.64
630.623	13600.77
630.978	13585.41
631.332	13603.71
631.687	13530.04
632.041	13460.89
632.396	13601.9
632.75	13525.07
633.104	13497.27
633.459	13468.8
633.813	13464.28
634.167	13409.59
634.521	13375.24
634.875	13366.43
635.229	13341.8
635.583	13345.64
635.937	13272.65
636.291	13365.07
636.645	13305.41
636.999	13246.43
637.352	13354.9
637.706	13237.17
638.06	13328.46
638.413	13179.99
638.767	13188.81
639.121	13198.52
639.474	13075.81
639.828	13129.6
640.181	13249.14
640.534	13216.6
640.888	13077.62
641.241	13187.45
641.594	13106.1
641.947	13138.41
642.301	13036.72
642.654	13103.84
643.007	13108.58
643.36	13034.69
643.713	13137.28
644.066	13111.52
644.419	13089.6
644.771	12946.78
645.124	12882.83
645.477	12822.94
645.83	12697.52
646.182	12726.22
646.535	12664.3
646.888	12678.54
647.24	12568.26
647.593	12620.01
647.945	12672.89
648.298	12566.45
648.65	12577.97
649.002	12513.12
649.355	12588.14
649.707	12619.33
650.059	12660.01
650.411	12722.15
650.763	12795.82
651.115	12919.89
651.467	12897.06
651.819	12892.32
652.171	12801.02
652.523	12869.72
652.875	12801.7
653.227	12805.76
653.578	12928.02
653.93	12847.57
654.282	12755.6
654.633	12698.65
654.985	12777.97
655.337	12822.49
655.688	12797.86
656.039	12830.62
656.391	12777.74
656.742	12730.06
657.094	12785.88
657.445	12805.99
657.796	12790.4
658.147	12845.76
658.498	12744.07
658.849	12773.22
659.2	12753.79
659.551	12754.92
659.902	12789.95
660.253	12854.35
660.604	12796.05
660.955	12719.67
661.306	12839.66
661.656	12853.45
662.007	12839.21
662.358	12894.12
662.708	12865.42
663.059	12826.56
663.409	12803.28
663.76	12854.35
664.11	12888.02
664.461	12952.65
664.811	12862.71
665.161	12884.63
665.511	12811.87
665.862	12843.05
666.212	12817.97
666.562	12853.22
666.912	12863.39
667.262	12860
667.612	12796.73
667.962	12861.13
668.312	12871.3
668.662	12960.56
669.011	12767.57
669.361	12861.81
669.711	12843.05
670.06	12845.76
670.41	12868.81
670.76	12740.68
671.109	12788.14
671.459	12844.41
671.808	12790.85
672.157	12843.5
672.507	12729.61
672.856	12807.35
673.205	12670.4
673.554	12823.17
673.904	12777.97
674.253	12822.26
674.602	12747.46
674.951	12545.88
675.3	12429.73
675.649	12725.32
675.998	12709.95
676.346	12698.42
676.695	12667.46
677.044	12612.32
677.393	12676.95
677.741	12661.14
678.09	12542.95
678.438	12611.19
678.787	12650.97
679.135	12575.71
679.484	12489.84
679.832	12493.68
680.181	12454.14
680.529	12519.44
680.877	12400.8
681.225	12389.05
681.573	12553.12
681.922	12380.47
682.27	12376.17
682.618	12371.2
682.966	12286.68
683.314	12445.1
683.661	12211.43
684.009	12258.66
684.357	12254.82
684.705	12153.58
685.053	12200.36
685.4	12175.27
685.748	12047.59
686.095	12107.7
686.443	12053.02
686.79	12042.17
687.138	12104.54
687.485	12086.69
687.832	12020.25
688.18	11979.35
688.527	11879.91
688.874	11900.03
689.221	11815.28
689.568	11772.57
689.915	11867.26
690.262	11864.55
690.609	11772.35
690.956	11713.59
691.303	11714.95
691.65	11615.74
691.997	11619.36
692.344	11567.38
692.69	11582.29
693.037	11537.1
693.383	11426.14
693.73	11511.34
694.077	11443.31
694.423	11380.72
694.769	11335.52
695.116	11231.34
695.462	11291
695.808	11259.14
696.155	11309.99
696.501	11168.75
696.847	11125.36
697.193	11070.44
697.539	11090.78
697.885	10990.22
698.231	10946.6
698.577	10938.7
698.923	10925.14
699.269	10819.6
699.614	10750.45
699.96	10773.5
700.306	10821.18
700.651	10692.83
700.997	10639.72
701.342	10590.68
701.688	10643.79
702.033	10626.16
702.379	10564.47
702.724	10520.18
703.069	10496.45
703.415	10406.28
703.76	10408.09
704.105	10475.2
704.45	10357.47
704.795	10338.94
705.14	10318.37
705.485	10214.19
705.83	10165.38
706.175	10213.52
706.52	10196.57
706.865	10112.05
707.209	10161.99
707.554	10096.01
707.899	10094.2
708.243	9959.51
708.588	9962.45
708.932	9964.71
709.277	9908.89
709.621	9970.59
709.966	9844.49
710.31	9883.13
710.654	9804.26
710.998	9794.77
711.342	9777.14
711.687	9742.79
712.031	9737.82
712.375	9743.7
712.719	9662.8
713.063	9692.63
713.407	9724.26
713.75	9648.33
714.094	9626.19
714.438	9571.5
714.782	9539.86
715.125	9557.26
715.469	9550.94
715.812	9499.64
716.156	9472.29
716.499	9421.67
716.843	9423.26
717.186	9465.29
717.53	9438.17
717.873	9458.51
718.216	9455.34
718.559	9375.8
718.902	9321.79
719.246	9319.3
719.589	9350.94
719.932	9296.7
720.275	9334.22
720.617	9298.06
720.96	9215.8
721.303	9293.09
721.646	9321.56
721.989	9263.71
722.331	9245.18
722.674	9265.75
723.016	9247.67
723.359	9227.1
723.701	9164.28
724.044	9185.52
724.386	9171.51
724.729	9170.38
725.071	9145.07
725.413	9144.39
725.755	9066.65
726.097	9020.1
726.439	9061
726.782	9029.59
727.124	9142.58
727.465	9025.75
727.807	9019.65
728.149	9079.31
728.491	9002.48
728.833	8995.24
729.175	8977.62
729.516	9020.55
729.858	8996.15
730.199	9007.22
730.541	8976.94
730.882	9022.36
731.224	9056.94
731.565	8995.47
731.906	8931.06
732.248	9040.21
732.589	8984.62
732.93	8930.16
733.271	8905.08
733.612	8956.6
733.953	8898.75
734.294	8987.56
734.635	8918.86
734.976	8989.82
735.317	8944.62
735.658	8919.77
735.999	9042.02
736.339	8978.07
736.68	9036.37
737.021	8981.68
737.361	8957.73
737.702	8995.47
738.042	9030.72
738.383	8949.14
738.723	8978.97
739.063	8950.95
739.404	9010.16
739.744	9025.98
740.084	8973.1
740.424	8995.24
740.764	8977.62
741.104	9052.64
741.444	9006.32
741.784	9004.06
742.124	9058.29
742.464	9047.45
742.804	9060.78
743.143	9059.87
743.483	9212.87
743.823	9069.82
744.162	9117.27
744.502	9151.4
744.841	9180.55
745.181	9195.24
745.52	9297.38
745.86	9288.12
746.199	9259.42
746.538	9338.96
746.877	9365.86
747.216	9463.03
747.556	9429.58
747.895	9462.12
748.234	9481.56
748.573	9586.41
748.911	9586.64
749.25	9671.61
749.589	9615.57
749.928	9745.51
750.267	9897.59
750.605	9868.67
750.944	9963.35
751.283	9984.14
751.621	10150.02
751.96	10110.69
752.298	10273.4
752.636	10392.04
752.975	10403.12
753.313	10454.64
753.651	10646.73
753.989	10703.22
754.327	10788.19
754.666	10850.79
755.004	11053.72
755.342	11075.64
755.679	11244.22
756.017	11288.06
756.355	11492.58
756.693	11547.27
757.031	11721.73
757.368	11731.22
757.706	11900.93
758.044	12019.34
758.381	12283.29
758.719	12325.55
759.056	12495.94
759.394	12628.14
759.731	12645.77
760.068	12878.76
760.405	13007.79
760.743	13085.08
761.08	13315.81
761.417	13412.75
761.754	13508.12
762.091	13755.57
762.428	13849.58
762.765	13938.84
763.102	14207.08
763.438	14260.87
763.775	14370.7
764.112	14584.02
764.449	14879.16
764.785	14879.83
765.122	14965.48
765.458	15213.61
765.795	15332.93
766.131	15408.41
766.467	15599.59
766.804	15743.99
767.14	15855.85
767.476	15969.98
767.812	16165.68
768.148	16294.49
768.485	16295.84
768.821	16374.03
769.157	16542.16
769.492	16606.34
769.828	16752.55
770.164	16841.37
770.5	16927.24
770.836	17075.94
771.171	17040.91
771.507	17190.73
771.842	17178.53
772.178	17290.84
772.513	17495.36
772.849	17573.55
773.184	17481.57
773.519	17658.07
773.855	17644.06
774.19	17669.59
774.525	17719.53
774.86	17834.11
775.195	17878.63
775.53	17997.27
775.865	17945.06
776.2	17896.25
776.535	17965.86
776.87	18036.81
777.205	18076.81
777.539	18110.94
777.874	18130.37
778.209	18032.52
778.543	18207.88
778.878	18119.52
779.212	18224.38
779.547	18223.02
779.881	18344.6
780.215	18313.87
780.55	18359.52
780.884	18232.06
781.218	18299.41
781.552	18341.89
781.886	18329.24
782.22	18301.89
782.554	18246.3
782.888	18178.51
783.222	18195.23
783.556	18157.49
783.889	18169.01
784.223	18065.74
784.557	18159.52
784.89	18188.67
785.224	18103.25
785.557	18074.78
785.891	18145.96
786.224	18128.56
786.558	18049.24
786.891	17992.75
787.224	17925.63
787.557	17936.48
787.891	17976.7
788.224	17943.26
788.557	17945.06
788.89	17955.91
789.223	17961.79
789.556	17767.67
789.888	17737.84
790.221	17808.8
790.554	17584.4
790.887	17731.96
791.219	17662.59
791.552	17577.39
791.884	17608.58
792.217	17559.31
792.549	17559.99
792.882	17436.83
793.214	17500.1
793.546	17454.23
793.879	17349.15
794.211	17150.96
794.543	17320
794.875	17330.62
795.207	17311.18
795.539	17229.6
795.871	17217.85
796.203	17089.04
796.535	17059.66
796.867	17021.47
797.198	17005.65
797.53	17038.65
797.862	16897.18
798.193	16944.41
798.525	16829.84
798.856	16884.98
799.188	16563.41
799.519	16743.51
799.85	16585.33
800.182	16705.78
800.513	16641.14
800.844	16558.89
801.175	16562.05
801.506	16469.62
801.837	16506.46
802.168	16449.06
802.499	16447.93
802.83	16312.11
803.161	16293.36
803.491	16278.89
803.822	16244.77
804.153	16184.43
804.483	16144.66
804.814	16077.77
805.145	15972.24
805.475	16180.82
805.805	15944.21
806.136	15926.13
806.466	16026.47
806.796	16022.86
807.126	15786.48
807.457	15793.71
807.787	15835.52
808.117	15774.05
808.447	15746.7
808.777	15736.54
809.107	15642.75
809.436	15656.76
809.766	15538.35
810.096	15486.82
810.426	15530.44
810.755	15538.35
811.085	15498.12
811.414	15391.01
811.744	15371.57
812.073	15354.62
812.403	15371.35
812.732	15253.16
813.061	15325.25
813.39	15125.25
813.719	15168.41
814.049	15242.76
814.378	15173.61
814.707	15193.05
815.036	15100.62
815.365	15056.78
815.693	14901.08
816.022	15002.32
816.351	14922.09
816.68	14882.09
817.008	14960.96
817.337	14782.21
817.665	14766.17
817.994	14729.33
818.322	14725.26
818.651	14664.02
818.979	14689.56
819.307	14763.45
819.636	14703.34
819.964	14595.55
820.292	14613.63
820.62	14628.77
820.948	14586.74
821.276	14639.16
821.604	14520.07
821.932	14604.81
822.259	14534.31
822.587	14581.76
822.915	14479.39
823.243	14542.89
823.57	14485.27
823.898	14555.32
824.225	14449.34
824.553	14559.17
824.88	14513.97
825.207	14565.49
825.535	14527.3
825.862	14593.29
826.189	14525.04
826.516	14503.57
826.843	14589.22
827.17	14624.93
827.497	14634.19
827.824	14593.74
828.151	14717.35
828.478	14604.81
828.805	14557.81
829.131	14549.45
829.458	14554.42
829.785	14543.8
830.111	14520.75
830.438	14547.64
830.764	14579.96
831.09	14564.81
831.417	14483.91
831.743	14570.92
832.069	14518.94
832.395	14501.09
832.722	14518.04
833.048	14443.46
833.374	14449.79
833.7	14424.93
834.026	14483.46
834.351	14438.72
834.677	14491.14
835.003	14421.99
835.329	14381.54
835.654	14360.07
835.98	14315.1
836.306	14325.05
836.631	14359.85
836.956	14335.67
837.282	14287.08
837.607	14262
837.932	14333.41
838.258	14249.57
838.583	14223.58
838.908	14165.28
839.233	14237.82
839.558	14139.06
839.883	14134.54
840.208	14113.75
840.533	14069.23
840.858	14039.63
841.182	14067.43
841.507	14063.36
841.832	13928.22
842.156	13990.82
842.481	13964.83
842.805	13877.83
843.13	13873.53
843.454	13876.92
843.778	13846.42
844.103	13763.25
844.427	13772.52
844.751	13759.19
845.075	13669.47
845.399	13687.55
845.723	13562.36
846.047	13550.6
846.371	13454.79
846.695	13406.43
847.019	13388.35
847.343	13337.5
847.666	13263.38
847.99	13139.32
848.313	13191.07
848.637	13136.6
848.96	13145.87
849.284	13064.06
849.607	12998.3
849.931	12939.32
850.254	12888.7
850.577	12836.27
850.9	12723.73
851.223	12753.79
851.546	12646.22
851.869	12612.32
852.192	12667.24
852.515	12489.39
852.838	12478.77
853.161	12461.37
853.483	12368.71
853.806	12395.38
854.129	12303.63
854.451	12234.71
854.774	12215.27
855.096	12145.44
855.419	12164.88
855.741	12153.35
856.063	12116.29
856.385	12067.71
856.708	11948.39
857.03	11972.79
857.352	11944.77
857.674	11940.48
857.996	11820.93
858.318	11791.33
858.64	11806.24
858.961	11805.34
859.283	11698.68
859.605	11672.69
859.926	11683.31
860.248	11659.81
860.57	11595.85
860.891	11610.99
861.212	11509.08
861.534	11546.36
861.855	11489.87
862.176	11426.37
862.498	11501.62
862.819	11486.03
863.14	11378.68
863.461	11365.8
863.782	11374.16
864.103	11329.87
864.424	11287.61
864.745	11319.48
865.065	11269.53
865.386	11244.9
865.707	11177.79
866.027	11283.77
866.348	11125.81
866.668	11265.69
866.989	11156.54
867.309	11127.17
867.63	11152.48
867.95	11087.39
868.27	11004.91
868.59	11007.17
868.91	11023.66
869.23	11036.77
869.55	10991.12
869.87	10932.14
870.19	10921.29
870.51	11002.2
870.83	10982.76
871.15	10945.47
871.469	10933.27
871.789	10927.4
872.109	10854.86
872.428	10844.01
872.748	10897.34
873.067	10891.47
873.386	10803.33
873.706	10792.94
874.025	10741.86
874.344	10742.09
874.663	10740.51
874.982	10711.36
875.301	10682.2
875.62	10661.41
875.939	10658.48
876.258	10622.09
876.577	10585.48
876.896	10570.12
877.214	10613.05
877.533	10596.78
877.852	10427.07
878.17	10542.55
878.489	10561.08
878.807	10532.15
879.125	10465.26
879.444	10464.81
879.762	10451.25
880.08	10432.04
880.398	10399.05
880.716	10382.78
881.034	10382.33
881.352	10340.52
881.67	10309.56
881.988	10307.07
882.306	10269.56
882.624	10236.34
882.941	10195.21
883.259	10184.36
883.577	10225.49
883.894	10163.35
884.212	10173.97
884.529	10106.63
884.846	10127.64
885.164	10097.14
885.481	10034.31
885.798	10017.36
886.115	9983.24
886.432	9917.25
886.75	9989.12
887.067	9941.43
887.383	9885.39
887.7	9884.03
888.017	9845.84
888.334	9931.49
888.651	9783.47
888.967	9831.15
889.284	9760.42
889.6	9702.12
889.917	9644.49
890.233	9729.01
890.55	9685.4
890.866	9691.04
891.182	9599.97
891.498	9510.94
891.815	9575.57
892.131	9498.73
892.447	9440.43
892.763	9429.58
893.079	9458.51
893.395	9369.92
893.71	9433.88
894.026	9389.13
894.342	9309.59
894.657	9246.76
894.973	9239.53
895.289	9261.9
895.604	9211.06
895.92	9131.06
896.235	9074.56
896.55	9117.73
896.865	9070.72
897.181	9025.3
897.496	9116.37
897.811	8975.81
898.126	9005.41
898.441	8951.4
898.756	8917.73
899.071	8859.65
899.386	8820.33
899.7	8794.12
900.015	8650.39
900.33	8658.53
900.644	8717.96
900.959	8628.02
901.273	8638.42
901.588	8640.9
901.902	8550.96
902.216	8537.18
902.531	8482.71
902.845	8446.56
903.159	8441.36
903.473	8359.55
903.787	8358.2
904.101	8350.74
904.415	8294.7
904.729	8297.86
905.042	8180.35
905.356	8164.98
905.67	8182.84
905.984	8162.95
906.297	8164.53
906.611	8148.49
906.924	8082.73
907.237	8005.89
907.551	7980.81
907.864	7954.14
908.177	7927.48
908.491	7888.15
908.804	7884.99
909.117	7840.92
909.43	7810.19
909.743	7763.19
910.056	7673.7
910.368	7665.34
910.681	7700.14
910.994	7650.87
911.307	7571.78
911.619	7550.54
911.932	7561.61
912.244	7429.64
912.557	7513.47
912.869	7391.9
913.181	7426.02
913.494	7398
913.806	7313.71
914.118	7247.49
914.43	7302.18
914.742	7301.5
915.054	7241.84
915.366	7205.01
915.678	7162.98
915.99	7143.77
916.302	7127.04
916.613	7042.07
916.925	7060.83
917.236	7035.75
917.548	6995.97
917.859	6967.5
918.171	6969.53
918.482	6886.82
918.794	6888.86
919.105	6849.54
919.416	6845.24
919.727	6812.02
920.038	6811.35
920.349	6752.36
920.66	6731.35
920.971	6779.71
921.282	6679.37
921.593	6682.99
921.903	6609.09
922.214	6600.73
922.525	6552.6
922.835	6551.92
923.146	6518.25
923.456	6525.03
923.767	6481.19
924.077	6448.42
924.387	6450.68
924.697	6365.03
925.008	6341.08
925.318	6341.98
925.628	6333.17
925.938	6306.73
926.248	6284.35
926.558	6256.33
926.867	6214.07
927.177	6164.36
927.487	6101.99
927.796	6099.5
928.106	6112.83
928.416	6066.06
928.725	6060.86
929.034	6057.02
929.344	6011.14
929.653	6011.14
929.962	5960.07
930.271	5894.76
930.581	5893.63
930.89	5853.86
931.199	5840.75
931.508	5795.78
931.817	5829
932.125	5781.99
932.434	5821.32
932.743	5735.22
933.051	5718.72
933.36	5641.21
933.669	5631.72
933.977	5635.11
934.286	5619.29
934.594	5616.12
934.902	5551.72
935.21	5523.92
935.519	5558.27
935.827	5514.88
936.135	5467.88
936.443	5422.91
936.751	5403.7
937.059	5389.24
937.367	5367.77
937.674	5390.37
937.982	5363.93
938.29	5322.8
938.597	5305.85
938.905	5272.4
939.213	5240.09
939.52	5172.29
939.827	5203.25
940.135	5194.44
940.442	5205.06
940.749	5130.49
941.056	5095.01
941.363	5095.91
941.67	5044.84
941.977	5059.98
942.284	5033.31
942.591	5004.61
942.898	4995.35
943.205	4951.28
943.511	4962.36
943.818	4919.87
944.125	4862.02
944.431	4869.93
944.738	4879.65
945.044	4870.38
945.35	4822.25
945.657	4805.75
945.963	4810.49
946.269	4704.06
946.575	4774.79
946.881	4709.25
947.187	4724.4
947.493	4689.37
947.799	4641.91
948.105	4632.65
948.41	4629.03
948.716	4572.08
949.022	4570.28
949.327	4579.09
949.633	4534.8
949.938	4544.51
950.244	4527.79
950.549	4491.41
950.854	4453.67
951.16	4426.1
951.465	4446.66
951.77	4395.36
952.075	4341.13
952.38	4309.04
952.685	4336.61
952.99	4299.55
953.294	4296.38
953.599	4296.61
953.904	4242.37
954.209	4282.6
954.513	4241.02
954.818	4231.53
955.122	4201.02
955.426	4207.8
955.731	4173.22
956.035	4177.07
956.339	4176.61
956.643	4133
956.948	4097.07
957.252	4089.61
957.556	4055.71
957.86	4060.68
958.163	4037.63
958.467	4002.83
958.771	3987.47
959.075	3976.84
959.378	3946.79
959.682	3956.28
959.985	3947.69
960.289	3946.11
960.592	3850.75
960.896	3919.44
961.199	3903.85
961.502	3841.48
961.805	3811.43
962.108	3849.84
962.411	3810.75
962.714	3825.66
963.017	3788.6
963.32	3748.83
963.623	3731.65
963.926	3707.02
964.228	3696.4
964.531	3696.17
964.833	3714.48
965.136	3662.5
965.438	3642.16
965.741	3633.35
966.043	3584.31
966.345	3589.28
966.648	3575.95
966.95	3613.92
967.252	3571.88
967.554	3511.32
967.856	3502.28
968.158	3472
968.46	3521.04
968.761	3493.69
969.063	3452.79
969.365	3465.22
969.666	3371.66
969.968	3436.07
970.269	3423.86
970.571	3370.76
970.872	3356.07
971.174	3316.52
971.475	3349.97
971.776	3362.85
972.077	3269.52
972.378	3293.92
972.679	3307.26
972.98	3250.31
973.281	3268.84
973.582	3249.63
973.883	3212.12
974.183	3199.24
974.484	3183.87
974.785	3190.2
975.085	3197.66
975.386	3163.08
975.686	3154.27
975.986	3111.33
976.287	3119.24
976.587	3091.67
976.887	3070.65
977.187	3073.14
977.487	3050.99
977.787	3042.18
978.087	3038.34
978.387	3000.83
978.687	2989.53
978.987	3035.63
979.286	2977.32
979.586	2945.91
979.885	2904.78
980.185	2905.69
980.484	2937.32
980.784	2957.44
981.083	2893.48
981.382	2884.44
981.682	2854.16
981.981	2849.87
982.28	2851.9
982.579	2793.37
982.878	2828.17
983.177	2821.62
983.475	2782.98
983.774	2783.88
984.073	2810.1
984.372	2768.06
984.67	2726.93
984.969	2745.92
985.267	2750.66
985.566	2712.92
985.864	2656.88
986.162	2697.78
986.461	2658.46
986.759	2670.66
987.057	2644.22
987.355	2618.69
987.653	2596.77
987.951	2658.69
988.249	2628.63
988.547	2558.58
988.844	2589.99
989.142	2593.38
989.44	2556.09
989.737	2557.9
990.035	2548.86
990.332	2529.88
990.63	2517
990.927	2481.52
991.224	2504.57
991.521	2480.16
991.819	2473.16
992.116	2467.05
992.413	2429.54
992.71	2454.4
993.006	2419.82
993.303	2408.07
993.6	2402.65
993.897	2403.78
994.193	2387.73
994.49	2362.65
994.787	2334.63
995.083	2341.63
995.379	2285.82
995.676	2286.27
995.972	2305.93
996.268	2263.22
996.565	2258.02
996.861	2279.04
997.157	2267.96
997.453	2245.59
997.749	2232.03
998.044	2207.85
998.34	2234.07
998.636	2216.66
998.932	2197.23
999.227	2162.2
999.523	2132.83
999.818	2168.08
1000.114	2127.4
1000.409	2139.15
1000.704	2116.78
1001	2131.02
1001.295	2108.65
1001.59	2118.59
1001.885	2070.68
1002.18	2065.71
1002.475	2018.7
1002.77	2048.99
1003.065	2024.81
1003.359	2037.46
1003.654	1996.78
1003.949	2018.03
1004.243	1968.99
1004.538	1984.35
1004.832	1963.34
1005.127	1968.08
1005.421	1920.4
1005.715	1931.93
1006.009	1928.99
1006.304	1909.1
1006.598	1909.78
1006.892	1895.32
1007.186	1826.39
1007.48	1894.87
1007.773	1863.45
1008.067	1850.57
1008.361	1837.24
1008.655	1850.57
1008.948	1814.87
1009.242	1828.88
1009.535	1826.39
1009.829	1826.84
1010.122	1784.36
1010.415	1743.01
1010.708	1739.62
1011.001	1752.27
1011.295	1749.33
1011.588	1738.49
1011.881	1725.15
1012.173	1700.75
1012.466	1728.77
1012.759	1713.18
1013.052	1695.1
1013.344	1663.23
1013.637	1661.65
1013.93	1639.5
1014.222	1645.61
1014.514	1600.86
1014.807	1602.67
1015.099	1595.44
1015.391	1601.54
1015.683	1601.77
1015.976	1566.06
1016.268	1534.42
1016.56	1575.1
1016.851	1542.11
1017.143	1555.89
1017.435	1533.74
1017.727	1532.84
1018.018	1547.98
1018.31	1503.01
1018.602	1524.93
1018.893	1481.54
1019.185	1478.83
1019.476	1465.27
1019.767	1468.66
1020.058	1444.26
1020.35	1413.52
1020.641	1450.58
1020.932	1433.63
1021.223	1393.86
1021.514	1370.59
1021.804	1363.58
1022.095	1397.7
1022.386	1370.13
1022.677	1378.49
1022.967	1350.7
1023.258	1349.34
1023.548	1327.42
1023.839	1326.07
1024.129	1300.3
1024.419	1333.75
1024.709	1310.02
1025	1276.8
1025.29	1275.67
1025.58	1260.53
1025.87	1256.69
1026.16	1265.05
1026.449	1276.8
1026.739	1253.3
1027.029	1246.29
1027.319	1240.19
1027.608	1224.83
1027.898	1230.48
1028.187	1189.8
1028.477	1213.53
1028.766	1212.85
1029.055	1173.08
1029.344	1183.02
1029.634	1167.65
1029.923	1182.57
1030.212	1163.36
1030.501	1144.38
1030.79	1123.81
1031.078	1136.69
1031.367	1134.21
1031.656	1123.13
1031.945	1113.64
1032.233	1100.54
1032.522	1086.07
1032.81	1078.62
1033.099	1086.98
1033.387	1045.4
1033.675	1066.86
1033.963	1074.1
1034.251	1060.54
1034.54	1024.61
1034.828	1034.78
1035.116	1031.61
1035.403	1022.57
1035.691	1049.01
1035.979	1009.92
1036.267	1009.46
1036.554	994.32
1036.842	997.04
1037.129	996.81
1037.417	973.76
1037.704	969.01
1037.992	967.66
1038.279	966.53
1038.566	974.44
1038.853	974.44
1039.14	974.44
