Data from hue_230_FLMS001491_00047.txt Node
Date: Tue Feb 07 16:37:17 GMT 2017
User: dcchb
Spectrometer: FLMS00149
Trigger mode: 0
Integration Time (sec): 2.000000E-2
Scans to average: 10
Electric dark correction enabled: true
Nonlinearity correction enabled: false
Boxcar width: 0
XAxis mode: Wavelengths
Number of Pixels in Spectrum: 2048
>>>>>Begin Spectral Data<<<<<
341.393	-13.84
341.776	-13.84
342.16	-13.84
342.543	-83.67
342.927	-60.39
343.31	-68.53
343.693	-65.14
344.077	-81.64
344.46	-51.13
344.843	-45.93
345.226	-49.55
345.61	-36.67
345.993	-17.46
346.376	11.47
346.759	20.96
347.142	13.5
347.525	39.26
347.908	47.85
348.291	78.81
348.674	96.66
349.057	107.51
349.44	136.21
349.823	141.18
350.206	146.83
350.588	193.84
350.971	210.79
351.354	214.63
351.737	234.97
352.119	234.06
352.502	256.66
352.884	253.27
353.267	268.64
353.65	270.67
354.032	284.23
354.414	288.75
354.797	280.61
355.179	304.34
355.562	311.57
355.944	313.38
356.326	315.19
356.709	330.1
357.091	329.88
357.473	342.53
357.855	333.95
358.238	319.71
358.62	324
359.002	333.72
359.384	332.59
359.766	326.71
360.148	312.7
360.53	351.8
360.912	322.65
361.294	310.67
361.676	332.82
362.057	327.17
362.439	285.36
362.821	326.49
363.203	325.81
363.584	284.46
363.966	329.2
364.348	305.25
364.729	299.14
365.111	307.28
365.493	325.58
365.874	313.38
366.256	306.6
366.637	318.35
367.019	308.18
367.4	303.89
367.781	321.52
368.163	298.69
368.544	288.98
368.925	295.3
369.306	304.12
369.688	295.3
370.069	303.21
370.45	310.9
370.831	320.84
371.212	307.28
371.593	305.47
371.974	297.34
372.355	291.01
372.736	315.19
373.117	305.25
373.498	303.44
373.879	299.14
374.26	291.24
374.641	284.46
375.021	305.02
375.402	326.04
375.783	300.95
376.163	315.87
376.544	327.62
376.925	300.95
377.305	317.22
377.686	276.09
378.066	317.68
378.447	308.86
378.827	318.13
379.208	339.14
379.588	309.99
379.968	298.69
380.349	325.81
380.729	321.74
381.109	325.58
381.489	315.19
381.87	317
382.25	336.88
382.63	328.97
383.01	310.9
383.39	304.12
383.77	325.81
384.15	335.98
384.53	327.62
384.91	326.49
385.29	322.65
385.67	334.4
386.049	327.17
386.429	335.75
386.809	327.39
387.189	327.17
387.568	338.69
387.948	340.05
388.328	342.08
388.707	330.56
389.087	347.96
389.466	358.13
389.846	343.66
390.225	343.66
390.605	349.76
390.984	361.29
391.363	339.6
391.743	352.25
392.122	360.61
392.501	339.14
392.881	357.45
393.26	354.96
393.639	364.91
394.018	354.28
394.397	369.43
394.776	340.73
395.155	368.52
395.534	366.49
395.913	373.94
396.292	369.65
396.671	375.98
397.05	390.44
397.429	376.2
397.808	391.57
398.186	380.95
398.565	359.03
398.944	372.14
399.323	368.3
399.701	392.7
400.08	391.12
400.458	394.74
400.837	386.83
401.215	394.74
401.594	413.27
401.972	403.55
402.351	403.1
402.729	408.52
403.107	391.12
403.486	416.43
403.864	414.62
404.242	406.49
404.62	427.28
404.999	404.9
405.377	447.16
405.755	423.66
406.133	428.18
406.511	403.55
406.889	438.8
407.267	440.16
407.645	432.47
408.023	436.32
408.401	453.72
408.779	467.5
409.156	475.41
409.534	460.95
409.912	455.07
410.29	481.74
410.667	495.98
411.045	462.08
411.422	484.22
411.8	506.82
412.178	508.63
412.555	507.5
412.933	537.78
413.31	517.22
413.687	521.51
414.065	536.88
414.442	547.5
414.819	551.57
415.197	539.82
415.574	552.92
415.951	559.48
416.328	551.57
416.705	581.62
417.082	570.1
417.46	582.3
417.837	624.56
418.214	606.26
418.591	589.76
418.967	625.24
419.344	616.65
419.721	628.85
420.098	626.37
420.475	634.5
420.852	634.28
421.228	650.55
421.605	665.69
421.982	675.18
422.358	691.9
422.735	700.94
423.111	698.46
423.488	706.59
423.864	717.66
424.241	729.19
424.617	749.75
424.994	735.07
425.37	751.34
425.746	759.25
426.123	748.85
426.499	764.22
426.875	786.59
427.251	794.27
427.627	821.16
428.003	842.63
428.379	823.65
428.756	844.44
429.132	855.51
429.507	868.4
429.883	866.81
430.259	889.19
430.635	886.02
431.011	897.55
431.387	915.4
431.763	959.24
432.138	963.99
432.514	979.35
432.89	947.04
433.265	997.21
433.641	997.43
434.016	1008.28
434.392	1030.2
434.767	1036.07
435.143	1035.17
435.518	1067.26
435.894	1076.07
436.269	1098.67
436.644	1126.69
437.02	1163.98
437.395	1149.97
437.77	1150.65
438.145	1166.69
438.52	1183.87
438.895	1193.13
439.271	1215.28
439.646	1218.89
440.021	1246.92
440.395	1278.55
440.77	1258.89
441.145	1295.28
441.52	1295.5
441.895	1312
442.27	1340.25
442.645	1350.87
443.019	1364.65
443.394	1360.59
443.769	1374.37
444.143	1380.02
444.518	1397.19
444.892	1388.16
445.267	1423.86
445.641	1416.63
446.016	1445.33
446.39	1425.89
446.764	1465.67
447.139	1459.34
447.513	1479
447.887	1490.75
448.262	1500.47
448.636	1534.37
449.01	1526.46
449.384	1520.81
449.758	1524.65
450.132	1563.97
450.506	1580.69
450.88	1574.37
451.254	1581.14
451.628	1619.79
452.002	1617.53
452.376	1644.19
452.75	1627.92
453.123	1613.69
453.497	1664.08
453.871	1660.01
454.244	1662.95
454.618	1719.9
454.992	1744.3
455.365	1750.41
455.739	1759.67
456.112	1783.17
456.486	1799.22
456.859	1815.26
457.232	1837.18
457.606	1874.24
457.979	1856.39
458.352	1928.48
458.725	1893.45
459.099	1921.7
459.472	1951.08
459.845	2001.92
460.218	2001.02
460.591	2010.96
460.964	2051.41
461.337	2061.13
461.71	2100.23
462.083	2140.45
462.456	2129.15
462.829	2147.91
463.201	2179.1
463.574	2144.29
463.947	2203.73
464.32	2228.59
464.692	2238.98
465.065	2267
465.438	2314.23
465.81	2333.44
466.183	2341.58
466.555	2390.84
466.928	2393.33
467.3	2426.32
467.672	2445.98
468.045	2513.78
468.417	2482.82
468.789	2475.58
469.161	2525.3
469.534	2554.45
469.906	2597.16
470.278	2618.63
470.65	2652.76
471.022	2692.53
471.394	2729.59
471.766	2764.84
472.138	2783.83
472.51	2817.27
472.882	2894.56
473.253	2892.07
473.625	2921.22
473.997	2996.47
474.369	3024.04
474.74	3028.34
475.112	3094.78
475.484	3097.94
475.855	3188.56
476.227	3205.96
476.598	3296.58
476.97	3309.46
477.341	3365.5
477.713	3404.37
478.084	3406.41
478.455	3482.11
478.827	3510.13
479.198	3599.85
479.569	3624.48
479.94	3692.95
480.311	3659.96
480.682	3766.17
481.053	3857.92
481.424	3917.81
481.795	3939.27
482.166	3995.54
482.537	4036.9
482.908	4090.23
483.279	4103.56
483.65	4152.38
484.021	4277.12
484.391	4283.67
484.762	4310.11
485.133	4330
485.503	4364.57
485.874	4523.44
486.244	4495.42
486.615	4594.17
486.985	4623.55
487.356	4684.11
487.726	4735.64
488.097	4810.89
488.467	4782.19
488.837	4892.7
489.207	4973.37
489.578	5009.76
489.948	5028.06
490.318	5080.71
490.688	5107.38
491.058	5125.68
491.428	5240.03
491.798	5269.18
492.168	5347.37
492.538	5344.66
492.908	5400.48
493.278	5444.32
493.648	5496.75
494.017	5563.19
494.387	5606.58
494.757	5585.79
495.126	5668.27
495.496	5644.31
495.866	5704.65
496.235	5733.8
496.605	5775.16
496.974	5840.92
497.344	5797.08
497.713	5875.72
498.082	5881.6
498.452	5942.16
498.821	5986.68
499.19	5979.45
499.559	6029.39
499.928	6040.01
500.298	6039.78
500.667	6123.85
501.036	6084.53
501.405	6136.51
501.774	6122.95
502.143	6189.61
502.512	6232.1
502.88	6242.04
503.249	6233.23
503.618	6187.13
503.987	6291.3
504.356	6265.09
504.724	6369.72
505.093	6329.95
505.462	6355.93
505.83	6400
506.199	6429.15
506.567	6481.58
506.936	6474.58
507.304	6475.48
507.672	6503.28
508.041	6496.95
508.409	6557.29
508.777	6619.88
509.145	6688.36
509.514	6604.06
509.882	6716.6
510.25	6630.96
510.618	6643.16
510.986	6663.5
511.354	6705.08
511.722	6717.28
512.09	6749.6
512.458	6718.64
512.826	6824.62
513.193	6832.53
513.561	6784.85
513.929	6824.17
514.297	6844.28
514.664	6945.75
515.032	6841.35
515.4	6878.63
515.767	6945.75
516.135	6917.05
516.502	6894.23
516.869	6948.91
517.237	6922.47
517.604	6904.39
517.972	6975.13
518.339	6964.28
518.706	6973.09
519.073	6984.39
519.44	6993.21
519.808	7007.22
520.175	7032.3
520.542	7125.63
520.909	7066.2
521.276	7050.38
521.643	7080.66
522.009	7052.41
522.376	7133.77
522.743	7148.23
523.11	7140.09
523.477	7193.88
523.843	7183.03
524.21	7220.77
524.577	7278.62
524.943	7275.68
525.31	7240.43
525.676	7282.24
526.043	7303.25
526.409	7255.57
526.776	7354.78
527.142	7317.49
527.508	7286.98
527.874	7372.18
528.241	7342.58
528.607	7348
528.973	7363.59
529.339	7322.69
529.705	7317.04
530.071	7388
530.437	7353.65
530.803	7382.57
531.169	7388.68
531.535	7357.04
531.901	7354.78
532.267	7384.83
532.632	7361.78
532.998	7391.84
533.364	7446.75
533.73	7375.57
534.095	7403.14
534.461	7370.37
534.826	7403.82
535.192	7321.56
535.557	7430.48
535.923	7311.62
536.288	7351.84
536.653	7358.39
537.019	7285.63
537.384	7290.6
537.749	7265.97
538.114	7238.62
538.479	7278.17
538.845	7200.66
539.21	7244.27
539.575	7321.11
539.94	7228.45
540.305	7281.33
540.67	7292.18
541.034	7198.4
541.399	7166.76
541.764	7222.58
542.129	7206.99
542.494	7146.42
542.858	7180.09
543.223	7175.57
543.587	7134.67
543.952	7143.26
544.316	7185.74
544.681	7098.29
545.045	7079.31
545.41	7112.3
545.774	7073.43
546.138	7038.85
546.503	7101.45
546.867	7059.42
547.231	7063.03
547.595	7017.16
547.959	7043.6
548.324	6999.08
548.688	7004.96
549.052	6949.59
549.416	6931.06
549.779	6960.66
550.143	6964.28
550.507	6967.44
550.871	6946.65
551.235	6879.99
551.599	6930.83
551.962	6906.65
552.326	6894.45
552.689	6891.74
553.053	6833.44
553.417	6829.82
553.78	6874.79
554.143	6832.53
554.507	6847.67
554.87	6833.21
555.234	6887.22
555.597	6809.48
555.96	6808.8
556.323	6810.39
556.686	6778.97
557.05	6844.06
557.413	6818.97
557.776	6914.11
558.139	6835.7
558.502	6824.4
558.865	6817.84
559.228	6807.22
559.59	6846.32
559.953	6785.08
560.316	6888.8
560.679	6896.71
561.041	6840.44
561.404	6826.43
561.767	6882.25
562.129	6890.61
562.492	6917.5
562.854	6863.49
563.217	6878.41
563.579	6900.78
563.941	6933.09
564.304	6910.95
564.666	6966.31
565.028	6970.61
565.39	6998.63
565.753	6943.94
566.115	6964.05
566.477	7010.83
566.839	7009.93
567.201	7026.2
567.563	7090.15
567.925	7042.24
568.287	7089.7
568.648	7074.79
569.01	7060.32
569.372	7160.43
569.734	7051.96
570.095	7122.47
570.457	7120.89
570.819	7135.35
571.18	7190.26
571.542	7167.66
571.903	7178.96
572.265	7161.79
572.626	7219.19
572.987	7196.59
573.349	7291.96
573.71	7233.43
574.071	7276.36
574.432	7300.09
574.794	7357.04
575.155	7334.21
575.516	7305.74
575.877	7333.76
576.238	7328.79
576.599	7349.35
576.96	7362.46
577.32	7408.34
577.681	7435
578.042	7397.49
578.403	7444.49
578.763	7457.6
579.124	7447.88
579.485	7509.12
579.845	7501.89
580.206	7547.77
580.566	7566.3
580.927	7523.36
581.287	7604.72
581.648	7556.58
582.008	7627.09
582.368	7541.44
582.728	7628.44
583.089	7592.96
583.449	7599.97
583.809	7658.27
584.169	7645.84
584.529	7666.86
584.889	7694.43
585.249	7632.74
585.609	7677.71
585.969	7710.7
586.329	7668.89
586.688	7798.16
587.048	7804.71
587.408	7697.82
587.768	7777.37
588.127	7723.13
588.487	7768.1
588.846	7792.06
589.206	7809
589.565	7791.6
589.925	7861.21
590.284	7836.57
590.643	7837.93
591.003	7843.58
591.362	7895.1
591.721	7867.31
592.08	7806.29
592.44	7875.44
592.799	7946.85
593.158	7865.5
593.517	7917.93
593.876	7835.22
594.235	7937.36
594.593	7907.76
594.952	7963.58
595.311	7909.79
595.67	7931.94
596.029	7962.45
596.387	8010.81
596.746	8022.11
597.104	7883.13
597.463	7978.04
597.822	8026.85
598.18	7951.37
598.538	7978.26
598.897	7986.17
599.255	7904.14
599.613	8060.3
599.972	7954.31
600.33	8018.49
600.688	8030.01
601.046	8081.09
601.404	8056.68
601.762	8045.83
602.12	8121.76
602.478	8082.22
602.836	8082.89
603.194	8122.22
603.552	8097.58
603.91	8063.69
604.268	8123.8
604.625	8046.96
604.983	8051.94
605.341	8060.52
605.698	8164.47
606.056	8107.75
606.413	8106.62
606.771	8100.07
607.128	8141.42
607.485	8111.14
607.843	8112.05
608.2	8194.98
608.557	8133.97
608.914	8107.98
609.272	8229.11
609.629	8171.93
609.986	8230.24
610.343	8249.9
610.7	8261.42
611.057	8242.44
611.414	8194.98
611.771	8264.81
612.127	8251.25
612.484	8240.63
612.841	8293.51
613.198	8277.69
613.554	8302.55
613.911	8349.78
614.267	8262.78
614.624	8324.92
614.98	8247.18
615.337	8334.64
615.693	8413.96
616.05	8333.96
616.406	8392.72
616.762	8337.35
617.118	8384.58
617.475	8349.1
617.831	8427.97
618.187	8385.26
618.543	8375.77
618.899	8432.72
619.255	8429.33
619.611	8427.97
619.967	8427.07
620.323	8492.38
620.678	8454.18
621.034	8371.93
621.39	8457.12
621.746	8449.66
622.101	8483.79
622.457	8399.95
622.812	8413.73
623.168	8509.55
623.523	8436.33
623.879	8534.86
624.234	8395.88
624.589	8415.77
624.945	8428.2
625.3	8428.87
625.655	8422.09
626.01	8467.29
626.365	8439.5
626.72	8458.7
627.075	8450.57
627.43	8458.7
627.785	8425.26
628.14	8419.84
628.495	8457.12
628.85	8426.39
629.205	8366.73
629.559	8406.05
629.914	8388.65
630.269	8446.5
630.623	8402.21
630.978	8411.47
631.332	8403.11
631.687	8389.33
632.041	8341.19
632.396	8309.56
632.75	8390.68
633.104	8329.22
633.459	8308.88
633.813	8281.99
634.167	8258.94
634.521	8300.74
634.875	8312.95
635.229	8317.24
635.583	8258.71
635.937	8247.41
636.291	8220.97
636.645	8292.83
636.999	8183.46
637.352	8293.96
637.706	8248.54
638.06	8210.12
638.413	8176.23
638.767	8211.03
639.121	8171.03
639.474	8146.4
639.828	8087.64
640.181	8153.4
640.534	8176.9
640.888	8052.84
641.241	8087.19
641.594	8093.06
641.947	8137.81
642.301	8097.81
642.654	8091.26
643.007	8124.48
643.36	8058.04
643.713	8065.27
644.066	8106.4
644.419	8057.81
644.771	8053.29
645.124	7905.05
645.477	7916.57
645.83	7872.28
646.182	7861.66
646.535	7896.69
646.888	7840.42
647.24	7731.72
647.593	7820.75
647.945	7828.89
648.298	7772.17
648.65	7751.15
649.002	7762.23
649.355	7802.9
649.707	7781.89
650.059	7794.31
650.411	7893.52
650.763	7920.87
651.115	7939.62
651.467	7950.24
651.819	7934.65
652.171	8018.94
652.523	7955.67
652.875	7951.15
653.227	7919.06
653.578	7960.64
653.93	7943.69
654.282	7875.89
654.633	7885.16
654.985	7951.6
655.337	7956.8
655.688	7943.92
656.039	7995.44
656.391	7903.01
656.742	7866.63
657.094	7917.02
657.445	7974.88
657.796	7890.81
658.147	7940.3
658.498	7931.71
658.849	7936.23
659.2	7959.28
659.551	7903.24
659.902	7961.99
660.253	7976.23
660.604	7925.84
660.955	7894.88
661.306	7936.91
661.656	7914.54
662.007	7971.49
662.358	7959.96
662.708	7917.25
663.059	7956.34
663.409	7902.11
663.76	7988.89
664.11	7879.06
664.461	7991.15
664.811	7984.14
665.161	7976.23
665.511	7919.06
665.862	7929.45
666.212	7960.64
666.562	8033.4
666.912	7969.9
667.262	7912.05
667.612	7925.61
667.962	7908.66
668.312	7921.54
668.662	7983.24
669.011	7907.53
669.361	7928.77
669.711	7919.51
670.06	7929.68
670.41	7932.84
670.76	7852.62
671.109	7961.32
671.459	7919.96
671.808	7862.34
672.157	7941.88
672.507	7810.59
672.856	7840.19
673.205	7910.92
673.554	7887.65
673.904	7782.56
674.253	7863.69
674.602	7830.02
674.951	7729.68
675.3	7713.86
675.649	7839.96
675.998	7814.43
676.346	7815.11
676.695	7866.63
677.044	7759.29
677.393	7802.22
677.741	7805.39
678.09	7813.07
678.438	7721.32
678.787	7728.55
679.135	7752.28
679.484	7657.82
679.832	7773.3
680.181	7724.03
680.529	7749.8
680.877	7721.55
681.225	7662.34
681.573	7736.92
681.922	7707.09
682.27	7643.81
682.618	7578.05
682.966	7618.5
683.314	7640.87
683.661	7571.5
684.009	7559.07
684.357	7522.01
684.705	7508.9
685.053	7478.84
685.4	7539.41
685.748	7495.34
686.095	7497.6
686.443	7442.01
686.79	7405.17
687.138	7459.86
687.485	7446.53
687.832	7409.69
688.18	7474.32
688.527	7361.33
688.874	7360.43
689.221	7314.33
689.568	7260.32
689.915	7268.45
690.262	7292.18
690.609	7291.5
690.956	7206.31
691.303	7256.93
691.65	7188.68
691.997	7239.98
692.344	7172.86
692.69	7121.34
693.037	7126.76
693.383	7035.24
693.73	7073.88
694.077	7030.49
694.423	7070.27
694.769	6999.31
695.116	6977.84
695.462	6960.66
695.808	6930.83
696.155	6980.32
696.501	6857.16
696.847	6855.36
697.193	6778.75
697.539	6837.05
697.885	6773.55
698.231	6786.66
698.577	6711.41
698.923	6743.72
699.269	6718.64
699.614	6639.09
699.96	6655.14
700.306	6585.53
700.651	6576.27
700.997	6568.58
701.342	6576.49
701.688	6505.08
702.033	6514.8
702.379	6486.1
702.724	6479.1
703.069	6499.43
703.415	6462.37
703.76	6401.81
704.105	6395.26
704.45	6386.67
704.795	6340.12
705.14	6373.34
705.485	6343.28
705.83	6250.85
706.175	6300.34
706.52	6244.75
706.865	6248.14
707.209	6260.57
707.554	6224.41
707.899	6214.7
708.243	6160.69
708.588	6159.56
708.932	6162.49
709.277	6150.52
709.621	6134.47
709.966	6091.53
710.31	6096.28
710.654	6064.42
710.998	6082.27
711.342	6066.68
711.687	6023.06
712.031	6007.7
712.375	6047.02
712.719	6037.07
713.063	5989.39
713.407	5998.66
713.75	5922.27
714.094	5977.19
714.438	5907.58
714.782	5966.79
715.125	5935.15
715.469	5910.3
715.812	5890.86
716.156	5869.39
716.499	5847.25
716.843	5871.65
717.186	5819.23
717.53	5896.74
717.873	5821.26
718.216	5827.59
718.559	5804.31
718.902	5746.46
719.246	5818.32
719.589	5803.63
719.932	5732.45
720.275	5770.64
720.617	5718.44
720.96	5753.01
721.303	5757.08
721.646	5802.28
721.989	5755.5
722.331	5765.89
722.674	5679.34
723.016	5695.61
723.359	5676.18
723.701	5646.12
724.044	5699.45
724.386	5642.96
724.729	5696.97
725.071	5666.91
725.413	5669.62
725.755	5703.07
726.097	5653.35
726.439	5677.76
726.782	5603.64
727.124	5659.68
727.465	5583.07
727.807	5632.56
728.149	5628.95
728.491	5637.08
728.833	5665.78
729.175	5635.73
729.516	5640.25
729.858	5631.66
730.199	5632.34
730.541	5643.86
730.882	5653.81
731.224	5640.7
731.565	5657.42
731.906	5668.27
732.248	5608.61
732.589	5572.23
732.93	5597.08
733.271	5622.17
733.612	5631.89
733.953	5597.54
734.294	5609.29
734.635	5552.34
734.976	5657.87
735.317	5546.01
735.658	5621.04
735.999	5637.08
736.339	5593.24
736.68	5634.6
737.021	5571.77
737.361	5560.7
737.702	5635.28
738.042	5647.25
738.383	5623.3
738.723	5670.08
739.063	5648.16
739.404	5626.91
739.744	5645.44
740.084	5610.87
740.424	5645.67
740.764	5640.02
741.104	5681.6
741.444	5660.36
741.784	5623.07
742.124	5761.6
742.464	5716.63
742.804	5689.74
743.143	5729.96
743.483	5742.17
743.823	5678.66
744.162	5790.53
744.502	5785.33
744.841	5804.99
745.181	5813.8
745.52	5813.58
745.86	5873.91
746.199	5861.03
746.538	5915.72
746.877	5959.11
747.216	6021.25
747.556	6014.47
747.895	6029.39
748.234	6058.54
748.573	6114.36
748.911	6159.1
749.25	6216.96
749.589	6175.15
749.928	6307.8
750.267	6298.76
750.605	6345.99
750.944	6423.05
751.283	6447.46
751.621	6473.9
751.96	6639.54
752.298	6613.33
752.636	6701.91
752.975	6695.59
753.313	6847
753.651	6960.89
753.989	6975.13
754.327	7065.75
754.666	7072.07
755.004	7219.87
755.342	7288.11
755.679	7348.68
756.017	7514.77
756.355	7616.92
756.693	7675.45
757.031	7799.74
757.368	7831.15
757.706	7954.08
758.044	8042.67
758.381	8171.03
758.719	8296.67
759.056	8399.27
759.394	8504.13
759.731	8586.84
760.068	8708.64
760.405	8853.95
760.743	8898.24
761.08	9082.64
761.417	9169.65
761.754	9265.24
762.091	9429.3
762.428	9530.77
762.765	9558.11
763.102	9792.68
763.438	9876.97
763.775	9956.07
764.112	10078.32
764.449	10265.66
764.785	10336.39
765.122	10408.48
765.458	10499.78
765.795	10576.84
766.131	10672.66
766.467	10789.26
766.804	10827.68
767.14	10978.19
767.476	11070.61
767.812	11086.21
768.148	11323.04
768.485	11294.79
768.821	11355.35
769.157	11475.8
769.492	11571.16
769.828	11689.58
770.164	11699.07
770.5	11765.51
770.836	11852.29
771.171	11847.99
771.507	12047.08
771.842	11963.92
772.178	12067.65
772.513	12143.13
772.849	12184.48
773.184	12268.1
773.519	12293.18
773.855	12314.42
774.19	12412.72
774.525	12403.69
774.86	12535.43
775.195	12502.67
775.53	12553.74
775.865	12477.36
776.2	12558.94
776.535	12428.54
776.87	12620.85
777.205	12618.59
777.539	12683
777.874	12656.33
778.209	12655.43
778.543	12718.93
778.878	12728.65
779.212	12793.73
779.547	12678.03
779.881	12826.5
780.215	12770.68
780.55	12839.61
780.884	12746.73
781.218	12818.82
781.552	12783.34
781.886	12809.78
782.22	12709.67
782.554	12773.84
782.888	12733.62
783.222	12712.15
783.556	12645.26
783.889	12648.2
784.223	12599.16
784.557	12650.46
784.89	12717.35
785.224	12662.44
785.557	12612.27
785.891	12517.81
786.224	12565.94
786.558	12556
786.891	12458.15
787.224	12449.11
787.557	12505.38
787.891	12523.68
788.224	12533.17
788.557	12552.16
788.89	12496.56
789.223	12458.15
789.556	12395.78
789.888	12404.14
790.221	12379.96
790.554	12334.31
790.887	12324.37
791.219	12281.65
791.552	12308.77
791.884	12272.84
792.217	12290.24
792.549	12203.92
792.882	12220.87
793.214	12158.49
793.546	12141.77
793.879	12110.59
794.211	12004.15
794.543	12153.07
794.875	12076.46
795.207	12149.68
795.539	12052.96
795.871	12009.8
796.203	11935.45
796.535	11854.55
796.867	11873.98
797.198	11866.52
797.53	11877.15
797.862	11827.43
798.193	11779.75
798.525	11746.75
798.856	11716.02
799.188	11620.88
799.519	11626.76
799.85	11560.32
800.182	11563.48
800.513	11552.86
800.844	11528.91
801.175	11596.47
801.506	11545.63
801.837	11431.51
802.168	11473.31
802.499	11362.36
802.83	11392.41
803.161	11391.06
803.491	11378.63
803.822	11393.09
804.153	11273.55
804.483	11261.34
804.814	11207.78
805.145	11177.05
805.475	11169.37
805.805	11109.93
806.136	11173.66
806.466	11142.93
806.796	11105.41
807.126	11072.87
807.457	10998.52
807.787	11038.52
808.117	11060.67
808.447	10995.81
808.777	10940.67
809.107	10895.7
809.436	10936.38
809.766	10919.66
810.096	10831.07
810.426	10820.45
810.755	10842.6
811.085	10799.43
811.414	10813.67
811.744	10631.75
812.073	10751.3
812.403	10739.32
812.732	10611.42
813.061	10575.26
813.39	10534.13
813.719	10605.09
814.049	10592.21
814.378	10579.1
814.707	10511.98
815.036	10602.6
815.365	10535.71
815.693	10363.96
816.022	10410.29
816.351	10374.36
816.68	10420.69
817.008	10405.77
817.337	10302.5
817.665	10263.4
817.994	10389.5
818.322	10315.6
818.651	10285.32
818.979	10269.28
819.307	10297.3
819.636	10276.51
819.964	10206.68
820.292	10259.79
820.62	10269.96
820.948	10197.19
821.276	10311.31
821.604	10238.09
821.932	10212.56
822.259	10136.17
822.587	10160.13
822.915	10170.75
823.243	10126.91
823.57	10149.73
823.898	10128.72
824.225	10193.57
824.553	10138.89
824.88	10160.13
825.207	10180.92
825.535	10146.12
825.862	10180.24
826.189	10133.91
826.516	10195.16
826.843	10200.58
827.17	10217.75
827.497	10167.36
827.824	10179.79
828.151	10272.22
828.478	10230.63
828.805	10238.09
829.131	10114.93
829.458	10093.46
829.785	10095.27
830.111	10175.27
830.438	10220.47
830.764	10142.95
831.09	10206.23
831.417	10135.04
831.743	10138.43
832.069	10140.02
832.395	10091.88
832.722	10184.08
833.048	10102.95
833.374	10192.22
833.7	10095.27
834.026	10123.97
834.351	10097.53
834.677	10121.49
835.003	10105.89
835.329	10102.95
835.654	10083.75
835.98	10036.29
836.306	10083.75
836.631	10027.93
836.956	10036.29
837.282	10016.18
837.607	9996.06
837.932	10000.36
838.258	10015.73
838.583	9953.58
838.908	9874.94
839.233	9933.47
839.558	9902.28
839.883	9880.36
840.208	9976.63
840.533	9848.72
840.858	9861.15
841.182	9844.43
841.507	9747.26
841.832	9771.89
842.156	9794.94
842.481	9795.84
842.805	9785.67
843.13	9716.75
843.454	9702.06
843.778	9615.28
844.103	9598.79
844.427	9624.78
844.751	9583.65
845.075	9611.22
845.399	9566.7
845.723	9466.81
846.047	9535.29
846.371	9412.58
846.695	9447.15
847.019	9385.01
847.343	9317.44
847.666	9323.77
847.99	9276.31
848.313	9276.76
848.637	9142.98
848.96	9215.29
849.284	9106.37
849.607	9095.98
849.931	9053.04
850.254	9012.59
850.577	8945.02
850.9	8904.57
851.223	8968.3
851.546	8842.2
851.869	8803.33
852.192	8876.32
852.515	8795.42
852.838	8784.12
853.161	8710.67
853.483	8734.63
853.806	8663.9
854.129	8653.05
854.451	8592.94
854.774	8519.95
855.096	8605.59
855.419	8553.84
855.741	8524.92
856.063	8458.03
856.385	8423.22
856.708	8460.29
857.03	8401.08
857.352	8457.35
857.674	8404.69
857.996	8331.7
858.318	8312.95
858.64	8234.53
858.961	8307.52
859.283	8302.32
859.605	8276.56
859.926	8206.51
860.248	8178.49
860.57	8150.46
860.891	8157.92
861.212	8126.51
861.534	8133.29
861.855	8082.67
862.176	8079.73
862.498	8071.82
862.819	8090.13
863.14	8039.73
863.461	8021.88
863.782	8002.44
864.103	7978.94
864.424	7993.63
864.745	8001.54
865.065	7944.82
865.386	7894.65
865.707	7928.1
866.027	7927.19
866.348	7910.92
866.668	7945.95
866.989	7898.72
867.309	7798.61
867.63	7878.15
867.95	7880.19
868.27	7769.68
868.59	7798.16
868.91	7747.76
869.23	7787.54
869.55	7672.96
869.87	7769.91
870.19	7764.94
870.51	7707.09
870.83	7773.75
871.15	7650.14
871.469	7676.35
871.789	7691.94
872.109	7689.91
872.428	7630.48
872.748	7616.69
873.067	7620.08
873.386	7617.37
873.706	7603.13
874.025	7482.68
874.344	7593.64
874.663	7513.87
874.982	7545.51
875.301	7526.98
875.62	7512.51
875.939	7478.16
876.258	7569.24
876.577	7454.66
876.896	7467.77
877.214	7368.34
877.533	7444.49
877.852	7430.93
878.17	7400.43
878.489	7449.69
878.807	7410.37
879.125	7444.27
879.444	7364.5
879.762	7316.14
880.08	7369.92
880.398	7341.22
880.716	7318.17
881.034	7260.32
881.352	7357.26
881.67	7322.46
881.988	7289.7
882.306	7273.65
882.624	7269.81
882.941	7224.61
883.259	7176.93
883.577	7176.25
883.894	7213.77
884.212	7137.16
884.529	7117.72
884.846	7098.74
885.164	7148.68
885.481	7095.58
885.798	7115.91
886.115	7051.51
886.432	7047.22
886.75	6997.05
887.067	7081.57
887.383	6954.11
887.7	6979.87
888.017	6990.27
888.334	6971.74
888.651	6964.96
888.967	6925.41
889.284	6886.99
889.6	6895.81
889.917	6863.49
890.233	6834.57
890.55	6784.4
890.866	6792.08
891.182	6739.2
891.498	6719.09
891.815	6707.34
892.131	6719.09
892.447	6725.19
892.763	6725.19
893.079	6669.6
893.395	6566.55
893.71	6641.58
894.026	6585.31
894.342	6562.48
894.657	6571.52
894.973	6531.3
895.289	6496.5
895.604	6503.28
895.92	6478.19
896.235	6435.25
896.55	6439.55
896.865	6430.51
897.181	6462.15
897.496	6407.68
897.811	6391.19
898.126	6384.86
898.441	6342.6
898.756	6274.35
899.071	6277.52
899.386	6299.66
899.7	6206.11
900.015	6158.65
900.33	6190.52
900.644	6161.14
900.959	6120.23
901.273	6128.6
901.588	6094.7
901.902	6058.77
902.216	6063.06
902.531	6054.02
902.845	6000.46
903.159	5963.4
903.473	5989.39
903.787	5953.91
904.101	5883.4
904.415	5896.06
904.729	5902.61
905.042	5865.55
905.356	5845.67
905.67	5828.72
905.984	5805.67
906.297	5810.86
906.611	5712.34
906.924	5704.2
907.237	5707.59
907.551	5713.92
907.864	5664.43
908.177	5638.21
908.491	5590.3
908.804	5596.63
909.117	5544.66
909.43	5567.71
909.743	5501.72
910.056	5525.9
910.368	5471.89
910.681	5441.16
910.994	5461.04
911.307	5475.28
911.619	5402.51
911.932	5379.92
912.244	5334.27
912.557	5340.59
912.869	5310.31
913.181	5277.09
913.494	5310.76
913.806	5280.03
914.118	5184.67
914.43	5188.28
914.742	5202.07
915.054	5190.09
915.366	5180.15
915.678	5164.1
915.99	5171.33
916.302	5092.69
916.613	5072.8
916.925	5046.82
917.236	5056.53
917.548	5020.83
917.859	5005.24
918.171	4974.05
918.482	4958.68
918.794	4939.7
919.105	4917.78
919.416	4926.82
919.727	4908.74
920.038	4866.03
920.349	4866.26
920.66	4846.82
920.971	4857.44
921.282	4844.11
921.593	4766.15
921.903	4765.47
922.214	4742.42
922.525	4682.76
922.835	4658.58
923.146	4666.71
923.456	4657.45
923.767	4670.33
924.077	4632.59
924.387	4596.88
924.697	4564.8
925.008	4555.98
925.318	4569.09
925.628	4531.8
925.938	4542.87
926.248	4476.44
926.558	4507.17
926.867	4438.02
927.177	4428.75
927.487	4407.96
927.796	4403.44
928.106	4382.2
928.416	4346.72
928.725	4359.38
929.034	4293.62
929.344	4334.97
929.653	4332.71
929.962	4273.5
930.271	4255.65
930.581	4264.24
930.89	4179.95
931.199	4181.08
931.508	4185.82
931.817	4178.14
932.125	4167.74
932.434	4172.94
932.743	4145.82
933.051	4103.34
933.36	4120.29
933.669	4045.03
933.977	4080.51
934.286	4009.1
934.594	4046.62
934.902	4050.91
935.21	3968.88
935.519	3966.17
935.827	3968.2
936.135	3960.52
936.443	3884.14
936.751	3975.66
937.059	3924.59
937.367	3868.99
937.674	3890.91
937.982	3825.83
938.29	3850.01
938.597	3839.39
938.905	3823.35
939.213	3755.1
939.52	3761.88
939.827	3779.51
940.135	3741.99
940.442	3721.88
940.749	3709.45
941.056	3715.1
941.363	3652.05
941.67	3698.15
941.977	3673.07
942.284	3622.45
942.591	3597.14
942.898	3624.93
943.205	3624.93
943.511	3596.01
943.818	3565.27
944.125	3605.5
944.431	3478.95
944.738	3521.88
945.044	3470.13
945.35	3477.82
945.657	3456.35
945.963	3447.99
946.269	3415.67
946.575	3407.31
946.881	3430.36
947.187	3367.31
947.493	3399.63
947.799	3350.59
948.105	3354.21
948.41	3358.5
948.716	3377.48
949.022	3337.03
949.327	3305.85
949.633	3336.58
949.938	3284.6
950.244	3273.3
950.549	3221.1
950.854	3230.14
951.16	3213.87
951.465	3236.92
951.77	3177.49
952.075	3165.74
952.38	3169.58
952.685	3171.39
952.99	3139.52
953.294	3151.73
953.599	3080.54
953.904	3109.92
954.209	3076.47
954.513	3084.83
954.818	3046.19
955.122	3074.66
955.426	3059.07
955.731	3057.04
956.035	3031.05
956.339	3023.37
956.643	3033.54
956.948	2984.27
957.252	2972.75
957.556	2958.28
957.86	2930.71
958.163	2928.68
958.467	2874.67
958.771	2904.5
959.075	2927.78
959.378	2869.7
959.682	2891.17
959.985	2857.5
960.289	2861.34
960.592	2824.5
960.896	2819.08
961.199	2814.56
961.502	2832.86
961.805	2798.97
962.108	2753.77
962.411	2795.35
962.714	2773.88
963.017	2774.11
963.32	2763.26
963.623	2730.95
963.926	2704.51
964.228	2686.65
964.531	2702.92
964.833	2661.34
965.136	2662.47
965.438	2643.04
965.741	2648.46
966.043	2635.81
966.345	2617.05
966.648	2570.95
966.95	2612.98
967.252	2602.59
967.554	2593.32
967.856	2603.49
968.158	2524.85
968.46	2556.03
968.761	2545.64
969.063	2534.11
969.365	2527.11
969.666	2510.61
969.968	2502.93
970.269	2481.23
970.571	2451.4
970.872	2478.75
971.174	2445.98
971.475	2471.52
971.776	2431.74
972.077	2417.73
972.378	2413.67
972.679	2382.71
972.98	2416.83
973.281	2390.16
973.582	2372.54
973.883	2347.45
974.183	2323.27
974.484	2346.55
974.785	2328.02
975.085	2325.98
975.386	2339.32
975.686	2314.23
975.986	2284.18
976.287	2319.2
976.587	2297.74
976.887	2280.34
977.187	2283.73
977.487	2260
977.787	2236.72
978.087	2231.07
978.387	2218.19
978.687	2211.18
978.987	2177.97
979.286	2202.15
979.586	2177.51
979.885	2175.71
980.185	2142.03
980.484	2145.65
980.784	2147.68
981.083	2143.39
981.382	2151.3
981.682	2117.4
981.981	2135.93
982.28	2089.15
982.579	2084.63
982.878	2090.51
983.177	2094.13
983.475	2082.37
983.774	2053
984.073	2072.88
984.372	2047.12
984.67	2048.03
984.969	2043.96
985.267	2032.21
985.566	2020.46
985.864	2006.44
986.162	2002.83
986.461	1987.69
986.759	1978.65
987.057	1986.11
987.355	1979.55
987.653	1901.36
987.951	1949.04
988.249	1946.11
988.547	1916.5
988.844	1944.07
989.142	1901.59
989.44	1901.14
989.737	1881.48
990.035	1865.66
990.332	1843.51
990.63	1852.55
990.927	1876.05
991.224	1853.91
991.521	1857.97
991.819	1818.65
992.116	1821.36
992.413	1823.17
992.71	1797.41
993.006	1817.52
993.303	1818.43
993.6	1786.11
993.897	1791.53
994.193	1786.11
994.49	1782.04
994.787	1744.98
995.083	1730.29
995.379	1777.52
995.676	1730.75
995.972	1703.85
996.268	1705.44
996.565	1707.7
996.861	1700.01
997.157	1682.61
997.453	1664.08
997.749	1663.63
998.044	1665.89
998.34	1646
998.636	1638.32
998.932	1649.62
999.227	1617.08
999.523	1650.3
999.818	1599.22
1000.114	1619.34
1000.409	1604.65
1000.704	1578.89
1001	1571.43
1001.295	1584.53
1001.59	1588.38
1001.885	1550.64
1002.18	1550.86
1002.475	1539.11
1002.77	1541.82
1003.065	1535.72
1003.359	1530.52
1003.654	1539.11
1003.949	1506.57
1004.243	1493.01
1004.538	1498.66
1004.832	1506.34
1005.127	1451.2
1005.421	1497.76
1005.715	1478.77
1006.009	1445.1
1006.304	1435.61
1006.598	1460.7
1006.892	1422.28
1007.186	1422.73
1007.48	1424.54
1007.773	1439.23
1008.067	1387.93
1008.361	1388.83
1008.655	1365.56
1008.948	1375.73
1009.242	1374.6
1009.535	1359.68
1009.829	1347.7
1010.122	1363.07
1010.415	1349.74
1010.708	1337.31
1011.001	1361.04
1011.295	1315.39
1011.588	1301.38
1011.881	1295.73
1012.173	1295.28
1012.466	1301.38
1012.759	1300.47
1013.052	1277.65
1013.344	1287.37
1013.637	1274.26
1013.93	1275.39
1014.222	1244.43
1014.514	1255.5
1014.807	1236.07
1015.099	1258.22
1015.391	1241.94
1015.683	1212.79
1015.976	1219.8
1016.268	1213.02
1016.56	1208.27
1016.851	1185
1017.143	1177.77
1017.435	1183.42
1017.727	1191.78
1018.018	1165.79
1018.31	1166.24
1018.602	1184.77
1018.893	1146.13
1019.185	1149.52
1019.476	1158.78
1019.767	1109.52
1020.058	1127.15
1020.35	1125.79
1020.641	1105.45
1020.932	1132.34
1021.223	1081.05
1021.514	1088.5
1021.804	1091.89
1022.095	1077.2
1022.386	1071.55
1022.677	1061.61
1022.967	1052.57
1023.258	1044.44
1023.548	1036.3
1023.839	1048.96
1024.129	1053.93
1024.419	1017.09
1024.709	1010.09
1025	1010.31
1025.29	1008.5
1025.58	1018.67
1025.87	1008.05
1026.16	996.98
1026.449	970.99
1026.739	966.25
1027.029	999.69
1027.319	959.24
1027.608	973.48
1027.898	962.4
1028.187	931.22
1028.477	954.27
1028.766	940.71
1029.055	910.65
1029.344	929.86
1029.634	915.63
1029.923	921.05
1030.212	902.97
1030.501	883.08
1030.79	921.28
1031.078	892.58
1031.367	877.43
1031.656	886.7
1031.945	860.49
1032.233	865.46
1032.522	870.66
1032.81	861.16
1033.099	838.57
1033.387	879.92
1033.675	857.32
1033.963	845.57
1034.251	852.12
1034.54	849.19
1034.828	812.35
1035.116	824.78
1035.403	821.84
1035.691	802.18
1035.979	822.75
1036.267	798.11
1036.554	792.92
1036.842	813.48
1037.129	807.38
1037.417	789.98
1037.704	791.11
1037.992	788.85
1038.279	794.5
1038.566	744.56
1038.853	744.56
1039.14	744.56
