Data from hue_70_FLMS001491_35.txt Node
Date: Mon Feb 06 15:20:46 GMT 2017
User: dcchb
Spectrometer: FLMS00149
Trigger mode: 0
Integration Time (sec): 2.000000E-2
Scans to average: 10
Electric dark correction enabled: true
Nonlinearity correction enabled: false
Boxcar width: 0
XAxis mode: Wavelengths
Number of Pixels in Spectrum: 2048
>>>>>Begin Spectral Data<<<<<
341.393	-27.68
341.776	-27.68
342.16	-27.68
342.543	-70.39
342.927	-87.57
343.31	-56.61
343.693	-61.35
344.077	-45.99
344.46	-72.65
344.843	-52.77
345.226	-49.83
345.61	-38.08
345.993	-15.03
346.376	0.56
346.759	-9.83
347.142	20.23
347.525	19.55
347.908	60.22
348.291	76.72
348.674	95.93
349.057	128.92
349.44	119.88
349.823	151.52
350.206	181.8
350.588	210.73
350.971	207.79
351.354	212.31
351.737	243.27
352.119	261.8
352.502	259.99
352.884	282.82
353.267	286.21
353.65	311.74
354.032	293.66
354.414	322.59
354.797	325.3
355.179	314.46
355.562	316.49
355.944	327.34
356.326	316.94
356.709	324.62
357.091	351.29
357.473	336.38
357.855	323.95
358.238	323.72
358.62	334.57
359.002	327.34
359.384	327.11
359.766	315.36
360.148	352.19
360.53	337.96
360.912	334.34
361.294	318.52
361.676	332.76
362.057	334.79
362.439	344.51
362.821	303.61
363.203	315.13
363.584	312.42
363.966	339.77
364.348	335.7
364.729	304.06
365.111	310.16
365.493	298.41
365.874	311.07
366.256	321.69
366.637	323.72
367.019	306.09
367.4	318.07
367.781	289.6
368.163	310.39
368.544	308.81
368.925	323.72
369.306	329.14
369.688	319.43
370.069	320.78
370.45	310.61
370.831	319.88
371.212	322.14
371.593	294.57
371.974	296.15
372.355	311.97
372.736	322.14
373.117	307.22
373.498	303.61
373.879	295.92
374.26	326.66
374.641	308.13
375.021	330.05
375.402	311.07
375.783	316.94
376.163	337.51
376.544	309.94
376.925	293.66
377.305	340.22
377.686	320.33
378.066	324.85
378.447	334.79
378.827	325.98
379.208	321.91
379.588	328.24
379.968	318.97
380.349	323.49
380.729	336.6
381.109	331.4
381.489	331.63
381.87	327.11
382.25	323.27
382.63	335.92
383.01	335.92
383.39	312.65
383.77	359.2
384.15	338.41
384.53	344.74
384.91	332.99
385.29	345.19
385.67	342.7
386.049	339.54
386.429	342.7
386.809	339.54
387.189	332.08
387.568	346.09
387.948	351.97
388.328	363.27
388.707	349.26
389.087	338.86
389.466	356.04
389.846	343.61
390.225	340.89
390.605	350.84
390.984	355.13
391.363	333.89
391.743	375.02
392.122	342.93
392.501	354.23
392.881	358.97
393.26	370.27
393.639	371.63
394.018	376.37
394.397	376.37
394.776	332.53
395.155	369.82
395.534	354.23
395.913	356.04
396.292	379.09
396.671	365.3
397.05	355.81
397.429	385.64
397.808	395.13
398.186	389.03
398.565	368.24
398.944	384.06
399.323	377.73
399.701	378.63
400.08	403.94
400.458	388.35
400.837	371.18
401.215	381.8
401.594	388.13
401.972	392.19
402.351	410.72
402.729	377.28
403.107	403.49
403.486	406.2
403.864	385.64
404.242	397.39
404.62	415.24
404.999	383.61
405.377	395.81
405.755	412.08
406.133	395.13
406.511	409.37
406.889	400.33
407.267	393.55
407.645	424.51
408.023	412.76
408.401	402.36
408.779	410.72
409.156	427.45
409.534	411.85
409.912	421.12
410.29	447.33
410.667	432.64
411.045	411.4
411.422	443.94
411.8	425.86
412.178	455.47
412.555	435.58
412.933	434.9
413.31	450.95
413.687	434.68
414.065	465.64
414.442	455.47
414.819	456.6
415.197	466.09
415.574	459.08
415.951	489.37
416.328	462.25
416.705	473.55
417.082	475.81
417.46	472.19
417.837	494.11
418.214	455.69
418.591	478.29
418.967	498.18
419.344	483.94
419.721	494.34
420.098	493.66
420.475	480.78
420.852	478.52
421.228	478.74
421.605	502.25
421.982	482.81
422.358	516.26
422.735	496.37
423.111	490.72
423.488	525.75
423.864	507.22
424.241	524.17
424.617	519.65
424.994	521.68
425.37	519.87
425.746	536.14
426.123	535.92
426.499	543.15
426.875	535.01
427.251	541.12
427.627	535.01
428.003	537.27
428.379	551.51
428.756	544.28
429.132	560.1
429.507	541.12
429.883	554.9
430.259	599.65
430.635	587.22
431.011	580.89
431.387	594.22
431.763	608.01
432.138	581.34
432.514	587.67
432.89	610.49
433.265	625.63
433.641	616.82
434.016	618.63
434.392	624.5
434.767	635.8
435.143	628.57
435.518	626.76
435.894	654.11
436.269	649.59
436.644	641
437.02	649.36
437.395	653.43
437.77	695.24
438.145	670.6
438.52	652.07
438.895	679.87
439.271	654.79
439.646	691.17
440.021	691.62
440.395	667.67
440.77	681.45
441.145	676.48
441.52	720.09
441.895	700.89
442.27	713.31
442.645	709.47
443.019	723.26
443.394	730.94
443.769	712.86
444.143	704.5
444.518	721.22
444.892	751.51
445.267	748.79
445.641	731.62
446.016	741.79
446.39	739.08
446.764	740.43
447.139	744.5
447.513	763.93
447.887	762.35
448.262	765.74
448.636	757.83
449.01	774.56
449.384	789.47
449.758	786.53
450.132	799.19
450.506	792.63
450.88	796.25
451.254	803.48
451.628	817.72
452.002	803.03
452.376	834.67
452.75	824.27
453.123	828.34
453.497	840.77
453.871	844.38
454.244	855.91
454.618	872.18
454.992	878.51
455.365	889.13
455.739	889.13
456.112	925.96
456.486	922.12
456.859	923.25
457.232	928
457.606	944.95
457.979	921.9
458.352	943.59
458.725	961.44
459.099	960.77
459.472	966.64
459.845	1012.74
460.218	1006.64
460.591	998.5
460.964	1027.66
461.337	1068.11
461.71	1044.38
462.083	1062.46
462.456	1073.08
462.829	1060.65
463.201	1091.84
463.574	1109.91
463.947	1109.46
464.32	1126.86
464.692	1140.42
465.065	1148.33
465.438	1165.51
465.81	1191.27
466.183	1200.53
466.555	1206.18
466.928	1256.35
467.3	1255.67
467.672	1252.06
468.045	1301.1
468.417	1299.29
468.789	1328.21
469.161	1366.4
469.534	1342.9
469.906	1391.94
470.278	1446.4
470.65	1441.88
471.022	1457.25
471.394	1498.38
471.766	1511.71
472.138	1536.8
472.51	1555.1
472.882	1643.23
473.253	1644.36
473.625	1642.78
473.997	1711.03
474.369	1722.78
474.74	1789.44
475.112	1808.43
475.484	1852.72
475.855	1927.07
476.227	1942.66
476.598	2003
476.97	2021.08
477.341	2097.91
477.713	2122.32
478.084	2185.82
478.455	2262.65
478.827	2339.94
479.198	2395.3
479.569	2410.9
479.94	2515.53
480.311	2570.89
480.682	2664.22
481.053	2728.18
481.424	2812.69
481.795	2869.64
482.166	2979.47
482.537	3029.41
482.908	3138.79
483.279	3213.36
483.65	3310.53
484.021	3441.15
484.391	3464.88
484.762	3569.51
485.133	3699
485.503	3776.06
485.874	3915.94
486.244	3995.71
486.615	4190.06
486.985	4211.75
487.356	4388.92
487.726	4436.15
488.097	4606.77
488.467	4684.06
488.837	4829.59
489.207	4933.54
489.578	5109.13
489.948	5233.2
490.318	5322.46
490.688	5458.27
491.058	5616.01
491.428	5729.91
491.798	5855.33
492.168	6047.41
492.538	6153.85
492.908	6257.58
493.278	6401.98
493.648	6494.63
494.017	6657.79
494.387	6821.85
494.757	6954.05
495.126	7130.1
495.496	7204.9
495.866	7354.72
496.235	7439.01
496.605	7647.82
496.974	7782.73
497.344	7918.55
497.713	8012.33
498.082	8124.19
498.452	8373.9
498.821	8440.34
499.19	8595.59
499.559	8708.81
499.928	8869.71
500.298	9033.32
500.667	9098.18
501.036	9121.23
501.405	9287.78
501.774	9435.8
502.143	9547.21
502.512	9758.95
502.88	9811.61
503.249	9816.8
503.618	10043.01
503.987	10095.44
504.356	10270.8
504.724	10327.53
505.093	10479.39
505.462	10575.2
505.83	10669.89
506.199	10871.01
506.567	10983.55
506.936	10962.08
507.304	11206.15
507.672	11249.99
508.041	11334.96
508.409	11546.7
508.777	11698.11
509.145	11770.88
509.514	11792.35
509.882	11900.37
510.25	12041.6
510.618	12148.27
510.986	12199.79
511.354	12295.61
511.722	12490.41
512.09	12573.79
512.458	12676.62
512.826	12804.97
513.193	12831.64
513.561	12986.21
513.929	13083.84
514.297	13317.5
514.664	13308.46
515.032	13400.66
515.4	13464.39
515.767	13598.17
516.135	13706.42
516.502	13642.01
516.869	13934.44
517.237	13928.56
517.604	13935.79
517.972	14104.37
518.339	14268.66
518.706	14231.83
519.073	14313.18
519.44	14423.69
519.808	14550.24
520.175	14552.27
520.542	14753.17
520.909	14845.37
521.276	14856.45
521.643	15098.47
522.009	15093.95
522.376	15244.46
522.743	15295.53
523.11	15414.4
523.477	15549.99
523.843	15663.88
524.21	15766.7
524.577	15856.87
524.943	15886.7
525.31	16037.43
525.676	16048.05
526.043	16222.96
526.409	16203.3
526.776	16414.14
527.142	16447.14
527.508	16484.2
527.874	16641.26
528.241	16707.92
528.607	16794.7
528.973	16896.39
529.339	16882.38
529.705	17031.53
530.071	17199.21
530.437	17251.86
530.803	17352.43
531.169	17412.08
531.535	17345.19
531.901	17408.02
532.267	17402.82
532.632	17455.93
532.998	17679.2
533.364	17651.63
533.73	17756.93
534.095	17775.92
534.461	17798.52
534.826	17977.04
535.192	17882.58
535.557	17979.98
535.923	17988.11
536.288	18095.46
536.653	18095.91
537.019	18065.4
537.384	18079.64
537.749	18142.91
538.114	18222.46
538.479	18253.42
538.845	18203.02
539.21	18232.85
539.575	18290.03
539.94	18466.07
540.305	18399.86
540.67	18389.69
541.034	18427.2
541.399	18451.38
541.764	18489.12
542.129	18490.93
542.494	18599.85
542.858	18463.81
543.223	18566.86
543.587	18660.19
543.952	18620.41
544.316	18679.85
544.681	18663.35
545.045	18705.61
545.41	18755.33
545.774	18685.27
546.138	18832.39
546.503	18800.3
546.867	18776.12
547.231	19014.75
547.595	18884.14
547.959	18929.33
548.324	18930.46
548.688	18906.06
549.052	18952.83
549.416	18984.02
549.779	18974.08
550.143	18995.77
550.507	19071.48
550.871	19146.73
551.235	19122.77
551.599	19193.96
551.962	19192.15
552.326	19313.96
552.689	19325.25
553.053	19260.85
553.417	19283.22
553.78	19465.14
554.143	19357.57
554.507	19407.74
554.87	19489.77
555.234	19706.94
555.597	19455.19
555.96	19562.54
556.323	19613.38
556.686	19621.97
557.05	19653.83
557.413	19689.31
557.776	19725.47
558.139	19862.64
558.502	19765.69
558.865	19840.95
559.228	19929.08
559.59	19929.53
559.953	19944.22
560.316	20122.52
560.679	20095.63
561.041	20198.9
561.404	20326.36
561.767	20434.6
562.129	20351.67
562.492	20416.98
562.854	20504.21
563.217	20584.88
563.579	20608.84
563.941	20590.76
564.304	20727.25
564.666	20901.71
565.028	20759.79
565.39	20943.29
565.753	20922.95
566.115	21005.21
566.477	21062.16
566.839	21069.62
567.201	21313.45
567.563	21273
567.925	21302.83
568.287	21303.51
568.648	21418.98
569.01	21578.08
569.372	21549.83
569.734	21605.42
570.095	21625.31
570.457	21750.73
570.819	21815.58
571.18	21741.91
571.542	21855.13
571.903	21878.18
572.265	21952.08
572.626	22003.15
572.987	22002.7
573.349	22062.36
573.71	22142.36
574.071	22164.05
574.432	22263.03
574.794	22423.25
575.155	22288.79
575.516	22237.04
575.877	22402.24
576.238	22378.28
576.599	22385.06
576.96	22467.77
577.32	22494.44
577.681	22626.64
578.042	22606.3
578.403	22628.44
578.763	22604.72
579.124	22672.06
579.485	22717.26
579.845	22851.26
580.206	22645.85
580.566	22737.82
580.927	22732.85
581.287	22713.19
581.648	22747.54
582.008	22819.4
582.368	22807.2
582.728	22836.35
583.089	22797.25
583.449	22828.67
583.809	22851.72
584.169	22821.66
584.529	22766.75
584.889	22969
585.249	22801.77
585.609	22817.37
585.969	22957.02
586.329	22784.37
586.688	22878.83
587.048	22875.22
587.408	22829.12
587.768	22938.04
588.127	22819.85
588.487	22845.84
588.846	22993.86
589.206	22843.81
589.565	22783.47
589.925	22851.72
590.284	22820.76
590.643	22836.35
591.003	22909.34
591.362	23098.94
591.721	22927.42
592.08	22739.85
592.44	22973.97
592.799	23013.52
593.158	22884.03
593.517	22884.93
593.876	22923.13
594.235	22969.68
594.593	22849.23
594.952	22921.54
595.311	22953.63
595.67	23026.4
596.029	22944.37
596.387	23025.5
596.746	22995.89
597.104	22997.02
597.463	22917.93
597.822	23050.13
598.18	22919.74
598.538	22985.27
598.897	23030.69
599.255	22844.94
599.613	23158.15
599.972	22927.42
600.33	23091.71
600.688	23041.99
601.046	23034.99
601.404	23253.74
601.762	23173.29
602.12	23263
602.478	23174.19
602.836	23235.89
603.194	22980.53
603.552	23317.01
603.91	23191.14
604.268	23176.45
604.625	23204.25
604.983	23347.07
605.341	23176
605.698	23263.68
606.056	23434.98
606.413	23262.33
606.771	23328.31
607.128	23416.67
607.485	23373.28
607.843	23347.07
608.2	23434.53
608.557	23628.42
608.914	23401.53
609.272	23590.68
609.629	23677
609.986	23791.35
610.343	23548.87
610.7	23771.47
611.057	23792.93
611.414	23733.73
611.771	23738.25
612.127	23845.14
612.484	23850.56
612.841	23822.76
613.198	23797
613.554	23924.23
613.911	23947.73
614.267	23977.79
614.624	23966.04
614.98	24097.33
615.337	24069.31
615.693	24145.69
616.05	24029.99
616.406	24191.79
616.762	24044.9
617.118	24065.24
617.475	24065.69
617.831	24189.53
618.187	24317.44
618.543	24214.62
618.899	24404.22
619.255	24307.27
619.611	24283.99
619.967	24337.78
620.323	24521.73
620.678	24298.68
621.034	24279.02
621.39	24255.75
621.746	24388.85
622.101	24645.34
622.457	24425.46
622.812	24522.86
623.168	24454.39
623.523	24505.91
623.879	24462.75
624.234	24461.84
624.589	24481.73
624.945	24620.03
625.3	24644.44
625.655	24490.32
626.01	24536.87
626.365	24511.33
626.72	24596.98
627.075	24479.7
627.43	24487.83
627.785	24589.75
628.14	24554.27
628.495	24475.18
628.85	24484.44
629.205	24508.17
629.559	24582.74
629.914	24619.8
630.269	24506.36
630.623	24361.28
630.978	24367.61
631.332	24471.33
631.687	24528.28
632.041	24432.69
632.396	24533.03
632.75	24305.01
633.104	24451.45
633.459	24300.04
633.813	24386.82
634.167	24348.17
634.521	24337.55
634.875	24290.32
635.229	24256.65
635.583	24206.48
635.937	24252.13
636.291	24122.87
636.645	24220.95
636.999	24121.96
637.352	24156.31
637.706	24084.23
638.06	24212.36
638.413	24120.16
638.767	24082.64
639.121	24141.17
639.474	23957.22
639.828	23980.95
640.181	24030.44
640.534	24030.22
640.888	24056.2
641.241	23937.34
641.594	23922.65
641.947	23962.65
642.301	23889.65
642.654	23869.09
643.007	23912.48
643.36	23881.97
643.713	23851.01
644.066	23931.69
644.419	23642.88
644.771	23578.7
645.124	23344.58
645.477	23329.44
645.83	23214.87
646.182	23249.22
646.535	23115.21
646.888	23171.26
647.24	22916.35
647.593	23105.95
647.945	23137.58
648.298	22873.86
648.65	23014.42
649.002	22911.6
649.355	22834.31
649.707	22885.84
650.059	22980.53
650.411	23206.06
650.763	23345.49
651.115	23584.13
651.467	23352.72
651.819	23496.67
652.171	23420.51
652.523	23479.5
652.875	23365.37
653.227	23277.92
653.578	23495.09
653.93	23421.42
654.282	23334.19
654.633	23248.09
654.985	23324.92
655.337	23351.59
655.688	23369.67
656.039	23392.49
656.391	23149.11
656.742	23388.88
657.094	23340.74
657.445	23460.51
657.796	23364.7
658.147	23319.95
658.498	23346.39
658.849	23309.56
659.2	23284.7
659.551	23237.69
659.902	23223.91
660.253	23289.67
660.604	23328.54
660.955	23272.5
661.306	23479.5
661.656	23339.61
662.007	23377.35
662.358	23292.38
662.708	23294.64
663.059	23324.92
663.409	23224.36
663.76	23423.45
664.11	23290.8
664.461	23302.78
664.811	23274.76
665.161	23298.94
665.511	23260.29
665.862	23227.07
666.212	23258.48
666.562	23245.6
666.912	23215.32
667.262	23265.26
667.612	23257.58
667.962	23326.51
668.312	23252.83
668.662	23325.38
669.011	23261.42
669.361	23229.11
669.711	23261.42
670.06	23252.83
670.41	23202.89
670.76	23260.07
671.109	23319.95
671.459	23207.19
671.808	23200.18
672.157	23211.48
672.507	23071.14
672.856	23101.43
673.205	23177.81
673.554	23103.01
673.904	23084.93
674.253	23178.94
674.602	23147.98
674.951	22728.55
675.3	22553.42
675.649	22991.6
675.998	22995.44
676.346	22941.43
676.695	23093.74
677.044	22886.52
677.393	22980.53
677.741	22958.61
678.09	22858.72
678.438	22815.78
678.787	22853.07
679.135	22846.29
679.484	22762.68
679.832	22844.71
680.181	22646.3
680.529	22648.33
680.877	22677.71
681.225	22680.87
681.573	22801.55
681.922	22589.12
682.27	22523.14
682.618	22580.99
682.966	22501.67
683.314	22535.57
683.661	22488.79
684.009	22364.95
684.357	22277.04
684.705	22316.81
685.053	22292.18
685.4	22129.7
685.748	22140.32
686.095	22118.63
686.443	21974
686.79	21976.26
687.138	22018.29
687.485	22041.79
687.832	21855.58
688.18	21906.88
688.527	21709.6
688.874	21789.6
689.221	21684.51
689.568	21661.46
689.915	21630.28
690.262	21599.09
690.609	21540.56
690.956	21418.53
691.303	21376.27
691.65	21358.87
691.997	21254.7
692.344	21207.46
692.69	21148.03
693.037	21209.05
693.383	20956.17
693.73	21098.32
694.077	20944.42
694.423	20881.37
694.769	20848.38
695.116	20831.2
695.462	20743.97
695.808	20674.15
696.155	20665.78
696.501	20495.39
696.847	20527.93
697.193	20313.03
697.539	20440.48
697.885	20305.12
698.231	20212.69
698.577	20227.6
698.923	20170.88
699.269	20032.58
699.614	19918.46
699.96	19855.64
700.306	19870.55
700.651	19746.94
700.997	19691.8
701.342	19600.5
701.688	19648.18
702.033	19566.83
702.379	19438.7
702.724	19500.84
703.069	19482.99
703.415	19324.58
703.76	19309.44
704.105	19286.84
704.45	19301.98
704.795	19070.57
705.14	18978.37
705.485	19053.17
705.83	19000.29
706.175	19056.79
706.52	18908.09
706.865	18852.27
707.209	18853.4
707.554	18719.39
707.899	18726.17
708.243	18606.4
708.588	18664.71
708.932	18437.82
709.277	18432.85
709.621	18518.27
709.966	18255.45
710.31	18311.5
710.654	18196.47
710.998	18275.56
711.342	18247.54
711.687	18231.95
712.031	18096.81
712.375	18058.17
712.719	18005.74
713.063	18008.45
713.407	18138.62
713.75	17980.43
714.094	17892.07
714.438	17875.58
714.782	17839.19
715.125	17789.7
715.469	17938.62
715.812	17748.12
716.156	17648.91
716.499	17740.66
716.843	17783.15
717.186	17537.73
717.53	17621.12
717.873	17582.7
718.216	17551.74
718.559	17481.91
718.902	17354.01
719.246	17472.42
719.589	17356.72
719.932	17324.4
720.275	17372.99
720.617	17354.91
720.96	17210.51
721.303	17206.44
721.646	17197.63
721.989	17160.34
722.331	17250.96
722.674	17104.07
723.016	17202.6
723.359	17121.7
723.701	17128.02
724.044	17006.67
724.386	16975.26
724.729	16970.06
725.071	17000.12
725.413	16993.34
725.755	16946.11
726.097	16915.83
726.439	16742.72
726.782	16870.4
727.124	16917.18
727.465	16769.16
727.807	16710.18
728.149	16757.19
728.491	16701.14
728.833	16784.98
729.175	16627.92
729.516	16696.62
729.858	16643.52
730.199	16646.91
730.541	16679.67
730.882	16643.29
731.224	16595.38
731.565	16610.52
731.906	16626.12
732.248	16589.73
732.589	16489.85
732.93	16448.04
733.271	16600.35
733.612	16568.04
733.953	16525.55
734.294	16487.14
734.635	16442.17
734.976	16554.48
735.317	16474.03
735.658	16430.42
735.999	16449.62
736.339	16400.81
736.68	16397.87
737.021	16416.86
737.361	16307.03
737.702	16374.82
738.042	16418.89
738.383	16446.46
738.723	16383.41
739.063	16295.28
739.404	16313.36
739.744	16323.07
740.084	16266.35
740.424	16367.14
740.764	16317.2
741.104	16370.76
741.444	16288.72
741.784	16288.27
742.124	16341.15
742.464	16307.48
742.804	16322.4
743.143	16332.34
743.483	16416.86
743.823	16241.95
744.162	16276.75
744.502	16309.97
744.841	16291.89
745.181	16423.18
745.52	16347.93
745.86	16448.27
746.199	16381.6
746.538	16406.24
746.877	16577.53
747.216	16516.51
747.556	16505.44
747.895	16500.92
748.234	16569.62
748.573	16640.58
748.911	16581.6
749.25	16637.87
749.589	16654.36
749.928	16696.4
750.267	16774.14
750.605	16701.82
750.944	16711.54
751.283	16712.89
751.621	16843.51
751.96	16831.08
752.298	16960.8
752.636	16968.71
752.975	17096.16
753.313	17023.39
753.651	17136.39
753.989	17110.17
754.327	17316.27
754.666	17169.61
755.004	17321.92
755.342	17412.31
755.679	17564.62
756.017	17457.28
756.355	17611.63
756.693	17578.86
757.031	17633.32
757.368	17699.53
757.706	17724.17
758.044	17799.87
758.381	17876.48
758.719	17953.77
759.056	18017.04
759.394	17961.9
759.731	17961
760.068	18102.24
760.405	18176.13
760.743	18085.29
761.08	18376.13
761.417	18242.8
761.754	18377.93
762.091	18370.48
762.428	18347.88
762.765	18340.65
763.102	18493.19
763.438	18445.5
763.775	18552.39
764.112	18618.61
764.449	18534.54
764.785	18625.39
765.122	18521.89
765.458	18588.78
765.795	18704.03
766.131	18668.55
766.467	18599.62
766.804	18631.94
767.14	18631.04
767.476	18707.64
767.812	18773.4
768.148	18829.45
768.485	18722.78
768.821	18707.19
769.157	18595.1
769.492	18701.32
769.828	18704.48
770.164	18676.01
770.5	18633.52
770.836	18592.62
771.171	18542.68
771.507	18620.41
771.842	18535.22
772.178	18558.04
772.513	18600.75
772.849	18476.46
773.184	18515.78
773.519	18527.31
773.855	18455.67
774.19	18365.51
774.525	18418.61
774.86	18457.03
775.195	18444.37
775.53	18388.33
775.865	18314.43
776.2	18207.32
776.535	18088
776.87	18093.87
777.205	18040.77
777.539	17987.44
777.874	18112.63
778.209	17896.82
778.543	17910.15
778.878	17834.67
779.212	17782.24
779.547	17751.96
779.881	17845.29
780.215	17770.04
780.55	17795.58
780.884	17537.05
781.218	17566.66
781.552	17599.42
781.886	17475.59
782.22	17432.42
782.554	17388.81
782.888	17220.9
783.222	17147.91
783.556	17119.89
783.889	17130.28
784.223	17111.08
784.557	16972.1
784.89	17098.19
785.224	16897.52
785.557	16878.54
785.891	16895.94
786.224	16755.83
786.558	16770.97
786.891	16644.65
787.224	16665.21
787.557	16630.64
787.891	16492.56
788.224	16524.42
788.557	16567.81
788.89	16462.05
789.223	16444.43
789.556	16335.05
789.888	16242.4
790.221	16208.73
790.554	16229.06
790.887	16156.98
791.219	16041.5
791.552	15962.86
791.884	15954.04
792.217	15890.32
792.549	15928.51
792.882	15731.22
793.214	15788.4
793.546	15791.56
793.879	15632.7
794.211	15568.07
794.543	15542.08
794.875	15496.88
795.207	15551.57
795.539	15395.19
795.871	15436.54
796.203	15322.42
796.535	15242.65
796.867	15242.65
797.198	15247.17
797.53	15178.24
797.862	15066.16
798.193	15111.58
798.525	14971.92
798.856	15049.21
799.188	14878.37
799.519	14766.05
799.85	14773.96
800.182	14753.17
800.513	14728.09
800.844	14665.94
801.175	14696.68
801.506	14629.11
801.837	14568.77
802.168	14558.6
802.499	14504.82
802.83	14453.07
803.161	14381.88
803.491	14369.45
803.822	14374.2
804.153	14251.49
804.483	14181.66
804.814	14018.5
805.145	14108.89
805.475	14172.4
805.805	14069.12
806.136	14102.57
806.466	14029.57
806.796	13919.97
807.126	13955.45
807.457	13860.54
807.787	13858.28
808.117	13813.08
808.447	13827.09
808.777	13798.62
809.107	13720.43
809.436	13776.7
809.766	13743.93
810.096	13654.44
810.426	13634.1
810.755	13628.46
811.085	13528.12
811.414	13524.96
811.744	13384.39
812.073	13401.34
812.403	13381.23
812.732	13218.97
813.061	13329.03
813.39	13166.77
813.719	13214.68
814.049	13174.91
814.378	13180.56
814.707	13051.07
815.036	13166.55
815.365	13065.08
815.693	12984.63
816.022	12961.58
816.351	12907.8
816.68	12895.37
817.008	12949.38
817.337	12850.85
817.665	12728.14
817.994	12738.08
818.322	12770.17
818.651	12720.46
818.979	12651.08
819.307	12672.55
819.636	12658.31
819.964	12685.88
820.292	12683.17
820.62	12646.79
820.948	12569.05
821.276	12562.49
821.604	12530.18
821.932	12570.63
822.259	12654.92
822.587	12573.12
822.915	12562.95
823.243	12546.9
823.57	12491.08
823.898	12475.94
824.225	12470.75
824.553	12552.1
824.88	12566.56
825.207	12531.08
825.535	12459.67
825.862	12510.97
826.189	12433.91
826.516	12543.06
826.843	12580.35
827.17	12533.57
827.497	12596.62
827.824	12550.52
828.151	12499.9
828.478	12571.53
828.805	12523.17
829.131	12486.34
829.458	12479.56
829.785	12525.43
830.111	12454.02
830.438	12502.84
830.764	12529.73
831.09	12549.16
831.417	12388.71
831.743	12457.64
832.069	12439.79
832.395	12410.86
832.722	12484.98
833.048	12391.2
833.374	12350.97
833.7	12409.96
834.026	12357.08
834.351	12392.78
834.677	12382.39
835.003	12313.91
835.329	12360.24
835.654	12328.15
835.98	12249.51
836.306	12366.34
836.631	12240.92
836.956	12267.81
837.282	12256.74
837.607	12151.43
837.932	12186.69
838.258	12158.66
838.583	12170.41
838.908	12099
839.233	12106.01
839.558	12032.34
839.883	12091.32
840.208	11959.8
840.533	12049.74
840.858	11981.27
841.182	12031.66
841.507	11917.31
841.832	11885.9
842.156	11915.05
842.481	11857.88
842.805	11833.02
843.13	11797.54
843.454	11835.06
843.778	11712.8
844.103	11749.63
844.427	11795.28
844.751	11772.46
845.075	11653.37
845.399	11658.11
845.723	11588.06
846.047	11643.2
846.371	11462.18
846.695	11460.83
847.019	11381.51
847.343	11355.07
847.666	11353.71
847.99	11200.95
848.313	11202.53
848.637	11149.65
848.96	11228.74
849.284	11123.44
849.607	11075.75
849.931	11039.82
850.254	10987.85
850.577	10899.49
850.9	10817.91
851.223	10872.6
851.546	10779.49
851.869	10733.39
852.192	10741.53
852.515	10686.16
852.838	10647.06
853.161	10644.13
853.483	10553.28
853.806	10453.4
854.129	10483.45
854.451	10440.97
854.774	10379.95
855.096	10340.41
855.419	10370.24
855.741	10294.76
856.063	10201.2
856.385	10239.84
856.708	10209.79
857.03	10148.09
857.352	10236.68
857.674	10156.68
857.996	10103.8
858.318	10055.89
858.64	10077.81
858.961	10029.23
859.283	9932.96
859.605	9846.86
859.926	9947.87
860.248	9950.36
860.57	9855.22
860.891	9898.84
861.212	9846.86
861.534	9813.41
861.855	9822.91
862.176	9835.11
862.498	9725.28
862.819	9712.63
863.14	9740.42
863.461	9630.82
863.782	9612.97
864.103	9629.92
864.424	9544.27
864.745	9572.97
865.065	9520.77
865.386	9529.35
865.707	9559.41
866.027	9563.25
866.348	9526.64
866.668	9517.15
866.989	9469.24
867.309	9428.34
867.63	9477.15
867.95	9434.67
868.27	9398.74
868.59	9430.6
868.91	9396.02
869.23	9341.34
869.55	9321
869.87	9386.08
870.19	9267.89
870.51	9323.26
870.83	9349.7
871.15	9270.15
871.469	9224.05
871.789	9308.57
872.109	9340.21
872.428	9231.96
872.748	9238.29
873.067	9246.88
873.386	9219.76
873.706	9205.52
874.025	9172.75
874.344	9078.52
874.663	9125.97
874.982	9111.96
875.301	9142.25
875.62	9055.24
875.939	9006.66
876.258	9007.33
876.577	9076.26
876.896	8997.84
877.214	8998.07
877.533	8981.12
877.852	8929.37
878.17	8948.58
878.489	8841.69
878.807	8962.14
879.125	8917.84
879.444	8908.58
879.762	8814.57
880.08	8913.1
880.398	8832.42
880.716	8888.69
881.034	8814.34
881.352	8797.85
881.67	8792.65
881.988	8809.6
882.306	8792.65
882.624	8692.09
882.941	8667.91
883.259	8635.59
883.577	8681.24
883.894	8551.07
884.212	8621.13
884.529	8587.68
884.846	8557.4
885.164	8535.26
885.481	8580.9
885.798	8528.02
886.115	8431.53
886.432	8474.92
886.75	8394.69
887.067	8409.16
887.383	8354.92
887.7	8441.47
888.017	8406.45
888.334	8335.94
888.651	8352.66
888.967	8304.75
889.284	8284.41
889.6	8247.81
889.917	8177.3
890.233	8161.93
890.55	8143.63
890.866	8214.81
891.182	8158.09
891.498	8103.85
891.815	8116.06
892.131	8041.48
892.447	8109.73
892.763	7963.29
893.079	8008.26
893.395	7928.72
893.71	7935.72
894.026	7876.29
894.342	7915.61
894.657	7884.88
894.973	7869.74
895.289	7812.79
895.604	7850.08
895.92	7707.93
896.235	7744.54
896.55	7780.7
896.865	7726.92
897.181	7616.18
897.496	7670.19
897.811	7613.92
898.126	7648.5
898.441	7546.58
898.756	7568.95
899.071	7492.8
899.386	7563.3
899.7	7451.67
900.015	7411.67
900.33	7399.01
900.644	7405.12
900.959	7336.87
901.273	7363.54
901.588	7313.59
901.902	7295.51
902.216	7251.67
902.531	7268.62
902.845	7240.6
903.159	7173.26
903.473	7067.72
903.787	7099.14
904.101	7050.32
904.415	7092.13
904.729	7072.47
905.042	6982.3
905.356	6966.03
905.67	7028.4
905.984	7022.98
906.297	6959.93
906.611	6909.54
906.924	6884.68
907.237	6815.53
907.551	6813.95
907.864	6800.16
908.177	6781.63
908.491	6719.26
908.804	6744.57
909.117	6675.87
909.43	6648.3
909.743	6633.84
910.056	6657.79
910.368	6574.18
910.681	6584.8
910.994	6514.29
911.307	6515.65
911.619	6413.96
911.932	6471.13
912.244	6402.2
912.557	6417.8
912.869	6357.46
913.181	6330.57
913.494	6304.58
913.806	6255.32
914.118	6288.08
914.43	6234.3
914.742	6217.35
915.054	6159.95
915.366	6207.18
915.678	6098.03
915.99	6094.42
916.302	6098.03
916.613	6067.75
916.925	6006.73
917.236	5996.34
917.548	5952.27
917.859	5944.14
918.171	5940.07
918.482	5931.71
918.794	5908.88
919.105	5916.34
919.416	5852.84
919.727	5831.6
920.038	5798.6
920.349	5752.05
920.66	5726.52
920.971	5729.68
921.282	5705.05
921.593	5650.13
921.903	5634.09
922.214	5656.46
922.525	5597.25
922.835	5535.79
923.146	5544.6
923.456	5483.81
923.767	5559.74
924.077	5477.48
924.387	5507.09
924.697	5475.9
925.008	5435.68
925.318	5442.46
925.628	5416.92
925.938	5351.61
926.248	5322.68
926.558	5294.44
926.867	5308.22
927.177	5212.63
927.487	5260.77
927.796	5240.88
928.106	5222.57
928.416	5187.77
928.725	5166.3
929.034	5130.6
929.344	5140.77
929.653	5091.73
929.962	5051.05
930.271	5024.61
930.581	5077.49
930.89	4988.23
931.199	4985.52
931.508	4988.23
931.817	4993.2
932.125	4912.98
932.434	4937.16
932.743	4887.22
933.051	4851.51
933.36	4804.96
933.669	4790.95
933.977	4793.43
934.286	4797.95
934.594	4819.42
934.902	4766.09
935.21	4748.24
935.519	4705.98
935.827	4722.02
936.135	4668.01
936.443	4625.98
936.751	4652.65
937.059	4604.74
937.367	4627.11
937.674	4567.22
937.982	4560.22
938.29	4535.36
938.597	4549.15
938.905	4457.62
939.213	4479.54
939.52	4423.27
939.827	4446.55
940.135	4429.6
940.442	4399.55
940.749	4376.27
941.056	4350.96
941.363	4357.51
941.67	4343.73
941.977	4322.26
942.284	4258.53
942.591	4258.31
942.898	4244.3
943.205	4262.15
943.511	4209.95
943.818	4221.47
944.125	4165.65
944.431	4165.88
944.738	4154.35
945.044	4152.32
945.35	4126.56
945.657	4072.77
945.963	4026.45
946.269	4095.15
946.575	4041.36
946.881	4001.14
947.187	4006.56
947.493	3981.7
947.799	3998.2
948.105	3954.81
948.41	3916.85
948.716	3943.74
949.022	3906.9
949.327	3911.87
949.633	3866.45
949.938	3861.25
950.244	3849.05
950.549	3814.93
950.854	3797.3
951.16	3800.47
951.465	3800.01
951.77	3741.71
952.075	3771.31
952.38	3715.04
952.685	3738.09
952.99	3708.26
953.294	3670.3
953.599	3647.02
953.904	3687.25
954.209	3608.15
954.513	3633.69
954.818	3616.97
955.122	3594.37
955.426	3584.43
955.731	3574.26
956.035	3590.08
956.339	3544.43
956.643	3550.75
956.948	3483.41
957.252	3481.15
957.556	3462.39
957.86	3495.39
958.163	3437.31
958.467	3415.16
958.771	3405
959.075	3402.96
959.378	3370.87
959.682	3359.8
959.985	3366.8
960.289	3323.64
960.592	3291.55
960.896	3281.16
961.199	3295.17
961.502	3254.49
961.805	3251.78
962.108	3217.2
962.411	3261.27
962.714	3216.98
963.017	3208.84
963.32	3223.98
963.623	3198.67
963.926	3145.34
964.228	3146.02
964.531	3144.66
964.833	3114.61
965.136	3083.65
965.438	3129.52
965.741	3098.79
966.043	3082.97
966.345	3026.02
966.648	3064.44
966.95	3009.98
967.252	3006.14
967.554	3046.13
967.856	2991.67
968.158	2974.95
968.46	2965.46
968.761	2967.94
969.063	2943.31
969.365	2903.54
969.666	2959.81
969.968	2881.17
970.269	2876.2
970.571	2840.94
970.872	2864.44
971.174	2814.73
971.475	2864.67
971.776	2841.17
972.077	2793.94
972.378	2821.28
972.679	2840.04
972.98	2794.62
973.281	2780.15
973.582	2751.45
973.883	2744.45
974.183	2754.16
974.484	2729.76
974.785	2687.95
975.085	2732.02
975.386	2717.1
975.686	2671.68
975.986	2673.04
976.287	2662.64
976.587	2646.15
976.887	2625.35
977.187	2641.85
977.487	2616.09
977.787	2582.19
978.087	2573.38
978.387	2566.15
978.687	2560.5
978.987	2547.39
979.286	2511.91
979.586	2561.63
979.885	2507.62
980.185	2501.29
980.484	2492.7
980.784	2489.77
981.083	2478.24
981.382	2510.78
981.682	2441.18
981.981	2467.84
982.28	2433.5
982.579	2414.29
982.878	2415.64
983.177	2427.39
983.475	2416.09
983.774	2358.47
984.073	2370.45
984.372	2351.46
984.67	2356.44
984.969	2385.36
985.267	2356.21
985.566	2337.45
985.864	2347.62
986.162	2258.81
986.461	2299.71
986.759	2300.84
987.057	2238.02
987.355	2261.07
987.653	2276.21
987.951	2228.75
988.249	2258.36
988.547	2247.29
988.844	2209.32
989.142	2235.76
989.44	2186.04
989.737	2198.7
990.035	2184.01
990.332	2165.25
990.63	2141.53
990.927	2152.82
991.224	2144.92
991.521	2111.24
991.819	2096.1
992.116	2123.9
992.413	2106.05
992.71	2076.67
993.006	2089.32
993.303	2081.64
993.6	2070.57
993.897	2054.97
994.193	2059.95
994.49	2026.5
994.787	2046.61
995.083	2001.87
995.379	1995.54
995.676	1990.57
995.972	1998.03
996.268	1988.99
996.565	1971.36
996.861	1971.13
997.157	1956.9
997.453	1909.67
997.749	1921.42
998.044	1883.45
998.34	1897.24
998.636	1890.91
998.932	1892.72
999.227	1877.13
999.523	1905.37
999.818	1852.27
1000.114	1858.37
1000.409	1842.78
1000.704	1848.2
1001	1823.12
1001.295	1851.14
1001.59	1802.33
1001.885	1791.03
1002.18	1768.2
1002.475	1774.3
1002.77	1789.67
1003.065	1723.68
1003.359	1725.04
1003.654	1736.11
1003.949	1730.01
1004.243	1718.03
1004.538	1740.41
1004.832	1680.29
1005.127	1702.89
1005.421	1713.74
1005.715	1691.14
1006.009	1646.17
1006.304	1650.47
1006.598	1653.18
1006.892	1619.73
1007.186	1646.62
1007.48	1606.4
1007.773	1613.86
1008.067	1626.06
1008.361	1593.29
1008.655	1580.86
1008.948	1582.44
1009.242	1612.27
1009.535	1567.76
1009.829	1545.38
1010.122	1561.88
1010.415	1529.11
1010.708	1517.59
1011.001	1549.68
1011.295	1521.43
1011.588	1485.5
1011.881	1510.13
1012.173	1487.98
1012.466	1497.7
1012.759	1454.54
1013.052	1451.37
1013.344	1471.03
1013.637	1450.24
1013.93	1431.26
1014.222	1432.84
1014.514	1437.14
1014.807	1398.04
1015.099	1407.99
1015.391	1379.74
1015.683	1382.22
1015.976	1395.33
1016.268	1389
1016.56	1372.51
1016.851	1361.21
1017.143	1352.62
1017.435	1297.71
1017.727	1332.06
1018.018	1335.22
1018.31	1354.43
1018.602	1328.44
1018.893	1306.29
1019.185	1315.33
1019.476	1280.98
1019.767	1271.04
1020.058	1291.15
1020.35	1256.35
1020.641	1251.83
1020.932	1266.07
1021.223	1250.48
1021.514	1251.15
1021.804	1230.82
1022.095	1234.43
1022.386	1246.18
1022.677	1202.57
1022.967	1184.49
1023.258	1193.53
1023.548	1189.01
1023.839	1193.98
1024.129	1181.32
1024.419	1173.64
1024.709	1116.24
1025	1156.24
1025.29	1151.72
1025.58	1105.85
1025.87	1125.06
1026.16	1107.43
1026.449	1138.39
1026.739	1091.38
1027.029	1081.89
1027.319	1068.79
1027.608	1091.16
1027.898	1095.9
1028.187	1065.85
1028.477	1074.21
1028.766	1078.05
1029.055	1040.76
1029.344	1035.79
1029.634	1034.44
1029.923	1033.76
1030.212	1009.8
1030.501	1017.94
1030.79	1013.42
1031.078	1013.87
1031.367	976.13
1031.656	991.05
1031.945	982.23
1032.233	988.56
1032.522	972.29
1032.81	977.71
1033.099	969.35
1033.387	925.51
1033.675	937.94
1033.963	952.63
1034.251	961.9
1034.54	939.52
1034.828	920.54
1035.116	922.35
1035.403	895.68
1035.691	916.25
1035.979	893.42
1036.267	913.31
1036.554	875.34
1036.842	891.16
1037.129	895
1037.417	887.32
1037.704	853.65
1037.992	869.47
1038.279	866.53
1038.566	845.51
1038.853	845.51
1039.14	845.51
