Data from hue_160_FLMS001491_00062.txt Node
Date: Tue Feb 07 16:51:30 GMT 2017
User: dcchb
Spectrometer: FLMS00149
Trigger mode: 0
Integration Time (sec): 2.000000E-2
Scans to average: 10
Electric dark correction enabled: true
Nonlinearity correction enabled: false
Boxcar width: 0
XAxis mode: Wavelengths
Number of Pixels in Spectrum: 2048
>>>>>Begin Spectral Data<<<<<
341.393	-8.73
341.776	-8.73
342.16	-8.73
342.543	-60.48
342.927	-61.16
343.31	-62.29
343.693	-85.79
344.077	-50.54
344.46	-68.61
344.843	-43.76
345.226	-25.9
345.61	-27.71
345.993	-30.2
346.376	-11.89
346.759	3.25
347.142	29.01
347.525	36.69
347.908	68.11
348.291	83.25
348.674	86.86
349.057	99.52
349.44	143.36
349.823	148.1
350.206	167.31
350.588	190.59
350.971	203.24
351.354	222.9
351.737	250.47
352.119	249.12
352.502	261.09
352.884	278.5
353.267	285.27
353.65	281.43
354.032	296.35
354.414	296.12
354.797	320.08
355.179	321.21
355.562	306.97
355.944	325.73
356.326	339.28
356.709	326.4
357.091	329.12
357.473	336.57
357.855	347.65
358.238	354.65
358.62	338.15
359.002	334.77
359.384	338.61
359.766	326.86
360.148	356.91
360.53	327.99
360.912	325.73
361.294	334.99
361.676	316.46
362.057	334.09
362.439	336.12
362.821	344.48
363.203	330.25
363.584	297.48
363.966	316.01
364.348	339.28
364.729	335.44
365.111	316.91
365.493	317.59
365.874	304.71
366.256	304.71
366.637	320.75
367.019	320.75
367.4	318.49
367.781	304.94
368.163	322.79
368.544	321.43
368.925	319.4
369.306	315.33
369.688	318.49
370.069	313.52
370.45	308.1
370.831	293.64
371.212	302
371.593	304.94
371.974	307.65
372.355	314.65
372.736	316.01
373.117	302
373.498	306.07
373.879	303.35
374.26	306.97
374.641	330.92
375.021	316.01
375.402	344.26
375.783	324.82
376.163	333.18
376.544	325.73
376.925	324.37
377.305	332.28
377.686	305.39
378.066	316.23
378.447	337.25
378.827	345.84
379.208	327.76
379.588	344.71
379.968	318.27
380.349	330.47
380.729	348.1
381.109	344.71
381.489	349.68
381.87	341.77
382.25	327.76
382.63	337.7
383.01	334.99
383.39	329.57
383.77	340.64
384.15	356.46
384.53	344.48
384.91	350.36
385.29	340.87
385.67	341.32
386.049	367.98
386.429	344.93
386.809	353.07
387.189	356.46
387.568	375.44
387.948	346.52
388.328	365.27
388.707	358.49
389.087	366.4
389.466	370.92
389.846	362.79
390.225	363.92
390.605	369.57
390.984	359.17
391.363	379.28
391.743	378.38
392.122	370.02
392.501	381.32
392.881	384.71
393.26	358.27
393.639	367.76
394.018	389.23
394.397	389.23
394.776	374.31
395.155	367.08
395.534	370.92
395.913	380.41
396.292	383.13
396.671	363.69
397.05	390.81
397.429	370.7
397.808	396.68
398.186	392.62
398.565	391.71
398.944	414.09
399.323	377.48
399.701	398.27
400.08	391.26
400.458	392.39
400.837	400.75
401.215	397.81
401.594	394.2
401.972	391.03
402.351	405.5
402.729	433.29
403.107	375.44
403.486	404.14
403.864	393.07
404.242	411.6
404.62	421.99
404.999	414.54
405.377	415.89
405.755	419.73
406.133	433.97
406.511	433.97
406.889	426.97
407.267	426.97
407.645	427.42
408.023	451.37
408.401	451.37
408.779	440.3
409.156	463.58
409.534	467.19
409.912	460.64
410.29	462.67
410.667	471.94
411.045	468.55
411.422	455.89
411.8	461.54
412.178	478.72
412.555	494.08
412.933	483.91
413.31	478.94
413.687	490.24
414.065	490.02
414.442	486.4
414.819	488.21
415.197	487.76
415.574	510.13
415.951	500.64
416.328	518.94
416.705	521.2
417.082	511.94
417.46	527.08
417.837	554.19
418.214	522.1
418.591	530.69
418.967	529.56
419.344	548.09
419.721	553.29
420.098	531.6
420.475	558.49
420.852	548.54
421.228	565.72
421.605	572.95
421.982	570.69
422.358	564.36
422.735	572.5
423.111	556.68
423.488	595.78
423.864	593.29
424.241	589.22
424.617	589
424.994	596.91
425.37	597.58
425.746	585.38
426.123	623.8
426.499	615.44
426.875	619.28
427.251	623.57
427.627	633.51
428.003	622.89
428.379	642.1
428.756	657.69
429.132	649.79
429.507	647.98
429.883	683.91
430.259	668.09
430.635	677.13
431.011	670.35
431.387	704.7
431.763	696.79
432.138	701.54
432.514	704.25
432.89	704.7
433.265	720.97
433.641	727.98
434.016	724.13
434.392	742.44
434.767	763.23
435.143	730.46
435.518	753.74
435.894	765.26
436.269	795.09
436.644	793.28
437.02	783.12
437.395	801.65
437.77	814.07
438.145	827.18
438.52	814.75
438.895	801.19
439.271	824.02
439.646	849.78
440.021	860.4
440.395	852.04
440.77	853.85
441.145	874.86
441.52	880.06
441.895	864.92
442.27	882.77
442.645	859.5
443.019	914.41
443.394	891.36
443.769	910.8
444.143	907.41
444.518	901.3
444.892	911.02
445.267	933.17
445.641	951.25
446.016	940.62
446.39	937.24
446.764	942.43
447.139	937.24
447.513	958.25
447.887	968.42
448.262	965.03
448.636	984.01
449.01	980.85
449.384	1008.87
449.758	1005.71
450.132	1030.34
450.506	1014.97
450.88	1005.93
451.254	1048.42
451.628	1018.36
452.002	1059.27
452.376	1080.51
452.75	1086.16
453.123	1099.04
453.497	1076.21
453.871	1094.97
454.244	1116.21
454.618	1100.17
454.992	1116.21
455.365	1141.98
455.739	1150.56
456.112	1198.47
456.486	1148.3
456.859	1198.7
457.232	1210.22
457.606	1215.87
457.979	1236.66
458.352	1236.89
458.725	1288.86
459.099	1317.34
459.472	1298.13
459.845	1318.24
460.218	1315.76
460.591	1356.89
460.964	1376.32
461.337	1385.36
461.71	1406.38
462.083	1425.81
462.456	1439.14
462.829	1463.55
463.201	1453.61
463.574	1492.93
463.947	1500.84
464.32	1550.33
464.692	1532.7
465.065	1576.77
465.438	1623.54
465.81	1635.07
466.183	1647.95
466.555	1653.83
466.928	1680.27
467.3	1708.74
467.672	1724.11
468.045	1754.61
468.417	1806.82
468.789	1827.38
469.161	1847.95
469.534	1907.83
469.906	1927.04
470.278	1899.47
470.65	1967.49
471.022	2000.26
471.394	2043.19
471.766	2106.24
472.138	2097.43
472.51	2162.74
472.882	2199.35
473.253	2250.42
473.625	2329.06
473.997	2362.73
474.369	2397.54
474.74	2434.37
475.112	2493.13
475.484	2545.33
475.855	2603.18
476.227	2662.84
476.598	2740.8
476.97	2762.27
477.341	2868.94
477.713	2934.47
478.084	3033.9
478.455	3079.33
478.827	3105.09
479.198	3254.24
479.569	3284.97
479.94	3407.45
480.311	3461.24
480.682	3550.5
481.053	3700.78
481.424	3748.91
481.795	3846.31
482.166	3931.96
482.537	4018.28
482.908	4128.79
483.279	4212.63
483.65	4354.32
484.021	4438.16
484.391	4599.06
484.762	4661.43
485.133	4768.77
485.503	4837.47
485.874	5041.08
486.244	5066.17
486.615	5226.39
486.985	5362.43
487.356	5453.73
487.726	5608.52
488.097	5745.02
488.467	5851.23
488.837	6056.65
489.207	6113.82
489.578	6245.12
489.948	6414.15
490.318	6518.11
490.688	6533.7
491.058	6759.68
491.428	6968.49
491.798	7051.42
492.168	7214.13
492.538	7243.74
492.908	7437.86
493.278	7651.63
493.648	7641.69
494.017	7823.61
494.387	7948.8
494.757	8035.35
495.126	8191.51
495.496	8280.32
495.866	8369.81
496.235	8496.36
496.605	8616.58
496.974	8685.28
497.344	8810.25
497.713	8910.36
498.082	9109
498.452	9188.77
498.821	9298.6
499.19	9332.49
499.559	9515.09
499.928	9529.1
500.298	9666.05
500.667	9706.95
501.036	9762.99
501.405	9922.08
501.774	9922.76
502.143	10088.63
502.512	10152.81
502.88	10261.51
503.249	10227.16
503.618	10362.98
503.987	10390.77
504.356	10554.61
504.724	10539.92
505.093	10687.71
505.462	10697.43
505.83	10756.86
506.199	10849.29
506.567	11008.83
506.936	11009.96
507.304	11134.93
507.672	11186.68
508.041	11196.63
508.409	11243.63
508.777	11335.61
509.145	11458.09
509.514	11435.94
509.882	11522.72
510.25	11544.87
510.618	11620.8
510.986	11567.46
511.354	11793.9
511.722	11896.27
512.09	11886.78
512.458	11886.55
512.826	11945.76
513.193	11920.22
513.561	11975.82
513.929	12061.69
514.297	12185.3
514.664	12207.22
515.032	12214
515.4	12291.74
515.767	12305.52
516.135	12349.59
516.502	12367.44
516.869	12436.14
517.237	12426.65
517.604	12425.75
517.972	12547.55
518.339	12526.31
518.706	12564.27
519.073	12528.12
519.44	12637.49
519.808	12654.89
520.175	12600.21
520.542	12727.89
520.909	12750.26
521.276	12761.78
521.643	12803.14
522.009	12861.44
522.376	12890.82
522.743	12954.32
523.11	13009.91
523.477	13052.62
523.843	13047.65
524.21	13171.26
524.577	13128.1
524.943	13147.76
525.31	13165.61
525.676	13273.41
526.043	13336.46
526.409	13331.94
526.776	13368.55
527.142	13364.25
527.508	13275.22
527.874	13394.76
528.241	13425.95
528.607	13389.11
528.973	13418.49
529.339	13363.58
529.705	13477.92
530.071	13467.3
530.437	13522.67
530.803	13465.72
531.169	13447.64
531.535	13451.03
531.901	13364.48
532.267	13362.9
532.632	13450.13
532.998	13466.17
533.364	13460.3
533.73	13420.07
534.095	13454.42
534.461	13423.01
534.826	13490.13
535.192	13427.75
535.557	13430.92
535.923	13328.1
536.288	13371.26
536.653	13380.98
537.019	13173.75
537.384	13292.84
537.749	13206.74
538.114	13240.41
538.479	13253.97
538.845	13184.82
539.21	13206.74
539.575	13083.36
539.94	13070.93
540.305	13111.38
540.67	13008.1
541.034	13075
541.399	13058.05
541.764	13044.04
542.129	12975.11
542.494	12921.1
542.858	12924.04
543.223	12861.22
543.587	12887.66
543.952	12885.4
544.316	12848.11
544.681	12731.73
545.045	12730.37
545.41	12722.69
545.774	12709.58
546.138	12658.51
546.503	12682.69
546.867	12644.5
547.231	12601.56
547.595	12562.69
547.959	12553.88
548.324	12454.9
548.688	12384.62
549.052	12484.28
549.416	12406.54
549.779	12290.16
550.143	12309.82
550.507	12429.14
550.871	12343.49
551.235	12300.78
551.599	12307.56
551.962	12225.53
552.326	12174.23
552.689	12222.59
553.053	12193.21
553.417	12152.31
553.78	12231.18
554.143	12162.48
554.507	12094.46
554.87	12126.32
555.234	12139.43
555.597	12044.29
555.96	12085.87
556.323	12098.52
556.686	12002.03
557.05	12119.09
557.413	12035.02
557.776	12002.03
558.139	12040.45
558.502	12015.14
558.865	11928.36
559.228	11990.73
559.59	11940.11
559.953	11973.56
560.316	12064.4
560.679	11959.54
561.041	12051.07
561.404	11992.76
561.767	12130.84
562.129	11890.85
562.492	12059.88
562.854	12022.37
563.217	12068.47
563.579	12043.16
563.941	12115.7
564.304	12085.87
564.666	12157.73
565.028	12164.06
565.39	12145.98
565.753	12187.33
566.115	12143.04
566.477	12255.58
566.839	12159.31
567.201	12261.46
567.563	12218.07
567.925	12240.67
568.287	12232.98
568.648	12271.85
569.01	12270.72
569.372	12238.63
569.734	12192.76
570.095	12367.9
570.457	12344.39
570.819	12301.68
571.18	12388.91
571.542	12351.85
571.903	12353.43
572.265	12369.25
572.626	12442.47
572.987	12422.36
573.349	12449.47
573.71	12481.34
574.071	12442.02
574.432	12479.98
574.794	12528.12
575.155	12516.82
575.516	12483.37
575.877	12562.47
576.238	12486.54
576.599	12580.09
576.96	12502.58
577.32	12485.86
577.681	12524.5
578.042	12501
578.403	12592.3
578.763	12542.13
579.124	12606.98
579.485	12640.43
579.845	12565.4
580.206	12517.04
580.566	12553.2
580.927	12559.53
581.287	12586.65
581.648	12501.9
582.008	12599.75
582.368	12474.11
582.728	12551.39
583.089	12561.34
583.449	12499.87
583.809	12444.96
584.169	12502.81
584.529	12520.89
584.889	12530.6
585.249	12447.44
585.609	12473.43
585.969	12536.03
586.329	12502.13
586.688	12541.22
587.048	12430.72
587.408	12448.35
587.768	12401.34
588.127	12396.59
588.487	12337.84
588.846	12387.1
589.206	12359.08
589.565	12404.96
589.925	12380.78
590.284	12347.33
590.643	12362.92
591.003	12484.28
591.362	12477.5
591.721	12369.25
592.08	12338.97
592.44	12519.76
592.799	12418.06
593.158	12352.08
593.517	12419.19
593.876	12425.97
594.235	12350.04
594.593	12431.4
594.952	12403.37
595.311	12279.54
595.67	12356.6
596.029	12445.18
596.387	12381.45
596.746	12342.59
597.104	12287.67
597.463	12327.67
597.822	12345.52
598.18	12335.13
598.538	12350.49
598.897	12322.92
599.255	12195.92
599.613	12424.62
599.972	12273.43
600.33	12307.33
600.688	12310.27
601.046	12301.23
601.404	12423.03
601.762	12328.57
602.12	12406.76
602.478	12364.05
602.836	12317.5
603.194	12222.14
603.552	12254
603.91	12232.31
604.268	12297.39
604.625	12321.57
604.983	12441.11
605.341	12259.65
605.698	12369.25
606.056	12380.78
606.413	12342.59
606.771	12355.92
607.128	12444.5
607.485	12322.02
607.843	12379.19
608.2	12429.36
608.557	12369.48
608.914	12376.48
609.272	12430.49
609.629	12452.86
609.986	12474.11
610.343	12401.79
610.7	12578.51
611.057	12468.68
611.414	12477.27
611.771	12488.57
612.127	12522.02
612.484	12556.36
612.841	12537.16
613.198	12423.94
613.554	12442.47
613.911	12569.47
614.267	12493.54
614.624	12446.99
614.98	12545.74
615.337	12610.15
615.693	12536.03
616.05	12575.8
616.406	12605.4
616.762	12576.03
617.118	12585.29
617.475	12565.4
617.831	12710.26
618.187	12659.86
618.543	12624.39
618.899	12618.06
619.255	12714.78
619.611	12683.14
619.967	12683.59
620.323	12684.05
620.678	12671.62
621.034	12680.88
621.39	12622.13
621.746	12636.81
622.101	12769.92
622.457	12722.46
622.812	12706.87
623.168	12754.55
623.523	12752.74
623.879	12685.17
624.234	12651.73
624.589	12682.01
624.945	12668.68
625.3	12773.31
625.655	12728.34
626.01	12687.66
626.365	12724.5
626.72	12608.57
627.075	12680.66
627.43	12704.84
627.785	12666.87
628.14	12679.53
628.495	12730.37
628.85	12794.32
629.205	12713.87
629.559	12726.08
629.914	12639.3
630.269	12650.6
630.623	12618.06
630.978	12558.85
631.332	12608.11
631.687	12625.29
632.041	12537.38
632.396	12585.74
632.75	12573.99
633.104	12573.77
633.459	12540.09
633.813	12570.6
634.167	12515.46
634.521	12474.33
634.875	12522.02
635.229	12417.16
635.583	12423.26
635.937	12434.33
636.291	12479.98
636.645	12413.32
636.999	12338.29
637.352	12386.43
637.706	12346.88
638.06	12422.36
638.413	12313.89
638.767	12309.37
639.121	12297.16
639.474	12312.53
639.828	12207
640.181	12311.4
640.534	12294.68
640.888	12208.8
641.241	12135.81
641.594	12198.41
641.947	12247.45
642.301	12170.84
642.654	12260.33
643.007	12153.66
643.36	12198.18
643.713	12149.82
644.066	12180.56
644.419	12124.96
644.771	12028.47
645.124	11984.4
645.477	11935.59
645.83	11831.64
646.182	11864.41
646.535	11822.15
646.888	11804.07
647.24	11685.65
647.593	11808.81
647.945	11698.08
648.298	11646.56
648.65	11666.67
649.002	11656.95
649.355	11665.77
649.707	11689.95
650.059	11703.51
650.411	11911.18
650.763	11945.31
651.115	12023.95
651.467	12036.6
651.819	11918.19
652.171	11969.49
652.523	11960.22
652.875	11908.47
653.227	11868.7
653.578	11990.5
653.93	11904.63
654.282	11828.93
654.633	11873.67
654.985	11909.6
655.337	11925.42
655.688	11977.4
656.039	11938.08
656.391	11910.51
656.742	11928.81
657.094	12002.71
657.445	11924.07
657.796	11947.34
658.147	11950.5
658.498	11998.87
658.849	12051.29
659.2	12015.81
659.551	11926.1
659.902	11945.76
660.253	11926.55
660.604	11976.94
660.955	11885.87
661.306	11984.85
661.656	11993.22
662.007	11915.25
662.358	11993.22
662.708	11942.82
663.059	11942.6
663.409	11984.63
663.76	12006.55
664.11	11970.84
664.461	11994.57
664.811	11993.44
665.161	11989.83
665.511	11973.56
665.862	11975.59
666.212	12082.25
666.562	12050.39
666.912	12028.92
667.262	12018.75
667.612	11966.55
667.962	11990.5
668.312	12041.12
668.662	11956.61
669.011	11981.24
669.361	11978.07
669.711	11888.13
670.06	11886.55
670.41	11878.42
670.76	11811.53
671.109	11927.91
671.459	11894.01
671.808	11897.85
672.157	11872.31
672.507	11885.42
672.856	11814.46
673.205	11869.83
673.554	11869.38
673.904	11858.08
674.253	11901.69
674.602	11871.41
674.951	11696.73
675.3	11624.41
675.649	11851.07
675.998	11823.28
676.346	11779.66
676.695	11908.7
677.044	11770.85
677.393	11804.29
677.741	11764.97
678.09	11765.88
678.438	11781.24
678.787	11724.3
679.135	11745.99
679.484	11624.64
679.832	11754.35
680.181	11680.68
680.529	11670.06
680.877	11635.71
681.225	11644.75
681.573	11607.69
681.922	11523.62
682.27	11528.14
682.618	11518.43
682.966	11505.54
683.314	11458.77
683.661	11485.43
684.009	11456.28
684.357	11426.45
684.705	11403.17
685.053	11393.46
685.4	11345.32
685.748	11246.34
686.095	11266.23
686.443	11202.95
686.79	11246.34
687.138	11264.2
687.485	11290.41
687.832	11185.55
688.18	11170.64
688.527	11182.84
688.874	11095.16
689.221	11054.71
689.568	11088.61
689.915	11006.35
690.262	11005.67
690.609	11003.19
690.956	10873.25
691.303	10948.95
691.65	10854.49
691.997	10805.9
692.344	10786.69
692.69	10753.25
693.037	10683.87
693.383	10648.39
693.73	10734.49
694.077	10626.25
694.423	10656.08
694.769	10529.3
695.116	10599.81
695.462	10529.3
695.808	10442.75
696.155	10539.47
696.501	10377.21
696.847	10341.28
697.193	10299.7
697.539	10317.33
697.885	10228.29
698.231	10214.96
698.577	10174.51
698.923	10143.77
699.269	10196.88
699.614	10071.68
699.96	10075.3
700.306	10089.76
700.651	9991.23
700.997	9933.83
701.342	9902.88
701.688	9903.33
702.033	9834.85
702.379	9870.56
702.724	9806.15
703.069	9827.85
703.415	9674.63
703.76	9708.98
704.105	9690.45
704.45	9696.78
704.795	9623.11
705.14	9582.43
705.485	9524.35
705.83	9557.12
706.175	9513.05
706.52	9503.11
706.865	9443.9
707.209	9417.46
707.554	9365.94
707.899	9365.26
708.243	9374.3
708.588	9264.47
708.932	9223.57
709.277	9239.39
709.621	9231.48
709.966	9228.99
710.31	9202.1
710.654	9112.84
710.998	9134.53
711.342	9121.2
711.687	9076.46
712.031	9099.05
712.375	9055.67
712.719	9041.2
713.063	9012.05
713.407	8999.62
713.75	8953.3
714.094	9005.5
714.438	8944.71
714.782	8982.22
715.125	8949.68
715.469	8960.75
715.812	8890.92
716.156	8850.25
716.499	8787.42
716.843	8852.06
717.186	8779.97
717.53	8820.64
717.873	8800.53
718.216	8705.62
718.559	8790.36
718.902	8727.99
719.246	8726.41
719.589	8725.51
719.932	8638.95
720.275	8677.37
720.617	8690.7
720.96	8735.22
721.303	8611.16
721.646	8643.7
721.989	8539.75
722.331	8641.21
722.674	8604.83
723.016	8655.45
723.359	8612.29
723.701	8622.23
724.044	8580.42
724.386	8525.51
724.729	8576.36
725.071	8595.79
725.413	8519.63
725.755	8528.9
726.097	8488
726.439	8501.78
726.782	8472.63
727.124	8501.33
727.465	8506.98
727.807	8517.15
728.149	8435.57
728.491	8403.93
728.833	8554.21
729.175	8458.62
729.516	8470.6
729.858	8466.08
730.199	8441.44
730.541	8478.96
730.882	8454.1
731.224	8448.45
731.565	8363.25
731.906	8389.92
732.248	8449.35
732.589	8409.81
732.93	8367.32
733.271	8376.81
733.612	8383.82
733.953	8428.56
734.294	8359.41
734.635	8354.89
734.976	8403.25
735.317	8387.89
735.658	8331.84
735.999	8378.17
736.339	8356.02
736.68	8386.76
737.021	8355.8
737.361	8402.12
737.702	8403.03
738.042	8379.3
738.383	8382.46
738.723	8433.54
739.063	8394.44
739.404	8516.02
739.744	8421.11
740.084	8409.36
740.424	8474.89
740.764	8405.97
741.104	8518.5
741.444	8443.48
741.784	8444.83
742.124	8534.55
742.464	8488
742.804	8543.14
743.143	8563.93
743.483	8579.97
743.823	8558.73
744.162	8599.86
744.502	8595.79
744.841	8622.23
745.181	8680.99
745.52	8674.66
745.86	8753.53
746.199	8755.33
746.538	8743.13
746.877	8805.5
747.216	8844.37
747.556	8939.51
747.895	8963.46
748.234	8913.52
748.573	9010.7
748.911	9006.63
749.25	9069.68
749.589	9162.56
749.928	9227.19
750.267	9281.42
750.605	9280.29
750.944	9406.62
751.283	9451.36
751.621	9626.27
751.96	9579.95
752.298	9652.49
752.636	9766.38
752.975	9891.58
753.313	9895.19
753.651	10049.76
753.989	10114.85
754.327	10230.78
754.666	10310.32
755.004	10432.58
755.342	10604.33
755.679	10722.51
756.017	10781.04
756.355	10975.84
756.693	10999.34
757.031	11228.72
757.368	11285.21
757.706	11510.52
758.044	11496.05
758.381	11706.44
758.719	11808.14
759.056	12020.79
759.394	12151.4
759.731	12281.34
760.068	12423.71
760.405	12595.23
760.743	12693.54
761.08	12940.31
761.417	13025.73
761.754	13173.75
762.091	13341.88
762.428	13510.24
762.765	13533.97
763.102	13838.36
763.438	13921.53
763.775	14043.11
764.112	14333.04
764.449	14473.15
764.785	14506.6
765.122	14693.48
765.458	14857.77
765.795	14948.39
766.131	15060.25
766.467	15203.75
766.804	15279.91
767.14	15417.53
767.476	15613.91
767.812	15599.67
768.148	15914.24
768.485	15975.71
768.821	15998.99
769.157	16182.03
769.492	16307.23
769.828	16396.94
770.164	16511.74
770.5	16650.27
770.836	16763.94
771.171	16814.78
771.507	16878.06
771.842	16959.41
772.178	17137.04
772.513	17135.68
772.849	17233.53
773.184	17312.85
773.519	17395.56
773.855	17424.94
774.19	17539.28
774.525	17596.23
774.86	17616.57
775.195	17838.49
775.53	17763.69
775.865	17771.14
776.2	17673.97
776.535	17701.09
776.87	17827.64
777.205	17873.74
777.539	17833.97
777.874	18074.19
778.209	17906.51
778.543	18015.66
778.878	17970.69
779.212	18050.46
779.547	18048.88
779.881	18130.68
780.215	18106.5
780.55	18313.73
780.884	18134.3
781.218	18059.5
781.552	18198.93
781.886	18136.56
782.22	18143.34
782.554	18124.81
782.888	18012.04
783.222	18015.88
783.556	18046.16
783.889	18054.53
784.223	17977.47
784.557	17965.26
784.89	18035.32
785.224	17970.91
785.557	17881.42
785.891	17897.47
786.224	17974.75
786.558	17989.44
786.891	17802.78
787.224	17747.41
787.557	17853.17
787.891	17819.73
788.224	17838.71
788.557	17784.93
788.89	17887.98
789.223	17780.86
789.556	17671.26
789.888	17757.81
790.221	17734.99
790.554	17580.64
790.887	17627.19
791.219	17553.07
791.552	17505.61
791.884	17476.24
792.217	17431.26
792.549	17447.99
792.882	17381.55
793.214	17262.91
793.546	17405.95
793.879	17280.99
794.211	17204.83
794.543	17280.99
794.875	17177.71
795.207	17322.79
795.539	17124.15
795.871	17182.01
796.203	17126.87
796.535	16947.44
796.867	17042.57
797.198	16947.44
797.53	16813.88
797.862	16800.32
798.193	16893.65
798.525	16788.12
798.856	16841.68
799.188	16730.49
799.519	16636.26
799.85	16564.85
800.182	16603.72
800.513	16539.54
800.844	16400.56
801.175	16432.42
801.506	16563.94
801.837	16249.83
802.168	16426.09
802.499	16392.87
802.83	16282.59
803.161	16234.91
803.491	16186.55
803.822	16246.89
804.153	16173.44
804.483	16048.93
804.814	16066.33
805.145	15956.73
805.475	15967.12
805.805	15951.3
806.136	15891.42
806.466	15897.07
806.796	15912.43
807.126	15776.17
807.457	15822.72
807.787	15801.25
808.117	15720.58
808.447	15690.07
808.777	15635.83
809.107	15644.19
809.436	15475.38
809.766	15561.03
810.096	15504.99
810.426	15469.96
810.755	15495.04
811.085	15481.71
811.414	15430.19
811.744	15283.07
812.073	15241.49
812.403	15361.71
812.732	15232.23
813.061	15262.73
813.39	15107.71
813.719	15126.47
814.049	15152.23
814.378	15138.67
814.707	14968.5
815.036	15109.74
815.365	14996.75
815.693	14945.91
816.022	14883.31
816.351	14898.68
816.68	14724.22
817.008	14765.57
817.337	14757.66
817.665	14683.99
817.994	14829.53
818.322	14731.67
818.651	14630.21
818.979	14587.27
819.307	14702.75
819.636	14656.65
819.964	14596.99
820.292	14589.08
820.62	14634.28
820.948	14546.14
821.276	14618.23
821.604	14551.79
821.932	14573.94
822.259	14588.18
822.587	14522.19
822.915	14563.32
823.243	14623.43
823.57	14509.53
823.898	14445.58
824.225	14559.48
824.553	14533.04
824.88	14480.61
825.207	14660.26
825.535	14509.76
825.862	14652.81
826.189	14512.7
826.516	14572.36
826.843	14625.91
827.17	14437.9
827.497	14634.05
827.824	14472.25
828.151	14638.57
828.478	14562.64
828.805	14601.96
829.131	14529.65
829.458	14524.67
829.785	14498.01
830.111	14518.35
830.438	14585.01
830.764	14599.93
831.09	14474.05
831.417	14507.95
831.743	14566.93
832.069	14486.26
832.395	14453.49
832.722	14621.4
833.048	14398.8
833.374	14498.91
833.7	14331.69
834.026	14394.96
834.351	14409.42
834.677	14462.76
835.003	14435.86
835.329	14406.94
835.654	14359.93
835.98	14345.47
836.306	14331.46
836.631	14307.51
836.956	14418.24
837.282	14374.4
837.607	14337.11
837.932	14285.58
838.258	14264.12
838.583	14241.29
838.908	14060.73
839.233	14185.47
839.558	14129.2
839.883	14038.36
840.208	14049.21
840.533	14061.41
840.858	14075.65
841.182	14052.37
841.507	14045.82
841.832	13938.25
842.156	13937.12
842.481	13931.7
842.805	13878.36
843.13	13813.05
843.454	13857.35
843.778	13714.07
844.103	13772.83
844.427	13674.3
844.751	13745.49
845.075	13646.96
845.399	13714.07
845.723	13522.44
846.047	13597.24
846.371	13416.23
846.695	13484.93
847.019	13323.8
847.343	13425.49
847.666	13232.28
847.99	13224.37
848.313	13171.26
848.637	13075.67
848.96	13077.71
849.284	13007.65
849.607	13003.81
849.931	12827.54
850.254	12832.06
850.577	12734.44
850.9	12748
851.223	12707.55
851.546	12665.97
851.869	12552.3
852.192	12614.22
852.515	12442.7
852.838	12402.24
853.161	12448.57
853.483	12366.77
853.806	12332.42
854.129	12306.2
854.451	12203.83
854.774	12231.63
855.096	12019.2
855.419	12107.56
855.741	12060.11
856.063	12005.42
856.385	12019.2
856.708	11955.02
857.03	11929.94
857.352	11890.17
857.674	11839.32
857.996	11821.24
858.318	11759.55
858.64	11766.78
858.961	11739.89
859.283	11721.58
859.605	11640
859.926	11606.11
860.248	11634.36
860.57	11523.4
860.891	11567.46
861.212	11423.97
861.534	11475.72
861.855	11404.98
862.176	11469.61
862.498	11500.35
862.819	11428.71
863.14	11356.85
863.461	11354.59
863.782	11264.65
864.103	11289.28
864.424	11231.2
864.745	11296.51
865.065	11242.05
865.386	11188.04
865.707	11199.11
866.027	11168.15
866.348	11111.66
866.668	11188.72
866.989	11095.39
867.309	11085.44
867.63	11065.1
867.95	11093.35
868.27	11108.72
868.59	11028.27
868.91	11020.13
869.23	10970.19
869.55	10912.11
869.87	11068.04
870.19	11019.68
870.51	10959.12
870.83	10973.81
871.15	10752.57
871.469	10849.97
871.789	10949.18
872.109	10924.32
872.428	10887.71
872.748	10787.82
873.067	10799.57
873.386	10844.09
873.706	10746.92
874.025	10743.76
874.344	10703.98
874.663	10729.52
874.982	10675.28
875.301	10657.21
875.62	10593.48
875.939	10634.38
876.258	10668.05
876.577	10579.69
876.896	10620.82
877.214	10616.08
877.533	10515.06
877.852	10512.58
878.17	10590.09
878.489	10604.78
878.807	10519.36
879.125	10479.36
879.444	10490.88
879.762	10438.23
880.08	10497.89
880.398	10381.05
880.716	10475.06
881.034	10358
881.352	10414.27
881.67	10308.74
881.988	10303.32
882.306	10128.41
882.624	10228.97
882.941	10181.74
883.259	10152.13
883.577	10142.87
883.894	10103.77
884.212	10119.59
884.529	10124.11
884.846	10007.73
885.164	9995.53
885.481	10008.64
885.798	10074.85
886.115	9988.52
886.432	9964.57
886.75	9908.75
887.067	9889.54
887.383	9866.49
887.7	9903.33
888.017	9848.64
888.334	9800.73
888.651	9854.29
888.967	9760.28
889.284	9785.82
889.6	9679.6
889.917	9641.87
890.233	9667.85
890.55	9574.75
890.866	9616.78
891.182	9573.62
891.498	9544.47
891.815	9416.11
892.131	9511.02
892.447	9358.26
892.763	9387.18
893.079	9386.73
893.395	9374.53
893.71	9340.63
894.026	9332.27
894.342	9270.35
894.657	9296.56
894.973	9248.88
895.289	9230.8
895.604	9171.14
895.92	9076.23
896.235	9102.67
896.55	9106.51
896.865	9080.52
897.181	9048.43
897.496	8994.2
897.811	9029.68
898.126	8967.76
898.441	8942.22
898.756	8917.82
899.071	8861.09
899.386	8857.7
899.7	8793.53
900.015	8746.07
900.33	8658.39
900.644	8640.76
900.959	8712.4
901.273	8598.95
901.588	8567.77
901.902	8503.14
902.216	8542.91
902.531	8460.2
902.845	8497.49
903.159	8386.53
903.473	8375.01
903.787	8322.35
904.101	8290.49
904.415	8278.96
904.729	8272.18
905.042	8223.82
905.356	8138.18
905.67	8186.31
905.984	8116.93
906.297	8122.81
906.611	8044.62
906.924	8045.75
907.237	8070.38
907.551	7976.82
907.864	7951.74
908.177	7928.69
908.491	7882.59
908.804	7799.65
909.117	7810.95
909.43	7777.06
909.743	7753.33
910.056	7736.38
910.368	7723.5
910.681	7605.53
910.994	7578.87
911.307	7588.81
911.619	7530.28
911.932	7505.65
912.244	7467.69
912.557	7471.07
912.869	7369.16
913.181	7351.3
913.494	7335.71
913.806	7332.1
914.118	7302.94
914.43	7266.79
914.742	7245.54
915.054	7205.09
915.366	7168.03
915.678	7222.27
915.99	7139.56
916.302	7056.85
916.613	7025.21
916.925	7043.97
917.236	7056.4
917.548	6977.08
917.859	6974.59
918.171	6963.07
918.482	6788.38
918.794	6841.49
919.105	6894.82
919.416	6799
919.727	6811.66
920.038	6784.77
920.349	6712.45
920.66	6686.91
920.971	6665.67
921.282	6668.61
921.593	6636.97
921.903	6633.81
922.214	6541.61
922.525	6528.05
922.835	6496.19
923.146	6516.07
923.456	6481.27
923.767	6425.9
924.077	6416.19
924.387	6375.74
924.697	6278.11
925.008	6296.19
925.318	6309.75
925.628	6309.3
925.938	6293.25
926.248	6276.3
926.558	6173.93
926.867	6183.2
927.177	6140.26
927.487	6105.23
927.796	6086.48
928.106	6055.07
928.416	6025.46
928.725	6050.77
929.034	5986.82
929.344	5990.89
929.653	6017.33
929.962	5903.43
930.271	5918.8
930.581	5869.08
930.89	5841.74
931.199	5803.1
931.508	5808.29
931.817	5774.62
932.125	5766.26
932.434	5762.65
932.743	5692.82
933.051	5717.9
933.36	5633.16
933.669	5636.77
933.977	5580.95
934.286	5570.11
934.594	5596.32
934.902	5543.67
935.21	5518.36
935.519	5516.32
935.827	5505.02
936.135	5458.7
936.443	5444.01
936.751	5406.72
937.059	5395.88
937.367	5368.08
937.674	5371.92
937.982	5332.83
938.29	5284.69
938.597	5333.05
938.905	5277.91
939.213	5204.02
939.52	5207.18
939.827	5173.73
940.135	5203.34
940.442	5164.69
940.749	5150.68
941.056	5128.76
941.363	5054.19
941.67	5068.2
941.977	5036.56
942.284	5015.09
942.591	5015.32
942.898	4984.81
943.205	5015.09
943.511	4974.64
943.818	4936.9
944.125	4902.1
944.431	4901.2
944.738	4853.52
945.044	4819.62
945.35	4800.86
945.657	4832.73
945.963	4780.3
946.269	4765.84
946.575	4750.47
946.881	4713.41
947.187	4709.11
947.493	4674.31
947.799	4661.66
948.105	4664.14
948.41	4649.23
948.716	4633.64
949.022	4597.25
949.327	4556.35
949.633	4527.65
949.938	4522
950.244	4515.22
950.549	4488.55
950.854	4455.11
951.16	4454.43
951.465	4414.21
951.77	4408.78
952.075	4330.37
952.38	4344.38
952.685	4339.86
952.99	4284.94
953.294	4342.12
953.599	4277.49
953.904	4277.71
954.209	4262.8
954.513	4227.09
954.818	4200.43
955.122	4195
955.426	4189.81
955.731	4154.55
956.035	4152.97
956.339	4176.47
956.643	4127.21
956.948	4079.07
957.252	4085.63
957.556	4054.67
957.86	4063.93
958.163	4051.73
958.467	4041.33
958.771	4002.01
959.075	3983.48
959.378	3964.5
959.682	3972.18
959.985	3945.74
960.289	3884.28
960.592	3917.72
960.896	3904.39
961.199	3887.67
961.502	3800.21
961.805	3806.99
962.108	3799.08
962.411	3815.35
962.714	3750.49
963.017	3718.18
963.32	3745.3
963.623	3702.81
963.926	3708.46
964.228	3726.77
964.531	3663.04
964.833	3677.73
965.136	3663.49
965.438	3619.88
965.741	3601.35
966.043	3553.44
966.345	3605.41
966.648	3582.59
966.95	3547.79
967.252	3561.8
967.554	3463.27
967.856	3484.06
968.158	3493.33
968.46	3454.23
968.761	3460.78
969.063	3458.75
969.365	3482.48
969.666	3426.44
969.968	3435.02
970.269	3371.97
970.571	3383.27
970.872	3371.3
971.174	3325.2
971.475	3322.48
971.776	3329.26
972.077	3290.17
972.378	3294.01
972.679	3253.11
972.98	3254.69
973.281	3277.96
973.582	3216.95
973.883	3199.77
974.183	3208.14
974.484	3214.01
974.785	3160.91
975.085	3146.22
975.386	3145.99
975.686	3141.92
975.986	3101.25
976.287	3076.61
976.587	3084.98
976.887	3047.01
977.187	3066.44
977.487	3055.37
977.787	2985.54
978.087	3042.94
978.387	2986.22
978.687	2978.31
978.987	2970.4
979.286	2953.91
979.586	2981.02
979.885	2933.57
980.185	2936.05
980.484	2931.76
980.784	2934.92
981.083	2874.81
981.382	2888.14
981.682	2836.17
981.981	2869.84
982.28	2782.84
982.579	2838.2
982.878	2793.46
983.177	2807.24
983.475	2791.42
983.774	2798.88
984.073	2752.33
984.372	2708.71
984.67	2735.38
984.969	2696.96
985.267	2733.57
985.566	2746.91
985.864	2693.12
986.162	2681.6
986.461	2670.97
986.759	2662.39
987.057	2604.76
987.355	2621.48
987.653	2600.92
987.951	2597.3
988.249	2598.66
988.547	2626.91
988.844	2584.42
989.142	2566.57
989.44	2579
989.737	2534.71
990.035	2539
990.332	2537.87
990.63	2492.45
990.927	2463.75
991.224	2454.94
991.521	2496.52
991.819	2451.55
992.116	2419.23
992.413	2456.74
992.71	2409.96
993.006	2384.65
993.303	2394.6
993.6	2393.69
993.897	2370.42
994.193	2382.39
994.49	2306.24
994.787	2317.54
995.083	2323.41
995.379	2302.17
995.676	2300.14
995.972	2299.69
996.268	2282.96
996.565	2270.76
996.861	2267.14
997.157	2281.83
997.453	2239.8
997.749	2224.43
998.044	2189.86
998.34	2198.9
998.636	2196.19
998.932	2163.19
999.227	2165
999.523	2149.41
999.818	2162.51
1000.114	2151.44
1000.409	2125.9
1000.704	2101.72
1001	2102.4
1001.295	2105.79
1001.59	2054.95
1001.885	2045.68
1002.18	2081.16
1002.475	2041.84
1002.77	2034.61
1003.065	2010.88
1003.359	2033.48
1003.654	2026.92
1003.949	1995.29
1004.243	1967.72
1004.538	1972.69
1004.832	1958.23
1005.127	1931.56
1005.421	1926.36
1005.715	1919.13
1006.009	1901.28
1006.304	1910.77
1006.598	1888.4
1006.892	1885.23
1007.186	1877.78
1007.48	1844.33
1007.773	1856.08
1008.067	1828.51
1008.361	1827.61
1008.655	1827.16
1008.948	1798.46
1009.242	1779.7
1009.535	1786.48
1009.829	1788.74
1010.122	1758.23
1010.415	1758
1010.708	1754.84
1011.001	1759.13
1011.295	1733.82
1011.588	1697.22
1011.881	1706.03
1012.173	1704.22
1012.466	1698.57
1012.759	1682.98
1013.052	1686.37
1013.344	1666.26
1013.637	1666.03
1013.93	1650.44
1014.222	1620.61
1014.514	1619.48
1014.807	1603.66
1015.099	1614.05
1015.391	1579.03
1015.683	1606.82
1015.976	1574.28
1016.268	1562.3
1016.56	1540.16
1016.851	1546.26
1017.143	1551.68
1017.435	1538.12
1017.727	1514.85
1018.018	1541.97
1018.31	1495.41
1018.602	1479.14
1018.893	1477.11
1019.185	1475.3
1019.476	1476.88
1019.767	1459.71
1020.058	1447.05
1020.35	1433.49
1020.641	1412.93
1020.932	1435.53
1021.223	1438.47
1021.514	1398.69
1021.804	1360.27
1022.095	1396.66
1022.386	1387.62
1022.677	1375.87
1022.967	1344.91
1023.258	1345.59
1023.548	1340.39
1023.839	1335.87
1024.129	1330.9
1024.419	1314.17
1024.709	1278.02
1025	1290.9
1025.29	1274.4
1025.58	1277.11
1025.87	1267.85
1026.16	1259.94
1026.449	1236.44
1026.739	1254.29
1027.029	1255.42
1027.319	1212.03
1027.608	1205.02
1027.898	1228.75
1028.187	1204.35
1028.477	1192.6
1028.766	1185.82
1029.055	1172.26
1029.344	1193.95
1029.634	1169.77
1029.923	1158.25
1030.212	1145.37
1030.501	1141.98
1030.79	1144.46
1031.078	1144.01
1031.367	1119.38
1031.656	1119.15
1031.945	1109.66
1032.233	1099.26
1032.522	1072.15
1032.81	1101.52
1033.099	1087.06
1033.387	1055.88
1033.675	1060.85
1033.963	1058.14
1034.251	1007.97
1034.54	1054.07
1034.828	1042.54
1035.116	1017.91
1035.403	1009.78
1035.691	1024.24
1035.979	1003.22
1036.267	1013.84
1036.554	992.83
1036.842	997.8
1037.129	981.98
1037.417	967.29
1037.704	979.49
1037.992	938.82
1038.279	950.57
1038.566	950.34
1038.853	950.34
1039.14	950.34
