Data from hue_350_FLMS001491_4.txt Node
Date: Mon Feb 06 15:37:28 GMT 2017
User: dcchb
Spectrometer: FLMS00149
Trigger mode: 0
Integration Time (sec): 2.000000E-2
Scans to average: 10
Electric dark correction enabled: true
Nonlinearity correction enabled: false
Boxcar width: 0
XAxis mode: Wavelengths
Number of Pixels in Spectrum: 2048
>>>>>Begin Spectral Data<<<<<
341.393	-13.63
341.776	-13.63
342.16	-13.63
342.543	-41.2
342.927	-59.73
343.31	-71.03
343.693	-63.8
344.077	-66.96
344.46	-71.48
344.843	-36.68
345.226	-51.59
345.61	-38.04
345.993	-9.79
346.376	-2.78
346.759	-14.76
347.142	26.14
347.525	54.17
347.908	59.59
348.291	64.56
348.674	100.94
349.057	121.51
349.44	129.64
349.823	145.01
350.206	166.25
350.588	197.21
350.971	214.39
351.354	217.32
351.737	235.4
352.119	252.35
352.502	267.27
352.884	274.95
353.267	265.91
353.65	286.25
354.032	294.38
354.414	305.01
354.797	307.94
355.179	295.51
355.562	302.75
355.944	341.84
356.326	334.38
356.709	340.49
357.091	319.47
357.473	334.61
357.855	324.21
358.238	354.72
358.62	330.09
359.002	339.81
359.384	319.92
359.766	345.91
360.148	349.3
360.53	319.69
360.912	314.95
361.294	318.11
361.676	316.98
362.057	323.31
362.439	329.64
362.821	322.18
363.203	329.19
363.584	316.76
363.966	321.5
364.348	336.87
364.729	323.76
365.111	317.66
365.493	313.14
365.874	299.58
366.256	321.95
366.637	310.66
367.019	284.89
367.4	303.2
367.781	320.6
368.163	318.79
368.544	312.92
368.925	298.68
369.306	321.73
369.688	291.67
370.069	306.59
370.45	291.9
370.831	298.23
371.212	295.06
371.593	296.64
371.974	313.59
372.355	307.27
372.736	305.23
373.117	325.8
373.498	310.43
373.879	313.14
374.26	289.64
374.641	300.03
375.021	320.82
375.402	324.44
375.783	322.63
376.163	330.09
376.544	323.76
376.925	334.84
377.305	315.4
377.686	327.15
378.066	312.01
378.447	330.77
378.827	312.92
379.208	327.6
379.588	305.91
379.968	343.42
380.349	310.66
380.729	333.71
381.109	336.42
381.489	329.19
381.87	325.57
382.25	320.37
382.63	337.32
383.01	322.86
383.39	343.2
383.77	340.03
384.15	342.29
384.53	344.33
384.91	342.97
385.29	325.57
385.67	345.23
386.049	339.36
386.429	329.41
386.809	344.55
387.189	351.11
387.568	348.39
387.948	360.82
388.328	345.23
388.707	361.05
389.087	352.46
389.466	357.43
389.846	347.26
390.225	363.54
390.605	346.59
390.984	354.5
391.363	361.73
391.743	376.42
392.122	364.44
392.501	349.52
392.881	385.46
393.26	385.46
393.639	381.16
394.018	358.56
394.397	359.92
394.776	371.9
395.155	371.45
395.534	361.28
395.913	370.77
396.292	379.35
396.671	405.57
397.05	371.67
397.429	380.03
397.808	383.42
398.186	378.22
398.565	379.58
398.944	377.09
399.323	382.07
399.701	387.94
400.08	378.45
400.458	369.86
400.837	401.05
401.215	397.43
401.594	382.29
401.972	390.65
402.351	391.78
402.729	405.34
403.107	409.86
403.486	414.83
403.864	412.8
404.242	395.85
404.62	403.99
404.999	403.31
405.377	415.06
405.755	420.71
406.133	420.03
406.511	396.76
406.889	416.87
407.267	410.09
407.645	440.6
408.023	423.87
408.401	458.45
408.779	421.84
409.156	437.66
409.534	455.28
409.912	441.05
410.29	438.56
410.667	455.51
411.045	461.16
411.422	452.8
411.8	448.05
412.178	479.46
412.555	481.05
412.933	461.61
413.31	483.76
413.687	480.82
414.065	497.32
414.442	486.92
414.819	486.7
415.197	498.45
415.574	499.58
415.951	499.13
416.328	516.07
416.705	521.27
417.082	502.52
417.46	503.87
417.837	515.4
418.214	512.01
418.591	539.35
418.967	529.63
419.344	525.57
419.721	547.71
420.098	523.76
420.475	528.73
420.852	527.37
421.228	566.92
421.605	547.26
421.982	575.28
422.358	542.51
422.735	571.44
423.111	586.81
423.488	553.59
423.864	575.06
424.241	569.41
424.617	606.69
424.994	573.7
425.37	564.43
425.746	575.96
426.123	577.77
426.499	579.12
426.875	592.91
427.251	592
427.627	600.82
428.003	620.93
428.379	599.46
428.756	610.76
429.132	610.76
429.507	629.97
429.883	638.78
430.259	646.92
430.635	637.43
431.011	648.05
431.387	651.66
431.763	675.62
432.138	660.93
432.514	687.37
432.89	672.91
433.265	694.37
433.641	693.47
434.016	689.4
434.392	717.42
434.767	710.87
435.143	692.79
435.518	721.72
435.894	732.79
436.269	745.45
436.644	743.86
437.02	730.08
437.395	752.45
437.77	744.32
438.145	749.97
438.52	758.55
438.895	774.6
439.271	769.63
439.646	777.31
440.021	787.71
440.395	799.46
440.77	809.63
441.145	787.48
441.52	820.02
441.895	795.39
442.27	818.89
442.645	809.63
443.019	835.16
443.394	814.37
443.769	802.17
444.143	835.61
444.518	828.38
444.892	837.65
445.267	842.62
445.641	845.56
446.016	843.07
446.39	863.41
446.764	878.55
447.139	833.58
447.513	873.13
447.887	854.6
448.262	865.22
448.636	872
449.01	915.16
449.384	896.18
449.758	903.86
450.132	919.23
450.506	894.37
450.88	889.17
451.254	927.59
451.628	928.49
452.002	920.13
452.376	939.34
452.75	970.07
453.123	936.4
453.497	931.43
453.871	988.6
454.244	970.53
454.618	989.51
454.992	1000.81
455.365	979.56
455.739	968.94
456.112	1011.2
456.486	1026.57
456.859	1039.45
457.232	1037.87
457.606	1024.99
457.979	1058.88
458.352	1070.86
458.725	1100.69
459.099	1091.88
459.472	1123.52
459.845	1118.09
460.218	1117.19
460.591	1107.92
460.964	1132.78
461.337	1161.71
461.71	1151.54
462.083	1165.32
462.456	1188.15
462.829	1179.11
463.201	1209.62
463.574	1196.51
463.947	1208.94
464.32	1235.83
464.692	1243.96
465.065	1222.72
465.438	1272.89
465.81	1297.97
466.183	1295.04
466.555	1308.6
466.928	1342.27
467.3	1337.07
467.672	1343.62
468.045	1374.36
468.417	1408.03
468.789	1379.78
469.161	1391.08
469.534	1448.93
469.906	1477.4
470.278	1486.67
470.65	1487.35
471.022	1531.41
471.394	1541.81
471.766	1544.75
472.138	1536.39
472.51	1590.62
472.882	1599.21
473.253	1609.83
473.625	1650.28
473.997	1645.99
474.369	1682.82
474.74	1724.4
475.112	1738.41
475.484	1750.17
475.855	1789.71
476.227	1798.53
476.598	1854.57
476.97	1870.39
477.341	1891.18
477.713	1947
478.084	1947.67
478.455	1995.81
478.827	2048.92
479.198	2063.15
479.569	2068.8
479.94	2141.12
480.311	2154.67
480.682	2189.02
481.053	2260.66
481.424	2302.24
481.795	2319.64
482.166	2317.16
482.537	2373.65
482.908	2430.37
483.279	2465.4
483.65	2481.9
484.021	2463.59
484.391	2594.89
484.762	2586.75
485.133	2596.92
485.503	2675.34
485.874	2728.45
486.244	2724.15
486.615	2762.79
486.985	2818.39
487.356	2885.73
487.726	2918.72
488.097	2955.56
488.467	2941.77
488.837	3040.98
489.207	3036.23
489.578	3107.19
489.948	3141.77
490.318	3218.6
490.688	3217.7
491.058	3243.01
491.428	3309.9
491.798	3313.74
492.168	3397.81
492.538	3451.59
492.908	3464.02
493.278	3506.05
493.648	3510.57
494.017	3571.81
494.387	3596.22
494.757	3666.73
495.126	3665.6
495.496	3715.54
495.866	3745.14
496.235	3766.16
496.605	3782.2
496.974	3805.48
497.344	3868.3
497.713	3853.61
498.082	3887.51
498.452	3937
498.821	3983.55
499.19	3975.19
499.559	3974.29
499.928	4030.11
500.298	4052.25
500.667	4064.91
501.036	4111.01
501.405	4137.67
501.774	4135.87
502.143	4203.21
502.512	4201.85
502.88	4259.25
503.249	4238.91
503.618	4265.35
503.987	4341.96
504.356	4334.73
504.724	4304.45
505.093	4362.75
505.462	4376.09
505.83	4422.19
506.199	4413.82
506.567	4504.44
506.936	4489.3
507.304	4537.89
507.672	4587.38
508.041	4513.03
508.409	4559.36
508.777	4601.84
509.145	4661.73
509.514	4654.95
509.882	4642.75
510.25	4677.55
510.618	4675.29
510.986	4730.43
511.354	4787.83
511.722	4759.58
512.09	4866.02
512.458	4795.51
512.826	4873.02
513.193	4882.29
513.561	4875.28
513.929	4879.35
514.297	4912.57
514.664	4940.14
515.032	4958.44
515.4	4962.96
515.767	5017.65
516.135	5038.44
516.502	5021.27
516.869	5068.04
517.237	5082.06
517.604	5093.13
517.972	5098.1
518.339	5126.35
518.706	5169.28
519.073	5157.99
519.44	5195.95
519.808	5210.19
520.175	5190.08
520.542	5284.54
520.909	5310.75
521.276	5291.77
521.643	5353.46
522.009	5382.16
522.376	5378.55
522.743	5387.81
523.11	5402.95
523.477	5467.81
523.843	5464.64
524.21	5557.07
524.577	5583.74
524.943	5621.48
525.31	5630.06
525.676	5637.97
526.043	5714.58
526.409	5735.6
526.776	5693.79
527.142	5752.55
527.508	5791.64
527.874	5833.45
528.241	5831.41
528.607	5918.19
528.973	5920.23
529.339	5943.05
529.705	5998.87
530.071	6052.88
530.437	6008.58
530.803	6078.64
531.169	6124.29
531.535	6118.19
531.901	6127.9
532.267	6190.73
532.632	6221.23
532.998	6195.25
533.364	6258.75
533.73	6244.96
534.095	6328.12
534.461	6335.58
534.826	6367.22
535.192	6428.46
535.557	6459.19
535.923	6447.9
536.288	6509.14
536.653	6541
537.019	6528.8
537.384	6529.7
537.749	6593.65
538.114	6599.08
538.479	6596.59
538.845	6642.47
539.21	6566.76
539.575	6671.39
539.94	6687.44
540.305	6705.97
540.67	6733.54
541.034	6758.4
541.399	6833.65
541.764	6855.79
542.129	6897.6
542.494	6868.22
542.858	6917.71
543.223	6899.41
543.587	7007.2
543.952	7010.37
544.316	7031.61
544.681	7049.91
545.045	7079.29
545.41	7130.59
545.774	7203.81
546.138	7183.92
546.503	7180.53
546.867	7193.19
547.231	7205.16
547.595	7248.55
547.959	7256.69
548.324	7284.48
548.688	7341.66
549.052	7391.6
549.416	7397.25
549.779	7351.15
550.143	7364.03
550.507	7499.85
550.871	7503.69
551.235	7496.91
551.599	7565.83
551.962	7529.45
552.326	7614.19
552.689	7641.76
553.053	7608.77
553.417	7626.62
553.78	7665.72
554.143	7677.02
554.507	7752.49
554.87	7748.43
555.234	7847.18
555.597	7793.62
555.96	7804.47
556.323	7831.14
556.686	7827.29
557.05	7970.34
557.413	7905.26
557.776	7902.32
558.139	8023.9
558.502	7966.5
558.865	8055.31
559.228	8015.31
559.59	8097.57
559.953	8151.35
560.316	8199.94
560.679	8159.49
561.041	8217.57
561.404	8344.12
561.767	8302.31
562.129	8291.01
562.492	8359.94
562.854	8397.67
563.217	8386.15
563.579	8365.59
563.941	8420.27
564.304	8462.98
564.666	8464.34
565.028	8534.17
565.39	8539.59
565.753	8601.51
566.115	8600.83
566.477	8677.67
566.839	8643.77
567.201	8785.01
567.563	8720.38
567.925	8740.49
568.287	8893.25
568.648	8869.07
569.01	8784.33
569.372	8915.63
569.734	8879.92
570.095	9025.23
570.457	9059.35
570.819	8997.43
571.18	9165.79
571.542	9195.62
571.903	9197.65
572.265	9222.51
572.626	9227.71
572.987	9263.19
573.349	9348.84
573.71	9463.64
574.071	9514.26
574.432	9546.35
574.794	9566.23
575.155	9641.71
575.516	9691.43
575.877	9688.94
576.238	9778.2
576.599	9815.94
576.96	9941.14
577.32	9964.87
577.681	10081.25
578.042	10083.05
578.403	10214.58
578.763	10310.84
579.124	10353.33
579.485	10547
579.845	10530.95
580.206	10699.31
580.566	10796.26
580.927	10873.09
581.287	11036.48
581.648	11066.08
582.008	11238.5
582.368	11310.14
582.728	11530.7
583.089	11611.15
583.449	11747.64
583.809	11960.74
584.169	12109.22
584.529	12244.13
584.889	12525.02
585.249	12594.17
585.609	12765.47
585.969	13005.46
586.329	13135.4
586.688	13373.36
587.048	13571.78
587.408	13723.86
587.768	13953.69
588.127	14146.9
588.487	14374.69
588.846	14717.06
589.206	14788.02
589.565	15029.82
589.925	15318.85
590.284	15566.07
590.643	15835.67
591.003	16132.84
591.362	16383.45
591.721	16461.42
592.08	16834.51
592.44	17203.09
592.799	17367.16
593.158	17580.26
593.517	17965.11
593.876	18244.65
594.235	18431.99
594.593	18735.03
594.952	18985.87
595.311	19246.2
595.67	19601
596.029	19965.05
596.387	20338.6
596.746	20558.71
597.104	20702.66
597.463	20958.47
597.822	21375.19
598.18	21571.79
598.538	21792.58
598.897	22209.74
599.255	22257.42
599.613	22951.19
599.972	22995.03
600.33	23206.55
600.688	23510.05
601.046	23886.53
601.404	24193.42
601.762	24382.57
602.12	24722.9
602.478	25052.38
602.836	25206.27
603.194	25303.22
603.552	25713.83
603.91	25803.54
604.268	26242.18
604.625	26366.02
604.983	26696.85
605.341	26801.03
605.698	27236.28
606.056	27438.08
606.413	27695.92
606.771	28029.47
607.128	28172.97
607.485	28326.87
607.843	28612.96
608.2	28963.46
608.557	29187.86
608.914	29231.25
609.272	29662.43
609.629	29827.85
609.986	30094.51
610.343	30146.03
610.7	30623.76
611.057	30670.99
611.414	30752.12
611.771	30998.89
612.127	31284.53
612.484	31404.08
612.841	31672.32
613.198	31573.79
613.554	31909.15
613.911	32195.02
614.267	32330.15
614.624	32514.1
614.98	32656.02
615.337	32986.86
615.693	33021.66
616.05	33077.25
616.406	33496.68
616.762	33428.43
617.118	33580.06
617.475	33699.61
617.831	33927.4
618.187	34060.73
618.543	34200.39
618.899	34502.98
619.255	34435.86
619.611	34641.96
619.967	34802.63
620.323	34997.88
620.678	35013.47
621.034	34961.04
621.39	35203.07
621.746	35265.44
622.101	35730.52
622.457	35431.31
622.812	35663.4
623.168	35855.48
623.523	35877.18
623.879	36087.79
624.234	35828.82
624.589	36122.6
624.945	36110.62
625.3	36291.63
625.655	36253.67
626.01	36366.43
626.365	36485.07
626.72	36392.64
627.075	36481.46
627.43	36721.9
627.785	36617.5
628.14	36808.91
628.495	36816.81
628.85	36792.18
629.205	36838.06
629.559	37114.89
629.914	37008.22
630.269	37044.61
630.623	36908.79
630.978	36987.88
631.332	37190.82
631.687	37167.54
632.041	37098.39
632.396	37134.09
632.75	37019.07
633.104	37191.04
633.459	37072.63
633.813	37265.16
634.167	37116.02
634.521	37143.36
634.875	37291.15
635.229	37159.86
635.583	37129.35
635.937	37161.44
636.291	37187.88
636.645	37247.31
636.999	37117.15
637.352	37306.52
637.706	37023.81
638.06	37285.5
638.413	37228.56
638.767	37060.88
639.121	37143.81
639.474	36984.72
639.828	37152.4
640.181	37109.46
640.534	37243.24
640.888	37055.9
641.241	36901.33
641.594	37118.5
641.947	37107.88
642.301	37167.31
642.654	37169.12
643.007	37157.6
643.36	36967.32
643.713	36981.78
644.066	37253.41
644.419	36816.81
644.771	36669.02
645.124	36340.67
645.477	36310.84
645.83	36263.38
646.182	36122.82
646.535	35918.31
646.888	35918.53
647.24	35937.97
647.593	35961.92
647.945	35977.51
648.298	35911.53
648.65	35854.35
649.002	35652.78
649.355	35921.47
649.707	35789.95
650.059	35977.29
650.411	36410.05
650.763	36430.38
651.115	36823.37
651.467	36676.03
651.819	36777.49
652.171	36677.61
652.523	36648.23
652.875	36590.61
653.227	36428.8
653.578	36648.46
653.93	36614.79
654.282	36489.82
654.633	36401.01
654.985	36540.21
655.337	36420.67
655.688	36545.41
656.039	36527.33
656.391	36311.07
656.742	36406.66
657.094	36235.13
657.445	36504.28
657.796	36491.4
658.147	36347.67
658.498	36470.61
658.849	36413.21
659.2	36323.95
659.551	36284.85
659.902	36429.71
660.253	36270.61
660.604	36412.53
660.955	36245.3
661.306	36363.27
661.656	36280.56
662.007	36210.73
662.358	36215.47
662.708	36325.08
663.059	36203.5
663.409	35962.83
663.76	36186.55
664.11	36251.18
664.461	36357.62
664.811	36211.41
665.161	36084.4
665.511	36041.92
665.862	36175.02
666.212	36230.39
666.562	36277.17
666.912	36218.64
667.262	36109.04
667.612	36189.71
667.962	36251.86
668.312	36131.41
668.662	36193.1
669.011	36237.85
669.361	36160.56
669.711	36099.77
670.06	36049.83
670.41	35876.95
670.76	35938.19
671.109	36091.86
671.459	36084.4
671.808	36081.69
672.157	35975.93
672.507	35886.67
672.856	35794.47
673.205	35921.7
673.554	36003.05
673.904	35832.43
674.253	36127.34
674.602	35894.58
674.951	35400.13
675.3	35372.11
675.649	35888.25
675.998	35769.84
676.346	35838.54
676.695	35872.66
677.044	35594.93
677.393	35789.72
677.741	35855.03
678.09	35803.28
678.438	35683.96
678.787	35590.63
679.135	35706.34
679.484	35392.9
679.832	35490.07
680.181	35285.78
680.529	35573.68
680.877	35356.97
681.225	35404.2
681.573	35555.38
681.922	35283.3
682.27	35155.84
682.618	35263.63
682.966	34984.55
683.314	35213.69
683.661	35038.78
684.009	34866.58
684.357	34898.9
684.705	34712.01
685.053	34791.56
685.4	34755.85
685.748	34676.31
686.095	34645.57
686.443	34574.61
686.79	34551.34
687.138	34578.23
687.485	34592.01
687.832	34511.11
688.18	34457.55
688.527	34314.96
688.874	34189.09
689.221	34086.26
689.568	34034.97
689.915	34042.88
690.262	34057.34
690.609	33936.44
690.956	33805.82
691.303	33774.86
691.65	33594.75
691.997	33566.05
692.344	33376.45
692.69	33485.38
693.037	33315.21
693.383	33131.04
693.73	33240.86
694.077	32996.8
694.423	33135.78
694.769	32820.54
695.116	32896.69
695.462	32689.47
695.808	32819.18
696.155	32787.09
696.501	32608.79
696.847	32555.46
697.193	32304.62
697.539	32445.18
697.885	32103.27
698.231	32158.41
698.577	32007.22
698.923	32072.08
699.269	31866.44
699.614	31675.03
699.96	31764.52
700.306	31818.08
700.651	31507.12
700.997	31432.55
701.342	31384.19
701.688	31449.95
702.033	31181.48
702.379	31267.58
702.724	31112.78
703.069	31258.32
703.415	30840.02
703.76	30875.05
704.105	30908.95
704.45	30916.63
704.795	30614.27
705.14	30601.84
705.485	30484.1
705.83	30368.4
706.175	30478.45
706.52	30348.28
706.865	30185.12
707.209	30155.75
707.554	30187.16
707.899	30236.2
708.243	29985.13
708.588	30057.9
708.932	29763.89
709.277	29759.6
709.621	29769.54
709.966	29627.85
710.31	29576.78
710.654	29424.01
710.998	29543.33
711.342	29443.9
711.687	29367.97
712.031	29252.04
712.375	29180.41
712.719	29177.47
713.063	29249.56
713.407	29192.61
713.75	29138.82
714.094	29052.72
714.438	28844.37
714.782	28980.64
715.125	28757.14
715.469	28739.29
715.812	28671.72
716.156	28448.67
716.499	28487.54
716.843	28605.5
717.186	28396.7
717.53	28546.3
717.873	28528.9
718.216	28353.99
718.559	28243.03
718.902	28073.09
719.246	28195.12
719.589	28182.69
719.932	27965.52
720.275	27961.23
720.617	27910.61
720.96	27948.35
721.303	27860.44
721.646	27962.13
721.989	27703.16
722.331	27767.11
722.674	27654.57
723.016	27668.81
723.359	27590.62
723.701	27640.33
724.044	27471.52
724.386	27228.59
724.729	27471.98
725.071	27351.3
725.413	27262.04
725.755	27245.77
726.097	27179.55
726.439	27039.67
726.782	27109.73
727.124	27252.55
727.465	27004.19
727.807	27090.74
728.149	26985.66
728.491	26954.47
728.833	26933.68
729.175	26821.15
729.516	26848.04
729.858	26840.81
730.199	26895.04
730.541	26696.4
730.882	26822.27
731.224	26756.74
731.565	26641.04
731.906	26640.36
732.248	26536.63
732.589	26482.17
732.93	26463.64
733.271	26500.93
733.612	26420.7
733.953	26491.66
734.294	26185.68
734.635	26003.77
734.976	26293.93
735.317	26123.31
735.658	26107.72
735.999	26097.55
736.339	26067.04
736.68	26068.62
737.021	26019.58
737.361	25896.2
737.702	26034.05
738.042	25857.78
738.383	25871.57
738.723	25903.2
739.063	25723.09
739.404	25847.39
739.744	25824.11
740.084	25565.36
740.424	25688.07
740.764	25644.68
741.104	25707.95
741.444	25522.2
741.784	25474.06
742.124	25555.42
742.464	25605.58
742.804	25314.74
743.143	25301.64
743.483	25388.64
743.823	25178.48
744.162	25346.61
744.502	25357
744.841	25114.98
745.181	25255.76
745.52	25026.84
745.86	25162.21
746.199	25150.91
746.538	24965.37
746.877	25099.83
747.216	25094.64
747.556	25006.5
747.895	24973.74
748.234	24867.3
748.573	24816.9
748.911	24859.61
749.25	24856.22
749.589	24594.08
749.928	24615.33
750.267	24654.65
750.605	24618.94
750.944	24513.86
751.283	24425.95
751.621	24605.84
751.96	24385.5
752.298	24372.17
752.636	24455.56
752.975	24311.61
753.313	24160.2
753.651	24298.73
753.989	24121.1
754.327	24132.4
754.666	24072.06
755.004	24089.47
755.342	24115.68
755.679	23933.99
756.017	23857.83
756.355	23923.82
756.693	23849.25
757.031	23778.51
757.368	23612.42
757.706	23665.07
758.044	23613.55
758.381	23649.93
758.719	23545.75
759.056	23494.68
759.394	23414.23
759.731	23365.87
760.068	23105.31
760.405	23141.92
760.743	22983.96
761.08	23133.11
761.417	23000
761.754	22945.31
762.091	22967.46
762.428	22792.32
762.765	22655.83
763.102	22710.29
763.438	22603.63
763.775	22535.83
764.112	22612.67
764.449	22465.78
764.785	22427.14
765.122	22327.93
765.458	22202.96
765.795	22160.93
766.131	22203.41
766.467	22107.14
766.804	21938.79
767.14	21925.45
767.476	21873.25
767.812	21837.55
768.148	21758.68
768.485	21593.03
768.821	21542.19
769.157	21588.97
769.492	21485.01
769.828	21376.99
770.164	21216.55
770.5	21186.94
770.836	21179.49
771.171	21052.94
771.507	21040.05
771.842	20834.86
772.178	20893.39
772.513	20811.36
772.849	20736.56
773.184	20614.3
773.519	20727.07
773.855	20517.13
774.19	20343.8
774.525	20385.16
774.86	20360.07
775.195	20229.68
775.53	20127.99
775.865	20069.68
776.2	19885.51
776.535	19840.31
776.87	19879.86
777.205	19792.4
777.539	19735.68
777.874	19716.02
778.209	19467.67
778.543	19518.29
778.878	19369.59
779.212	19389.25
779.547	19221.8
779.881	19313.55
780.215	19128.92
780.55	19227.9
780.884	19111.74
781.218	19029.03
781.552	18992.42
781.886	18884.4
782.22	18762.37
782.554	18670.62
782.888	18548.82
783.222	18487.13
783.556	18424.3
783.889	18356.06
784.223	18272.67
784.557	18208.04
784.89	18191.99
785.224	18082.62
785.557	18021.6
785.891	17982.06
786.224	17957.88
786.558	17965.56
786.891	17789.07
787.224	17698.22
787.557	17719.01
787.891	17586.36
788.224	17565.12
788.557	17556.76
788.89	17470.88
789.223	17403.54
789.556	17343.43
789.888	17190.66
790.221	17245.58
790.554	17050.1
790.887	17115.64
791.219	16992.02
791.552	17048.07
791.884	16856.89
792.217	16817.34
792.549	16847.4
792.882	16696.44
793.214	16626.38
793.546	16580.51
793.879	16501.42
794.211	16452.15
794.543	16489.89
794.875	16376
795.207	16378.71
795.539	16318.14
795.871	16334.64
796.203	16179.84
796.535	16096.68
796.867	16076.57
797.198	16072.95
797.53	15971.49
797.862	15928.78
798.193	16022.78
798.525	15884.94
798.856	15910.47
799.188	15707.99
799.519	15669.12
799.85	15493.53
800.182	15605.17
800.513	15611.72
800.844	15445.4
801.175	15457.6
801.506	15465.74
801.837	15318.85
802.168	15320.2
802.499	15270.04
802.83	15204.28
803.161	15221.68
803.491	15133.77
803.822	15127.44
804.153	14960.67
804.483	14876.83
804.814	14932.64
805.145	14830.5
805.475	14822.82
805.805	14795.02
806.136	14755.25
806.466	14741.69
806.796	14722.71
807.126	14548.25
807.457	14560.9
807.787	14578.3
808.117	14498.98
808.447	14458.76
808.777	14472.09
809.107	14401.58
809.436	14331.98
809.766	14374.01
810.096	14270.29
810.426	14311.64
810.755	14298.31
811.085	14172.89
811.414	14183.06
811.744	14023.97
812.073	14094.7
812.403	14000.69
812.732	13885.21
813.061	13896.97
813.39	13848.15
813.719	13878.43
814.049	13863.29
814.378	13866.01
814.707	13776.52
815.036	13741.04
815.365	13706.46
815.693	13532.91
816.022	13555.96
816.351	13588.72
816.68	13528.61
817.008	13514.38
817.337	13418.33
817.665	13412.23
817.994	13440.93
818.322	13364.1
818.651	13240.26
818.979	13254.95
819.307	13337.21
819.636	13298.11
819.964	13126.59
820.292	13242.52
820.62	13308.51
820.948	13141.96
821.276	13180.15
821.604	13113.26
821.932	13164.78
822.259	13156.65
822.587	13180.83
822.915	13126.59
823.243	13130.88
823.57	13064.44
823.898	13114.61
824.225	13022.64
824.553	13047.95
824.88	12989.42
825.207	13118.68
825.535	13009.08
825.862	13043.65
826.189	13056.76
826.516	13065.35
826.843	13063.77
827.17	13094.05
827.497	13115.97
827.824	13124.78
828.151	13005.92
828.478	13108.96
828.805	13115.29
829.131	13015.18
829.458	12969.76
829.785	13001.62
830.111	12939.7
830.438	13050.21
830.764	13092.47
831.09	13004.79
831.417	12997.55
831.743	13022.86
832.069	12955.75
832.395	12955.97
832.722	12948.06
833.048	12884.79
833.374	12859.48
833.7	12875.52
834.026	12844.79
834.351	12945.58
834.677	12885.24
835.003	12904.22
835.329	12878.01
835.654	12832.13
835.98	12774.96
836.306	12859.7
836.631	12820.61
836.956	12786.94
837.282	12841.85
837.607	12736.54
837.932	12713.04
838.258	12772.7
838.583	12703.32
838.908	12540.84
839.233	12679.82
839.558	12527.74
839.883	12582.2
840.208	12493.39
840.533	12538.36
840.858	12532.48
841.182	12530.22
841.507	12469.21
841.832	12397.8
842.156	12444.35
842.481	12363.9
842.805	12400.06
843.13	12375.88
843.454	12334.07
843.778	12212.94
844.103	12244.58
844.427	12179.5
844.751	12149.44
845.075	12164.13
845.399	12054.53
845.723	12045.26
846.047	12021.99
846.371	11914.19
846.695	11945.38
847.019	11851.37
847.343	11769.11
847.666	11755.55
847.99	11694.31
848.313	11730.69
848.637	11662.22
848.96	11637.82
849.284	11557.37
849.607	11478.72
849.931	11399.63
850.254	11412.51
850.577	11390.14
850.9	11264.94
851.223	11251.61
851.546	11237.37
851.869	11226.75
852.192	11243.25
852.515	11071.73
852.838	11094.78
853.161	11014.33
853.483	10983.14
853.806	10918.74
854.129	10930.72
854.451	10859.08
854.774	10868.12
855.096	10765.3
855.419	10773.66
855.741	10723.26
856.063	10704.96
856.385	10689.82
856.708	10554.91
857.03	10614.57
857.352	10577.28
857.674	10535.02
857.996	10569.37
858.318	10464.51
858.64	10502.93
858.961	10480.56
859.283	10442.59
859.605	10355.36
859.926	10420.22
860.248	10249.15
860.57	10273.78
860.891	10273.11
861.212	10256.16
861.534	10114.47
861.855	10151.75
862.176	10188.36
862.498	10163.96
862.819	10123.51
863.14	10021.81
863.461	10057.07
863.782	9971.64
864.103	9984.53
864.424	9996.28
864.745	9961.48
865.065	9937.52
865.386	9910.63
865.707	9911.76
866.027	9967.12
866.348	9981.14
866.668	9955.37
866.989	9873.57
867.309	9786.56
867.63	9836.05
867.95	9800.8
868.27	9713.57
868.59	9783.17
868.91	9830.63
869.23	9703.86
869.55	9742.05
869.87	9730.3
870.19	9671.54
870.51	9695.04
870.83	9660.47
871.15	9572.56
871.469	9639
871.789	9670.18
872.109	9622.05
872.428	9551.77
872.748	9581.37
873.067	9517.42
873.386	9625.21
873.706	9512.45
874.025	9549.28
874.344	9499.34
874.663	9510.87
874.982	9520.81
875.301	9460.47
875.62	9377.54
875.939	9348.61
876.258	9378.67
876.577	9333.7
876.896	9312.45
877.214	9401.26
877.533	9323.3
877.852	9352.9
878.17	9294.83
878.489	9340.93
878.807	9274.26
879.125	9285.56
879.444	9304.32
879.762	9231.33
880.08	9210.53
880.398	9169.41
880.716	9210.99
881.034	9125.11
881.352	9154.49
881.67	9074.49
881.988	9076.98
882.306	9027.26
882.624	9088.28
882.941	8973.93
883.259	8989.3
883.577	8953.59
883.894	8959.02
884.212	8928.28
884.529	8937.32
884.846	8946.13
885.164	8895.51
885.481	8851.45
885.798	8913.82
886.115	8819.58
886.432	8849.64
886.75	8787.72
887.067	8811.68
887.383	8760.83
887.7	8746.59
888.017	8666.59
888.334	8693.71
888.651	8651.68
888.967	8693.49
889.284	8634.73
889.6	8580.95
889.917	8578.46
890.233	8494.85
890.55	8546.37
890.866	8543.66
891.182	8494.4
891.498	8403.1
891.815	8437.22
892.131	8402.42
892.447	8378.24
892.763	8321.52
893.079	8365.59
893.395	8320.84
893.71	8280.16
894.026	8275.42
894.342	8247.85
894.657	8121.98
894.973	8210.11
895.289	8138.47
895.604	8170.34
895.92	8067.06
896.235	8033.16
896.55	8032.71
896.865	8020.06
897.181	7989.32
897.496	8034.52
897.811	7939.83
898.126	7985.48
898.441	7878.82
898.756	7839.72
899.071	7759.73
899.386	7809.22
899.7	7705.26
900.015	7698.71
900.33	7683.12
900.644	7663.46
900.959	7680.63
901.273	7663
901.588	7569.22
901.902	7544.59
902.216	7476.12
902.531	7498.72
902.845	7479.51
903.159	7488.77
903.473	7391.83
903.787	7348.66
904.101	7345.05
904.415	7332.39
904.729	7300.08
905.042	7313.18
905.356	7253.07
905.67	7269.79
905.984	7256.69
906.297	7234.32
906.611	7238.61
906.924	7186.41
907.237	7171.94
907.551	7103.92
907.864	7053.98
908.177	7057.37
908.491	7058.73
908.804	6982.12
909.117	6938.96
909.43	6851.05
909.743	6869.58
910.056	6894.44
910.368	6828.22
910.681	6859.86
910.994	6810.82
911.307	6711.17
911.619	6681.34
911.932	6725.18
912.244	6674.1
912.557	6616.03
912.869	6632.75
913.181	6617.61
913.494	6576.71
913.806	6513.66
914.118	6551.4
914.43	6491.28
914.742	6450.61
915.054	6435.92
915.366	6435.69
915.678	6348.91
915.99	6337.62
916.302	6328.35
916.613	6295.13
916.925	6256.94
917.236	6250.61
917.548	6223.95
917.859	6207.45
918.171	6122.48
918.482	6157.73
918.794	6086.55
919.105	6114.34
919.416	6044.97
919.727	6025.99
920.038	6030.28
920.349	5971.07
920.66	6005.2
920.971	5920.68
921.282	5962.03
921.593	5850.62
921.903	5899.44
922.214	5853.56
922.525	5814.24
922.835	5784.64
923.146	5790.06
923.456	5765.43
923.767	5745.77
924.077	5713
924.387	5688.82
924.697	5672.1
925.008	5655.37
925.318	5590.74
925.628	5608.37
925.938	5593.68
926.248	5536.96
926.558	5512.78
926.867	5517.75
927.177	5468.71
927.487	5461.71
927.796	5365.66
928.106	5369.51
928.416	5387.58
928.725	5350.52
929.034	5306.23
929.344	5298.32
929.653	5351.88
929.962	5269.85
930.271	5311.2
930.581	5226.68
930.89	5174.03
931.199	5165.44
931.508	5194.6
931.817	5136.52
932.125	5139
932.434	5136.29
932.743	5039.8
933.051	5035.05
933.36	4978.78
933.669	4960.93
933.977	4950.53
934.286	5017.42
934.594	4933.13
934.902	4914.15
935.21	4909.86
935.519	4903.76
935.827	4870.08
936.135	4830.99
936.443	4820.37
936.751	4803.42
937.059	4797.09
937.367	4734.04
937.674	4709.18
937.982	4711.67
938.29	4698.34
938.597	4674.38
938.905	4586.93
939.213	4598.45
939.52	4590.32
939.827	4573.14
940.135	4555.29
940.442	4580.15
940.749	4494.05
941.056	4580.15
941.363	4488.85
941.67	4480.72
941.977	4450.21
942.284	4409.98
942.591	4420.6
942.898	4448.63
943.205	4416.08
943.511	4318.46
943.818	4344.9
944.125	4346.71
944.431	4272.81
944.738	4268.97
945.044	4270.78
945.35	4264
945.657	4231.91
945.963	4192.59
946.269	4208.41
946.575	4187.84
946.881	4164.79
947.187	4156.66
947.493	4120.27
947.799	4104.45
948.105	4080.95
948.41	4043.66
948.716	4045.92
949.022	4016.55
949.327	4013.16
949.633	3993.95
949.938	3990.78
950.244	3971.58
950.549	3942.42
950.854	3925.25
951.16	3921.41
951.465	3903.33
951.77	3887.06
952.075	3871.01
952.38	3834.18
952.685	3846.83
952.99	3817
953.294	3812.71
953.599	3800.96
953.904	3781.52
954.209	3715.09
954.513	3754.41
954.818	3759.38
955.122	3721.41
955.426	3692.04
955.731	3697.01
956.035	3692.04
956.339	3643
956.643	3619.5
956.948	3650.68
957.252	3613.62
957.556	3614.52
957.86	3556.22
958.163	3606.16
958.467	3566.39
958.771	3555.54
959.075	3555.32
959.378	3523.23
959.682	3464.25
959.985	3493.17
960.289	3428.54
960.592	3439.84
960.896	3431.03
961.199	3375.43
961.502	3394.42
961.805	3334.3
962.108	3351.03
962.411	3342.89
962.714	3380.41
963.017	3334.08
963.32	3343.12
963.623	3292.05
963.926	3238.04
964.228	3251.6
964.531	3224.93
964.833	3256.34
965.136	3218.83
965.438	3222.9
965.741	3196.68
966.043	3145.61
966.345	3155.78
966.648	3167.3
966.95	3159.62
967.252	3115.55
967.554	3113.07
967.856	3052.96
968.158	3071.49
968.46	3082.56
968.761	3045.95
969.063	3019.29
969.365	3041.88
969.666	2995.1
969.968	2995.56
970.269	3007.76
970.571	2995.1
970.872	2961.21
971.174	2936.35
971.475	2916.46
971.776	2922.34
972.077	2900.19
972.378	2927.99
972.679	2913.07
972.98	2873.53
973.281	2861.55
973.582	2811.83
973.883	2824.49
974.183	2823.13
974.484	2785.62
974.785	2810.25
975.085	2797.14
975.386	2800.76
975.686	2772.29
975.986	2782
976.287	2792.17
976.587	2699.97
976.887	2729.8
977.187	2698.84
977.487	2698.84
977.787	2669.46
978.087	2680.76
978.387	2683.02
978.687	2667.2
978.987	2666.07
979.286	2616.36
979.586	2623.36
979.885	2587.66
980.185	2597.15
980.484	2564.83
980.784	2560.09
981.083	2556.92
981.382	2528.22
981.682	2549.01
981.981	2535.91
982.28	2498.62
982.579	2471.73
982.878	2508.56
983.177	2472.86
983.475	2482.12
983.774	2439.19
984.073	2450.94
984.372	2446.42
984.67	2434.89
984.969	2401.9
985.267	2408.23
985.566	2424.27
985.864	2423.37
986.162	2344.5
986.461	2373.2
986.759	2371.84
987.057	2342.01
987.355	2311.51
987.653	2341.34
987.951	2289.81
988.249	2303.15
988.547	2308.12
988.844	2307.67
989.142	2292.52
989.44	2238.97
989.737	2241
990.035	2231.96
990.332	2246.65
990.63	2207.33
990.927	2220.66
991.224	2214.11
991.521	2201.45
991.819	2183.37
992.116	2176.6
992.413	2160.32
992.71	2155.13
993.006	2163.71
993.303	2137.95
993.6	2141.79
993.897	2124.62
994.193	2158.97
994.49	2068.12
994.787	2086.65
995.083	2108.8
995.379	2069.03
995.676	2021.57
995.972	2078.29
996.268	2035.13
996.565	2006.88
996.861	2050.72
997.157	2023.83
997.453	1995.13
997.749	2005.53
998.044	1985.64
998.34	1986.32
998.636	1968.92
998.932	1932.76
999.227	1947.45
999.523	1932.08
999.818	1928.92
1000.114	1908.58
1000.409	1899.09
1000.704	1878.75
1001	1902.03
1001.295	1847.34
1001.59	1857.73
1001.885	1877.17
1002.18	1840.56
1002.475	1849.82
1002.77	1839.2
1003.065	1823.61
1003.359	1829.26
1003.654	1814.34
1003.949	1783.16
1004.243	1772.31
1004.538	1766.66
1004.832	1733.22
1005.127	1743.84
1005.421	1749.26
1005.715	1724.4
1006.009	1696.61
1006.304	1702.48
1006.598	1708.59
1006.892	1694.12
1007.186	1702.26
1007.48	1692.99
1007.773	1681.24
1008.067	1652.32
1008.361	1654.35
1008.655	1603.28
1008.948	1632.43
1009.242	1637.17
1009.535	1643.73
1009.829	1622.49
1010.122	1621.36
1010.415	1573.67
1010.708	1587.91
1011.001	1551.08
1011.295	1537.97
1011.588	1522.38
1011.881	1540.68
1012.173	1527.57
1012.466	1547.01
1012.759	1500.45
1013.052	1514.24
1013.344	1527.12
1013.637	1499.55
1013.93	1488.25
1014.222	1488.7
1014.514	1448.48
1014.807	1436.73
1015.099	1434.47
1015.391	1469.5
1015.683	1448.7
1015.976	1421.36
1016.268	1413.45
1016.56	1413
1016.851	1387.69
1017.143	1397.86
1017.435	1397.41
1017.727	1407.12
1018.018	1351.98
1018.31	1366.9
1018.602	1354.7
1018.893	1345.88
1019.185	1340.69
1019.476	1310.18
1019.767	1298.2
1020.058	1302.72
1020.35	1300.69
1020.641	1275.6
1020.932	1282.38
1021.223	1277.86
1021.514	1277.41
1021.804	1288.94
1022.095	1264.53
1022.386	1247.58
1022.677	1226.34
1022.967	1232.67
1023.258	1228.37
1023.548	1232.44
1023.839	1220.24
1024.129	1184.76
1024.419	1187.24
1024.709	1199.9
1025	1182.95
1025.29	1151.09
1025.58	1160.8
1025.87	1155.15
1026.16	1143.4
1026.449	1152.67
1026.739	1140.01
1027.029	1149.05
1027.319	1135.04
1027.608	1102.73
1027.898	1092.56
1028.187	1103.18
1028.477	1080.58
1028.766	1089.39
1029.055	1089.62
1029.344	1059.34
1029.634	1066.57
1029.923	1050.75
1030.212	1058.88
1030.501	1031.31
1030.79	1028.38
1031.078	1014.37
1031.367	1036.96
1031.656	1022.5
1031.945	1016.85
1032.233	998.77
1032.522	1007.13
1032.81	979.11
1033.099	995.16
1033.387	994.25
1033.675	954.71
1033.963	987.93
1034.251	970.98
1034.54	966.23
1034.828	984.54
1035.116	947.02
1035.403	951.09
1035.691	944.31
1035.979	930.53
1036.267	934.82
1036.554	893.69
1036.842	909.06
1037.129	912.9
1037.417	893.47
1037.704	896.18
1037.992	887.82
1038.279	896.63
1038.566	875.84
1038.853	875.84
1039.14	875.84
