Data from hue_310_FLMS001491_55.txt Node
Date: Mon Feb 06 15:49:53 GMT 2017
User: dcchb
Spectrometer: FLMS00149
Trigger mode: 0
Integration Time (sec): 2.000000E-2
Scans to average: 10
Electric dark correction enabled: true
Nonlinearity correction enabled: false
Boxcar width: 0
XAxis mode: Wavelengths
Number of Pixels in Spectrum: 2048
>>>>>Begin Spectral Data<<<<<
341.393	-13.22
341.776	-13.22
342.16	-13.22
342.543	-44.18
342.927	-67
343.31	-65.2
343.693	-59.77
344.077	-53.22
344.46	-54.12
344.843	-57.06
345.226	-37.4
345.61	-31.98
345.993	-13.9
346.376	3.73
346.759	-8.02
347.142	27.68
347.525	28.81
347.908	45.31
348.291	70.85
348.674	88.02
349.057	116.27
349.44	141.35
349.823	148.36
350.206	175.02
350.588	199.88
350.971	220.45
351.354	227.9
351.737	241.91
352.119	246.66
352.502	252.99
352.884	270.61
353.267	272.2
353.65	290.73
354.032	291.63
354.414	300.44
354.797	303.83
355.179	313.33
355.562	313.33
355.944	311.29
356.326	311.07
356.709	355.13
357.091	334.12
357.473	369.37
357.855	331.86
358.238	325.75
358.62	347.67
359.002	354.23
359.384	340.22
359.766	335.92
360.148	317.39
360.53	353.1
360.912	341.12
361.294	344.28
361.676	341.12
362.057	342.93
362.439	330.27
362.821	319.88
363.203	326.43
363.584	325.08
363.966	339.31
364.348	321.69
364.729	344.51
365.111	321.23
365.493	311.29
365.874	335.02
366.256	330.27
366.637	294.57
367.019	310.16
367.4	318.97
367.781	316.49
368.163	305.64
368.544	321.23
368.925	333.44
369.306	328.47
369.688	316.26
370.069	311.29
370.45	303.83
370.831	325.08
371.212	303.38
371.593	314
371.974	312.65
372.355	327.79
372.736	329.82
373.117	330.95
373.498	307.45
373.879	327.34
374.26	301.12
374.641	337.73
375.021	313.33
375.402	320.56
375.783	320.56
376.163	310.39
376.544	321.46
376.925	324.17
377.305	321.23
377.686	337.96
378.066	317.39
378.447	340.44
378.827	315.36
379.208	332.99
379.588	347
379.968	341.12
380.349	329.37
380.729	336.38
381.109	345.41
381.489	352.42
381.87	338.64
382.25	337.51
382.63	352.65
383.01	328.69
383.39	357.62
383.77	339.09
384.15	359.43
384.53	354.68
384.91	331.4
385.29	354
385.67	358.97
386.049	360.56
386.429	372.53
386.809	361.46
387.189	353.55
387.568	346.54
387.948	347
388.328	375.24
388.707	381.57
389.087	369.59
389.466	368.69
389.846	364.85
390.225	368.92
390.605	359.65
390.984	377.73
391.363	373.44
391.743	365.53
392.122	372.98
392.501	368.46
392.881	371.4
393.26	370.72
393.639	394.68
394.018	372.76
394.397	384.06
394.776	378.86
395.155	389.48
395.534	360.56
395.913	382.25
396.292	400.1
396.671	389.26
397.05	390.39
397.429	420.89
397.808	374.11
398.186	387.9
398.565	398.07
398.944	398.75
399.323	423.83
399.701	408.69
400.08	400.55
400.458	384.06
400.837	417.28
401.215	414.57
401.594	392.87
401.972	406.43
402.351	421.34
402.729	450.95
403.107	440.78
403.486	435.81
403.864	436.26
404.242	443.27
404.62	447.78
404.999	441.01
405.377	449.82
405.755	444.4
406.133	452.76
406.511	459.54
406.889	449.14
407.267	483.04
407.645	479.87
408.023	500.21
408.401	480.1
408.779	478.29
409.156	468.8
409.534	515.35
409.912	509.25
410.29	503.6
410.667	500.44
411.045	530.95
411.422	527.1
411.8	516.71
412.178	535.47
412.555	540.89
412.933	570.27
413.31	558.52
413.687	565.3
414.065	586.09
414.442	579.08
414.819	601
415.197	608.68
415.574	622.47
415.951	617.05
416.328	640.1
416.705	624.05
417.082	656.59
417.46	630.38
417.837	668.12
418.214	654.79
418.591	687.55
418.967	681.23
419.344	700.66
419.721	699.3
420.098	713.31
420.475	722.35
420.852	727.55
421.228	731.62
421.605	719.64
421.982	751.28
422.358	748.12
422.735	773.2
423.111	747.21
423.488	756.25
423.864	804.16
424.241	820.2
424.617	813.88
424.994	803.93
425.37	834.67
425.746	850.03
426.123	832.41
426.499	841.22
426.875	848.68
427.251	882.8
427.627	862.24
428.003	911.73
428.379	900.43
428.756	911.73
429.132	940.88
429.507	943.14
429.883	931.61
430.259	979.75
430.635	959.86
431.011	958.05
431.387	999.86
431.763	993.53
432.138	1005.51
432.514	1037.15
432.89	1042.57
433.265	1020.88
433.641	1074.44
434.016	1077.6
434.392	1064.49
434.767	1108.56
435.143	1071.72
435.518	1109.01
435.894	1118.5
436.269	1115.79
436.644	1148.56
437.02	1181.32
437.395	1177.26
437.77	1165.96
438.145	1209.12
438.52	1194.66
438.895	1219.52
439.271	1212.51
439.646	1259.97
440.021	1248.67
440.395	1238.95
440.77	1219.74
441.145	1268.1
441.52	1267.42
441.895	1264.49
442.27	1287.54
442.645	1303.36
443.019	1271.27
443.394	1294.99
443.769	1313.75
444.143	1298.61
444.518	1315.11
444.892	1349
445.267	1341.09
445.641	1321.21
446.016	1363.47
446.39	1355.33
446.764	1350.36
447.139	1345.39
447.513	1377.48
447.887	1355.78
448.262	1367.99
448.636	1391.94
449.01	1397.59
449.384	1407.08
449.758	1405.27
450.132	1434.2
450.506	1412.05
450.88	1420.87
451.254	1460.41
451.628	1455.22
452.002	1451.37
452.376	1469.23
452.75	1478.27
453.123	1496.12
453.497	1492.05
453.871	1493.63
454.244	1510.13
454.618	1535.67
454.992	1523.01
455.365	1530.47
455.739	1578.38
456.112	1549
456.486	1579.73
456.859	1574.76
457.232	1613.4
457.606	1560.07
457.979	1619.73
458.352	1630.8
458.725	1678.26
459.099	1656.34
459.472	1680.97
459.845	1660.41
460.218	1698.37
460.591	1683.46
460.964	1690.92
461.337	1750.58
461.71	1791.03
462.083	1780.86
462.456	1789.9
462.829	1780.63
463.201	1817.92
463.574	1807.98
463.947	1836.22
464.32	1863.79
464.692	1856.34
465.065	1851.36
465.438	1899.05
465.81	1918.93
466.183	1919.84
466.555	1955.09
466.928	1973.17
467.3	1959.84
467.672	1979.72
468.045	2012.94
468.417	1992.38
468.789	2020.17
469.161	2016.56
469.534	2048.19
469.906	2083.67
470.278	2090.45
470.65	2123
471.022	2139.72
471.394	2201.64
471.766	2179.94
472.138	2179.04
472.51	2215.87
472.882	2224.24
473.253	2233.05
473.625	2282.54
473.997	2309.88
474.369	2329.32
474.74	2352.14
475.112	2388.75
475.484	2444.12
475.855	2438.69
476.227	2469.65
476.598	2485.02
476.97	2508.3
477.341	2564.11
477.713	2579.25
478.084	2587.84
478.455	2633.49
478.827	2626.26
479.198	2723.66
479.569	2687.05
479.94	2793.26
480.311	2767.95
480.682	2773.15
481.053	2872.35
481.424	2914.61
481.795	2934.05
482.166	2929.98
482.537	2968.17
482.908	2989.86
483.279	3039.36
483.65	3055.85
484.021	3083.2
484.391	3141.73
484.762	3109.86
485.133	3170.2
485.503	3207.71
485.874	3247.26
486.244	3291.33
486.615	3334.49
486.985	3356.86
487.356	3398.22
487.726	3417.65
488.097	3490.42
488.467	3473.92
488.837	3526.12
489.207	3518.21
489.578	3624.2
489.948	3645.67
490.318	3616.06
490.688	3690.19
491.058	3727.7
491.428	3736.06
491.798	3790.3
492.168	3832.55
492.538	3841.14
492.908	3868.71
493.278	3899.9
493.648	3887.02
494.017	3968.37
494.387	3967.47
494.757	3979.44
495.126	4054.02
495.496	3999.78
495.866	4028.48
496.235	4089.72
496.605	4094.24
496.974	4150.96
497.344	4165.65
497.713	4179.21
498.082	4202.26
498.452	4217.18
498.821	4235.93
499.19	4233.45
499.559	4275.93
499.928	4312.54
500.298	4282.03
500.667	4354.12
501.036	4311.19
501.405	4355.7
501.774	4332.88
502.143	4395.7
502.512	4430.05
502.88	4474.8
503.249	4456.27
503.618	4478.41
503.987	4481.13
504.356	4513.89
504.724	4474.57
505.093	4507.57
505.462	4560.45
505.83	4527
506.199	4621.23
506.567	4624.62
506.936	4618.07
507.304	4598.86
507.672	4686.09
508.041	4643.83
508.409	4726.99
508.777	4696.94
509.145	4748.91
509.514	4792.3
509.882	4756.6
510.25	4783.72
510.618	4787.56
510.986	4807.67
511.354	4818.52
511.722	4841.57
512.09	4832.53
512.458	4931.28
512.826	4851.74
513.193	4920.89
513.561	4913.43
513.929	4949.14
514.297	4976.93
514.664	5019.64
515.032	5000.43
515.4	5013.54
515.767	5059.87
516.135	5079.3
516.502	5030.26
516.869	5086.98
517.237	5092.63
517.604	5068.68
517.972	5068.45
518.339	5101.45
518.706	5144.61
519.073	5171.5
519.44	5159.75
519.808	5177.15
520.175	5216.25
520.542	5232.29
520.909	5190.71
521.276	5251.27
521.643	5283.36
522.009	5310.48
522.376	5314.78
522.743	5362.23
523.11	5393.64
523.477	5412.85
523.843	5443.59
524.21	5495.79
524.577	5477.03
524.943	5543.92
525.31	5537.37
525.676	5564.71
526.043	5576.92
526.409	5583.47
526.776	5681.77
527.142	5697.14
527.508	5684.48
527.874	5750.47
528.241	5779.4
528.607	5777.36
528.973	5741.43
529.339	5754.31
529.705	5903.23
530.071	5922.67
530.437	5895.78
530.803	5940.52
531.169	5915.89
531.535	5985.94
531.901	6024.81
532.267	6033.85
532.632	6050.58
532.998	6084.47
533.364	6099.39
533.73	6096.22
534.095	6158.14
534.461	6198.37
534.826	6179.39
535.192	6211.93
535.557	6287.18
535.923	6264.81
536.288	6371.02
536.653	6339.16
537.019	6311.36
537.384	6335.99
537.749	6402.88
538.114	6423.9
538.479	6418.02
538.845	6492.82
539.21	6423.45
539.575	6499.15
539.94	6508.64
540.305	6561.75
540.67	6568.53
541.034	6612.37
541.399	6629.54
541.764	6707.73
542.129	6727.62
542.494	6745.25
542.858	6794.96
543.223	6754.74
543.587	6817.33
543.952	6774.17
544.316	6832.48
544.681	6883.55
545.045	6884
545.41	6941.17
545.774	6961.29
546.138	6972.13
546.503	7013.94
546.867	6990.66
547.231	7072.02
547.595	7114.73
547.959	7100.49
548.324	7142.52
548.688	7156.31
549.052	7222.75
549.416	7191.34
549.779	7194.5
550.143	7227.04
550.507	7248.28
550.871	7243.31
551.235	7298.9
551.599	7411.67
551.962	7366.7
552.326	7358.11
552.689	7396.3
553.053	7473.36
553.417	7431.1
553.78	7509.52
554.143	7480.59
554.507	7541.16
554.87	7526.69
555.234	7566.92
555.597	7521.27
555.96	7542.06
556.323	7596.75
556.686	7607.14
557.05	7734.37
557.413	7666.8
557.776	7697.76
558.139	7736.63
558.502	7750.87
558.865	7763.98
559.228	7882.39
559.59	7822.96
559.953	7937.98
560.316	7909.51
560.679	7905.44
561.041	7990.86
561.404	7997.87
561.767	8004.65
562.129	7991.32
562.492	8100.92
562.854	8065.89
563.217	8050.07
563.579	8144.98
563.941	8157.19
564.304	8201.03
564.666	8234.47
565.028	8220.69
565.39	8255.72
565.753	8274.47
566.115	8325.32
566.477	8356.96
566.839	8356.28
567.201	8376.62
567.563	8438.08
567.925	8503.39
568.287	8550.85
568.648	8550.62
569.01	8630.85
569.372	8689.38
569.734	8645.54
570.095	8648.02
570.457	8689.6
570.819	8740.45
571.18	8780.9
571.542	8848.47
571.903	8861.35
572.265	8906.09
572.626	8947.22
572.987	8961.91
573.349	8977.96
573.71	9072.19
574.071	9074.9
574.432	9224.28
574.794	9253.2
575.155	9322.58
575.516	9390.37
575.877	9388.11
576.238	9464.95
576.599	9574.55
576.96	9645.96
577.32	9757.82
577.681	9819.52
578.042	9860.64
578.403	9962.11
578.763	10116.46
579.124	10171.14
579.485	10311.03
579.845	10448.88
580.206	10467.63
580.566	10595.77
580.927	10732.26
581.287	10912.82
581.648	11006.6
582.008	11181.29
582.368	11339.02
582.728	11459.02
583.089	11638.68
583.449	11829.18
583.809	12004.09
584.169	12206.35
584.529	12360.69
584.889	12633.68
585.249	12750.96
585.609	12924.97
585.969	13300.55
586.329	13418.07
586.688	13617.83
587.048	13826.64
587.408	14076.58
587.768	14340.75
588.127	14570.13
588.487	14808.31
588.846	15178.02
589.206	15347.96
589.565	15610.1
589.925	15880.15
590.284	16201.72
590.643	16408.27
591.003	16746.34
591.362	17125.76
591.721	17276.49
592.08	17664.73
592.44	17946.31
592.799	18251.84
593.158	18536.57
593.517	18826.96
593.876	19313.28
594.235	19384.91
594.593	19776.77
594.952	20181.73
595.311	20417.2
595.67	20659.68
596.029	21165.66
596.387	21377.18
596.746	21876.83
597.104	21937.16
597.463	22376.02
597.822	22726.97
598.18	22920.64
598.538	23283.57
598.897	23658.02
599.255	23666.16
599.613	24317.21
599.972	24579.81
600.33	24792.91
600.688	25225.21
601.046	25472.89
601.404	25795.82
601.762	26045.76
602.12	26398.51
602.478	26632.86
602.836	26971.83
603.194	27015
603.552	27412.05
603.91	27503.12
604.268	27927.51
604.625	28240.27
604.983	28582.41
605.341	28656.99
605.698	29026.69
606.056	29353.47
606.413	29520.24
606.771	29779.22
607.128	30320.9
607.485	30175.59
607.843	30595.69
608.2	30822.35
608.557	31183.02
608.914	31282
609.272	31670.69
609.629	31985.49
609.986	32314.29
610.343	32296.21
610.7	32720.16
611.057	32950.21
611.414	33016.65
611.771	33292.12
612.127	33560.36
612.484	33654.14
612.841	33887.13
613.198	33866.79
613.554	34159.21
613.911	34590.39
614.267	34736.83
614.624	34882.81
614.98	35036.25
615.337	35291.39
615.693	35377.49
616.05	35639.63
616.406	35842.79
616.762	35758.95
617.118	35991.48
617.475	36078.03
617.831	36414.52
618.187	36510.79
618.543	36745.14
618.899	36946.94
619.255	37073.94
619.611	37211.11
619.967	37300.38
620.323	37490.43
620.678	37464.66
621.034	37620.37
621.39	37665.34
621.746	37770.87
622.101	38262.16
622.457	38037.53
622.812	38130.41
623.168	38385.54
623.523	38413.79
623.879	38574.01
624.234	38447.01
624.589	38632.32
624.945	38861.24
625.3	39009.48
625.655	38854.46
626.01	39071.18
626.365	39209.93
626.72	39279.98
627.075	39227.56
627.43	39397.95
627.785	39228.46
628.14	39425.29
628.495	39494.22
628.85	39516.81
629.205	39586.42
629.559	39891.27
629.914	39667.32
630.269	39815.79
630.623	39784.6
630.978	39677.71
631.332	39999.29
631.687	40051.26
632.041	40002.23
632.396	40009.23
632.75	39895.79
633.104	40008.33
633.459	39896.69
633.813	39983.02
634.167	39913.41
634.521	40077.03
634.875	40115.67
635.229	39978.27
635.583	39813.3
635.937	39956.8
636.291	40068.66
636.645	40033.86
636.999	39948.22
637.352	40209.45
637.706	39890.59
638.06	40213.97
638.413	39891.49
638.767	40051.04
639.121	40052.85
639.474	39907.76
639.828	39841.33
640.181	40017.14
640.534	40002.23
640.888	39970.36
641.241	39649.69
641.594	39794.32
641.947	39958.38
642.301	39827.77
642.654	39971.27
643.007	39848.78
643.36	39780.54
643.713	39760.2
644.066	39988.67
644.419	39646.98
644.771	39559.75
645.124	39183.94
645.477	39148.01
645.83	39015.13
646.182	38924.06
646.535	38654.01
646.888	38791.18
647.24	38552.32
647.593	38832.09
647.945	38716.84
648.298	38515.26
648.65	38534.02
649.002	38448.82
649.355	38520.23
649.707	38597.74
650.059	38666.67
650.411	39168.12
650.763	39332.64
651.115	39524.72
651.467	39381.22
651.819	39509.36
652.171	39477.27
652.523	39480.88
652.875	39462.35
653.227	39316.14
653.578	39701.22
653.93	39479.75
654.282	39343.26
654.633	39254.45
654.985	39391.39
655.337	39447.21
655.688	39314.11
656.039	39425.52
656.391	39060.1
656.742	39125.41
657.094	39344.62
657.445	39402.47
657.796	39132.19
658.147	39120.67
658.498	39101.46
658.849	39216.03
659.2	39120.21
659.551	38935.13
659.902	39319.31
660.253	38977.39
660.604	39205.41
660.955	38943.95
661.306	39098.07
661.656	39008.58
662.007	39096.49
662.358	39058.3
662.708	39038.41
663.059	38970.39
663.409	38849.26
663.76	39009.48
664.11	39018.52
664.461	39148.24
664.811	39054.91
665.161	39001.8
665.511	38945.53
665.862	38959.77
666.212	39145.3
666.562	38984.17
666.912	38990.73
667.262	38951.86
667.612	38971.52
667.962	39019.2
668.312	38859.2
668.662	39107.56
669.011	38857.85
669.361	39037.96
669.711	38875.25
670.06	38849.71
670.41	38747.57
670.76	38721.35
671.109	38950.73
671.459	38950.05
671.808	38745.08
672.157	38967.9
672.507	38594.13
672.856	38780.11
673.205	38807.45
673.554	38969.71
673.904	38699.89
674.253	38828.7
674.602	38789.38
674.951	38325.88
675.3	38153.69
675.649	38757.51
675.998	38531.53
676.346	38672.09
676.695	38682.03
677.044	38424.64
677.393	38564.97
677.741	38612.43
678.09	38423.74
678.438	38433.23
678.787	38457.18
679.135	38595.26
679.484	38341.03
679.832	38412.21
680.181	38208.6
680.529	38247.02
680.877	38120.24
681.225	38174.02
681.573	38394.81
681.922	37959.34
682.27	37931.77
682.618	38021.03
682.966	37859.68
683.314	38085.21
683.661	37910.08
684.009	37782.62
684.357	37600.03
684.705	37524.78
685.053	37628.5
685.4	37643.87
685.748	37403.88
686.095	37435.74
686.443	37308.74
686.79	37236.42
687.138	37314.84
687.485	37378.34
687.832	37204.33
688.18	37229.42
688.527	37015.64
688.874	36959.37
689.221	36987.62
689.568	36889.54
689.915	36767.06
690.262	36789.65
690.609	36546.72
690.956	36492.49
691.303	36450.45
691.65	36360.06
691.997	36330.23
692.344	36170.24
692.69	36129.78
693.037	36128.43
693.383	35899.51
693.73	35978.6
694.077	35769.79
694.423	35669.91
694.769	35604.37
695.116	35566.64
695.462	35593.75
695.808	35413.87
696.155	35392.85
696.501	35145.86
696.847	35105.63
697.193	34991.28
697.539	35107.66
697.885	34829.03
698.231	34697.28
698.577	34735.24
698.923	34718.07
699.269	34536.61
699.614	34310.62
699.96	34345.88
700.306	34264.3
700.651	34229.95
700.997	34127.13
701.342	34058.2
701.688	34022.04
702.033	33941.82
702.379	33942.72
702.724	33752.67
703.069	33914.02
703.415	33455.28
703.76	33482.4
704.105	33554.94
704.45	33401.27
704.795	33220.26
705.14	33298.9
705.485	33177.55
705.83	33027.27
706.175	33126.93
706.52	33003.76
706.865	32853.26
707.209	32707.73
707.554	32603.78
707.899	32727.16
708.243	32596.09
708.588	32519.94
708.932	32373.05
709.277	32330.56
709.621	32395.19
709.966	32220.96
710.31	32221.19
710.654	31971.48
710.998	32023.9
711.342	31917.01
711.687	31933.96
712.031	31820.07
712.375	31667.53
712.719	31838.15
713.063	31638.15
713.407	31775.55
713.75	31597.25
714.094	31490.58
714.438	31423.47
714.782	31382.11
715.125	31171.72
715.469	31366.52
715.812	31079.07
716.156	30997.04
716.499	30991.61
716.843	31010.6
717.186	30927.21
717.53	30983.48
717.873	30901
718.216	30799.53
718.559	30645.18
718.902	30466.2
719.246	30543.04
719.589	30495.58
719.932	30311.18
720.275	30465.3
720.617	30351.18
720.96	30299.43
721.303	30278.19
721.646	30307.79
721.989	30016.95
722.331	30176.04
722.674	30151.86
723.016	30161.13
723.359	30063.73
723.701	30097.63
724.044	29869.84
724.386	29748.71
724.729	29874.81
725.071	29714.59
725.413	29794.36
725.755	29581.93
726.097	29554.36
726.439	29387.36
726.782	29481.6
727.124	29554.14
727.465	29348.04
727.807	29415.84
728.149	29369.51
728.491	29277.08
728.833	29372.9
729.175	29143.3
729.516	29149.63
729.858	29163.19
730.199	29033.93
730.541	29053.36
730.882	28908.96
731.224	29040.25
731.565	28809.98
731.906	28856.76
732.248	28892.01
732.589	28668.96
732.93	28656.99
733.271	28617.67
733.612	28577.21
733.953	28587.16
734.294	28523.66
734.635	28369.76
734.976	28475.3
735.317	28394.17
735.658	28376.99
735.999	28318.46
736.339	28265.58
736.68	28511.68
737.021	28147.17
737.361	28029.66
737.702	28247.05
738.042	28156.66
738.383	28038.92
738.723	28117.79
739.063	27991.02
739.404	28152.82
739.744	28006.61
740.084	27860.62
740.424	27814.52
740.764	27916.22
741.104	27911.7
741.444	27705.83
741.784	27659.95
742.124	27713.73
742.464	27599.16
742.804	27528.65
743.143	27456.11
743.483	27538.82
743.823	27505.15
744.162	27379.28
744.502	27371.6
744.841	27298.83
745.181	27379.51
745.52	27075.56
745.86	27285.05
746.199	27122.56
746.538	27085.73
746.877	27136.57
747.216	27010.93
747.556	26944.26
747.895	26943.36
748.234	26898.84
748.573	26783.14
748.911	26751.73
749.25	26883.47
749.589	26697.72
749.928	26742.46
750.267	26742.69
750.605	26693.65
750.944	26589.02
751.283	26505.18
751.621	26604.61
751.96	26326.65
752.298	26306.99
752.636	26337.73
752.975	26210.95
753.313	26129.82
753.651	26278.52
753.989	26111.29
754.327	26151.52
754.666	25938.41
755.004	25966.89
755.342	25965.31
755.679	25909.94
756.017	25662.94
756.355	25900
756.693	25673.56
757.031	25629.72
757.368	25464.98
757.706	25535.94
758.044	25405.09
758.381	25511.98
758.719	25316.28
759.056	25408.71
759.394	25241.71
759.731	25013.01
760.068	25024.31
760.405	24963.98
760.743	24748.84
761.08	25013.69
761.417	24751.78
761.754	24662.06
762.091	24607.6
762.428	24607.6
762.765	24402.18
763.102	24507.94
763.438	24444.44
763.775	24236.99
764.112	24218.23
764.449	24316.08
764.785	24107.73
765.122	24084.23
765.458	23963.78
765.795	23862.54
766.131	23782.54
766.467	23786.15
766.804	23694.41
767.14	23495.99
767.476	23530.57
767.812	23426.16
768.148	23430.23
768.485	23376
768.821	23154.53
769.157	23151.59
769.492	23136
769.828	23043.12
770.164	22804.49
770.5	22769.01
770.836	22879.96
771.171	22689.01
771.507	22630.93
771.842	22433.42
772.178	22524.72
772.513	22404.27
772.849	22321.11
773.184	22198.17
773.519	22152.98
773.855	22036.14
774.19	22012.19
774.525	21906.88
774.86	21877.73
775.195	21763.38
775.53	21789.14
775.865	21627.11
776.2	21517.29
776.535	21354.81
776.87	21337.86
777.205	21350.29
777.539	21154.36
777.874	21226.67
778.209	21027.36
778.543	20988.26
778.878	20790.75
779.212	20773.8
779.547	20698.55
779.881	20679.57
780.215	20593.24
780.55	20577.43
780.884	20390.09
781.218	20438.22
781.552	20430.08
781.886	20284.1
782.22	20114.16
782.554	20118.23
782.888	20005.69
783.222	19918.46
783.556	19840.27
783.889	19876.65
784.223	19603.21
784.557	19638.69
784.89	19670.78
785.224	19570.22
785.557	19414.07
785.891	19410.45
786.224	19343.11
786.558	19280.51
786.891	19068.54
787.224	19047.75
787.557	19005.94
787.891	18982.21
788.224	19024.02
788.557	18854.31
788.89	18950.12
789.223	18818.83
789.556	18711.03
789.888	18622.9
790.221	18559.62
790.554	18346.75
790.887	18418.61
791.219	18311.72
791.552	18220.88
791.884	18215.23
792.217	18164.83
792.549	18097.72
792.882	18019.98
793.214	17951.28
793.546	17860.21
793.879	17800.1
794.211	17827.67
794.543	17710.16
794.875	17672.19
795.207	17712.19
795.539	17635.58
795.871	17538.86
796.203	17447.34
796.535	17365.98
796.867	17293.67
797.198	17257.51
797.53	17194.92
797.862	17176.61
798.193	17199.21
798.525	16990.17
798.856	17020.46
799.188	16890.52
799.519	16838.09
799.85	16642.16
800.182	16691.65
800.513	16764.19
800.844	16553.12
801.175	16600.13
801.506	16512.45
801.837	16507.25
802.168	16530.75
802.499	16361.49
802.83	16354.03
803.161	16224.77
803.491	16260.02
803.822	16306.35
804.153	16179.35
804.483	16040.82
804.814	15948.85
805.145	15899.81
805.475	15951.33
805.805	15772.35
806.136	15853.48
806.466	15813.48
806.796	15794.73
807.126	15713.6
807.457	15653.03
807.787	15747.27
808.117	15594.73
808.447	15518.12
808.777	15683.77
809.107	15448.97
809.436	15556.99
809.766	15436.09
810.096	15390.89
810.426	15307.28
810.755	15349.54
811.085	15245.59
811.414	15194.97
811.744	15152.71
812.073	15093.05
812.403	15027.29
812.732	14944.8
813.061	14953.17
813.39	14872.72
813.719	14863.9
814.049	14969.89
814.378	14855.54
814.707	14748.65
815.036	14745.94
815.365	14745.04
815.693	14532.39
816.022	14630.01
816.351	14623.68
816.68	14491.03
817.008	14551.59
817.337	14389.57
817.665	14365.16
817.994	14427.53
818.322	14393.63
818.651	14196.58
818.979	14169.01
819.307	14228.21
819.636	14259.63
819.964	14171.04
820.292	14221.89
820.62	14128.56
820.948	14094.66
821.276	14210.81
821.604	14146.18
821.932	14067.09
822.259	14055.11
822.587	14072.29
822.915	14044.26
823.243	14156.35
823.57	14042.91
823.898	14019.41
824.225	14006.3
824.553	14061.21
824.88	14058.27
825.207	14049.69
825.535	14017.37
825.862	14068.44
826.189	13965.4
826.516	14082.91
826.843	14136.92
827.17	14036.13
827.497	14070.25
827.824	14055.79
828.151	14067.54
828.478	14020.31
828.805	14174.2
829.131	13992.97
829.458	14028.9
829.785	13951.61
830.111	13974.66
830.438	14124.49
830.764	14049.01
831.09	14054.88
831.417	13903.48
831.743	14014.43
832.069	13999.29
832.395	13919.3
832.722	13983.02
833.048	13944.38
833.374	13954.32
833.7	13859.64
834.026	13889.24
834.351	13850.82
834.677	13870.48
835.003	13873.87
835.329	13788.9
835.654	13804.27
835.98	13831.16
836.306	13821.22
836.631	13746.19
836.956	13748.23
837.282	13740.99
837.607	13671.84
837.932	13697.15
838.258	13662.35
838.583	13598.4
838.908	13561.11
839.233	13588
839.558	13589.36
839.883	13479.31
840.208	13531.28
840.533	13496.48
840.858	13468.69
841.182	13471.85
841.507	13429.82
841.832	13294.68
842.156	13405.86
842.481	13324.51
842.805	13331.06
843.13	13181.91
843.454	13223.49
843.778	13224.85
844.103	13169.26
844.427	13183.27
844.751	13084.74
845.075	13069.6
845.399	13069.6
845.723	12939.66
846.047	13007.23
846.371	12877.29
846.695	12848.59
847.019	12751.87
847.343	12781.47
847.666	12716.84
847.99	12577.18
848.313	12640.01
848.637	12488.15
848.96	12543.51
849.284	12483.85
849.607	12379.9
849.931	12374.25
850.254	12244.99
850.577	12139.68
850.9	12153.92
851.223	12059.91
851.546	12059.46
851.869	11965
852.192	11936.3
852.515	11873.02
852.838	11821.27
853.161	11780.59
853.483	11768.62
853.806	11726.58
854.129	11658.11
854.451	11655.85
854.774	11633.48
855.096	11458.12
855.419	11473.26
855.741	11447.5
856.063	11374.5
856.385	11439.13
856.708	11317.1
857.03	11313.04
857.352	11365.92
857.674	11341.96
857.996	11210.89
858.318	11098.8
858.64	11196.43
858.961	11166.37
859.283	11057.22
859.605	11062.65
859.926	11089.54
860.248	11040.95
860.57	11020.84
860.891	11011.57
861.212	11000.5
861.534	10977.68
861.855	10881.63
862.176	10885.02
862.498	10931.35
862.819	10949.2
863.14	10817.46
863.461	10807.29
863.782	10762.99
864.103	10843.67
864.424	10757.8
864.745	10714.41
865.065	10696.33
865.386	10623.11
865.707	10681.87
866.027	10661.3
866.348	10672.37
866.668	10620.85
866.989	10636.22
867.309	10539.04
867.63	10542.43
867.95	10560.06
868.27	10432.16
868.59	10465.15
868.91	10497.24
869.23	10491.36
869.55	10433.96
869.87	10467.41
870.19	10397.35
870.51	10412.72
870.83	10437.8
871.15	10325.27
871.469	10336.34
871.789	10337.24
872.109	10299.5
872.428	10278.26
872.748	10273.74
873.067	10234.19
873.386	10337.47
873.706	10218.15
874.025	10221.54
874.344	10132.28
874.663	10273.06
874.982	10153.74
875.301	10226.06
875.62	10116.01
875.939	10022
876.258	10037.36
876.577	10059.51
876.896	10070.81
877.214	9993.52
877.533	10076.68
877.852	10056.57
878.17	10020.41
878.489	9954.65
878.807	9976.57
879.125	9960.98
879.444	9921.43
879.762	9913.3
880.08	9891.15
880.398	9741.78
880.716	9894.54
881.034	9872.85
881.352	9839.4
881.67	9768.22
881.988	9786.07
882.306	9790.82
882.624	9690.03
882.941	9721.21
883.259	9667.88
883.577	9664.94
883.894	9648.67
884.212	9584.04
884.529	9606.64
884.846	9613.19
885.164	9545.4
885.481	9502.69
885.798	9499.98
886.115	9465.85
886.432	9407.55
886.75	9456.14
887.067	9455.01
887.383	9399.87
887.7	9414.78
888.017	9338.4
888.334	9354.9
888.651	9354.22
888.967	9277.61
889.284	9270.15
889.6	9194.45
889.917	9204.16
890.233	9153.77
890.55	9129.14
890.866	9144.05
891.182	9086.65
891.498	9093.66
891.815	9109.7
892.131	9038.29
892.447	9018.18
892.763	8916.71
893.079	8910.61
893.395	8887.34
893.71	8939.99
894.026	8952.65
894.342	8808.47
894.657	8785.64
894.973	8860.9
895.289	8722.37
895.604	8742.03
895.92	8716.49
896.235	8628.36
896.55	8702.94
896.865	8649.15
897.181	8569.61
897.496	8536.61
897.811	8546.33
898.126	8542.04
898.441	8496.39
898.756	8403.96
899.071	8372.32
899.386	8452.32
899.7	8318.09
900.015	8276.28
900.33	8223.85
900.644	8276.73
900.959	8270.18
901.273	8220.69
901.588	8174.14
901.902	8116.51
902.216	8141.59
902.531	8079.67
902.845	8035.38
903.159	8009.39
903.473	7975.72
903.787	7929.4
904.101	7901.37
904.415	7880.58
904.729	7886.23
905.042	7797.42
905.356	7783.86
905.67	7735.5
905.984	7754.71
906.297	7742.51
906.611	7670.42
906.924	7705.45
907.237	7616.86
907.551	7687.82
907.864	7513.36
908.177	7592.68
908.491	7552.46
908.804	7452.12
909.117	7480.59
909.43	7412.35
909.743	7349.3
910.056	7347.94
910.368	7329.64
910.681	7315.85
910.994	7237.44
911.307	7264.33
911.619	7194.73
911.932	7182.3
912.244	7141.62
912.557	7092.13
912.869	7088.06
913.181	7042.87
913.494	7052.13
913.806	7023.21
914.118	6978.91
914.43	6956.09
914.742	6971.68
915.054	6903.21
915.366	6871.12
915.678	6824.11
915.99	6825.7
916.302	6768.75
916.613	6695.76
916.925	6754.96
917.236	6738.01
917.548	6672.03
917.859	6694.4
918.171	6622.09
918.482	6560.84
918.794	6630.45
919.105	6575.53
919.416	6521.52
919.727	6491.02
920.038	6492.82
920.349	6455.76
920.66	6399.72
920.971	6390.23
921.282	6449.89
921.593	6306.84
921.903	6337.35
922.214	6317.24
922.525	6219.84
922.835	6234.3
923.146	6132.16
923.456	6135.54
923.767	6196.33
924.077	6139.61
924.387	6101.87
924.697	6056
925.008	6028.2
925.318	5990.92
925.628	5978.94
925.938	5930.8
926.248	5921.77
926.558	5932.84
926.867	5914.08
927.177	5874.53
927.487	5901.43
927.796	5780.3
928.106	5797.93
928.416	5774.2
928.725	5755.89
929.034	5704.6
929.344	5665.27
929.653	5665.95
929.962	5638.61
930.271	5585.28
930.581	5582.34
930.89	5557.26
931.199	5510.7
931.508	5536.46
931.817	5459.63
932.125	5477.71
932.434	5451.95
932.743	5409.01
933.051	5372.63
933.36	5353.19
933.669	5287.66
933.977	5314.1
934.286	5286.08
934.594	5262.8
934.902	5270.71
935.21	5209.24
935.519	5241.11
935.827	5228.22
936.135	5162.92
936.443	5082.47
936.751	5152.97
937.059	5144.84
937.367	5106.87
937.674	5091.5
937.982	5044.95
938.29	5075.01
938.597	5035.46
938.905	4931.51
939.213	4975.8
939.52	4894.9
939.827	4958.85
940.135	4934.45
940.442	4911.85
940.749	4844.96
941.056	4848.57
941.363	4814
941.67	4789.14
941.977	4785.07
942.284	4715.02
942.591	4791.85
942.898	4702.14
943.205	4691.06
943.511	4663.27
943.818	4636.38
944.125	4643.61
944.431	4609.71
944.738	4596.15
945.044	4559.77
945.35	4542.82
945.657	4509.37
945.963	4494.68
946.269	4482.71
946.575	4520.45
946.881	4439.09
947.187	4425.99
947.493	4426.21
947.799	4381.01
948.105	4383.95
948.41	4347.8
948.716	4328.36
949.022	4323.62
949.327	4326.33
949.633	4293.56
949.938	4257.63
950.244	4231.64
950.549	4251.98
950.854	4199.32
951.16	4208.59
951.465	4145.99
951.77	4145.31
952.075	4154.58
952.38	4144.18
952.685	4100.34
952.99	4103.51
953.294	4076.62
953.599	4077.75
953.904	4022.38
954.209	4058.09
954.513	3979.44
954.818	3933.12
955.122	3989.84
955.426	3961.82
955.731	3928.37
956.035	3909.39
956.339	3931.76
956.643	3918.65
956.948	3856.06
957.252	3853.12
957.556	3856.73
957.86	3840.01
958.163	3793.69
958.467	3832.55
958.771	3776.96
959.075	3778.54
959.378	3752.1
959.682	3707.59
959.985	3686.57
960.289	3710.75
960.592	3635.05
960.896	3654.25
961.199	3608.83
961.502	3649.51
961.805	3583.3
962.108	3572
962.411	3585.33
962.714	3538.1
963.017	3555.5
963.32	3521.15
963.623	3523.64
963.926	3531.32
964.228	3513.24
964.531	3454.71
964.833	3442.06
965.136	3465.11
965.438	3399.12
965.741	3402.28
966.043	3393.92
966.345	3407.71
966.648	3392.34
966.95	3387.37
967.252	3354.38
967.554	3319.57
967.856	3347.6
968.158	3300.82
968.46	3282.74
968.761	3280.7
969.063	3239.35
969.365	3236.64
969.666	3269.86
969.968	3216.3
970.269	3206.36
970.571	3185.34
970.872	3145.12
971.174	3160.93
971.475	3127.49
971.776	3122.97
972.077	3101.5
972.378	3122.29
972.679	3094.95
972.98	3084.78
973.281	3051.78
973.582	3076.42
973.883	3011.56
974.183	3039.58
974.484	3005.23
974.785	2996.87
975.085	2964.78
975.386	2998.9
975.686	2984.44
975.986	2967.27
976.287	2939.24
976.587	2925.23
976.887	2891.34
977.187	2899.47
977.487	2900.15
977.787	2858.12
978.087	2856.54
978.387	2832.13
978.687	2814.28
978.987	2847.27
979.286	2786.03
979.586	2782.41
979.885	2768.4
980.185	2751.68
980.484	2773.37
980.784	2741.74
981.083	2751
981.382	2713.49
981.682	2686.37
981.981	2689.76
982.28	2701.28
982.579	2624
982.878	2673.04
983.177	2651.34
983.475	2635.52
983.774	2649.99
984.073	2610.89
984.372	2584.23
984.67	2565.92
984.969	2616.77
985.267	2599.82
985.566	2533.61
985.864	2534.74
986.162	2553.94
986.461	2503.78
986.759	2502.65
987.057	2503.1
987.355	2520.27
987.653	2487.51
987.951	2497
988.249	2455.87
988.547	2401.18
988.844	2418.13
989.142	2419.94
989.44	2421.74
989.737	2398.02
990.035	2386.72
990.332	2387.85
990.63	2346.94
990.927	2362.31
991.224	2359.37
991.521	2328.64
991.819	2312.59
992.116	2327.06
992.413	2304.01
992.71	2296.78
993.006	2301.97
993.303	2258.13
993.6	2266.04
993.897	2264.23
994.193	2267.85
994.49	2213.61
994.787	2216.78
995.083	2211.13
995.379	2209.55
995.676	2154.41
995.972	2205.48
996.268	2166.61
996.565	2131.81
996.861	2142.43
997.157	2159.6
997.453	2168.64
997.749	2141.07
998.044	2122.32
998.34	2077.35
998.636	2075.31
998.932	2106.5
999.227	2067.4
999.523	2060.85
999.818	2029.21
1000.114	2040.29
1000.409	2016.11
1000.704	1994.41
1001	2010
1001.295	2002.77
1001.59	1989.89
1001.885	1960.74
1002.18	1966.61
1002.475	1948.76
1002.77	1946.28
1003.065	1941.76
1003.359	1934.75
1003.654	1916.22
1003.949	1892.72
1004.243	1893.4
1004.538	1878.71
1004.832	1873.96
1005.127	1853.4
1005.421	1832.38
1005.715	1873.06
1006.009	1842.32
1006.304	1810.23
1006.598	1812.49
1006.892	1833.29
1007.186	1786.73
1007.48	1764.59
1007.773	1756.68
1008.067	1769.11
1008.361	1767.75
1008.655	1742.89
1008.948	1705.83
1009.242	1753.29
1009.535	1711.71
1009.829	1685.04
1010.122	1704.7
1010.415	1643.69
1010.708	1663.12
1011.001	1661.99
1011.295	1658.6
1011.588	1650.92
1011.881	1605.72
1012.173	1616.79
1012.466	1615.66
1012.759	1613.18
1013.052	1598.72
1013.344	1585.16
1013.637	1588.77
1013.93	1563.01
1014.222	1551.94
1014.514	1567.08
1014.807	1541.32
1015.099	1525.72
1015.391	1543.58
1015.683	1516.01
1015.976	1509.68
1016.268	1504.71
1016.56	1471.03
1016.851	1489.11
1017.143	1460.19
1017.435	1481.88
1017.727	1436.91
1018.018	1452.73
1018.31	1442.56
1018.602	1417.25
1018.893	1415.22
1019.185	1422.22
1019.476	1401.21
1019.767	1403.24
1020.058	1379.96
1020.35	1372.73
1020.641	1369.34
1020.932	1356.46
1021.223	1331.6
1021.514	1358.72
1021.804	1346.07
1022.095	1309.91
1022.386	1322.34
1022.677	1298.16
1022.967	1310.59
1023.258	1290.25
1023.548	1260.42
1023.839	1285.95
1024.129	1255.45
1024.419	1277.59
1024.709	1229.91
1025	1257.26
1025.29	1235.33
1025.58	1222.23
1025.87	1236.01
1026.16	1201.66
1026.449	1203.47
1026.739	1196.92
1027.029	1204.6
1027.319	1191.49
1027.608	1139.07
1027.898	1185.84
1028.187	1171.61
1028.477	1155.34
1028.766	1151.95
1029.055	1152.63
1029.344	1147.88
1029.634	1134.55
1029.923	1124.83
1030.212	1113.98
1030.501	1121.44
1030.79	1111.04
1031.078	1088.9
1031.367	1076.69
1031.656	1079.18
1031.945	1074.89
1032.233	1070.37
1032.522	1070.14
1032.81	1059.75
1033.099	1026.3
1033.387	1038.05
1033.675	1024.04
1033.963	1010.71
1034.251	1017.71
1034.54	997.15
1034.828	994.89
1035.116	977.71
1035.403	976.81
1035.691	993.31
1035.979	965.29
1036.267	977.94
1036.554	956.47
1036.842	967.77
1037.129	951.73
1037.417	985.62
1037.704	943.37
1037.992	918.73
1038.279	921.67
1038.566	909.47
1038.853	909.47
1039.14	909.47
