Data from hue_38_FLMS001491_00021.txt Node
Date: Tue Feb 07 17:31:16 GMT 2017
User: dcchb
Spectrometer: FLMS00149
Trigger mode: 0
Integration Time (sec): 2.000000E-2
Scans to average: 10
Electric dark correction enabled: true
Nonlinearity correction enabled: false
Boxcar width: 0
XAxis mode: Wavelengths
Number of Pixels in Spectrum: 2048
>>>>>Begin Spectral Data<<<<<
341.393	-10.18
341.776	-10.18
342.16	-10.18
342.543	-55.61
342.927	-60.58
343.31	-77.53
343.693	-87.7
344.077	-55.61
344.46	-40.92
344.843	-47.7
345.226	-52.44
345.61	-13.35
345.993	4.73
346.376	2.02
346.759	6.77
347.142	17.84
347.525	23.71
347.908	49.7
348.291	67.55
348.674	105.75
349.057	97.16
349.44	128.12
349.823	135.35
350.206	155.46
350.588	213.09
350.971	232.3
351.354	239.98
351.737	234.78
352.119	242.01
352.502	273.65
352.884	285.4
353.267	303.25
353.65	306.19
354.032	315.23
354.414	320.66
354.797	320.88
355.179	340.77
355.562	336.47
355.944	346.42
356.326	339.19
356.709	344.16
357.091	335.8
357.473	346.42
357.855	335.12
358.238	345.74
358.62	346.87
359.002	355
359.384	348
359.766	361.78
360.148	356.81
360.53	337.6
360.912	324.5
361.294	332.41
361.676	362.91
362.057	326.98
362.439	338.28
362.821	333.99
363.203	345.74
363.584	338.51
363.966	330.15
364.348	317.27
364.729	334.44
365.111	342.35
365.493	315.46
365.874	337.83
366.256	318.85
366.637	340.99
367.019	332.41
367.4	319.75
367.781	336.93
368.163	304.84
368.544	329.24
368.925	315.23
369.306	323.14
369.688	336.47
370.069	321.56
370.45	305.06
370.831	337.83
371.212	312.07
371.593	325.85
371.974	318.62
372.355	307.77
372.736	303.48
373.117	334.67
373.498	305.29
373.879	343.25
374.26	329.02
374.641	329.24
375.021	331.28
375.402	308.45
375.783	325.18
376.163	341.9
376.544	326.98
376.925	334.21
377.305	336.47
377.686	360.2
378.066	354.55
378.447	346.87
378.827	331.05
379.208	329.69
379.588	337.38
379.968	343.25
380.349	356.59
380.729	362.01
381.109	345.29
381.489	340.77
381.87	348.9
382.25	350.94
382.63	364.72
383.01	350.94
383.39	337.6
383.77	362.46
384.15	344.16
384.53	345.74
384.91	346.87
385.29	344.16
385.67	342.8
386.049	355.68
386.429	350.03
386.809	349.13
387.189	359.75
387.568	344.16
387.948	350.94
388.328	373.08
388.707	374.21
389.087	360.2
389.466	371.05
389.846	361.33
390.225	370.82
390.605	356.59
390.984	382.57
391.363	392.29
391.743	365.63
392.122	372.63
392.501	387.09
392.881	404.27
393.26	366.98
393.639	356.81
394.018	409.01
394.397	369.69
394.776	382.12
395.155	394.33
395.534	377.6
395.913	373.08
396.292	390.71
396.671	397.26
397.05	395.46
397.429	386.87
397.808	421.22
398.186	403.14
398.565	413.99
398.944	394.33
399.323	410.14
399.701	395
400.08	405.17
400.458	413.31
400.837	404.95
401.215	432.97
401.594	395.46
401.972	416.02
402.351	403.59
402.729	420.99
403.107	419.18
403.486	432.97
403.864	414.89
404.242	425.96
404.62	444.95
404.999	420.77
405.377	423.48
405.755	409.01
406.133	449.47
406.511	436.36
406.889	434.1
407.267	460.09
407.645	453.76
408.023	458.5
408.401	474.78
408.779	456.7
409.156	444.49
409.534	449.24
409.912	457.37
410.29	461.44
410.667	468
411.045	476.81
411.422	483.81
411.8	480.65
412.178	478.17
412.555	479.3
412.933	485.4
413.31	476.58
413.687	501.22
414.065	473.65
414.442	498.05
414.819	501.67
415.197	520.2
415.574	494.44
415.951	506.64
416.328	512.74
416.705	501.67
417.082	524.27
417.46	536.69
417.837	517.49
418.214	527.88
418.591	503.48
418.967	532.85
419.344	545.73
419.721	550.03
420.098	550.25
420.475	548.9
420.852	528.56
421.228	553.64
421.605	569.46
421.982	548.22
422.358	562.91
422.735	578.05
423.111	591.83
423.488	552.06
423.864	578.28
424.241	599.97
424.617	577.15
424.994	581.89
425.37	579.63
425.746	584.15
426.123	606.75
426.499	602.68
426.875	590.7
427.251	620.76
427.627	611.95
428.003	631.16
428.379	590.25
428.756	606.3
429.132	630.03
429.507	625.05
429.883	640.42
430.259	637.71
430.635	659.4
431.011	656.92
431.387	672.06
431.763	669.12
432.138	681.55
432.514	658.73
432.89	668.89
433.265	686.3
433.641	680.42
434.016	716.35
434.392	730.59
434.767	709.35
435.143	727.65
435.518	724.26
435.894	728.1
436.269	744.83
436.644	706.86
437.02	720.87
437.395	753.86
437.77	742.79
438.145	772.39
438.52	764.49
438.895	763.58
439.271	752.51
439.646	776.69
440.021	762
440.395	777.82
440.77	775.56
441.145	772.85
441.52	798.16
441.895	794.77
442.27	802
442.645	816.91
443.019	814.65
443.394	819.17
443.769	802.45
444.143	842.45
444.518	854.88
444.892	851.94
445.267	848.1
445.641	864.82
446.016	833.86
446.39	845.84
446.764	870.47
447.139	855.33
447.513	891.04
447.887	897.36
448.262	881.77
448.636	881.09
449.01	881.77
449.384	896.01
449.758	905.5
450.132	910.7
450.506	916.57
450.88	926.97
451.254	889.68
451.628	916.35
452.002	949.34
452.376	924.71
452.75	946.63
453.123	941.88
453.497	968.55
453.871	987.76
454.244	965.16
454.618	1001.32
454.992	1017.81
455.365	1013.74
455.739	1018.04
456.112	1045.38
456.486	1037.7
456.859	1075.89
457.232	1083.8
457.606	1045.38
457.979	1067.75
458.352	1111.6
458.725	1133.97
459.099	1129.9
459.472	1120.41
459.845	1167.41
460.218	1189.56
460.591	1165.6
460.964	1162.22
461.337	1221.2
461.71	1228.65
462.083	1210.58
462.456	1235.21
462.829	1238.82
463.201	1248.77
463.574	1264.13
463.947	1260.74
464.32	1314.53
464.692	1322.66
465.065	1324.92
465.438	1340.29
465.81	1359.72
466.183	1371.93
466.555	1395.2
466.928	1428.42
467.3	1439.5
467.672	1456.67
468.045	1481.3
468.417	1501.64
468.789	1492.15
469.161	1539.83
469.534	1570.34
469.906	1597.23
470.278	1598.81
470.65	1630
471.022	1663.67
471.394	1687.63
471.766	1714.52
472.138	1750.45
472.51	1756.32
472.882	1824.57
473.253	1843.78
473.625	1868.19
473.997	1912.93
474.369	1943.21
474.74	1983.21
475.112	2008.29
475.484	2033.38
475.855	2101.4
476.227	2147.95
476.598	2221.4
476.97	2227.27
477.341	2291
477.713	2312.47
478.084	2394.95
478.455	2437.89
478.827	2471.11
479.198	2575.51
479.569	2617.32
479.94	2696.19
480.311	2731.44
480.682	2827.26
481.053	2907.93
481.424	2970.3
481.795	3013.69
482.166	3065.67
482.537	3171.65
482.908	3276.28
483.279	3340.69
483.65	3397.86
484.021	3529.38
484.391	3546.33
484.762	3636.27
485.133	3669.95
485.503	3760.79
485.874	3895.48
486.244	3980.22
486.615	4106.77
486.985	4215.69
487.356	4326.2
487.726	4312.41
488.097	4504.5
488.467	4580.88
488.837	4663.82
489.207	4751.5
489.578	4898.84
489.948	4971.15
490.318	5097.48
490.688	5175.89
491.058	5289.56
491.428	5415.44
491.798	5533.4
492.168	5694.98
492.538	5720.29
492.908	5822.21
493.278	5948.98
493.648	6066.27
494.017	6165.7
494.387	6205.92
494.757	6354.62
495.126	6415.64
495.496	6486.59
495.866	6584.45
496.235	6692.01
496.605	6815.63
496.974	6838.22
497.344	6963.42
497.713	7052.91
498.082	7148.05
498.452	7306.91
498.821	7341.49
499.19	7439.34
499.559	7601.59
499.928	7628.49
500.298	7701.7
500.667	7868.25
501.036	7876.61
501.405	7937.18
501.774	7953.22
502.143	8098.53
502.512	8145.76
502.88	8294.23
503.249	8359.77
503.618	8435.24
503.987	8510.5
504.356	8604.96
504.724	8633.21
505.093	8732.41
505.462	8823.71
505.83	8822.13
506.199	8960.2
506.567	9070.26
506.936	9126.07
507.304	9206.52
507.672	9336.92
508.041	9394.77
508.409	9440.64
508.777	9519.06
509.145	9628.43
509.514	9689.9
509.882	9688.54
510.25	9741.88
510.618	9876.79
510.986	9891.25
511.354	10017.12
511.722	10044.02
512.09	10169.66
512.458	10116.33
512.826	10315.42
513.193	10425.25
513.561	10419.37
513.929	10470.9
514.297	10586.15
514.664	10643.77
515.032	10738.23
515.4	10807.61
515.767	10902.98
516.135	10981.84
516.502	10825.24
516.869	11115.85
517.237	11156.98
517.604	11119.24
517.972	11249.63
518.339	11310.65
518.706	11300.03
519.073	11343.42
519.44	11479.68
519.808	11617.99
520.175	11628.83
520.542	11741.15
520.909	11824.76
521.276	11769.62
521.643	11923.74
522.009	11981.37
522.376	12019.78
522.743	12130.74
523.11	12271.3
523.477	12349.27
523.843	12404.63
524.21	12467.68
524.577	12600.56
524.943	12665.19
525.31	12698.86
525.676	12855.24
526.043	12894.79
526.409	13032.19
526.776	13131.17
527.142	13116.93
527.508	13193.99
527.874	13309.01
528.241	13385.85
528.607	13486.64
528.973	13562.57
529.339	13622.23
529.705	13673.52
530.071	13859.96
530.437	13883.91
530.803	13900.41
531.169	14032.16
531.535	14059.05
531.901	14082.1
532.267	14188.09
532.632	14305.37
532.998	14327.29
533.364	14419.04
533.73	14447.06
534.095	14555.76
534.461	14615.65
534.826	14736.32
535.192	14710.11
535.557	14876.2
535.923	14762.54
536.288	14828.3
536.653	14976.32
537.019	15027.61
537.384	15071.45
537.749	15037.33
538.114	15151.45
538.479	15112.58
538.845	15299.7
539.21	15235.52
539.575	15298.11
539.94	15383.76
540.305	15592.12
540.67	15530.65
541.034	15633.93
541.399	15596.64
541.764	15725.67
542.129	15779.46
542.494	15831.66
542.858	15813.13
543.223	15932.67
543.587	16020.81
543.952	16030.07
544.316	16157.3
544.681	16111.65
545.045	16278.88
545.41	16207.7
545.774	16395.71
546.138	16324.75
546.503	16462.15
546.867	16527.91
547.231	16545.31
547.595	16673.45
547.959	16720.68
548.324	16667.8
548.688	16732.65
549.052	16936.04
549.416	16858.98
549.779	16961.8
550.143	17002.25
550.507	17129.7
550.871	17173.77
551.235	17136.48
551.599	17326.08
551.962	17375.57
552.326	17301
552.689	17423.03
553.053	17395.69
553.417	17507.77
553.78	17725.17
554.143	17660.54
554.507	17681.1
554.87	17808.33
555.234	17913.87
555.597	17936.69
555.96	17915
556.323	18091.49
556.686	17983.92
557.05	18162.22
557.413	18222.11
557.776	18148.44
558.139	18398.6
558.502	18441.76
558.865	18538.03
559.228	18618.03
559.59	18579.38
559.953	18727.18
560.316	18886.95
560.679	18923.33
561.041	19017.34
561.404	19081.97
561.767	19104.12
562.129	19034.74
562.492	19255.07
562.854	19343.43
563.217	19246.49
563.579	19335.97
563.941	19460.49
564.304	19489.42
564.666	19615.29
565.028	19654.38
565.39	19766.92
565.753	19896.19
566.115	19931.89
566.477	20017.76
566.839	20012.34
567.201	20195.61
567.563	20185.67
567.925	20320.81
568.287	20295.27
568.648	20286.23
569.01	20470.18
569.372	20693.23
569.734	20650.52
570.095	20780
570.457	20854.35
570.819	20960.34
571.18	20957.63
571.542	21083.05
571.903	21123.72
572.265	21332.31
572.626	21311.29
572.987	21411.17
573.349	21476.71
573.71	21565.97
574.071	21779.53
574.432	21809.36
574.794	22045.28
575.155	21984.04
575.516	22050.48
575.877	22213.19
576.238	22260.19
576.599	22417.93
576.96	22500.64
577.32	22596.45
577.681	22701.08
578.042	22917.35
578.403	23044.8
578.763	22995.54
579.124	23231.69
579.485	23420.61
579.845	23505.81
580.206	23567.95
580.566	23686.82
580.927	23902.86
581.287	24092.91
581.648	24095.17
582.008	24348.05
582.368	24499.45
582.728	24665.1
583.089	24732.89
583.449	24999.55
583.809	25213.33
584.169	25410.62
584.529	25363.61
584.889	25822.36
585.249	25817.84
585.609	25962.69
585.969	26332.17
586.329	26456.47
586.688	26712.96
587.048	26807.42
587.408	26993.17
587.768	27110.46
588.127	27382.09
588.487	27510.9
588.846	27918.35
589.206	27962.19
589.565	28136.65
589.925	28500.25
590.284	28622.96
590.643	28839.23
591.003	29055.04
591.362	29430.17
591.721	29586.33
592.08	29723.95
592.44	30034
592.799	30118.06
593.158	30230.38
593.517	30568.22
593.876	30644.38
594.235	30961.66
594.593	31187.19
594.952	31469.89
595.311	31513.28
595.67	31925.47
596.029	32125.69
596.387	32202.98
596.746	32482.75
597.104	32460.15
597.463	32819.01
597.822	32937.42
598.18	33104.88
598.538	33280.01
598.897	33633.45
599.255	33551.42
599.613	34134.91
599.972	34185.08
600.33	34397.5
600.688	34438.85
601.046	34713.2
601.404	34995.9
601.762	35119.06
602.12	35306.4
602.478	35387.08
602.836	35607.64
603.194	35544.36
603.552	35966.05
603.91	35784.58
604.268	36211.69
604.625	36227.96
604.983	36393.38
605.341	36543.43
605.698	36678.57
606.056	36806.25
606.413	36927.15
606.771	37378.21
607.128	37390.42
607.485	37388.83
607.843	37573.69
608.2	37795.83
608.557	38117.4
608.914	38025.2
609.272	38376.15
609.629	38452.08
609.986	38592.42
610.343	38566.2
610.7	38848.91
611.057	39022.24
611.414	39003.03
611.771	39175
612.127	39385.16
612.484	39407.76
612.841	39606.4
613.198	39487.54
613.554	39641.2
613.911	39921.65
614.267	40121.64
614.624	40059.72
614.98	40193.73
615.337	40526.38
615.693	40345.14
616.05	40430.79
616.406	40661.29
616.762	40695.19
617.118	40784.22
617.475	40764.11
617.831	40996.2
618.187	41071.45
618.543	41331.1
618.899	41333.81
619.255	41445.22
619.611	41484.09
619.967	41680.02
620.323	41768.38
620.678	41710.98
621.034	41764.76
621.39	41819
621.746	41726.8
622.101	42242.72
622.457	41962.05
622.812	42173.11
623.168	42205.43
623.523	42267.8
623.879	42435.03
624.234	42033.68
624.589	42402.94
624.945	42446.55
625.3	42478.42
625.655	42480.45
626.01	42520.9
626.365	42523.61
626.72	42541.47
627.075	42610.16
627.43	42659.66
627.785	42469.15
628.14	42788.24
628.495	42818.52
628.85	42577.4
629.205	42683.38
629.559	42832.98
629.914	42618.53
630.269	42846.32
630.623	42676.83
630.978	42632.54
631.332	42825.98
631.687	42951.62
632.041	42815.81
632.396	43003.37
632.75	42818.75
633.104	42898.07
633.459	42798.86
633.813	42777.62
634.167	42645.42
634.521	42762.48
634.875	42838.63
635.229	42777.39
635.583	42722.7
635.937	42679.77
636.291	42685.87
636.645	42609.94
636.999	42617.4
637.352	42861.01
637.706	42431.19
638.06	42724.74
638.413	42602.26
638.767	42554.12
639.121	42552.31
639.474	42425.76
639.828	42409.72
640.181	42492.88
640.534	42560
640.888	42378.76
641.241	42194.13
641.594	42380.57
641.947	42510.73
642.301	42417.4
642.654	42450.62
643.007	42520.68
643.36	42395.03
643.713	42268.25
644.066	42514.57
644.419	42205.43
644.771	41871.2
645.124	41603.41
645.477	41516.63
645.83	41388.28
646.182	41194.38
646.535	41019.7
646.888	41250.43
647.24	40919.59
647.593	41258.11
647.945	41142.41
648.298	40870.1
648.65	40913.71
649.002	40767.95
649.355	40982.19
649.707	40939.7
650.059	41036.87
650.411	41532.68
650.763	41689.06
651.115	41968.15
651.467	41767.48
651.819	41866.91
652.171	41646.35
652.523	41731.32
652.875	41719.79
653.227	41528.16
653.578	41724.09
653.93	41804.31
654.282	41620.59
654.633	41525
654.985	41594.6
655.337	41627.37
655.688	41525
656.039	41657.65
656.391	41303.08
656.742	41409.97
657.094	41516.41
657.445	41712.79
657.796	41395.28
658.147	41490.19
658.498	41399.35
658.849	41565.45
659.2	41426.69
659.551	41313.7
659.902	41401.61
660.253	41387.15
660.604	41515.73
660.955	41296.08
661.306	41482.06
661.656	41253.36
662.007	41379.69
662.358	41240.48
662.708	41331.1
663.059	41322.06
663.409	41108.74
663.76	41348.05
664.11	41469.18
664.461	41400.93
664.811	41449.29
665.161	41251.33
665.511	41233.25
665.862	41304.44
666.212	41334.49
666.562	41431.66
666.912	41217.89
667.262	41188.96
667.612	41082.3
667.962	41226.92
668.312	41191.45
668.662	41461.04
669.011	41248.39
669.361	41201.61
669.711	41218.11
670.06	41161.39
670.41	40957.33
670.76	41027.16
671.109	41204.33
671.459	41076.87
671.808	41013.6
672.157	41168.62
672.507	40873.71
672.856	40870.55
673.205	40990.77
673.554	41103.54
673.904	40912.58
674.253	41193.25
674.602	41005.46
674.951	40445.25
675.3	40217.01
675.649	40946.93
675.998	40887.05
676.346	40788.74
676.695	40975.18
677.044	40629.88
677.393	40660.16
677.741	40872.58
678.09	40717.56
678.438	40516.43
678.787	40625.58
679.135	40660.16
679.484	40380.62
679.832	40598.47
680.181	40380.85
680.529	40500.62
680.877	40255.2
681.225	40277.34
681.573	40543.78
681.922	40292.49
682.27	40141.53
682.618	40145.14
682.966	40040.29
683.314	40198.25
683.661	40073.96
684.009	39822.89
684.357	39713.29
684.705	39742.44
685.053	39864.7
685.4	39591.94
685.748	39610.47
686.095	39576.12
686.443	39329.57
686.79	39416.58
687.138	39359.4
687.485	39355.56
687.832	39215.9
688.18	39400.98
688.527	39039.86
688.874	39043.25
689.221	38904.73
689.568	38999.19
689.915	38756.48
690.262	38903.6
690.609	38796.48
690.956	38602.81
691.303	38549.03
691.65	38389.26
691.997	38438.52
692.344	38201.92
692.69	38149.94
693.037	38116.5
693.383	37859.1
693.73	38075.37
694.077	37775.26
694.423	37966.67
694.769	37631.54
695.116	37743.63
695.462	37610.97
695.808	37479.9
696.155	37530.3
696.501	37210.98
696.847	37283.75
697.193	36963.76
697.539	37130.31
697.885	36883.08
698.231	36858.68
698.577	36891.9
698.923	36745.23
699.269	36583.2
699.614	36422.98
699.96	36318.8
700.306	36271.12
700.651	36095.76
700.997	35978.25
701.342	35848.76
701.688	35902.54
702.033	35854.18
702.379	35784.13
702.724	35726.28
703.069	35736.22
703.415	35397.93
703.76	35384.14
704.105	35458.26
704.45	35367.87
704.795	35186.86
705.14	35134.43
705.485	35130.81
705.83	34902.12
706.175	34972.17
706.52	34868.9
706.865	34929.24
707.209	34670.71
707.554	34588
707.899	34616.48
708.243	34364.51
708.588	34414.45
708.932	34047.45
709.277	34242.7
709.621	34182.14
709.966	33979.43
710.31	34030.96
710.654	33695.15
710.998	33816.5
711.342	33838.42
711.687	33673.9
712.031	33582.83
712.375	33339.22
712.719	33420.12
713.063	33433.23
713.407	33466.45
713.75	33442.04
714.094	33273.69
714.438	33095.84
714.782	33103.52
715.125	32994.82
715.469	33069.62
715.812	32976.75
716.156	32809.29
716.499	32798.45
716.843	32892.23
717.186	32620.37
717.53	32874.6
717.873	32809.97
718.216	32622.4
718.559	32434.39
718.902	32198.69
719.246	32282.75
719.589	32287.27
719.932	32190.33
720.275	32036.21
720.617	32168.41
720.96	32044.79
721.303	32003.21
721.646	32145.36
721.989	31796.44
722.331	31910.79
722.674	31845.7
723.016	31714.18
723.359	31708.08
723.701	31791.24
724.044	31527.07
724.386	31475.09
724.729	31538.82
725.071	31449.55
725.413	31470.12
725.755	31356.9
726.097	31306.06
726.439	31166.62
726.782	31155.78
727.124	31239.84
727.465	31087.08
727.807	31033.75
728.149	31023.12
728.491	30885.73
728.833	31013.18
729.175	30797.59
729.516	30904.94
729.858	30886.86
730.199	30754.21
730.541	30777.71
730.882	30687.09
731.224	30764.83
731.565	30448.22
731.906	30469.24
732.248	30474.66
732.589	30399.64
732.93	30269.7
733.271	30298.4
733.612	30302.01
733.953	30393.76
734.294	30125.97
734.635	30152.41
734.976	30271.05
735.317	29898.18
735.658	29989.71
735.999	30087.78
736.339	29884.4
736.68	30083.04
737.021	29873.1
737.361	29805.3
737.702	29895.47
738.042	29728.92
738.383	29621.58
738.723	29880.78
739.063	29660.45
739.404	29717.4
739.744	29562.82
740.084	29473.56
740.424	29512.43
740.764	29481.47
741.104	29550.17
741.444	29346.11
741.784	29321.25
742.124	29372.09
742.464	29321.7
742.804	29310.63
743.143	29166.45
743.483	29266.56
743.823	29047.81
744.162	28965.55
744.502	29137.07
744.841	28893.46
745.181	28977.53
745.52	29005.55
745.86	28990.86
746.199	28963.29
746.538	28731.43
746.877	28782.73
747.216	28861.15
747.556	28663.64
747.895	28681.27
748.234	28550.42
748.573	28631.55
748.911	28520.14
749.25	28580.03
749.589	28367.83
749.928	28430.65
750.267	28391.56
750.605	28373.7
750.944	28227.27
751.283	28081.06
751.621	28298
751.96	28221.16
752.298	28039.47
752.636	27990.66
752.975	27921.29
753.313	27751.57
753.651	27816.66
753.989	27670.67
754.327	27688.75
754.666	27538.02
755.004	27640.62
755.342	27569.43
755.679	27533.73
756.017	27416.89
756.355	27393.16
756.693	27286.5
757.031	27353.84
757.368	27188.65
757.706	27136.67
758.044	26995.21
758.381	26965.38
758.719	26974.87
759.056	26954.76
759.394	26911.37
759.731	26688.78
760.068	26619.62
760.405	26603.58
760.743	26480.42
761.08	26508.44
761.417	26467.54
761.754	26382.34
762.091	26272.74
762.428	26190.03
762.765	26026.19
763.102	26123.59
763.438	25973.77
763.775	25830.95
764.112	25747.33
764.449	25888.12
764.785	25809.02
765.122	25569.94
765.458	25498.98
765.795	25494.68
766.131	25468.92
766.467	25260.34
766.804	25115.26
767.14	25021.02
767.476	25094.02
767.812	24985.77
768.148	25058.54
768.485	24870.52
768.821	24672.11
769.157	24591.2
769.492	24583.75
769.828	24554.14
770.164	24412.68
770.5	24303.75
770.836	24391.66
771.171	24120.71
771.507	24092.01
771.842	23933.82
772.178	23850.66
772.513	23903.09
772.849	23758.23
773.184	23712.36
773.519	23706.93
773.855	23580.61
774.19	23573.6
774.525	23326.6
774.86	23444.12
775.195	23386.94
775.53	23244.8
775.865	23222.43
776.2	22906.28
776.535	22796.9
776.87	22785.38
777.205	22744.02
777.539	22668.54
777.874	22597.36
778.209	22256.12
778.543	22424.48
778.878	22358.72
779.212	22283.92
779.547	22094.32
779.881	22165.05
780.215	21995.79
780.55	21962.12
780.884	21866.3
781.218	21798.06
781.552	21813.42
781.886	21689.36
782.22	21664.73
782.554	21486.2
782.888	21231.74
783.222	21198.52
783.556	21037.62
783.889	21108.36
784.223	21020.68
784.557	20979.55
784.89	21024.74
785.224	20831.75
785.557	20815.71
785.891	20709.27
786.224	20661.36
786.558	20639.9
786.891	20429.28
787.224	20386.34
787.557	20252.56
787.891	20262.5
788.224	20244.65
788.557	20152.22
788.89	20155.61
789.223	20083.98
789.556	19990.65
789.888	19979.35
790.221	19873.81
790.554	19672.69
790.887	19771.22
791.219	19606.93
791.552	19531.68
791.884	19546.14
792.217	19328.52
792.549	19330.78
792.882	19142.08
793.214	19178.01
793.546	19119.71
793.879	19027.06
794.211	18952.26
794.543	18958.13
794.875	18910.9
795.207	18890.11
795.539	18803.56
795.871	18748.19
796.203	18577.58
796.535	18581.19
796.867	18653.96
797.198	18524.92
797.53	18436.34
797.862	18382.33
798.193	18295.55
798.525	18202.45
798.856	18211.71
799.188	18016.46
799.519	18029.12
799.85	17858.5
800.182	17917.93
800.513	17959.06
800.844	17661.22
801.175	17741.44
801.506	17761.78
801.837	17680.42
802.168	17571.28
802.499	17608.56
802.83	17496.25
803.161	17436.14
803.491	17434.1
803.822	17375.12
804.153	17229.36
804.483	17037.73
804.814	17008.8
805.145	17045.64
805.475	17121.8
805.805	16939.2
806.136	17031.4
806.466	16961.35
806.796	16947.34
807.126	16818.53
807.457	16777.17
807.787	16769.49
808.117	16656.72
808.447	16609.72
808.777	16630.06
809.107	16515.71
809.436	16416.73
809.766	16479.78
810.096	16398.2
810.426	16321.59
810.755	16414.7
811.085	16264.64
811.414	16287.47
811.744	16184.65
812.073	16155.95
812.403	16124.31
812.732	16059.45
813.061	16064.42
813.39	15926.8
813.719	15842.96
814.049	15992.11
814.378	15923.86
814.707	15839.12
815.036	15812
815.365	15697.43
815.693	15563.87
816.022	15649.74
816.351	15497.66
816.68	15459.69
817.008	15496.08
817.337	15389.64
817.665	15314.84
817.994	15381.05
818.322	15267.83
818.651	15263.31
818.979	15269.87
819.307	15272.8
819.636	15231.9
819.964	15125.24
820.292	15111
820.62	15164.11
820.948	15149.19
821.276	15165.01
821.604	15026.03
821.932	15098.8
822.259	15132.24
822.587	15052.92
822.915	15026.26
823.243	15097.67
823.57	15080.95
823.898	15119.59
824.225	14930.89
824.553	15011.34
824.88	15011.12
825.207	14966.82
825.535	14965.92
825.862	15026.26
826.189	14981.06
826.516	15033.04
826.843	15023.77
827.17	15014.96
827.497	15073.26
827.824	15052.02
828.151	15086.37
828.478	14968.18
828.805	15096.09
829.131	15032.36
829.458	15022.87
829.785	14926.15
830.111	14998.91
830.438	15048.63
830.764	15052.02
831.09	15033.71
831.417	14860.84
831.743	14968.86
832.069	14884.34
832.395	14924.34
832.722	14973.6
833.048	14876.43
833.374	14878.24
833.7	14913.04
834.026	14904.45
834.351	14865.81
834.677	14854.96
835.003	14867.84
835.329	14811.12
835.654	14780.61
835.98	14687.06
836.306	14684.35
836.631	14688.64
836.956	14724.8
837.282	14727.51
837.607	14588.75
837.932	14558.25
838.258	14528.19
838.583	14581.75
838.908	14488.42
839.233	14521.64
839.558	14452.04
839.883	14468.76
840.208	14355.31
840.533	14338.37
840.858	14416.56
841.182	14372.26
841.507	14305.15
841.832	14263.57
842.156	14282.32
842.481	14231.25
842.805	14146.51
843.13	14153.06
843.454	14137.02
843.778	14049.79
844.103	14094.98
844.427	14076.45
844.751	14035.55
845.075	13997.81
845.399	13879.62
845.723	13813.86
846.047	13872.62
846.371	13770.02
846.695	13697.48
847.019	13623.58
847.343	13611.15
847.666	13470.37
847.99	13507.43
848.313	13438.28
848.637	13417.49
848.96	13356.92
849.284	13323.7
849.607	13173.88
849.931	13175.46
850.254	13035.8
850.577	13086.65
850.9	12948.12
851.223	12870.16
851.546	12869.48
851.869	12791.51
852.192	12905.64
852.515	12763.94
852.838	12675.81
853.161	12670.16
853.483	12622.48
853.806	12605.76
854.129	12577.96
854.451	12490.05
854.774	12425.42
855.096	12413.44
855.419	12344.52
855.741	12322.15
856.063	12272.88
856.385	12161.02
856.708	12199.67
857.03	12111.76
857.352	12201.92
857.674	12131.42
857.996	12115.15
858.318	11923.74
858.64	11990.18
858.961	11987.92
859.283	11869.05
859.605	11843.29
859.926	11888.71
860.248	11857.98
860.57	11805.55
860.891	11767.59
861.212	11759
861.534	11674.93
861.855	11704.76
862.176	11595.84
862.498	11696.18
862.819	11666.12
863.14	11559.68
863.461	11527.59
863.782	11511.32
864.103	11513.36
864.424	11485.33
864.745	11543.41
865.065	11470.87
865.386	11391.32
865.707	11446.92
866.027	11363.3
866.348	11375.28
866.668	11362.62
866.989	11391.78
867.309	11330.76
867.63	11300.93
867.95	11255.51
868.27	11226.13
868.59	11206.24
868.91	11197.21
869.23	11203.08
869.55	11167.83
869.87	11239.46
870.19	11195.4
870.51	11078.34
870.83	11175.29
871.15	11040.15
871.469	11056.87
871.789	11015.06
872.109	11045.8
872.428	10998.34
872.748	10985.01
873.067	10969.41
873.386	10953.82
873.706	10965.12
874.025	10863.66
874.344	10896.87
874.663	10910.43
874.982	10858.01
875.301	10847.16
875.62	10799.7
875.939	10771.45
876.258	10812.13
876.577	10779.59
876.896	10757.67
877.214	10768.29
877.533	10736.2
877.852	10773.71
878.17	10765.35
878.489	10759.03
878.807	10640.16
879.125	10635.19
879.444	10554.28
879.762	10548.41
880.08	10600.61
880.398	10581.4
880.716	10562.19
881.034	10509.77
881.352	10522.42
881.67	10479.94
881.988	10504.12
882.306	10428.41
882.624	10376.89
882.941	10373.5
883.259	10306.61
883.577	10336.89
883.894	10319.71
884.212	10279.26
884.529	10249.43
884.846	10251.92
885.164	10260.96
885.481	10135.76
885.798	10248.76
886.115	10105.26
886.432	10103
886.75	10103
887.067	10116.33
887.383	10055.09
887.7	10052.6
888.017	9968.31
888.334	10053.51
888.651	9983.68
888.967	9996.11
889.284	9896
889.6	9895.54
889.917	9762.67
890.233	9822.55
890.55	9754.76
890.866	9715.21
891.182	9707.3
891.498	9722.22
891.815	9626.63
892.131	9648.09
892.447	9742.1
892.763	9609.45
893.079	9467.76
893.395	9522
893.71	9455.56
894.026	9449.68
894.342	9453.07
894.657	9423.92
894.973	9426.63
895.289	9357.48
895.604	9329.01
895.92	9285.17
896.235	9264.83
896.55	9252.4
896.865	9183.47
897.181	9177.15
897.496	9160.42
897.811	9131.72
898.126	9087.88
898.441	9111.38
898.756	9019.18
899.071	8969.02
899.386	8974.44
899.7	8839.75
900.015	8866.87
900.33	8871.84
900.644	8816.03
900.959	8771.51
901.273	8770.83
901.588	8706.88
901.902	8715.91
902.216	8668.23
902.531	8613.77
902.845	8540.1
903.159	8519.31
903.473	8554.34
903.787	8532.87
904.101	8435.24
904.415	8454.9
904.729	8387.11
905.042	8406.09
905.356	8340.56
905.67	8280.67
905.984	8264.4
906.297	8313.67
906.611	8257.17
906.924	8183.5
907.237	8212.43
907.551	8162.03
907.864	8113.44
908.177	8102.37
908.491	8058.98
908.804	8016.72
909.117	7948.93
909.43	7901.47
909.743	7876.16
910.056	7847.92
910.368	7840.23
910.681	7781.7
910.994	7797.07
911.307	7756.84
911.619	7727.69
911.932	7761.14
912.244	7643.4
912.557	7636.85
912.869	7550.97
913.181	7608.83
913.494	7573.8
913.806	7541.26
914.118	7427.81
914.43	7346.69
914.742	7424.65
915.054	7404.08
915.366	7350.98
915.678	7311.21
915.99	7275.27
916.302	7170.42
916.613	7172.45
916.925	7228.27
917.236	7228.27
917.548	7163.87
917.859	7150.08
918.171	7103.08
918.482	7020.37
918.794	6994.6
919.105	7046.81
919.416	6963.64
919.727	6928.39
920.038	6902.86
920.349	6883.87
920.66	6857.66
920.971	6868.51
921.282	6819.24
921.593	6781.95
921.903	6755.51
922.214	6661.96
922.525	6641.39
922.835	6640.49
923.146	6620.38
923.456	6572.24
923.767	6589.42
924.077	6545.58
924.387	6522.07
924.697	6475.97
925.008	6454.73
925.318	6419.25
925.628	6426.71
925.938	6418.35
926.248	6303.1
926.558	6320.72
926.867	6329.76
927.177	6286.37
927.487	6228.97
927.796	6168.64
928.106	6124.34
928.416	6167.96
928.725	6132.93
929.034	6144.23
929.344	6070.11
929.653	5992.6
929.962	6037.12
930.271	5984.69
930.581	5950.34
930.89	5915.76
931.199	5872.15
931.508	5890.23
931.817	5831.47
932.125	5858.81
932.434	5841.87
932.743	5789.66
933.051	5754.64
933.36	5689.33
933.669	5744.69
933.977	5642.1
934.286	5665.15
934.594	5662.66
934.902	5641.42
935.21	5621.31
935.519	5566.62
935.827	5577.01
936.135	5554.19
936.443	5470.58
936.751	5475.77
937.059	5471.71
937.367	5439.39
937.674	5358.04
937.982	5372.73
938.29	5351.48
938.597	5415.44
938.905	5301.54
939.213	5277.36
939.52	5264.03
939.827	5268.1
940.135	5278.49
940.442	5199.85
940.749	5194.65
941.056	5197.59
941.363	5112.62
941.67	5122.56
941.977	5140.42
942.284	5066.07
942.591	5078.27
942.898	5049.8
943.205	5038.95
943.511	4988.56
943.818	4958.5
944.125	4902.68
944.431	4899.29
944.738	4905.85
945.044	4848.67
945.35	4875.11
945.657	4807.09
945.963	4813.19
946.269	4816.36
946.575	4796.02
946.881	4723.03
947.187	4736.36
947.493	4739.3
947.799	4695.68
948.105	4698.85
948.41	4661.11
948.716	4625.85
949.022	4615.68
949.327	4619.75
949.633	4549.47
949.938	4552.41
950.244	4541.34
950.549	4540.21
950.854	4504.27
951.16	4487.55
951.465	4436.93
951.77	4443.26
952.075	4370.94
952.38	4419.3
952.685	4352.87
952.99	4391.51
953.294	4353.77
953.599	4322.13
953.904	4280.78
954.209	4335.69
954.513	4271.51
954.818	4272.19
955.122	4224.73
955.426	4210.5
955.731	4177.73
956.035	4161.68
956.339	4168.69
956.643	4148.35
956.948	4137.28
957.252	4046.43
957.556	4088.92
957.86	4084.62
958.163	4067.22
958.467	4040.33
958.771	4012.76
959.075	4037.17
959.378	3977.51
959.682	3952.88
959.985	3968.02
960.289	3938.19
960.592	3886.66
960.896	3889.38
961.199	3875.82
961.502	3868.13
961.805	3791.07
962.108	3782.26
962.411	3842.82
962.714	3801.92
963.017	3820
963.32	3782.71
963.623	3749.72
963.926	3698.42
964.228	3695.26
964.531	3729.15
964.833	3673.79
965.136	3627.46
965.438	3671.53
965.741	3641.02
966.043	3645.77
966.345	3559.21
966.648	3583.39
966.95	3627.69
967.252	3555.15
967.554	3551.76
967.856	3545.88
968.158	3508.37
968.46	3473.79
968.761	3488.03
969.063	3521.48
969.365	3411.2
969.666	3433.12
969.968	3417.52
970.269	3409.61
970.571	3433.79
970.872	3377.07
971.174	3354.47
971.475	3354.02
971.776	3339.79
972.077	3361.71
972.378	3277.19
972.679	3288.49
972.98	3286.68
973.281	3258.21
973.582	3241.71
973.883	3218.21
974.183	3231.77
974.484	3270.18
974.785	3175.95
975.085	3169.62
975.386	3214.14
975.686	3136.85
975.986	3123.52
976.287	3114.93
976.587	3111.99
976.887	3091.88
977.187	3100.02
977.487	3071.54
977.787	3097.53
978.087	3044.43
978.387	2996.52
978.687	2994.48
978.987	2992.22
979.286	2983.41
979.586	2980.02
979.885	2941.6
980.185	2923.75
980.484	2916.07
980.784	2960.36
981.083	2907.71
981.382	2889.4
981.682	2922.85
981.981	2882.4
982.28	2865
982.579	2864.77
982.878	2875.84
983.177	2850.31
983.475	2840.36
983.774	2783.42
984.073	2772.79
984.372	2735.73
984.67	2770.31
984.969	2724.21
985.267	2716.07
985.566	2687.82
985.864	2688.05
986.162	2683.53
986.461	2706.13
986.759	2660.93
987.057	2654.83
987.355	2646.7
987.653	2611.89
987.951	2629.3
988.249	2614.38
988.547	2574.16
988.844	2561.05
989.142	2558.11
989.44	2598.79
989.737	2514.72
990.035	2539.35
990.332	2519.24
990.63	2512.01
990.927	2525.57
991.224	2496.42
991.521	2492.58
991.819	2497.55
992.116	2458.68
992.413	2448.06
992.71	2389.3
993.006	2394.95
993.303	2416.87
993.6	2421.62
993.897	2380.04
994.193	2377.32
994.49	2363.77
994.787	2348.85
995.083	2338
995.379	2329.64
995.676	2328.06
995.972	2296.42
996.268	2306.37
996.565	2267.5
996.861	2278.57
997.157	2268.17
997.453	2263.88
997.749	2232.7
998.044	2216.2
998.34	2223.88
998.636	2215.97
998.932	2201.51
999.227	2177.56
999.523	2184.56
999.818	2188.63
1000.114	2150.89
1000.409	2137.56
1000.704	2126.03
1001	2114.51
1001.295	2096.43
1001.59	2080.16
1001.885	2078.58
1002.18	2101.85
1002.475	2078.8
1002.77	2048.29
1003.065	2026.37
1003.359	2032.47
1003.654	2022.53
1003.949	2008.75
1004.243	1966.94
1004.538	1952.7
1004.832	1963.32
1005.127	1967.62
1005.421	1980.95
1005.715	1961.52
1006.009	1930.78
1006.304	1914.06
1006.598	1920.16
1006.892	1901.18
1007.186	1887.85
1007.48	1874.74
1007.773	1905.25
1008.067	1879.71
1008.361	1853.95
1008.655	1855.98
1008.948	1804.91
1009.242	1832.48
1009.535	1813.95
1009.829	1806.49
1010.122	1785.93
1010.415	1809.88
1010.708	1770.11
1011.001	1756.32
1011.295	1741.41
1011.588	1745.02
1011.881	1728.3
1012.173	1723.56
1012.466	1686.27
1012.759	1704.57
1013.052	1689.43
1013.344	1669.55
1013.637	1669.32
1013.93	1675.42
1014.222	1671.13
1014.514	1633.62
1014.807	1616.89
1015.099	1594.29
1015.391	1597.23
1015.683	1571.02
1015.976	1599.72
1016.268	1570.57
1016.56	1562.2
1016.851	1568.08
1017.143	1557.91
1017.435	1543.9
1017.727	1530.79
1018.018	1540.74
1018.31	1531.92
1018.602	1508.65
1018.893	1499.38
1019.185	1503.22
1019.476	1476.56
1019.767	1494.86
1020.058	1452.83
1020.35	1451.02
1020.641	1442.21
1020.932	1434.75
1021.223	1440.4
1021.514	1394.53
1021.804	1383.45
1022.095	1395.2
1022.386	1414.86
1022.677	1382.77
1022.967	1351.36
1023.258	1366.05
1023.548	1344.36
1023.839	1362.66
1024.129	1354.98
1024.419	1354.75
1024.709	1322.89
1025	1316.79
1025.29	1310.23
1025.58	1309.33
1025.87	1275.66
1026.16	1282.89
1026.449	1288.99
1026.739	1263.68
1027.029	1246.05
1027.319	1239.05
1027.608	1233.85
1027.898	1218.03
1028.187	1233.4
1028.477	1217.81
1028.766	1188.88
1029.055	1187.75
1029.344	1182.55
1029.634	1169.45
1029.923	1176.68
1030.212	1170.8
1030.501	1147.98
1030.79	1146.85
1031.078	1121.99
1031.367	1132.61
1031.656	1130.35
1031.945	1097.58
1032.233	1116.11
1032.522	1102.78
1032.81	1103.46
1033.099	1082.9
1033.387	1096.91
1033.675	1077.02
1033.963	1084.93
1034.251	1064.14
1034.54	1063.91
1034.828	1026.4
1035.116	1043.12
1035.403	1027.08
1035.691	1017.13
1035.979	1042.9
1036.267	1008.77
1036.554	1018.49
1036.842	1011.94
1037.129	993.18
1037.417	977.36
1037.704	977.36
1037.992	973.97
1038.279	992.28
1038.566	967.64
1038.853	967.64
1039.14	967.64
