Data from hue_26_FLMS001491_00042.txt Node
Date: Tue Feb 07 17:14:03 GMT 2017
User: dcchb
Spectrometer: FLMS00149
Trigger mode: 0
Integration Time (sec): 2.000000E-2
Scans to average: 10
Electric dark correction enabled: true
Nonlinearity correction enabled: false
Boxcar width: 0
XAxis mode: Wavelengths
Number of Pixels in Spectrum: 2048
>>>>>Begin Spectral Data<<<<<
341.393	-5.45
341.776	-5.45
342.16	-5.45
342.543	-89.97
342.927	-70.08
343.31	-63.08
343.693	-62.85
344.077	-60.37
344.46	-62.4
344.843	-75.73
345.226	-41.16
345.61	-23.3
345.993	-14.49
346.376	-4.32
346.759	23.93
347.142	12.63
347.525	48.33
347.908	66.18
348.291	97.14
348.674	82
349.057	77.48
349.44	127.65
349.823	147.54
350.206	137.82
350.588	192.96
350.971	213.53
351.354	239.74
351.737	230.7
352.119	239.29
352.502	277.93
352.884	264.37
353.267	278.83
353.65	286.52
354.032	306.86
354.414	299.62
354.797	321.32
355.179	306.4
355.562	322
355.944	346.63
356.326	323.58
356.709	328.32
357.091	343.92
357.473	341.43
357.855	334.88
358.238	365.84
358.62	332.17
359.002	353.41
359.384	320.64
359.766	322.22
360.148	333.52
360.53	322.45
360.912	305.95
361.294	322.22
361.676	342.11
362.057	345.5
362.439	321.55
362.821	310.25
363.203	326.06
363.584	310.7
363.966	327.65
364.348	290.81
364.729	315.67
365.111	313.41
365.493	315.67
365.874	301.43
366.256	298.27
366.637	303.24
367.019	295.56
367.4	306.63
367.781	313.86
368.163	316.12
368.544	311.15
368.925	298.04
369.306	323.35
369.688	301.21
370.069	323.13
370.45	306.86
370.831	310.47
371.212	305.5
371.593	302.56
371.974	313.86
372.355	320.42
372.736	311.15
373.117	313.86
373.498	317.25
373.879	308.89
374.26	316.35
374.641	329.45
375.021	314.99
375.402	313.41
375.783	315.44
376.163	341.21
376.544	324.03
376.925	321.55
377.305	318.38
377.686	331.49
378.066	329.68
378.447	354.76
378.827	314.09
379.208	315.44
379.588	331.94
379.968	329.45
380.349	343.01
380.729	334.2
381.109	322.9
381.489	329.68
381.87	349.57
382.25	336.46
382.63	347.99
383.01	329.68
383.39	343.01
383.77	339.85
384.15	331.94
384.53	337.82
384.91	364.26
385.29	325.39
385.67	336.23
386.049	357.02
386.429	374.43
386.809	359.74
387.189	345.73
387.568	360.19
387.948	357.02
388.328	361.77
388.707	345.95
389.087	340.98
389.466	360.19
389.846	360.64
390.225	355.44
390.605	361.77
390.984	365.61
391.363	354.09
391.743	390.47
392.122	360.87
392.501	374.88
392.881	392.73
393.26	374.88
393.639	377.81
394.018	355.22
394.397	359.06
394.776	366.97
395.155	381.2
395.534	385.72
395.913	357.48
396.292	406.51
396.671	385.05
397.05	387.31
397.429	376.01
397.808	384.59
398.186	391.37
398.565	401.09
398.944	399.06
399.323	405.61
399.701	380.75
400.08	394.99
400.458	386.4
400.837	402.9
401.215	399.74
401.594	383.01
401.972	401.32
402.351	400.19
402.729	398.83
403.107	411.03
403.486	391.83
403.864	398.83
404.242	385.27
404.62	427.76
404.999	403.12
405.377	406.06
405.755	413.97
406.133	430.92
406.511	412.39
406.889	441.09
407.267	436.8
407.645	427.98
408.023	420.53
408.401	426.85
408.779	436.12
409.156	422.33
409.534	440.19
409.912	430.24
410.29	460.98
410.667	446.29
411.045	458.94
411.422	454.2
411.8	458.26
412.178	448.55
412.555	460.3
412.933	464.14
413.31	471.82
413.687	476.57
414.065	467.76
414.442	476.34
414.819	490.13
415.197	481.99
415.574	462.56
415.951	493.97
416.328	493.07
416.705	478.83
417.082	487.87
417.46	483.35
417.837	474.99
418.214	488.77
418.591	489
418.967	506.17
419.344	502.56
419.721	498.72
420.098	498.49
420.475	505.04
420.852	522.9
421.228	500.07
421.605	521.54
421.982	517.25
422.358	533.07
422.735	545.27
423.111	522.22
423.488	523.35
423.864	534.65
424.241	536.91
424.617	539.17
424.994	552.95
425.37	539.17
425.746	548.66
426.123	547.3
426.499	548.88
426.875	573.52
427.251	560.18
427.627	569
428.003	593.4
428.379	576.91
428.756	570.8
429.132	580.75
429.507	592.95
429.883	601.09
430.259	608.77
430.635	617.58
431.011	611.03
431.387	616.23
431.763	653.06
432.138	608.77
432.514	626.85
432.89	615.77
433.265	631.82
433.641	648.77
434.016	618.03
434.392	677.47
434.767	670.24
435.143	672.27
435.518	677.92
435.894	672.5
436.269	670.91
436.644	687.64
437.02	699.84
437.395	690.35
437.77	714.53
438.145	693.06
438.52	716.11
438.895	689.22
439.271	715.66
439.646	739.84
440.021	732.61
440.395	710.69
440.77	725.38
441.145	720.4
441.52	723.34
441.895	735.77
442.27	712.95
442.645	762.66
443.019	752.04
443.394	767.64
443.769	761.31
444.143	753.17
444.518	776.22
444.892	796.33
445.267	788.65
445.641	792.95
446.016	784.13
446.39	810.12
446.764	799.27
447.139	793.85
447.513	772.15
447.887	803.11
448.262	803.34
448.636	794.3
449.01	801.53
449.384	822.32
449.758	822.77
450.132	825.94
450.506	844.24
450.88	845.37
451.254	830.01
451.628	864.81
452.002	862.55
452.376	847.86
452.75	867.97
453.123	874.98
453.497	862.32
453.871	880.17
454.244	894.64
454.618	915.2
454.992	923.56
455.365	934.18
455.739	947.07
456.112	934.18
456.486	963.79
456.859	932.15
457.232	976.67
457.606	976.9
457.979	975.99
458.352	987.29
458.725	1023.22
459.099	999.49
459.472	1050.57
459.845	1030
460.218	1017.57
460.591	1043.11
460.964	1052.83
461.337	1049.89
461.71	1070
462.083	1095.31
462.456	1090.11
462.829	1095.31
463.201	1112.03
463.574	1119.04
463.947	1141.18
464.32	1157
464.692	1154.29
465.065	1150
465.438	1190.67
465.81	1192.03
466.183	1206.95
466.555	1253.72
466.928	1240.62
467.3	1243.55
467.672	1263.44
468.045	1280.62
468.417	1300.95
468.789	1288.98
469.161	1339.15
469.534	1350.9
469.906	1365.81
470.278	1381.86
470.65	1394.51
471.022	1429.76
471.394	1452.81
471.766	1469.09
472.138	1468.41
472.51	1465.24
472.882	1531.46
473.253	1544.34
473.625	1551.57
473.997	1609.42
474.369	1590.21
474.74	1626.6
475.112	1652.36
475.484	1647.61
475.855	1731
476.227	1759.93
476.598	1817.55
476.97	1801.96
477.341	1834.95
477.713	1861.62
478.084	1862.75
478.455	1933.93
478.827	1941.16
479.198	2045.57
479.569	2057.09
479.94	2088.28
480.311	2125.57
480.682	2177.54
481.053	2219.35
481.424	2260.48
481.795	2280.36
482.166	2328.05
482.537	2375.95
482.908	2436.29
483.279	2461.15
483.65	2511.32
484.021	2553.8
484.391	2605.78
484.762	2639.22
485.133	2676.29
485.503	2713.8
485.874	2785.44
486.244	2808.03
486.615	2844.87
486.985	2878.77
487.356	2959.89
487.726	3023.62
488.097	3031.3
488.467	3099.33
488.837	3156.5
489.207	3226.33
489.578	3213.9
489.948	3293.9
490.318	3358.98
490.688	3352.2
491.058	3424.74
491.428	3472.87
491.798	3528.01
492.168	3596.04
492.538	3633.55
492.908	3683.72
493.278	3746.09
493.648	3763.71
494.017	3815.46
494.387	3826.31
494.757	3878.97
495.126	3926.65
495.496	3942.24
495.866	3968.23
496.235	4063.14
496.605	4088.45
496.974	4109.92
497.344	4172.97
497.713	4173.42
498.082	4218.39
498.452	4285.06
498.821	4319.18
499.19	4280.54
499.559	4329.12
499.928	4377.94
500.298	4420.42
500.667	4488.89
501.036	4465.39
501.405	4495.45
501.774	4552.85
502.143	4572.05
502.512	4591.94
502.88	4602.56
503.249	4615.67
503.618	4683.24
503.987	4723.01
504.356	4742.22
504.724	4731.6
505.093	4774.99
505.462	4851.6
505.83	4826.74
506.199	4866.51
506.567	4910.35
506.936	4880.3
507.304	4951.71
507.672	4961.65
508.041	5003
508.409	4987.86
508.777	5079.16
509.145	5118.48
509.514	5041.42
509.882	5115.77
510.25	5130.91
510.618	5181.76
510.986	5197.35
511.354	5198.03
511.722	5285.93
512.09	5263.56
512.458	5272.38
512.826	5332.49
513.193	5321.64
513.561	5368.19
513.929	5361.64
514.297	5448.42
514.664	5426.95
515.032	5473.73
515.4	5519.37
515.767	5513.05
516.135	5499.49
516.502	5499.26
516.869	5619.94
517.237	5600.28
517.604	5613.84
517.972	5650.22
518.339	5723.66
518.706	5659.94
519.073	5723.66
519.44	5726.83
519.808	5758.46
520.175	5787.39
520.542	5790.55
520.909	5871.68
521.276	5868.74
521.643	5850.89
522.009	5917.1
522.376	5915.3
522.743	5986.48
523.11	6048.4
523.477	6013.6
523.843	6009.76
524.21	6100.83
524.577	6148.51
524.943	6191.45
525.31	6186.7
525.676	6223.99
526.043	6214.27
526.409	6284.78
526.776	6375.62
527.142	6412.01
527.508	6362.97
527.874	6426.24
528.241	6438.45
528.607	6488.16
528.973	6570.19
529.339	6509.41
529.705	6608.61
530.071	6648.84
530.437	6712.34
530.803	6696.97
531.169	6663.3
531.535	6780.81
531.901	6728.38
532.267	6794.14
532.632	6878.43
532.998	6852.45
533.364	6954.14
533.73	6892.67
534.095	6943.97
534.461	6973.12
534.826	7011.76
535.192	7100.8
535.557	7086.11
535.923	7094.7
536.288	7119.33
536.653	7195.94
537.019	7135.6
537.384	7185.55
537.749	7288.82
538.114	7196.39
538.479	7301.25
538.845	7343.51
539.21	7282.72
539.575	7312.32
539.94	7350.74
540.305	7488.59
540.67	7466.67
541.034	7491.3
541.399	7507.34
541.764	7521.58
542.129	7562.26
542.494	7625.31
542.858	7712.31
543.223	7634.35
543.587	7707.57
543.952	7730.84
544.316	7722.03
544.681	7741.92
545.045	7825.3
545.41	7880.89
545.774	7870.95
546.138	7888.58
546.503	7976.94
546.867	7914.11
547.231	8072.3
547.595	7994.79
547.959	8096.71
548.324	8039.53
548.688	8089.25
549.052	8122.02
549.416	8138.51
549.779	8168.34
550.143	8192.52
550.507	8304.61
550.871	8274.33
551.235	8304.39
551.599	8340.32
551.962	8308.23
552.326	8466.42
552.689	8448.34
553.053	8415.34
553.417	8451.27
553.78	8503.25
554.143	8481.78
554.507	8580.09
554.87	8596.36
555.234	8682.68
555.597	8593.64
555.96	8724.49
556.323	8687.2
556.686	8758.39
557.05	8794.54
557.413	8688.33
557.776	8783.7
558.139	8839.74
558.502	8763.13
558.865	8816.01
559.228	8891.04
559.59	8907.99
559.953	8910.7
560.316	9062.33
560.679	9030.47
561.041	9083.8
561.404	9048.77
561.767	9160.86
562.129	9168.77
562.492	9252.84
562.854	9145.72
563.217	9208.77
563.579	9253.74
563.941	9317.24
564.304	9383.45
564.666	9430.68
565.028	9383.91
565.39	9397.24
565.753	9478.82
566.115	9509.55
566.477	9640.4
566.839	9553.17
567.201	9614.18
567.563	9645.82
567.925	9755.2
568.287	9707.97
568.648	9726.04
569.01	9802.43
569.372	9892.82
569.734	9856.44
570.095	9914.51
570.457	9962.2
570.819	10048.07
571.18	10028.63
571.542	10090.33
571.903	10182.3
572.265	10180.5
572.626	10199.48
572.987	10330.1
573.349	10385.69
573.71	10378
574.071	10402.64
574.432	10484.44
574.794	10619.35
575.155	10632.91
575.516	10582.07
575.877	10732.12
576.238	10739.58
576.599	10864.32
576.96	10919.46
577.32	11068.83
577.681	11150.86
578.042	11208.49
578.403	11289.17
578.763	11343.63
579.124	11541.36
579.485	11639.89
579.845	11675.82
580.206	11791.98
580.566	11905.65
580.927	11985.87
581.287	12153.55
581.648	12240.78
582.008	12371.17
582.368	12555.57
582.728	12723.48
583.089	12834.89
583.449	13006.86
583.809	13273.75
584.169	13364.37
584.529	13551.25
584.889	13865.82
585.249	13896.1
585.609	14090.67
585.969	14346.26
586.329	14489.53
586.688	14729.98
587.048	14946.47
587.408	15216.52
587.768	15312.79
588.127	15504.2
588.487	15787.81
588.846	16127.23
589.206	16284.52
589.565	16560.89
589.925	16929.7
590.284	17101.44
590.643	17408.1
591.003	17706.85
591.362	17998.59
591.721	18162.21
592.08	18507.96
592.44	18870.44
592.799	19173.93
593.158	19408.27
593.517	19591.77
593.876	19950.41
594.235	20291.19
594.593	20666.1
594.952	20868.35
595.311	21176.82
595.67	21467.43
596.029	21934.54
596.387	22168.65
596.746	22497.23
597.104	22661.97
597.463	23002.3
597.822	23362.07
598.18	23611.55
598.538	23895.39
598.897	24348.26
599.255	24464.64
599.613	25088.58
599.972	25178.97
600.33	25621.22
600.688	25669.81
601.046	26089
601.404	26448.32
601.762	26594.3
602.12	27061.86
602.478	27355.41
602.836	27557.89
603.194	27704.55
603.552	27912.68
603.91	28184.77
604.268	28533.46
604.625	28853.9
604.983	29117.85
605.341	29265.64
605.698	29705.86
606.056	29923.93
606.413	30157.6
606.771	30441.88
607.128	30823.12
607.485	30911.93
607.843	31193.5
608.2	31466.49
608.557	31840.26
608.914	31849.08
609.272	32318.9
609.629	32421.72
609.986	32710.98
610.343	32812.44
610.7	33213.79
611.057	33371.98
611.414	33565.87
611.771	33783.26
612.127	34035.91
612.484	34299.18
612.841	34675.22
613.198	34435.9
613.554	34732.84
613.911	34994.76
614.267	35293.51
614.624	35464.8
614.98	35588.64
615.337	35905.24
615.693	36030.44
616.05	36041.96
616.406	36470.2
616.762	36466.81
617.118	36677.65
617.475	36649.86
617.831	36950.64
618.187	37021.15
618.543	37160.58
618.899	37498.19
619.255	37597.85
619.611	37664.29
619.967	37915.58
620.323	38122.81
620.678	38048.24
621.034	38119.87
621.39	38141.34
621.746	38161
622.101	38713.08
622.457	38442.8
622.812	38658.16
623.168	38911.49
623.523	39062.45
623.879	39065.84
624.234	38940.64
624.589	39297.47
624.945	39293.4
625.3	39364.36
625.655	39522.55
626.01	39616.33
626.365	39678.7
626.72	39628.76
627.075	39749.66
627.43	39913.95
627.785	39798.25
628.14	39883.67
628.495	39929.77
628.85	39997.34
629.205	40050.22
629.559	40286.37
629.914	40076.21
630.269	40351.23
630.623	40340.38
630.978	40173.15
631.332	40349.87
631.687	40460.6
632.041	40322.53
632.396	40501.73
632.75	40354.16
633.104	40464.44
633.459	40345.35
633.813	40354.62
634.167	40426.03
634.521	40397.78
634.875	40400.49
635.229	40380.83
635.583	40232.81
635.937	40412.47
636.291	40392.36
636.645	40413.37
636.999	40467.61
637.352	40473.26
637.706	40229.42
638.06	40473.26
638.413	40338.35
638.767	40299.93
639.121	40556.42
639.474	40268.97
639.828	40379.02
640.181	40396.42
640.534	40403.88
640.888	40273.04
641.241	40112.59
641.594	40307.39
641.947	40481.85
642.301	40311
642.654	40333.83
643.007	40303.77
643.36	40203.43
643.713	40341.96
644.066	40447.27
644.419	40110.56
644.771	39977
645.124	39530.46
645.477	39544.47
645.83	39391.93
646.182	39176.79
646.535	38998.04
646.888	39102.9
647.24	38874.43
647.593	39204.14
647.945	39087.98
648.298	39021.32
648.65	39014.09
649.002	38850.7
649.355	39093.18
649.707	38941.55
650.059	39043.69
650.411	39710.11
650.763	39649.32
651.115	40079.6
651.467	39914.63
651.819	39792.37
652.171	39831.24
652.523	39822.2
652.875	39827.17
653.227	39580.4
653.578	39838.47
653.93	39827.17
654.282	39656.56
654.633	39591.7
654.985	39647.52
655.337	39689.1
655.688	39770.45
656.039	39873.5
656.391	39522.1
656.742	39563.45
657.094	39560.29
657.445	39732.26
657.796	39697.23
658.147	39525.03
658.498	39587.41
658.849	39752.37
659.2	39621.08
659.551	39463.79
659.902	39660.4
660.253	39520.29
660.604	39564.81
660.955	39336.56
661.306	39464.92
661.656	39463.57
662.007	39522.55
662.358	39487.07
662.708	39494.53
663.059	39448.2
663.409	39101.77
663.76	39527.75
664.11	39398.71
664.461	39493.85
664.811	39554.41
665.161	39431.93
665.511	39370.91
665.862	39379.95
666.212	39513.06
666.562	39465.37
666.912	39292.95
667.262	39321.88
667.612	39435.32
667.962	39450.01
668.312	39338.15
668.662	39555.54
669.011	39414.53
669.361	39323.46
669.711	39375.21
670.06	39441.87
670.41	39345.83
670.76	39292.95
671.109	39461.53
671.459	39361.65
671.808	39287.53
672.157	39400.97
672.507	39035.56
672.856	39028.55
673.205	39221.31
673.554	39366.85
673.904	39130.69
674.253	39307.64
674.602	39125.27
674.951	38619.75
675.3	38516.47
675.649	39212.05
675.998	39109.23
676.346	39037.36
676.695	39198.94
677.044	38881.21
677.393	38861.1
677.741	39174.08
678.09	38790.82
678.438	38632.4
678.787	38987.87
679.135	38788.33
679.484	38607.09
679.832	38796.47
680.181	38539.07
680.529	38681.67
680.877	38504.72
681.225	38467.43
681.573	38692.06
681.922	38343.14
682.27	38455.91
682.618	38284.16
682.966	38379.53
683.314	38346.76
683.661	38240.55
684.009	38089.37
684.357	37963.49
684.705	37953.32
685.053	37980.22
685.4	37968.46
685.748	37909.26
686.095	37888.47
686.443	37703.61
686.79	37703.39
687.138	37676.5
687.485	37774.8
687.832	37380.23
688.18	37720.79
688.527	37357.18
688.874	37387.92
689.221	37287.35
689.568	37198.54
689.915	37048.49
690.262	37110.41
690.609	37025.44
690.956	36878.1
691.303	36831.09
691.65	36600.82
691.997	36653.25
692.344	36450.54
692.69	36446.92
693.037	36422.29
693.383	36289.64
693.73	36351.33
694.077	36046.26
694.423	36021.62
694.769	35960.83
695.116	35915.41
695.462	35713.61
695.808	35716.32
696.155	35812.14
696.501	35499.83
696.847	35521.98
697.193	35223.23
697.539	35433.39
697.885	35061.65
698.231	35088.09
698.577	35064.13
698.923	34968.32
699.269	34861.43
699.614	34645.84
699.96	34648.33
700.306	34620.53
700.651	34415.56
700.997	34391.16
701.342	34227.77
701.688	34334.66
702.033	34213.99
702.379	34180.54
702.724	34130.6
703.069	34193.87
703.415	33783.26
703.76	33808.8
704.105	33801.34
704.45	33718.18
704.795	33517.06
705.14	33535.14
705.485	33362.26
705.83	33273.9
706.175	33355.25
706.52	33247.91
706.865	33154.81
707.209	33100.12
707.554	32788.94
707.899	33059.22
708.243	32797.75
708.588	32854.93
708.932	32611.32
709.277	32634.37
709.621	32567.93
709.966	32415.39
710.31	32469.17
710.654	32136.53
710.998	32139.47
711.342	32261.5
711.687	32082.74
712.031	31947.38
712.375	31952.13
712.719	31842.07
713.063	31883.43
713.407	31964.56
713.75	31715.52
714.094	31611.12
714.438	31534.51
714.782	31656.99
715.125	31482.99
715.469	31461.74
715.812	31290.22
716.156	31262.65
716.499	31251.35
716.843	31344.68
717.186	30943.11
717.53	31190.11
717.873	31146.72
718.216	30917.58
718.559	30930.23
718.902	30714.19
719.246	30817.47
719.589	30672.84
719.932	30541.54
720.275	30580.41
720.617	30568.66
720.96	30467.42
721.303	30461.77
721.646	30514.88
721.989	30208.44
722.331	30347.65
722.674	30320.98
723.016	30313.07
723.359	30297.03
723.701	30335.45
724.044	30089.12
724.386	30010.03
724.729	30031.05
725.071	30088.67
725.413	29978.17
725.755	29968
726.097	29854.78
726.439	29594
726.782	29725.74
727.124	29843.71
727.465	29599.87
727.807	29531.85
728.149	29536.82
728.491	29485.98
728.833	29490.27
729.175	29399.65
729.516	29354.45
729.858	29264.29
730.199	29374.34
730.541	29270.16
730.882	29208.92
731.224	29252.31
731.565	29048.25
731.906	29033.56
732.248	29125.53
732.589	28921.47
732.93	28897.29
733.271	28740.46
733.612	28801.02
733.953	28904.75
734.294	28854.13
734.635	28693.91
734.976	28860.91
735.317	28670.18
735.658	28705.43
735.999	28752.89
736.339	28587.92
736.68	28530.75
737.021	28618.2
737.361	28482.61
737.702	28629.5
738.042	28467.47
738.383	28372.56
738.723	28438.77
739.063	28301.83
739.404	28303.63
739.744	28189.06
740.084	28034.49
740.424	28170.98
740.764	27959.69
741.104	28190.87
741.444	28007.82
741.784	28007.82
742.124	27907.71
742.464	27886.02
742.804	27831.78
743.143	27789.07
743.483	27707.04
743.823	27654.16
744.162	27793.59
744.502	27684.89
744.841	27539.81
745.181	27684.22
745.52	27638.57
745.86	27603.77
746.199	27381.17
746.538	27404
746.877	27467.27
747.216	27476.76
747.556	27464.56
747.895	27339.37
748.234	27259.37
748.573	27221.63
748.911	27297.56
749.25	27159.94
749.589	27090.78
749.928	27160.39
750.267	27142.31
750.605	27107.06
750.944	27015.98
751.283	26907.06
751.621	27064.34
751.96	26855.99
752.298	26876.78
752.636	26907.96
752.975	26786.61
753.313	26751.36
753.651	26914.07
753.989	26689.67
754.327	26601.08
754.666	26451.71
755.004	26442.89
755.342	26484.02
755.679	26413.97
756.017	26253.29
756.355	26388.43
756.693	26201.99
757.031	26273.18
757.368	26066.63
757.706	26167.19
758.044	26059.17
758.381	26038.61
758.719	25964.03
759.056	25885.84
759.394	25750.03
759.731	25784.83
760.068	25574.21
760.405	25541
760.743	25455.12
761.08	25610.6
761.417	25460.09
761.754	25387.78
762.091	25264.17
762.428	25295.35
762.765	24961.35
763.102	25160.44
763.438	24995.02
763.775	24903.72
764.112	24948.69
764.449	25059.43
764.785	24698.31
765.122	24574.01
765.458	24475.26
765.795	24602.04
766.131	24515.49
766.467	24402.04
766.804	24356.85
767.14	24263.29
767.476	24133.12
767.812	24132.67
768.148	24051.32
768.485	24027.81
768.821	23804.32
769.157	23881.15
769.492	23767.93
769.828	23739.91
770.164	23497.66
770.5	23419.47
770.836	23456.53
771.171	23176.76
771.507	23273.48
771.842	23103.09
772.178	23076.43
772.513	23004.34
772.849	22991.46
773.184	22900.84
773.519	22788.07
773.855	22789.2
774.19	22638.92
774.525	22559.15
774.86	22622.88
775.195	22392.38
775.53	22422.21
775.865	22275.32
776.2	22125.94
776.535	21969.11
776.87	21995.1
777.205	21907.64
777.539	21759.4
777.874	21811.6
778.209	21680.98
778.543	21596.47
778.878	21629.01
779.212	21413.42
779.547	21416.58
779.881	21332.74
780.215	21255.68
780.55	21198.96
780.884	21037.16
781.218	21080.1
781.552	21046.65
781.886	20984.28
782.22	20776.15
782.554	20700.44
782.888	20586.78
783.222	20444.86
783.556	20428.81
783.889	20411.19
784.223	20276.27
784.557	20152.44
784.89	20232.89
785.224	20104.98
785.557	20016.17
785.891	19949.28
786.224	19826.12
786.558	19868.6
786.891	19716.29
787.224	19636.52
787.557	19658.44
787.891	19611.66
788.224	19523.3
788.557	19481.95
788.89	19401.72
789.223	19348.39
789.556	19176.42
789.888	19155.4
790.221	19081.5
790.554	19008.06
790.887	18892.36
791.219	18938.68
791.552	18831.34
791.884	18810.78
792.217	18716.77
792.549	18588.64
792.882	18471.8
793.214	18398.58
793.546	18467.96
793.879	18386.83
794.211	18269.32
794.543	18355.2
794.875	18214.41
795.207	18266.61
795.539	18204.24
795.871	18086.28
796.203	17927.18
796.535	17932.83
796.867	17804.48
797.198	17778.26
797.53	17772.61
797.862	17700.3
798.193	17719.51
798.525	17601.54
798.856	17609.68
799.188	17425.95
799.519	17378.72
799.85	17334.43
800.182	17245.39
800.513	17254.43
800.844	17108
801.175	17185.73
801.506	17174.89
801.837	17082.46
802.168	17037.26
802.499	16834.56
802.83	16944.84
803.161	16837.5
803.491	16763.15
803.822	16745.75
804.153	16664.39
804.483	16609.7
804.814	16517.05
805.145	16474.57
805.475	16450.84
805.805	16443.38
806.136	16367.45
806.466	16350.28
806.796	16343.72
807.126	16213.1
807.457	16100.34
807.787	16128.59
808.117	16086.55
808.447	16014.24
808.777	16091.98
809.107	15948.93
809.436	15881.14
809.766	15916.62
810.096	15802.04
810.426	15754.81
810.755	15728.15
811.085	15678.66
811.414	15664.87
811.744	15564.76
812.073	15630.07
812.403	15533.8
812.732	15484.76
813.061	15488.15
813.39	15337.2
813.719	15320.7
814.049	15425.55
814.378	15269.63
814.707	15158.67
815.036	15282.51
815.365	15152.34
815.693	15112.79
816.022	15024.44
816.351	15065.79
816.68	14935.62
817.008	15043.42
817.337	14885.68
817.665	14763.43
817.994	14850.88
818.322	14845.46
818.651	14765.91
818.979	14692.47
819.307	14738.57
819.636	14741.05
819.964	14670.55
820.292	14815.63
820.62	14693.6
820.948	14557.1
821.276	14655.86
821.604	14597.55
821.932	14553.26
822.259	14544.67
822.587	14505.81
822.915	14574.96
823.243	14541.28
823.57	14627.84
823.898	14520.04
824.225	14403.89
824.553	14471.91
824.88	14492.02
825.207	14474.39
825.535	14413.38
825.862	14465.13
826.189	14437.56
826.516	14525.24
826.843	14534.5
827.17	14443.89
827.497	14506.71
827.824	14497.9
828.151	14559.81
828.478	14508.97
828.805	14553.26
829.131	14480.04
829.458	14472.59
829.785	14271.91
830.111	14481.62
830.438	14495.41
830.764	14416.54
831.09	14494.05
831.417	14369.09
831.743	14398.92
832.069	14386.26
832.395	14318.47
832.722	14435.75
833.048	14333.61
833.374	14354.4
833.7	14259.03
834.026	14339.03
834.351	14271.01
834.677	14289.09
835.003	14250.67
835.329	14323.21
835.654	14228.52
835.98	14219.71
836.306	14188.98
836.631	14178.58
836.956	14190.33
837.282	14217
837.607	13991.02
837.932	14089.77
838.258	14175.87
838.583	14103.1
838.908	13934.75
839.233	14111.24
839.558	13932.03
839.883	13895.65
840.208	13932.26
840.533	13943.56
840.858	13885.93
841.182	13866.05
841.507	13888.87
841.832	13812.94
842.156	13842.77
842.481	13785.82
842.805	13698.37
843.13	13676.9
843.454	13590.35
843.778	13667.86
844.103	13631.03
844.427	13570.46
844.751	13598.48
845.075	13542.67
845.399	13523.91
845.723	13433.06
846.047	13371.6
846.371	13285.72
846.695	13250.7
847.019	13235.33
847.343	13118.5
847.666	13038.27
847.99	12996.24
848.313	13003.47
848.637	12888.45
848.96	12862.91
849.284	12847.09
849.607	12737.49
849.931	12708.79
850.254	12701.78
850.577	12636.02
850.9	12497.27
851.223	12503.6
851.546	12453.2
851.869	12340.44
852.192	12360.32
852.515	12299.08
852.838	12224.51
853.161	12226.99
853.483	12216.83
853.806	12100.44
854.129	12113.1
854.451	12049.15
854.774	12000.79
855.096	12005.31
855.419	12009.6
855.741	11881.69
856.063	11798.76
856.385	11816.84
856.708	11787.46
857.03	11753.56
857.352	11788.14
857.674	11691.42
857.996	11655.94
858.318	11537.75
858.64	11607.8
858.961	11585.88
859.283	11506.34
859.605	11445.32
859.926	11498.88
860.248	11471.53
860.57	11408.26
860.891	11412.55
861.212	11366.68
861.534	11248.26
861.855	11297.75
862.176	11281.03
862.498	11262.05
862.819	11229.06
863.14	11240.13
863.461	11257.53
863.782	11153.58
864.103	11179.56
864.424	11066.8
864.745	11188.83
865.065	11008.72
865.386	10953.13
865.707	10981.6
866.027	11053.01
866.348	10992.68
866.668	11033.35
866.989	10995.84
867.309	10906.58
867.63	10953.58
867.95	10929.63
868.27	10789.07
868.59	10838.78
868.91	10789.97
869.23	10791.1
869.55	10683.53
869.87	10768.28
870.19	10752.23
870.51	10738.45
870.83	10734.38
871.15	10698.67
871.469	10709.97
871.789	10691.44
872.109	10685.57
872.428	10614.38
872.748	10650.09
873.067	10642.63
873.386	10576.87
873.706	10628.84
874.025	10523.08
874.344	10490.09
874.663	10506.36
874.982	10526.25
875.301	10430.21
875.62	10426.59
875.939	10457.32
876.258	10420.94
876.577	10359.93
876.896	10388.63
877.214	10338.91
877.533	10386.59
877.852	10370.55
878.17	10369.42
878.489	10317.21
878.807	10285.58
879.125	10250.78
879.444	10211.68
879.762	10234.73
880.08	10244.45
880.398	10162.64
880.716	10148.18
881.034	10130.78
881.352	10142.76
881.67	10097.11
881.988	10095.75
882.306	10100.05
882.624	10021.86
882.941	9970.78
883.259	10000.61
883.577	9968.07
883.894	9895.98
884.212	9971.69
884.529	9964.68
884.846	9850.33
885.164	9888.98
885.481	9811.24
885.798	9839.49
886.115	9821.18
886.432	9747.96
886.75	9726.27
887.067	9688.08
887.383	9720.39
887.7	9734.86
888.017	9631.36
888.334	9597.69
888.651	9661.86
888.967	9625.03
889.284	9611.02
889.6	9563.11
889.917	9517.91
890.233	9535.31
890.55	9400.18
890.866	9495.77
891.182	9480.17
891.498	9409.89
891.815	9322.44
892.131	9343.68
892.447	9251.25
892.763	9193.18
893.079	9186.4
893.395	9218.03
893.71	9116.12
894.026	9146.4
894.342	9111.82
894.657	9081.99
894.973	9067.3
895.289	9005.84
895.604	9030.24
895.92	8927.42
896.235	8829.57
896.55	8861.21
896.865	8923.35
897.181	8850.36
897.496	8827.76
897.811	8792.28
898.126	8742.57
898.441	8741.89
898.756	8715.67
899.071	8664.38
899.386	8654.43
899.7	8651.27
900.015	8552.74
900.33	8519.97
900.644	8480.65
900.959	8521.33
901.273	8467.77
901.588	8436.81
901.902	8384.16
902.216	8357.27
902.531	8333.76
902.845	8323.37
903.159	8311.39
903.473	8277.95
903.787	8248.57
904.101	8131.96
904.415	8204.28
904.729	8141.45
905.042	8081.12
905.356	8042.02
905.67	8037.27
905.984	8007.67
906.297	8006.54
906.611	7965.86
906.924	7957.05
907.237	7873.66
907.551	7931.06
907.864	7834.34
908.177	7843.38
908.491	7824.17
908.804	7710.05
909.117	7747.56
909.43	7680.45
909.743	7572.2
910.056	7591.64
910.368	7535.14
910.681	7555.48
910.994	7501.02
911.307	7556.61
911.619	7469.38
911.932	7464.18
912.244	7379.89
912.557	7385.99
912.869	7378.31
913.181	7318.2
913.494	7274.13
913.806	7224.87
914.118	7185.09
914.43	7198.2
914.742	7167.24
915.054	7077.98
915.366	7081.37
915.678	7043.63
915.99	7024.65
916.302	6969.05
916.613	7006.12
916.925	6921.6
917.236	6916.4
917.548	6915.72
917.859	6921.37
918.171	6864.42
918.482	6832.33
918.794	6765.9
919.105	6794.6
919.416	6686.35
919.727	6708.27
920.038	6709.85
920.349	6674.15
920.66	6605
920.971	6600.93
921.282	6596.63
921.593	6559.8
921.903	6519.8
922.214	6443.64
922.525	6432.8
922.835	6416.75
923.146	6350.09
923.456	6363.42
923.767	6376.98
924.077	6267.38
924.387	6360.26
924.697	6287.72
925.008	6249.07
925.318	6208.17
925.628	6218.79
925.938	6129.08
926.248	6103.99
926.558	6128.62
926.867	6071.68
927.177	6035.29
927.487	5990.77
927.796	5963.88
928.106	5993.94
928.416	5991.9
928.725	5923.88
929.034	5911.23
929.344	5860.83
929.653	5880.72
929.962	5790.33
930.271	5786.03
930.581	5712.14
930.89	5746.04
931.199	5685.92
931.508	5718.24
931.817	5687.96
932.125	5660.84
932.434	5633.72
932.743	5594.85
933.051	5579.03
933.36	5544.68
933.669	5506.95
933.977	5469.88
934.286	5514.63
934.594	5476.44
934.902	5409.1
935.21	5389.21
935.519	5403.67
935.827	5342.88
936.135	5312.6
936.443	5301.98
936.751	5320.51
937.059	5239.61
937.367	5273.28
937.674	5253.84
937.982	5198.93
938.29	5166.39
938.597	5170.46
938.905	5115.32
939.213	5152.6
939.52	5044.58
939.827	5132.72
940.135	5065.38
940.442	5022.21
940.749	5002.33
941.056	5036.68
941.363	4958.03
941.67	4952.61
941.977	4875.78
942.284	4839.39
942.591	4906.51
942.898	4857.7
943.205	4853.86
943.511	4785.38
943.818	4831.03
944.125	4792.16
944.431	4753.29
944.738	4731.37
945.044	4728.43
945.35	4660.19
945.657	4646.4
945.963	4616.35
946.269	4637.59
946.575	4612.28
946.881	4597.14
947.187	4558.95
947.493	4557.59
947.799	4555.33
948.105	4524.82
948.41	4499.06
948.716	4533.41
949.022	4496.12
949.327	4437.6
949.633	4395.56
949.938	4437.6
950.244	4440.31
950.549	4360.31
950.854	4328.9
951.16	4307.88
951.465	4291.84
951.77	4270.82
952.075	4274.44
952.38	4286.64
952.685	4260.88
952.99	4236.02
953.294	4207.32
953.599	4234.44
953.904	4203.03
954.209	4147.89
954.513	4085.29
954.818	4087.55
955.122	4121.9
955.426	4046.87
955.731	4039.19
956.035	4037.15
956.339	4024.05
956.643	4004.84
956.948	3983.37
957.252	3969.36
957.556	3952.41
957.86	3957.61
958.163	3926.2
958.467	3899.53
958.771	3913.32
959.075	3867.89
959.378	3811.62
959.682	3900.66
959.985	3827.22
960.289	3826.76
960.592	3771.85
960.896	3774.34
961.199	3742.47
961.502	3715.13
961.805	3701.12
962.108	3698.18
962.411	3695.92
962.714	3685.75
963.017	3610.27
963.32	3626.77
963.623	3615.92
963.926	3611.4
964.228	3572.99
964.531	3555.81
964.833	3555.13
965.136	3532.31
965.438	3525.98
965.741	3475.36
966.043	3490.5
966.345	3495.25
966.648	3451.86
966.95	3438.53
967.252	3452.76
967.554	3426.1
967.856	3407.79
968.158	3378.41
968.46	3376.38
968.761	3379.09
969.063	3336.83
969.365	3338.42
969.666	3306.1
969.968	3300.45
970.269	3260.45
970.571	3280.34
970.872	3303.16
971.174	3224.97
971.475	3240.56
971.776	3246.21
972.077	3220.45
972.378	3199.89
972.679	3233.33
972.98	3192.88
973.281	3153.11
973.582	3146.78
973.883	3124.64
974.183	3099.33
974.484	3100.23
974.785	3075.6
975.085	3057.29
975.386	3093.68
975.686	3057.74
975.986	3017.07
976.287	3017.75
976.587	2969.39
976.887	2973
977.187	2969.61
977.487	2970.97
977.787	2954.02
978.087	2923.06
978.387	2928.03
978.687	2882.38
978.987	2898.65
979.286	2858.65
979.586	2871.08
979.885	2870.4
980.185	2838.77
980.484	2839.9
980.784	2820.01
981.083	2806.45
981.382	2789.05
981.682	2764.87
981.981	2767.36
982.28	2778.2
982.579	2735.95
982.878	2743.63
983.177	2721.71
983.475	2749.28
983.774	2700.01
984.073	2695.95
984.372	2669.05
984.67	2675.83
984.969	2652.33
985.267	2653.01
985.566	2646.91
985.864	2631.31
986.162	2631.99
986.461	2612.33
986.759	2581.82
987.057	2588.6
987.355	2549.06
987.653	2568.94
987.951	2545.44
988.249	2525.78
988.547	2537.76
988.844	2478.32
989.142	2476.52
989.44	2482.62
989.737	2468.83
990.035	2459.12
990.332	2472.22
990.63	2443.07
990.927	2406.69
991.224	2395.39
991.521	2417.54
991.819	2383.19
992.116	2382.96
992.413	2363.75
992.71	2370.98
993.006	2353.81
993.303	2332.57
993.6	2346.35
993.897	2354.94
994.193	2337.54
994.49	2314.04
994.787	2253.47
995.083	2280.82
995.379	2235.85
995.676	2232
995.972	2236.52
996.268	2246.92
996.565	2232.23
996.861	2208.05
997.157	2217.09
997.453	2178.22
997.749	2206.69
998.044	2170.76
998.34	2119.46
998.636	2133.7
998.932	2175.96
999.227	2118.11
999.523	2104.32
999.818	2123.53
1000.114	2110.65
1000.409	2069.07
1000.704	2076.98
1001	2036.53
1001.295	2030.2
1001.59	2048.73
1001.885	2010.09
1002.18	2005.34
1002.475	1996.08
1002.77	1991.33
1003.065	1985.46
1003.359	1987.04
1003.654	1953.59
1003.949	1943.42
1004.243	1911.11
1004.538	1915.4
1004.832	1921.96
1005.127	1907.72
1005.421	1914.5
1005.715	1884.89
1006.009	1875.4
1006.304	1883.99
1006.598	1866.14
1006.892	1827.95
1007.186	1817.55
1007.48	1844.22
1007.773	1819.81
1008.067	1825.01
1008.361	1781.17
1008.655	1771
1008.948	1762.64
1009.242	1753.6
1009.535	1797.66
1009.829	1741.62
1010.122	1688.06
1010.415	1762.86
1010.708	1699.14
1011.001	1709.31
1011.295	1695.29
1011.588	1704.79
1011.881	1692.81
1012.173	1667.5
1012.466	1625.69
1012.759	1615.3
1013.052	1636.09
1013.344	1657.1
1013.637	1615.07
1013.93	1581.4
1014.222	1599.25
1014.514	1582.75
1014.807	1570.1
1015.099	1575.3
1015.391	1574.85
1015.683	1559.48
1015.976	1555.41
1016.268	1528.52
1016.56	1512.02
1016.851	1542.76
1017.143	1483.55
1017.435	1499.37
1017.727	1485.58
1018.018	1469.31
1018.31	1458.92
1018.602	1452.14
1018.893	1449.65
1019.185	1434.51
1019.476	1429.54
1019.767	1436.77
1020.058	1423.66
1020.35	1417.11
1020.641	1388.18
1020.932	1391.57
1021.223	1397.68
1021.514	1375.98
1021.804	1350.44
1022.095	1355.87
1022.386	1344.34
1022.677	1342.31
1022.967	1330.33
1023.258	1328.07
1023.548	1311.58
1023.839	1308.19
1024.129	1300.28
1024.419	1288.98
1024.709	1257.79
1025	1263.89
1025.29	1266.83
1025.58	1267.51
1025.87	1220.05
1026.16	1234.74
1026.449	1223.22
1026.739	1225.7
1027.029	1220.73
1027.319	1234.52
1027.608	1175.31
1027.898	1166.27
1028.187	1179.38
1028.477	1185.03
1028.766	1157.23
1029.055	1180.73
1029.344	1152.03
1029.634	1127.85
1029.923	1130.56
1030.212	1147.74
1030.501	1132.6
1030.79	1146.83
1031.078	1105.48
1031.367	1088.76
1031.656	1091.24
1031.945	1076.55
1032.233	1067.74
1032.522	1081.3
1032.81	1082.66
1033.099	1068.42
1033.387	1062.32
1033.675	1042.88
1033.963	1035.88
1034.251	1038.14
1034.54	1032.49
1034.828	1011.47
1035.116	1006.72
1035.403	1003.56
1035.691	1003.11
1035.979	972.38
1036.267	999.49
1036.554	982.54
1036.842	991.13
1037.129	978.25
1037.417	962.21
1037.704	977.8
1037.992	953.39
1038.279	941.19
1038.566	942.77
1038.853	942.77
1039.14	942.77
