Data from hue_38_FLMS001491_00065.txt Node
Date: Tue Feb 07 17:31:49 GMT 2017
User: dcchb
Spectrometer: FLMS00149
Trigger mode: 0
Integration Time (sec): 2.000000E-2
Scans to average: 10
Electric dark correction enabled: true
Nonlinearity correction enabled: false
Boxcar width: 0
XAxis mode: Wavelengths
Number of Pixels in Spectrum: 2048
>>>>>Begin Spectral Data<<<<<
341.393	-19.41
341.776	-19.41
342.16	-19.41
342.543	-73.42
342.927	-40.2
343.31	-65.51
343.693	-69.12
344.077	-49.69
344.46	-51.27
344.843	-44.94
345.226	-44.49
345.61	-53.08
345.993	-39.29
346.376	-7.43
346.759	6.36
347.142	25.11
347.525	35.51
347.908	62.4
348.291	85.22
348.674	100.14
349.057	110.08
349.44	136.75
349.823	139.69
350.206	180.14
350.588	200.02
350.971	214.03
351.354	236.63
351.737	243.86
352.119	261.49
352.502	263.07
352.884	287.7
353.267	294.03
353.65	304.43
354.032	305.56
354.414	300.36
354.797	344.88
355.179	345.56
355.562	322.96
355.944	334.48
356.326	324.09
356.709	329.51
357.091	360.24
357.473	355.5
357.855	334.48
358.238	359.11
358.62	352.11
359.002	352.11
359.384	356.86
359.766	376.52
360.148	339.91
360.53	350.75
360.912	348.27
361.294	354.82
361.676	355.73
362.057	355.5
362.439	344.65
362.821	329.06
363.203	312.11
363.584	334.71
363.966	350.75
364.348	332.67
364.729	338.32
365.111	331.54
365.493	329.51
365.874	317.08
366.256	342.62
366.637	327.03
367.019	307.14
367.4	318.21
367.781	334.03
368.163	323.18
368.544	321.38
368.925	338.78
369.306	343.3
369.688	328.61
370.069	310.53
370.45	311.43
370.831	332.45
371.212	323.18
371.593	320.02
371.974	320.92
372.355	344.88
372.736	344.2
373.117	351.66
373.498	326.57
373.879	324.54
374.26	320.47
374.641	327.48
375.021	335.16
375.402	330.42
375.783	357.08
376.163	333.8
376.544	332.45
376.925	325.9
377.305	340.58
377.686	328.83
378.066	322.28
378.447	334.71
378.827	348.72
379.208	320.25
379.588	324.09
379.968	329.51
380.349	346.01
380.729	343.97
381.109	340.58
381.489	358.89
381.87	348.27
382.25	348.72
382.63	351.21
383.01	357.08
383.39	351.43
383.77	347.14
384.15	353.24
384.53	360.24
384.91	381.71
385.29	356.63
385.67	374.26
386.049	384.2
386.429	384.65
386.809	345.78
387.189	342.62
387.568	361.83
387.948	354.6
388.328	362.73
388.707	383.3
389.087	386.91
389.466	389.85
389.846	378.1
390.225	374.03
390.605	398.66
390.984	393.69
391.363	393.46
391.743	383.75
392.122	376.97
392.501	403.41
392.881	408.83
393.26	407.48
393.639	385.33
394.018	374.71
394.397	401.6
394.776	383.3
395.155	404.99
395.534	404.99
395.913	387.59
396.292	415.16
396.671	417.42
397.05	416.51
397.429	375.39
397.808	405.89
398.186	426.46
398.565	391.2
398.944	403.86
399.323	408.83
399.701	399.57
400.08	395.5
400.458	409.96
400.837	431.66
401.215	417.42
401.594	422.39
401.972	411.32
402.351	416.51
402.729	424.88
403.107	426.46
403.486	411.77
403.864	407.93
404.242	412.9
404.62	433.24
404.999	418.77
405.377	449.28
405.755	448.83
406.133	432.79
406.511	450.64
406.889	445.67
407.267	444.54
407.645	460.58
408.023	476.63
408.401	455.38
408.779	440.47
409.156	456.97
409.534	459.9
409.912	469.39
410.29	475.04
410.667	496.74
411.045	489.73
411.422	479.34
411.8	487.93
412.178	492.44
412.555	518.88
412.933	484.76
413.31	508.49
413.687	512.33
414.065	510.52
414.442	499
414.819	517.98
415.197	475.5
415.574	528.38
415.951	527.02
416.328	514.14
416.705	514.37
417.082	526.34
417.46	535.83
417.837	553.23
418.214	552.78
418.591	561.37
418.967	539.45
419.344	560.92
419.721	562.95
420.098	574.7
420.475	570.86
420.852	569.28
421.228	569.05
421.605	577.41
421.982	547.13
422.358	582.61
422.735	587.13
423.111	574.25
423.488	575.15
423.864	588.94
424.241	600.24
424.617	594.14
424.994	595.27
425.37	603.63
425.746	593.01
426.123	590.75
426.499	602.27
426.875	626.68
427.251	632.55
427.627	638.66
428.003	619.45
428.379	650.41
428.756	642.27
429.132	652.21
429.507	644.31
429.883	673.68
430.259	668.49
430.635	649.5
431.011	671.87
431.387	670.75
431.763	681.37
432.138	696.51
432.514	727.01
432.89	693.34
433.265	691.54
433.641	710.74
434.016	708.94
434.392	738.99
434.767	742.61
435.143	731.99
435.518	757.75
435.894	751.87
436.269	775.15
436.644	766.34
437.02	780.12
437.395	761.82
437.77	782.61
438.145	794.81
438.52	794.13
438.895	789.39
439.271	824.87
439.646	824.87
440.021	812.89
440.395	822.38
440.77	832.32
441.145	830.06
441.52	813.11
441.895	850.18
442.27	836.84
442.645	830.74
443.019	866.67
443.394	854.7
443.769	845.88
444.143	879.78
444.518	885.65
444.892	852.44
445.267	867.12
445.641	886.11
446.016	867.8
446.39	902.38
446.764	916.84
447.139	891.3
447.513	899.21
447.887	917.97
448.262	926.11
448.636	922.72
449.01	936.73
449.384	945.09
449.758	935.37
450.132	921.81
450.506	931.98
450.88	972.66
451.254	970.17
451.628	958.87
452.002	988.7
452.376	981.25
452.75	998.19
453.123	1007.23
453.497	1026.44
453.871	1029.61
454.244	1020.57
454.618	1035.03
454.992	1049.49
455.365	1047.23
455.739	1082.94
456.112	1089.49
456.486	1075.25
456.859	1087.01
457.232	1125.65
457.606	1147.12
457.979	1153.44
458.352	1152.54
458.725	1157.51
459.099	1175.36
459.472	1178.75
459.845	1216.04
460.218	1226.89
460.591	1234.12
460.964	1228.47
461.337	1281.35
461.71	1242.03
462.083	1317.73
462.456	1303.72
462.829	1300.79
463.201	1324.74
463.574	1336.04
463.947	1378.52
464.32	1380.56
464.692	1366.77
465.065	1416.04
465.438	1427.34
465.81	1454.91
466.183	1439.09
466.555	1495.36
466.928	1494.68
467.3	1484.96
467.672	1536.71
468.045	1564.96
468.417	1590.49
468.789	1584.39
469.161	1604.28
469.534	1648.12
469.906	1692.87
470.278	1717.72
470.65	1709.59
471.022	1755.01
471.394	1824.39
471.766	1842.47
472.138	1866.19
472.51	1884.95
472.882	1946.19
473.253	1933.54
473.625	1997.94
473.997	2010.37
474.369	2071.84
474.74	2088.79
475.112	2141.89
475.484	2177.82
475.855	2241.55
476.227	2255.56
476.598	2341.44
476.97	2373.53
477.341	2418.5
477.713	2458.04
478.084	2471.38
478.455	2557.7
478.827	2613.74
479.198	2736.45
479.569	2725.38
479.94	2842.44
480.311	2895.77
480.682	2952.72
481.053	3027.07
481.424	3113.17
481.795	3172.37
482.166	3228.87
482.537	3343.22
482.908	3406.49
483.279	3455.3
483.65	3560.39
484.021	3670.89
484.391	3755.64
484.762	3796.54
485.133	3855.29
485.503	3926.48
485.874	4059.13
486.244	4152.01
486.615	4240.82
486.985	4321.5
487.356	4460.25
487.726	4523.3
488.097	4667.02
488.467	4730.07
488.837	4841.93
489.207	4939.79
489.578	5109.05
489.948	5125.77
490.318	5278.76
490.688	5322.83
491.058	5488.25
491.428	5584.51
491.798	5638.98
492.168	5803.27
492.538	5919.65
492.908	6029.02
493.278	6152.63
493.648	6186.53
494.017	6253.88
494.387	6449.8
494.757	6504.49
495.126	6660.87
495.496	6640.76
495.866	6760.08
496.235	6874.2
496.605	6988.77
496.974	7068.77
497.344	7180.63
497.713	7241.19
498.082	7366.61
498.452	7484.13
498.821	7591.69
499.19	7649.09
499.559	7754.63
499.928	7855.41
500.298	7905.36
500.667	7951.23
501.036	8074.39
501.405	8158.01
501.774	8187.61
502.143	8271.68
502.512	8344.89
502.88	8500.82
503.249	8518.9
503.618	8708.73
503.987	8710.08
504.356	8790.76
504.724	8903.3
505.093	8868.95
505.462	8999.11
505.83	9092.9
506.199	9119.34
506.567	9336.05
506.936	9355.49
507.304	9447.01
507.672	9496.05
508.041	9567.01
508.409	9621.02
508.777	9706.44
509.145	9854.01
509.514	9797.28
509.882	9914.8
510.25	10004.51
510.618	10033.44
510.986	10128.58
511.354	10228.91
511.722	10303.03
512.09	10408.34
512.458	10404.95
512.826	10501.22
513.193	10579.86
513.561	10701.22
513.929	10662.12
514.297	10826.86
514.664	10861.44
515.032	10966.97
515.4	11078.61
515.767	11136.46
516.135	11260.75
516.502	11098.49
516.869	11305.27
517.237	11341.2
517.604	11244.03
517.972	11504.36
518.339	11564.92
518.706	11492.38
519.073	11582.55
519.44	11721.98
519.808	11804.24
520.175	11904.35
520.542	11969.66
520.909	12113.83
521.276	12024.8
521.643	12161.29
522.009	12205.36
522.376	12352.47
522.743	12406.26
523.11	12506.14
523.477	12531.68
523.843	12684.67
524.21	12765.34
524.577	12878.79
524.943	12948.61
525.31	13008.95
525.676	13150.42
526.043	13167.82
526.409	13248.04
526.776	13338.66
527.142	13399.9
527.508	13499.56
527.874	13575.26
528.241	13607.35
528.607	13705.43
528.973	13839.21
529.339	13826.78
529.705	13950.85
530.071	14147.68
530.437	14137.06
530.803	14308.35
531.169	14315.81
531.535	14290.95
531.901	14380.22
532.267	14361.46
532.632	14523.04
532.998	14564.17
533.364	14688.46
533.73	14597.16
534.095	14839.41
534.461	14857.04
534.826	14974.78
535.192	14930.48
535.557	15132.96
535.923	15210.25
536.288	15244.83
536.653	15287.99
537.019	15225.39
537.384	15426.29
537.749	15423.8
538.114	15426.74
538.479	15532.05
538.845	15581.54
539.21	15480.75
539.575	15646.4
539.94	15789.44
540.305	15918.71
540.67	15891.81
541.034	15928.2
541.399	16026.5
541.764	16065.59
542.129	16051.13
542.494	16266.27
542.858	16184.24
543.223	16264.23
543.587	16371.35
543.952	16470.1
544.316	16413.38
544.681	16485.92
545.045	16580.16
545.41	16668.74
545.774	16675.07
546.138	16700.83
546.503	16827.16
546.867	16837.1
547.231	16939.02
547.595	16999.36
547.959	17096.98
548.324	17042.29
548.688	17139.46
549.052	17237.99
549.416	17287.03
549.779	17301.49
550.143	17393.02
550.507	17397.76
550.871	17477.31
551.235	17457.42
551.599	17687.92
551.962	17704.2
552.326	17654.71
552.689	17800.46
553.053	17823.06
553.417	17877.98
553.78	18129.95
554.143	18010.85
554.507	18105.54
554.87	18231.64
555.234	18384.63
555.597	18217.4
555.96	18329.04
556.323	18436.38
556.686	18414.91
557.05	18554.57
557.413	18591.86
557.776	18713.43
558.139	18692.87
558.502	18634.11
558.865	18808.12
559.228	18946.65
559.59	18997.04
559.953	18959.53
560.316	19289.24
560.679	19156.13
561.041	19373.53
561.404	19392.96
561.767	19512.74
562.129	19484.49
562.492	19693.3
562.854	19651.49
563.217	19674.54
563.579	19689.68
563.941	19858.26
564.304	19952.27
564.666	20022.1
565.028	20079.05
565.39	20140.97
565.753	20176.9
566.115	20247.63
566.477	20345.03
566.839	20504.57
567.201	20645.59
567.563	20596.55
567.925	20681.97
568.287	20775.53
568.648	20747.51
569.01	20920.61
569.372	20982.3
569.734	20936.43
570.095	21131.9
570.457	21325.8
570.819	21451.67
571.18	21389.07
571.542	21490.99
571.903	21541.38
572.265	21709.06
572.626	21736.63
572.987	21804.88
573.349	21953.58
573.71	22104.98
574.071	22227.69
574.432	22236.96
574.794	22471.3
575.155	22252.32
575.516	22390.63
575.877	22605.31
576.238	22649.6
576.599	22665.2
576.96	22879.43
577.32	22951.52
577.681	23146.54
578.042	23214.11
578.403	23316.03
578.763	23472.41
579.124	23623.81
579.485	23806.18
579.845	24089.11
580.206	24072.16
580.566	24270.8
580.927	24427.86
581.287	24635.76
581.648	24665.59
582.008	24929.32
582.368	24912.82
582.728	25151.68
583.089	25360.94
583.449	25565.46
583.809	25618.11
584.169	25936.07
584.529	26003.19
584.889	26313.23
585.249	26325.66
585.609	26449.05
585.969	26894.46
586.329	26936.04
586.688	27322.25
587.048	27362.7
587.408	27411.96
587.768	27778.51
588.127	27889.01
588.487	28046.3
588.846	28503.46
589.206	28521.76
589.565	28666.62
589.925	29069.77
590.284	29183.89
590.643	29370.33
591.003	29753.37
591.362	29983.42
591.721	30067.94
592.08	30208.73
592.44	30620.92
592.799	30692.1
593.158	30774.36
593.517	31107.23
593.876	31369.15
594.235	31377.06
594.593	31621.8
594.952	31990.6
595.311	32042.58
595.67	32369.57
596.029	32706.29
596.387	32782.67
596.746	33066.73
597.104	33115.99
597.463	33391.01
597.822	33669.2
598.18	33837.78
598.538	33979.7
598.897	34311.67
599.255	34215.17
599.613	34802.5
599.972	34725.67
600.33	35127.47
600.688	35002.5
601.046	35297.86
601.404	35707.56
601.762	35688.58
602.12	36067.55
602.478	36264.61
602.836	36338.06
603.194	36197.27
603.552	36499.18
603.91	36515.9
604.268	36811.94
604.625	36814.65
604.983	37346.62
605.341	37115.89
605.698	37510.91
606.056	37622.54
606.413	37643.11
606.771	37852.37
607.128	38107.05
607.485	38053.94
607.843	38140.95
608.2	38479.24
608.557	38680.37
608.914	38705.9
609.272	38903.19
609.629	39030.87
609.986	39344.98
610.343	39285.55
610.7	39662.71
611.057	39637.4
611.414	39770.73
611.771	39829.72
612.127	40029.71
612.484	40061.35
612.841	40468.57
613.198	40297.05
613.554	40409.59
613.911	40672.63
614.267	40634.67
614.624	40851.16
614.98	40858.16
615.337	41169.57
615.693	41120.98
616.05	41111.94
616.406	41609.33
616.762	41395.1
617.118	41570.01
617.475	41611.82
617.831	41840.28
618.187	41870.11
618.543	41949.21
618.899	42175.19
619.255	42050.22
619.611	42167.73
619.967	42385.35
620.323	42427.39
620.678	42303.77
621.034	42302.87
621.39	42381.51
621.746	42419.03
622.101	42914.61
622.457	42688.62
622.812	42814.95
623.168	42857.43
623.523	42956.64
623.879	43118.22
624.234	42878
624.589	43146.69
624.945	43165.67
625.3	43235.73
625.655	43221.94
626.01	43244.09
626.365	43430.52
626.72	43348.04
627.075	43337.87
627.43	43337.42
627.785	43382.84
628.14	43315.73
628.495	43468.26
628.85	43382.16
629.205	43443.18
629.559	43571.31
629.914	43489.73
630.269	43501.94
630.623	43366.57
630.978	43437.3
631.332	43638.2
631.687	43720.46
632.041	43609.05
632.396	43509.17
632.75	43490.86
633.104	43517.3
633.459	43360.92
633.813	43446.8
634.167	43397.31
634.521	43443.86
634.875	43553.91
635.229	43386.01
635.583	43325.44
635.937	43384.2
636.291	43328.38
636.645	43380.81
636.999	43362.5
637.352	43501.71
637.706	43139.68
638.06	43384.65
638.413	43298.32
638.767	43110.76
639.121	43282.73
639.474	43077.77
639.828	43220.59
640.181	43104.66
640.534	43308.27
640.888	43053.36
641.241	42940.37
641.594	43023.3
641.947	43194.15
642.301	42920.71
642.654	42972.91
643.007	43202.51
643.36	43039.35
643.713	42931.1
644.066	43087.48
644.419	42809.52
644.771	42567.04
645.124	42269.43
645.477	42057
645.83	41956.89
646.182	41802.32
646.535	41762.55
646.888	41850.45
647.24	41673.06
647.593	41914.41
647.945	41815.88
648.298	41584.02
648.65	41545.15
649.002	41494.3
649.355	41732.04
649.707	41641.65
650.059	41821.08
650.411	42199.37
650.763	42261.74
651.115	42712.8
651.467	42644.56
651.819	42481.4
652.171	42452.47
652.523	42416.77
652.875	42222.19
653.227	42255.19
653.578	42460.83
653.93	42340.38
654.282	42345.36
654.633	42048.41
654.985	42185.13
655.337	42207.73
655.688	42209.31
656.039	42265.13
656.391	41984.46
656.742	42107.17
657.094	42129.32
657.445	42281.63
657.796	42170.67
658.147	42184.68
658.498	42141.75
658.849	42175.64
659.2	42031.92
659.551	42068.07
659.902	42066.27
660.253	42135.87
660.604	42161.41
660.955	41941.3
661.306	41994.18
661.656	41894.75
662.007	42060.62
662.358	42091.8
662.708	42008.64
663.059	41902.88
663.409	41747.63
663.76	42176.09
664.11	42022.88
664.461	42022.43
664.811	41950.34
665.161	41997.34
665.511	41765.94
665.862	41879.83
666.212	41953.05
666.562	41983.56
666.912	41926.16
667.262	41796.44
667.612	41864.24
667.962	41736.33
668.312	41816.1
668.662	42033.5
669.011	41902.43
669.361	41796.44
669.711	41751.7
670.06	41704.69
670.41	41719.61
670.76	41668.54
671.109	41944.01
671.459	41801.64
671.808	41636.67
672.157	41805.03
672.507	41464.93
672.856	41590.57
673.205	41690.91
673.554	41681.19
673.904	41672.6
674.253	41725.26
674.602	41709.89
674.951	41099.29
675.3	40820.65
675.649	41605.26
675.998	41469.45
676.346	41588.77
676.695	41617.69
677.044	41176.57
677.393	41423.35
677.741	41355.1
678.09	41373.4
678.438	41258.15
678.787	41357.36
679.135	41361.88
679.484	41051.38
679.832	41231.71
680.181	41071.49
680.529	41024.49
680.877	40973.64
681.225	40980.42
681.573	41224.48
681.922	40985.62
682.27	40816.81
682.618	40822.68
682.966	40542.01
683.314	40767.09
683.661	40552.18
684.009	40427.67
684.357	40420.43
684.705	40318.52
685.053	40349.7
685.4	40333.43
685.748	40301.57
686.095	40130.72
686.443	40074.45
686.79	40093.21
687.138	39958.98
687.485	40097.51
687.832	39906.55
688.18	40025.87
688.527	39676.27
688.874	39728.48
689.221	39672.43
689.568	39419.33
689.915	39515.83
690.262	39481.02
690.609	39273.8
690.956	39179.11
691.303	39262.95
691.65	38999.23
691.997	38931.89
692.344	38910.64
692.69	38802.4
693.037	38787.93
693.383	38336.42
693.73	38594.95
694.077	38241.28
694.423	38315.86
694.769	38262.98
695.116	38206.48
695.462	38154.51
695.808	37958.8
696.155	38104.79
696.501	37841.29
696.847	37879.26
697.193	37585.25
697.539	37692.82
697.885	37441.08
698.231	37234.3
698.577	37244.25
698.923	37358.82
699.269	37135.1
699.614	36821.66
699.96	36782.56
700.306	36930.36
700.651	36717.03
700.997	36602.23
701.342	36646.75
701.688	36560.65
702.033	36331.5
702.379	36437.71
702.724	36258.06
703.069	36405.4
703.415	35954.34
703.76	35918.18
704.105	35986.88
704.45	35910.5
704.795	35665.31
705.14	35538.75
705.485	35546.89
705.83	35537.4
706.175	35528.81
706.52	35323.85
706.865	35273
707.209	35183.74
707.554	35087.92
707.899	35190.06
708.243	34981.03
708.588	34872.33
708.932	34840.92
709.277	34708.72
709.621	34797.76
709.966	34673.24
710.31	34652.45
710.654	34280.48
710.998	34399.35
711.342	34415.85
711.687	34251.33
712.031	34072.8
712.375	33958.23
712.719	34054.95
713.063	33962.3
713.407	34092.24
713.75	33810.66
714.094	33817.67
714.438	33592.82
714.782	33753.49
715.125	33462.65
715.469	33581.29
715.812	33496.77
716.156	33228.53
716.499	33208.42
716.843	33424.01
717.186	33238.48
717.53	33190.57
717.873	33178.59
718.216	33167.29
718.559	33115.09
718.902	32657.93
719.246	32830.58
719.589	32695.44
719.932	32657.93
720.275	32683.69
720.617	32671.49
720.96	32560.3
721.303	32439.18
721.646	32511.26
721.989	32392.85
722.331	32474.43
722.674	32308.11
723.016	32326.18
723.359	32162.35
723.701	32250.03
724.044	32079.18
724.386	31949.02
724.729	32127.09
725.071	31915.8
725.413	31961.67
725.755	31975.91
726.097	31779.08
726.439	31707.67
726.782	31605.07
727.124	31771.17
727.465	31578.41
727.807	31549.03
728.149	31452.76
728.491	31464.51
728.833	31487.56
729.175	31339.54
729.516	31229.26
729.858	31243.05
730.199	31210.28
730.541	31152.43
730.882	31150.62
731.224	31178.19
731.565	30939.55
731.906	30998.08
732.248	30972.77
732.589	30865.88
732.93	30778.43
733.271	30816.17
733.612	30801.7
733.953	30899.55
734.294	30483.07
734.635	30627.7
734.976	30664.08
735.317	30580.02
735.658	30558.55
735.999	30486.46
736.339	30398.33
736.68	30492.56
737.021	30359.68
737.361	30181.38
737.702	30447.14
738.042	30284.88
738.383	30228.61
738.723	30293.92
739.063	30093.25
739.404	30195.17
739.744	30192
740.084	30011.89
740.424	29959.01
740.764	29970.99
741.104	30109.52
741.444	30002.86
741.784	29728.51
742.124	29841.96
742.464	29761.96
742.804	29737.78
743.143	29598.8
743.483	29574.39
743.823	29398.58
744.162	29441.51
744.502	29570.1
744.841	29436.09
745.181	29511.34
745.52	29321.52
745.86	29356.77
746.199	29381.4
746.538	29284.23
746.877	29341.18
747.216	29287.62
747.556	29277.45
747.895	29177.79
748.234	29099.38
748.573	28979.15
748.911	28870.23
749.25	28937.35
749.589	28781.64
749.928	28879.27
750.267	28898.93
750.605	28746.84
750.944	28764.92
751.283	28554.98
751.621	28566.51
751.96	28494.87
752.298	28449
752.636	28436.12
752.975	28278.15
753.313	28327.19
753.651	28319.06
753.989	28302.33
754.327	28119.74
754.666	28172.62
755.004	28149.34
755.342	28176.69
755.679	28104.37
756.017	27775.12
756.355	27930.82
756.693	27883.36
757.031	27757.04
757.368	27634.1
757.706	27543.71
758.044	27563.15
758.381	27471.85
758.719	27476.82
759.056	27435.69
759.394	27314.79
759.731	27106.89
760.068	27216.71
760.405	27008.81
760.743	26977.17
761.08	26989.6
761.417	26785.54
761.754	26843.62
762.091	26722.04
762.428	26550.97
762.765	26449.95
763.102	26744.64
763.438	26538.09
763.775	26238.43
764.112	26261.94
764.449	26401.14
764.785	26149.17
765.122	26019.91
765.458	25908.5
765.795	25988.5
766.131	25880.93
766.467	25654.04
766.804	25630.77
767.14	25473.93
767.476	25564.78
767.812	25435.74
768.148	25474.16
768.485	25266.93
768.821	25055.19
769.157	25126.83
769.492	24981.97
769.828	25033.95
770.164	24826.95
770.5	24686.84
770.836	24708.76
771.171	24633.5
771.507	24524.58
771.842	24284.59
772.178	24240.52
772.513	24208.88
772.849	24170.69
773.184	24064.25
773.519	24058.83
773.855	23892.73
774.19	23828.78
774.525	23807.09
774.86	23862.68
775.195	23595.57
775.53	23535
775.865	23369.81
776.2	23321
776.535	23235.35
776.87	23154
777.205	23034.45
777.539	23036.03
777.874	23063.38
778.209	22810.5
778.543	22786.32
778.878	22728.47
779.212	22699.77
779.547	22578.64
779.881	22598.53
780.215	22265.21
780.55	22475.82
780.884	22285.54
781.218	22138.66
781.552	22178.43
781.886	22013.01
782.22	21947.7
782.554	21868.38
782.888	21722.85
783.222	21619.12
783.556	21538.67
783.889	21484.21
784.223	21286.47
784.557	21227.04
784.89	21252.35
785.224	21140.04
785.557	21086.25
785.891	21019.36
786.224	20906.15
786.558	20865.47
786.891	20772.14
787.224	20633.84
787.557	20664.12
787.891	20513.61
788.224	20472.94
788.557	20528.75
788.89	20465.48
789.223	20420.73
789.556	20304.35
789.888	20226.39
790.221	20205.15
790.554	19947.53
790.887	19967.19
791.219	19832.28
791.552	19862.56
791.884	19705.95
792.217	19612.17
792.549	19640.64
792.882	19468.67
793.214	19465.51
793.546	19383.25
793.879	19306.87
794.211	19295.79
794.543	19248.11
794.875	19221.9
795.207	19294.89
795.539	19015.12
795.871	18979.64
796.203	18874.33
796.535	18731.51
796.867	18762.25
797.198	18705.07
797.53	18804.05
797.862	18552.99
798.193	18573.33
798.525	18555.47
798.856	18461.92
799.188	18267.57
799.519	18272.09
799.85	18161.81
800.182	18237.74
800.513	18158.42
800.844	18034.13
801.175	17996.84
801.506	18005.66
801.837	17895.15
802.168	17919.56
802.499	17792.1
802.83	17761.6
803.161	17667.81
803.491	17690.18
803.822	17706
804.153	17522.28
804.483	17392.79
804.814	17319.12
805.145	17399.34
805.475	17393.7
805.805	17337.43
806.136	17378.78
806.466	17271.21
806.796	17188.28
807.126	17063.99
807.457	17014.27
807.787	16991.45
808.117	16956.19
808.447	16988.96
808.777	16885.91
809.107	16785.8
809.436	16732.24
809.766	16722.07
810.096	16571.12
810.426	16634.62
810.755	16667.39
811.085	16655.86
811.414	16521.63
811.744	16400.5
812.073	16361.63
812.403	16377.9
812.732	16174.97
813.061	16270.11
813.39	16228.98
813.719	16091.81
814.049	16268.53
814.378	16014.3
814.707	16012.04
815.036	16007.97
815.365	15972.26
815.693	15839.16
816.022	15791.03
816.351	15804.36
816.68	15645.27
817.008	15750.8
817.337	15552.61
817.665	15603.69
817.994	15619.96
818.322	15627.41
818.651	15504.71
818.979	15423.58
819.307	15484.82
819.636	15469
819.964	15312.62
820.292	15444.37
820.62	15399.62
820.948	15305.84
821.276	15354.43
821.604	15360.08
821.932	15387.42
822.259	15345.39
822.587	15416.12
822.915	15284.82
823.243	15338.83
823.57	15152.4
823.898	15316.24
824.225	15226.75
824.553	15232.17
824.88	15267.42
825.207	15299.74
825.535	15236.92
825.862	15360.53
826.189	15156.01
826.516	15254.54
826.843	15314.43
827.17	15342.22
827.497	15330.02
827.824	15297.93
828.151	15343.81
828.478	15203.24
828.805	15365.27
829.131	15270.36
829.458	15303.13
829.785	15177.03
830.111	15196.46
830.438	15222
830.764	15233.75
831.09	15250.02
831.417	15158.5
831.743	15283.02
832.069	15199.63
832.395	15093.19
832.722	15196.24
833.048	15068.56
833.374	15127.31
833.7	15105.17
834.026	15082.12
834.351	15024.27
834.677	14984.94
835.003	15047.09
835.329	15089.57
835.654	14973.42
835.98	14943.36
836.306	14951.73
836.631	14884.61
836.956	14969.35
837.282	14893.42
837.607	14901.56
837.932	14881.67
838.258	14739.75
838.583	14764.61
838.908	14669.47
839.233	14655.24
839.558	14618.63
839.883	14597.61
840.208	14688.46
840.533	14666.08
840.858	14584.73
841.182	14558.29
841.507	14617.95
841.832	14556.48
842.156	14500.66
842.481	14467.67
842.805	14509.7
843.13	14424.28
843.454	14323.27
843.778	14287.79
844.103	14230.84
844.427	14316.49
844.751	14325.75
845.075	14185.42
845.399	14179.09
845.723	13987.46
846.047	13997.17
846.371	13920.11
846.695	13971.64
847.019	13815.71
847.343	13792.43
847.666	13739.33
847.99	13748.14
848.313	13703.17
848.637	13592.21
848.96	13518.99
849.284	13477.87
849.607	13441.71
849.931	13397.87
850.254	13262.5
850.577	13180.47
850.9	13169.4
851.223	13124.2
851.546	13078.55
851.869	13019.8
852.192	13045.79
852.515	12975.05
852.838	12832.46
853.161	12913.36
853.483	12773.03
853.806	12778
854.129	12667.49
854.451	12637.21
854.774	12665.46
855.096	12639.47
855.419	12549.98
855.741	12593.82
856.063	12445.35
856.385	12413.49
856.708	12454.39
857.03	12387.95
857.352	12368.74
857.674	12301.17
857.996	12237.22
858.318	12176.43
858.64	12161.29
858.961	12179.6
859.283	12097.56
859.605	12013.72
859.926	12052.82
860.248	11998.81
860.57	12041.29
860.891	11902.31
861.212	11841.52
861.534	11875.65
861.855	11841.98
862.176	11826.16
862.498	11863.67
862.819	11844.46
863.14	11727.86
863.461	11747.06
863.782	11660.06
864.103	11793.62
864.424	11710
864.745	11732.15
865.065	11652.38
865.386	11514.98
865.707	11488.31
866.027	11630.23
866.348	11513.62
866.668	11514.08
866.989	11511.36
867.309	11406.96
867.63	11421.2
867.95	11485.38
868.27	11378.26
868.59	11354.98
868.91	11401.54
869.23	11301.43
869.55	11338.71
869.87	11398.82
870.19	11346.85
870.51	11333.97
870.83	11355.21
871.15	11199.51
871.469	11180.75
871.789	11200.41
872.109	11264.59
872.428	11138.04
872.748	11181.43
873.067	11205.61
873.386	11105.27
873.706	11144.59
874.025	11004.94
874.344	11030.7
874.663	11079.74
874.982	11020.53
875.301	11020.53
875.62	11044.94
875.939	10946.86
876.258	10929.91
876.577	10955.67
876.896	10870.25
877.214	10905.28
877.533	10864.6
877.852	10829.35
878.17	10846.75
878.489	10826.86
878.807	10806.3
879.125	10705.74
879.444	10770.14
879.762	10722.91
880.08	10738.5
880.398	10655.34
880.716	10736.24
881.034	10662.8
881.352	10664.15
881.67	10643.14
881.988	10652.63
882.306	10564.95
882.624	10567.89
882.941	10486.53
883.259	10453.76
883.577	10472.75
883.894	10421.22
884.212	10396.37
884.529	10359.3
884.846	10441.11
885.164	10390.49
885.481	10339.87
885.798	10251.51
886.115	10272.75
886.432	10279.31
886.75	10253.09
887.067	10209.25
887.383	10202.25
887.7	10208.35
888.017	10112.08
888.334	10173.09
888.651	10039.54
888.967	10089.48
889.284	10007.67
889.6	10014.91
889.917	9963.83
890.233	9960.9
890.55	9850.84
890.866	9914.12
891.182	9907.56
891.498	9827.57
891.815	9808.13
892.131	9770.62
892.447	9816.27
892.763	9731.52
893.079	9645.2
893.395	9638.64
893.71	9589.61
894.026	9611.75
894.342	9616.27
894.657	9562.71
894.973	9521.59
895.289	9529.5
895.604	9514.13
895.92	9388.26
896.235	9423.51
896.55	9359.56
896.865	9332.21
897.181	9283.17
897.496	9369.73
897.811	9253.57
898.126	9236.85
898.441	9186.91
898.756	9193.68
899.071	9048.38
899.386	9072.33
899.7	9047.25
900.015	8991.2
900.33	9009.51
900.644	8919.12
900.959	8933.58
901.273	8975.39
901.588	8832.56
901.902	8780.14
902.216	8808.84
902.531	8786.46
902.845	8726.13
903.159	8675.28
903.473	8665.11
903.787	8613.14
904.101	8557.32
904.415	8558.67
904.729	8492.46
905.042	8531.1
905.356	8462.4
905.67	8470.09
905.984	8406.59
906.297	8384.67
906.611	8325.23
906.924	8355.29
907.237	8261.05
907.551	8282.97
907.864	8261.73
908.177	8219.7
908.491	8193.49
908.804	8145.58
909.117	8056.99
909.43	8129.53
909.743	8058.8
910.056	8005.02
910.368	7991
910.681	7918.46
910.994	7912.14
911.307	7907.84
911.619	7815.42
911.932	7788.75
912.244	7792.37
912.557	7713.95
912.869	7736.55
913.181	7687.96
913.494	7678.7
913.806	7587.4
914.118	7531.36
914.43	7476.67
914.742	7556.44
915.054	7509.21
915.366	7469.21
915.678	7413.17
915.99	7412.26
916.302	7349.21
916.613	7307.41
916.925	7305.15
917.236	7300.4
917.548	7232.61
917.859	7228.54
918.171	7150.12
918.482	7125.72
918.794	7120.29
919.105	7154.42
919.416	7064.93
919.727	7048.66
920.038	7033.97
920.349	6978.83
920.66	6950.81
920.971	6898.6
921.282	6906.06
921.593	6842.56
921.903	6805.73
922.214	6872.84
922.525	6792.17
922.835	6712.39
923.146	6694.32
923.456	6688.67
923.767	6628.1
924.077	6682.34
924.387	6594.43
924.697	6609.8
925.008	6603.92
925.318	6553.75
925.628	6497.71
925.938	6464.27
926.248	6394.21
926.558	6419.52
926.867	6390.14
927.177	6356.25
927.487	6331.84
927.796	6283.03
928.106	6269.24
928.416	6278.51
928.725	6273.08
929.034	6202.58
929.344	6134.78
929.653	6161.9
929.962	6156.7
930.271	6084.39
930.581	6062.92
930.89	6066.99
931.199	5961.68
931.508	6025.41
931.817	6000.1
932.125	5965.07
932.434	5932.08
932.743	5881.91
933.051	5829.93
933.36	5830.38
933.669	5771.63
933.977	5745.87
934.286	5776.15
934.594	5787.45
934.902	5721.69
935.21	5663.16
935.519	5642.82
935.827	5615.02
936.135	5619.77
936.443	5574.12
936.751	5602.82
937.059	5588.81
937.367	5487.34
937.674	5485.76
937.982	5478.08
938.29	5445.76
938.597	5444.4
938.905	5372.32
939.213	5407.12
939.52	5319.89
939.827	5374.8
940.135	5332.77
940.442	5277.63
940.749	5218.42
941.056	5231.53
941.363	5226.11
941.67	5185.65
941.977	5184.52
942.284	5106.79
942.591	5162.38
942.898	5066.56
943.205	5114.02
943.511	5099.56
943.818	5071.31
944.125	5019.11
944.431	4995.15
944.738	4950.41
945.044	4989.28
945.35	4940.24
945.657	4901.14
945.963	4929.84
946.269	4868.83
946.575	4857.98
946.881	4820.92
947.187	4792.44
947.493	4777.3
947.799	4789.51
948.105	4742.5
948.41	4707.93
948.716	4758.32
949.022	4683.29
949.327	4696.63
949.633	4617.31
949.938	4643.52
950.244	4598.33
950.549	4577.31
950.854	4580.25
951.16	4528.72
951.465	4505.45
951.77	4533.69
952.075	4476.97
952.38	4448.27
952.685	4472.45
952.99	4435.62
953.294	4439.01
953.599	4386.81
953.904	4360.14
954.209	4361.27
954.513	4332.8
954.818	4305.68
955.122	4331.44
955.426	4295.06
955.731	4264.32
956.035	4252.57
956.339	4205.57
956.643	4219.58
956.948	4162.4
957.252	4212.12
957.556	4181.16
957.86	4131.9
958.163	4127.38
958.467	4089.86
958.771	4060.26
959.075	4105.91
959.378	4009.19
959.682	4032.24
959.985	3994.73
960.289	4013.71
960.592	3984.1
960.896	3974.16
961.199	3899.81
961.502	3903.88
961.805	3919.02
962.108	3869.98
962.411	3883.54
962.714	3820.27
963.017	3848.06
963.32	3861.62
963.623	3798.57
963.926	3807.61
964.228	3748.63
964.531	3757.9
964.833	3756.99
965.136	3674.51
965.438	3677.45
965.741	3649.88
966.043	3660.72
966.345	3653.27
966.648	3637.9
966.95	3638.8
967.252	3594.74
967.554	3607.39
967.856	3610.78
968.158	3550.44
968.46	3519.03
968.761	3538.47
969.063	3517.68
969.365	3537.79
969.666	3523.33
969.968	3429.32
970.269	3445.81
970.571	3465.93
970.872	3456.66
971.174	3406.94
971.475	3425.47
971.776	3390.67
972.077	3379.83
972.378	3368.08
972.679	3356.1
972.98	3347.51
973.281	3304.57
973.582	3295.99
973.883	3322.2
974.183	3268.87
974.484	3264.58
974.785	3251.47
975.085	3230.45
975.386	3232.49
975.686	3214.18
975.986	3179.38
976.287	3176.67
976.587	3136.89
976.887	3164.01
977.187	3176.89
977.487	3132.38
977.787	3122.66
978.087	3098.48
978.387	3057.57
978.687	3048.54
978.987	3025.03
979.286	3033.39
979.586	3024.36
979.885	2999.95
980.185	3013.28
980.484	2985.26
980.784	2962.21
981.083	2922.66
981.382	2967.41
981.682	2917.47
981.981	2926.05
982.28	2920.86
982.579	2841.08
982.878	2873.85
983.177	2841.08
983.475	2818.03
983.774	2845.83
984.073	2824.81
984.372	2797.47
984.67	2793.4
984.969	2783.46
985.267	2798.15
985.566	2779.39
985.864	2769.9
986.162	2740.07
986.461	2712.5
986.759	2728.32
987.057	2643.35
987.355	2659.17
987.653	2664.59
987.951	2628.43
988.249	2663.91
988.547	2670.01
988.844	2627.3
989.142	2578.04
989.44	2585.05
989.737	2570.13
990.035	2597.93
990.332	2574.88
990.63	2565.84
990.927	2561.54
991.224	2540.53
991.521	2513.63
991.819	2510.92
992.116	2503.01
992.413	2484.93
992.71	2493.75
993.006	2453.3
993.303	2434.77
993.6	2470.02
993.897	2400.87
994.193	2407.65
994.49	2397.25
994.787	2407.42
995.083	2392.73
995.379	2317.48
995.676	2351.6
995.972	2317.26
996.268	2331.04
996.565	2350.25
996.861	2304.83
997.157	2286.3
997.453	2311.61
997.749	2266.18
998.044	2237.48
998.34	2263.02
998.636	2257.14
998.932	2230.7
999.227	2212.85
999.523	2225.51
999.818	2200.2
1000.114	2191.84
1000.409	2189.35
1000.704	2182.57
1001	2132.4
1001.295	2140.76
1001.59	2141.89
1001.885	2143.02
1002.18	2108.67
1002.475	2103.02
1002.77	2091.72
1003.065	2075.91
1003.359	2057.6
1003.654	2049.24
1003.949	2024.16
1004.243	2032.74
1004.538	2007.21
1004.832	1979.86
1005.127	2007.66
1005.421	1991.39
1005.715	1953.42
1006.009	1982.8
1006.304	1988
1006.598	1958.17
1006.892	1938.06
1007.186	1915.01
1007.48	1912.97
1007.773	1903.03
1008.067	1882.46
1008.361	1884.05
1008.655	1876.14
1008.948	1845.86
1009.242	1816.7
1009.535	1845.63
1009.829	1839.3
1010.122	1809.25
1010.415	1810.83
1010.708	1786.2
1011.001	1797.5
1011.295	1774.44
1011.588	1782.35
1011.881	1745.97
1012.173	1734.9
1012.466	1763.15
1012.759	1748.46
1013.052	1726.31
1013.344	1683.6
1013.637	1696.93
1013.93	1698.97
1014.222	1696.03
1014.514	1662.36
1014.807	1658.29
1015.099	1649.93
1015.391	1629.82
1015.683	1620.32
1015.976	1618.29
1016.268	1605.18
1016.56	1582.13
1016.851	1568.8
1017.143	1582.13
1017.435	1559.76
1017.727	1566.31
1018.018	1521.12
1018.31	1515.02
1018.602	1524.73
1018.893	1526.54
1019.185	1501.23
1019.476	1505.98
1019.767	1494.23
1020.058	1500.55
1020.35	1473.21
1020.641	1459.2
1020.932	1433.44
1021.223	1444.51
1021.514	1419.65
1021.804	1425.98
1022.095	1447.67
1022.386	1421.91
1022.677	1395.47
1022.967	1386.88
1023.258	1381.91
1023.548	1368.13
1023.839	1366.09
1024.129	1335.36
1024.419	1365.87
1024.709	1324.29
1025	1347.79
1025.29	1314.34
1025.58	1310.95
1025.87	1321.35
1026.16	1310.5
1026.449	1278.41
1026.739	1287
1027.029	1279.32
1027.319	1263.05
1027.608	1241.8
1027.898	1234.12
1028.187	1235.93
1028.477	1230.73
1028.766	1221.24
1029.055	1207.91
1029.344	1219.21
1029.634	1199.32
1029.923	1215.59
1030.212	1197.28
1030.501	1193.67
1030.79	1173.33
1031.078	1149.6
1031.367	1148.7
1031.656	1143.95
1031.945	1157.29
1032.233	1142.82
1032.522	1127.46
1032.81	1111.86
1033.099	1103.28
1033.387	1101.47
1033.675	1099.66
1033.963	1099.21
1034.251	1077.51
1034.54	1064.86
1034.828	1050.17
1035.116	1075.48
1035.403	1065.76
1035.691	1044.29
1035.979	1047.01
1036.267	1060.79
1036.554	1051.53
1036.842	1009.04
1037.129	1022.6
1037.417	1001.36
1037.704	1009.49
1037.992	987.57
1038.279	970.85
1038.566	976.73
1038.853	976.73
1039.14	976.73
