Data from hue_190_FLMS001491_00029.txt Node
Date: Tue Feb 07 16:45:04 GMT 2017
User: dcchb
Spectrometer: FLMS00149
Trigger mode: 0
Integration Time (sec): 2.000000E-2
Scans to average: 10
Electric dark correction enabled: true
Nonlinearity correction enabled: false
Boxcar width: 0
XAxis mode: Wavelengths
Number of Pixels in Spectrum: 2048
>>>>>Begin Spectral Data<<<<<
341.393	-6.17
341.776	-6.17
342.16	-6.17
342.543	-61.31
342.927	-77.36
343.31	-70.58
343.693	-62.22
344.077	-77.58
344.46	-59.5
344.843	-43.91
345.226	-10.69
345.61	-24.02
345.993	-14.99
346.376	-28.09
346.759	-6.62
347.142	32.02
347.525	41.51
347.908	58.46
348.291	75.41
348.674	101.17
349.057	89.64
349.44	120.83
349.823	144.56
350.206	148.17
350.588	176.2
350.971	192.01
351.354	215.52
351.737	246.48
352.119	246.7
352.502	249.64
352.884	271.79
353.267	272.24
353.65	284.22
354.032	283.99
354.414	310.88
354.797	297.1
355.179	318.34
355.562	311.33
355.944	306.36
356.326	327.6
356.709	341.62
357.091	334.84
357.473	329.41
357.855	335.06
358.238	331.67
358.62	337.77
359.002	330.99
359.384	328.51
359.766	333.93
360.148	331.45
360.53	331.22
360.912	329.64
361.294	330.32
361.676	320.6
362.057	306.14
362.439	291
362.821	333.25
363.203	321.95
363.584	320.37
363.966	309.98
364.348	331.45
364.729	325.57
365.111	304.55
365.493	310.43
365.874	314.05
366.256	277.66
366.637	305.91
367.019	297.1
367.4	294.61
367.781	332.58
368.163	303.42
368.544	295.06
368.925	303.2
369.306	302.97
369.688	306.14
370.069	295.29
370.45	308.17
370.831	309.98
371.212	306.81
371.593	305.01
371.974	299.58
372.355	303.42
372.736	312.69
373.117	306.14
373.498	315.85
373.879	314.72
374.26	292.58
374.641	307.49
375.021	300.94
375.402	303.88
375.783	302.52
376.163	299.58
376.544	303.65
376.925	293.26
377.305	300.49
377.686	324.89
378.066	314.27
378.447	312.01
378.827	317.44
379.208	307.94
379.588	316.98
379.968	327.15
380.349	310.43
380.729	320.15
381.109	338.45
381.489	339.58
381.87	340.49
382.25	327.83
382.63	321.73
383.01	318.79
383.39	322.41
383.77	328.06
384.15	334.84
384.53	334.38
384.91	313.82
385.29	333.25
385.67	342.07
386.049	329.86
386.429	324.67
386.809	333.71
387.189	332.8
387.568	324.89
387.948	365.57
388.328	344.55
388.707	326.47
389.087	338.45
389.466	343.42
389.846	345.46
390.225	340.26
390.605	363.99
390.984	348.62
391.363	330.77
391.743	317.66
392.122	366.47
392.501	355.4
392.881	359.92
393.26	359.92
393.639	363.54
394.018	350.2
394.397	380.26
394.776	356.53
395.155	359.02
395.534	366.25
395.913	378.45
396.292	369.41
396.671	370.54
397.05	367.15
397.429	365.57
397.808	357.66
398.186	362.41
398.565	380.03
398.944	372.12
399.323	374.16
399.701	400.37
400.08	382.52
400.458	380.71
400.837	374.83
401.215	400.6
401.594	409.18
401.972	391.33
402.351	390.65
402.729	388.62
403.107	403.76
403.486	417.32
403.864	408.51
404.242	418.68
404.62	428.39
404.999	413.25
405.377	408.05
405.755	410.99
406.133	429.97
406.511	423.65
406.889	442.4
407.267	457.32
407.645	438.34
408.023	484.44
408.401	479.92
408.779	465.23
409.156	470.2
409.534	481.72
409.912	479.46
410.29	491.44
410.667	492.12
411.045	510.42
411.422	505
411.8	503.87
412.178	529.63
412.555	519.24
412.933	547.49
413.31	557.88
413.687	547.49
414.065	570.99
414.442	587.48
414.819	565.11
415.197	599.91
415.574	601.27
415.951	605.34
416.328	596.98
416.705	612.34
417.082	643.75
417.46	615.28
417.837	643.08
418.214	643.3
418.591	671.1
418.967	653.47
419.344	669.52
419.721	704.09
420.098	679.23
420.475	710.65
420.852	717.42
421.228	729.18
421.605	760.81
421.982	758.55
422.358	776.86
422.735	781.6
423.111	763.75
423.488	794.94
423.864	836.29
424.241	830.64
424.617	854.37
424.994	870.19
425.37	883.97
425.746	860.7
426.123	888.49
426.499	895.73
426.875	903.18
427.251	916.06
427.627	928.72
428.003	951.32
428.379	956.74
428.756	958.55
429.132	981.82
429.507	1003.52
429.883	1003.74
430.259	995.61
430.635	1030.64
431.011	1031.77
431.387	1074.48
431.763	1069.73
432.138	1116.74
432.514	1081.93
432.89	1124.19
433.265	1117.64
433.641	1143.4
434.016	1191.76
434.392	1202.38
434.767	1243.29
435.143	1233.34
435.518	1248.71
435.894	1263.17
436.269	1314.47
436.644	1331.42
437.02	1340.01
437.395	1374.13
437.77	1382.72
438.145	1410.51
438.52	1436.95
438.895	1474.69
439.271	1474.69
439.646	1515.14
440.021	1537.74
440.395	1562.37
440.77	1570.74
441.145	1596.5
441.52	1632.88
441.895	1630.62
442.27	1638.53
442.645	1655.25
443.019	1711.52
443.394	1697.96
443.769	1705.87
444.143	1678.53
444.518	1737.96
444.892	1759.43
445.267	1761.69
445.641	1780.67
446.016	1813.44
446.39	1799.2
446.764	1862.48
447.139	1830.16
447.513	1862.48
447.887	1863.84
448.262	1918.3
448.636	1888.24
449.01	1915.81
449.384	1949.71
449.758	1942.48
450.132	1977.96
450.506	1991.74
450.88	1978.86
451.254	2024.28
451.628	2095.02
452.002	2077.61
452.376	2104.73
452.75	2116.26
453.123	2136.6
453.497	2134.11
453.871	2165.07
454.244	2205.3
454.618	2246.2
454.992	2247.55
455.365	2273.77
455.739	2301.34
456.112	2365.97
456.486	2369.13
456.859	2403.48
457.232	2422.01
457.606	2440.32
457.979	2474.44
458.352	2491.39
458.725	2536.81
459.099	2549.24
459.472	2617.94
459.845	2654.1
460.218	2658.16
460.591	2693.64
460.964	2694.1
461.337	2747.65
461.71	2823.36
462.083	2833.75
462.456	2821.1
462.829	2854.09
463.201	2948.78
463.574	2911.27
463.947	2984.71
464.32	3059.74
464.692	3071.49
465.065	3103.58
465.438	3119.4
465.81	3193.74
466.183	3210.24
466.555	3268.32
466.928	3287.3
467.3	3292.72
467.672	3313.74
468.045	3507.86
468.417	3478.71
468.789	3457.69
469.161	3493.85
469.534	3610.68
469.906	3674.41
470.278	3691.13
470.65	3764.58
471.022	3789.21
471.394	3877.57
471.766	3887.06
472.138	3947.4
472.51	4067.85
472.882	4080.05
473.253	4169.76
473.625	4246.6
473.997	4304.67
474.369	4356.43
474.74	4412.69
475.112	4467.16
475.484	4528.4
475.855	4655.4
476.227	4690.88
476.598	4757.09
476.97	4810.42
477.341	4939.46
477.713	4992.34
478.084	5008.84
478.455	5201.37
478.827	5227.59
479.198	5357.98
479.569	5369.05
479.94	5564.08
480.311	5586.22
480.682	5763.85
481.053	5872.77
481.424	5904.86
481.795	6008.13
482.166	6116.83
482.537	6177.85
482.908	6335.81
483.279	6409.03
483.65	6529.25
484.021	6645.18
484.391	6661.9
484.762	6757.72
485.133	6850.37
485.503	6870.71
485.874	7070.25
486.244	7124.71
486.615	7247.87
486.985	7335.56
487.356	7462.11
487.726	7550.47
488.097	7704.81
488.467	7714.53
488.837	7917.69
489.207	7984.35
489.578	8124.46
489.948	8149.55
490.318	8330.11
490.688	8304.8
491.058	8443.1
491.428	8526.94
491.798	8578.01
492.168	8762.41
492.538	8728.51
492.908	8871.33
493.278	8985.91
493.648	8975.51
494.017	9046.7
494.387	9094.38
494.757	9255.96
495.126	9264.77
495.496	9335.5
495.866	9367.59
496.235	9475.39
496.605	9524.88
496.974	9557.42
497.344	9647.36
497.713	9691.43
498.082	9757.41
498.452	9828.37
498.821	9843.74
499.19	9914.02
499.559	9923.51
499.928	9995.37
500.298	10022.49
500.667	10110.4
501.036	10015.94
501.405	10191.98
501.774	10065.88
502.143	10257.74
502.512	10222.94
502.88	10298.64
503.249	10313.1
503.618	10332.99
503.987	10385.65
504.356	10401.46
504.724	10442.59
505.093	10478.3
505.462	10522.82
505.83	10501.12
506.199	10574.34
506.567	10717.16
506.936	10615.7
507.304	10719.42
507.672	10759.65
508.041	10735.69
508.409	10774.34
508.777	10827.44
509.145	10854.11
509.514	10846.65
509.882	10916.48
510.25	10863.82
510.618	10910.15
510.986	10907.21
511.354	11005.52
511.722	10970.71
512.09	11028.57
512.458	11033.99
512.826	11144.72
513.193	11088
513.561	11136.13
513.929	11090.49
514.297	11142.01
514.664	11119.19
515.032	11152.4
515.4	11166.19
515.767	11098.85
516.135	11270.37
516.502	11063.82
516.869	11225.85
517.237	11218.17
517.604	11169.81
517.972	11219.97
518.339	11312.85
518.706	11227.43
519.073	11261.33
519.44	11193.53
519.808	11296.36
520.175	11258.62
520.542	11256.13
520.909	11321.21
521.276	11238.28
521.643	11270.59
522.009	11259.75
522.376	11270.37
522.743	11275.34
523.11	11377.26
523.477	11374.77
523.843	11351.5
524.21	11393.98
524.577	11444.37
524.943	11350.59
525.31	11405.05
525.676	11370.7
526.043	11434.66
526.409	11330.03
526.776	11405.05
527.142	11328.22
527.508	11363.25
527.874	11364.38
528.241	11348.33
528.607	11317.37
528.973	11338.84
529.339	11241.22
529.705	11296.36
530.071	11323.47
530.437	11246.64
530.803	11220.65
531.169	11205.06
531.535	11172.52
531.901	11174.55
532.267	11099.75
532.632	11089.81
532.998	11063.14
533.364	11062.01
533.73	10958.29
534.095	10996.25
534.461	10953.31
534.826	10955.57
535.192	10877.16
535.557	10794.9
535.923	10763.04
536.288	10746.09
536.653	10694.11
537.019	10568.01
537.384	10614.79
537.749	10553.55
538.114	10559.65
538.479	10463.84
538.845	10406.21
539.21	10326.89
539.575	10285.76
539.94	10359.88
540.305	10261.35
540.67	10128.93
541.034	10153.56
541.399	10102.94
541.764	10055.26
542.129	9949.05
542.494	9929.84
542.858	9887.58
543.223	9867.92
543.587	9754.93
543.952	9748.83
544.316	9633.57
544.681	9625.89
545.045	9628.83
545.41	9566.91
545.774	9433.81
546.138	9437.65
546.503	9383.64
546.867	9377.76
547.231	9299.12
547.595	9206.02
547.959	9217.09
548.324	9097.09
548.688	9096.64
549.052	9061.61
549.416	9031.33
549.779	8982.74
550.143	8934.16
550.507	8892.8
550.871	8870.2
551.235	8722.64
551.599	8747.72
551.962	8676.31
552.326	8653.94
552.689	8672.02
553.053	8540.04
553.417	8506.6
553.78	8557.9
554.143	8427.73
554.507	8415.75
554.87	8371.69
555.234	8386.38
555.597	8249.66
555.96	8286.49
556.323	8283.55
556.686	8168.75
557.05	8238.81
557.413	8145.93
557.776	8095.08
558.139	8135.76
558.502	8061.41
558.865	8008.31
559.228	8027.74
559.59	8100.51
559.953	7955.43
560.316	8052.15
560.679	7882.89
561.041	7951.13
561.404	7907.97
561.767	7904.13
562.129	7869.33
562.492	7914.3
562.854	7813.06
563.217	7785.71
563.579	7790.23
563.941	7786.62
564.304	7780.29
564.666	7758.82
565.028	7764.47
565.39	7764.02
565.753	7749.33
566.115	7767.41
566.477	7772.38
566.839	7700.97
567.201	7736.68
567.563	7672.27
567.925	7686.51
568.287	7700.97
568.648	7683.57
569.01	7640.18
569.372	7643.57
569.734	7648.54
570.095	7613.74
570.457	7657.13
570.819	7639.73
571.18	7608.32
571.542	7669.56
571.903	7649.67
572.265	7593.85
572.626	7636.56
572.987	7671.59
573.349	7605.61
573.71	7493.97
574.071	7627.98
574.432	7583.68
574.794	7663.91
575.155	7581.65
575.516	7561.99
575.877	7579.39
576.238	7536.45
576.599	7632.72
576.96	7545.72
577.32	7558.15
577.681	7584.59
578.042	7551.14
578.403	7539.17
578.763	7515.89
579.124	7567.19
579.485	7508.66
579.845	7545.04
580.206	7505.72
580.566	7511.6
580.927	7467.53
581.287	7548.66
581.648	7475.21
582.008	7557.47
582.368	7464.37
582.728	7470.47
583.089	7427.3
583.449	7462.78
583.809	7404.03
584.169	7426.17
584.529	7385.27
584.889	7403.8
585.249	7368.78
585.609	7321.54
585.969	7366.97
586.329	7385.95
586.688	7331.26
587.048	7349.11
587.408	7331.49
587.768	7282.22
588.127	7269.79
588.487	7256.91
588.846	7325.61
589.206	7261.21
589.565	7225.73
589.925	7287.42
590.284	7304.37
590.643	7152.51
591.003	7231.83
591.362	7267.76
591.721	7180.76
592.08	7206.75
592.44	7227.99
592.799	7237.93
593.158	7189.34
593.517	7203.81
593.876	7228.89
594.235	7193.41
594.593	7129.01
594.952	7190.47
595.311	7127.65
595.67	7133.98
596.029	7184.15
596.387	7162.23
596.746	7132.4
597.104	7121.55
597.463	7069.57
597.822	7138.95
598.18	7123.58
598.538	7043.36
598.897	7093.53
599.255	7025.73
599.613	7125.84
599.972	7065.73
600.33	7034.32
600.688	7103.7
601.046	7044.04
601.404	7096.92
601.762	7034.77
602.12	7062.79
602.478	7082.46
602.836	7067.77
603.194	7007.88
603.552	7010.37
603.91	6990.03
604.268	7016.02
604.625	7063.02
604.983	6972.63
605.341	6957.03
605.698	7033.19
606.056	7036.35
606.413	6966.53
606.771	7032.74
607.128	7021.89
607.485	6993.42
607.843	6949.13
608.2	6986.41
608.557	7094.43
608.914	7026.64
609.272	6957.71
609.629	7023.7
609.986	7003.81
610.343	6985.06
610.7	7093.08
611.057	7013.76
611.414	7024.15
611.771	7023.93
612.127	7103.47
612.484	7063.47
612.841	7087.88
613.198	7073.87
613.554	7031.16
613.911	7089.46
614.267	7050.14
614.624	7049.24
614.98	7067.31
615.337	7063.02
615.693	7050.59
616.05	7091.04
616.406	7065.73
616.762	7069.35
617.118	7096.01
617.475	7058.5
617.831	7100.08
618.187	7086.07
618.543	7057.6
618.899	7130.59
619.255	7097.37
619.611	7085.39
619.967	7127.2
620.323	7160.87
620.678	7082.46
621.034	7090.14
621.39	7063.47
621.746	7052.63
622.101	7185.96
622.457	7095.34
622.812	7032.51
623.168	7117.26
623.523	7141.89
623.879	7145.73
624.234	7077.26
624.589	7064.83
624.945	7071.38
625.3	7099.86
625.655	7089.46
626.01	7086.75
626.365	7098.5
626.72	7102.34
627.075	7068.67
627.43	7114.09
627.785	6987.99
628.14	7078.84
628.495	7086.97
628.85	7056.47
629.205	7041.33
629.559	7073.64
629.914	7055.56
630.269	7072.96
630.623	7094.66
630.978	7032.51
631.332	7041.1
631.687	7047.2
632.041	6975.79
632.396	7003.36
632.75	6981.21
633.104	7023.02
633.459	6978.5
633.813	6915.91
634.167	6957.03
634.521	6959.52
634.875	6988.67
635.229	6920.2
635.583	6894.21
635.937	6960.42
636.291	6929.92
636.645	6931.95
636.999	6890.6
637.352	6907.54
637.706	6820.54
638.06	6894.66
638.413	6891.27
638.767	6830.94
639.121	6867.77
639.474	6834.1
639.828	6807.66
640.181	6815.34
640.534	6853.08
640.888	6756.59
641.241	6770.37
641.594	6824.38
641.947	6818.73
642.301	6790.71
642.654	6801.11
643.007	6772.41
643.36	6771.95
643.713	6744.38
644.066	6791.39
644.419	6737.15
644.771	6706.87
645.124	6665.74
645.477	6624.16
645.83	6593.2
646.182	6646.99
646.535	6601.34
646.888	6608.34
647.24	6578.51
647.593	6639.08
647.945	6557.95
648.298	6568.34
648.65	6520.44
649.002	6520.21
649.355	6556.37
649.707	6548.68
650.059	6632.07
650.411	6681.56
650.763	6682.47
651.115	6739.41
651.467	6746.19
651.819	6701.22
652.171	6721.11
652.523	6705.29
652.875	6656.03
653.227	6683.14
653.578	6666.19
653.93	6743.03
654.282	6729.47
654.633	6691.05
654.985	6625.97
655.337	6739.87
655.688	6716.81
656.039	6780.99
656.391	6734.89
656.742	6698.28
657.094	6696.02
657.445	6740.32
657.796	6771.05
658.147	6702.58
658.498	6739.64
658.849	6729.02
659.2	6753.65
659.551	6772.41
659.902	6775.12
660.253	6781.45
660.604	6825.06
660.955	6731.96
661.306	6805.4
661.656	6752.52
662.007	6802.24
662.358	6777.6
662.708	6762.24
663.059	6854.44
663.409	6757.27
663.76	6815.57
664.11	6838.17
664.461	6891.95
664.811	6854.89
665.161	6812.86
665.511	6815.57
665.862	6820.77
666.212	6892.63
666.562	6868
666.912	6885.17
667.262	6863.25
667.612	6825.06
667.962	6863.25
668.312	6843.37
668.662	6801.33
669.011	6872.07
669.361	6842.46
669.711	6785.97
670.06	6828
670.41	6813.99
670.76	6784.16
671.109	6808.79
671.459	6785.74
671.808	6787.1
672.157	6809.24
672.507	6748.23
672.856	6770.82
673.205	6821.44
673.554	6808.11
673.904	6731.28
674.253	6775.34
674.602	6806.3
674.951	6638.85
675.3	6644.73
675.649	6705.97
675.998	6761.33
676.346	6731.73
676.695	6751.62
677.044	6719.3
677.393	6744.16
677.741	6655.35
678.09	6684.5
678.438	6668.68
678.787	6678.85
679.135	6681.11
679.484	6660.77
679.832	6635.69
680.181	6603.6
680.529	6648.34
680.877	6626.2
681.225	6609.7
681.573	6626.42
681.922	6553.88
682.27	6522.24
682.618	6583.03
682.966	6549.81
683.314	6555.24
683.661	6491.96
684.009	6517.5
684.357	6411.96
684.705	6435.47
685.053	6446.99
685.4	6510.04
685.748	6395.69
686.095	6418.74
686.443	6406.54
686.79	6329.48
687.138	6401.34
687.485	6381.91
687.832	6346.2
688.18	6377.39
688.527	6341.46
688.874	6302.81
689.221	6267.11
689.568	6270.05
689.915	6239.99
690.262	6227.56
690.609	6244.74
690.956	6190.05
691.303	6172.2
691.65	6101.24
691.997	6105.53
692.344	6053.1
692.69	6049.04
693.037	6048.58
693.383	6006.1
693.73	6035.25
694.077	5960
694.423	5990.05
694.769	5995.03
695.116	5960.22
695.462	5919.77
695.808	5880
696.155	5924.97
696.501	5837.06
696.847	5859.66
697.193	5807.69
697.539	5763.85
697.885	5725.2
698.231	5723.62
698.577	5675.94
698.923	5728.82
699.269	5682.72
699.614	5588.93
699.96	5613.12
700.306	5595.49
700.651	5624.19
700.997	5532.89
701.342	5498.32
701.688	5543.29
702.033	5506.9
702.379	5503.51
702.724	5458.09
703.069	5445.44
703.415	5424.65
703.76	5373.35
704.105	5397.75
704.45	5393.23
704.795	5345.1
705.14	5308.72
705.485	5310.3
705.83	5256.74
706.175	5256.97
706.52	5221.49
706.865	5272.33
707.209	5215.84
707.554	5233.24
707.899	5200.24
708.243	5178.1
708.588	5171.54
708.932	5130.19
709.277	5125.67
709.621	5083.41
709.966	5095.16
710.31	5098.33
710.654	5028.95
710.998	5087.03
711.342	5090.64
711.687	5035.96
712.031	5033.7
712.375	5010.19
712.719	4975.17
713.063	5039.12
713.407	5019.23
713.75	4957.77
714.094	4997.54
714.438	4955.51
714.782	4951.21
715.125	4911.44
715.469	4983.53
715.812	4929.29
716.156	4887.26
716.499	4902.85
716.843	4906.92
717.186	4901.95
717.53	4889.52
717.873	4910.31
718.216	4927.48
718.559	4891.55
718.902	4850.42
719.246	4882.29
719.589	4762.74
719.932	4808.84
720.275	4818.56
720.617	4755.06
720.96	4840.93
721.303	4815.85
721.646	4830.08
721.989	4801.61
722.331	4793.25
722.674	4828.05
723.016	4827.83
723.359	4781.05
723.701	4808.16
724.044	4767.49
724.386	4764.78
724.729	4773.82
725.071	4751.22
725.413	4751.67
725.755	4741.27
726.097	4749.86
726.439	4722.29
726.782	4744.21
727.124	4746.92
727.465	4761.39
727.807	4727.49
728.149	4724.78
728.491	4730.65
728.833	4721.16
729.175	4721.61
729.516	4731.56
729.858	4767.26
730.199	4772.01
730.541	4773.14
730.882	4707.6
731.224	4760.48
731.565	4712.35
731.906	4753.25
732.248	4792.57
732.589	4747.38
732.93	4755.06
733.271	4699.47
733.612	4776.75
733.953	4765
734.294	4741.27
734.635	4800.48
734.976	4783.31
735.317	4743.31
735.658	4796.19
735.999	4781.27
736.339	4793.02
736.68	4782.18
737.021	4786.24
737.361	4816.53
737.702	4834.38
738.042	4821.5
738.383	4843.19
738.723	4851.55
739.063	4825.79
739.404	4928.16
739.744	4879.35
740.084	4889.97
740.424	4937.65
740.764	4899.69
741.104	4934.49
741.444	4918.67
741.784	4938.78
742.124	4971.78
742.464	5007.48
742.804	5023.75
743.143	5051.77
743.483	5073.47
743.823	5102.62
744.162	5113.47
744.502	5198.89
744.841	5182.62
745.181	5211.77
745.52	5205.67
745.86	5221.04
746.199	5326.79
746.538	5318.43
746.877	5431.2
747.216	5430.07
747.556	5451.09
747.895	5481.82
748.234	5499.45
748.573	5602.27
748.911	5647.24
749.25	5659.67
749.589	5739.67
749.928	5835.48
750.267	5890.85
750.605	5937.85
750.944	6059.43
751.283	6138.3
751.621	6163.16
751.96	6233.66
752.298	6404.28
752.636	6461.45
752.975	6526.76
753.313	6663.26
753.651	6782.35
753.989	6829.35
754.327	6928.11
754.666	7022.34
755.004	7164.71
755.342	7289.23
755.679	7449.9
756.017	7492.84
756.355	7758.37
756.693	7843.11
757.031	7995.65
757.368	8140.05
757.706	8270.22
758.044	8463.66
758.381	8633.15
758.719	8758.34
759.056	8926.93
759.394	9058
759.731	9232
760.068	9441.04
760.405	9544.76
760.743	9688.71
761.08	9972.1
761.417	10099.32
761.754	10212.99
762.091	10462.48
762.428	10590.39
762.765	10811.4
763.102	10982.69
763.438	11051.39
763.775	11355.11
764.112	11508.33
764.449	11697.47
764.785	11879.17
765.122	11967.98
765.458	12172.49
765.795	12344.46
766.131	12480.51
766.467	12695.19
766.804	12867.39
767.14	12951.45
767.476	13185.35
767.812	13183.31
768.148	13413.14
768.485	13512.79
768.821	13676.41
769.157	13788.95
769.492	14023.06
769.828	14187.8
770.164	14175.38
770.5	14322.72
770.836	14433.45
771.171	14551.86
771.507	14727.23
771.842	14743.72
772.178	14899.65
772.513	15023.72
772.849	15107.33
773.184	15197.5
773.519	15310.26
773.855	15363.82
774.19	15404.27
774.525	15516.81
774.86	15667.54
775.195	15685.84
775.53	15769.23
775.865	15743.02
776.2	15852.62
776.535	15832.51
776.87	15910.92
777.205	16028.66
777.539	16098.49
777.874	16030.69
778.209	16063.91
778.543	16166.28
778.878	16091.26
779.212	16340.06
779.547	16246.96
779.881	16317.69
780.215	16278.6
780.55	16457.35
780.884	16381.87
781.218	16361.76
781.552	16551.13
781.886	16498.03
782.22	16408.54
782.554	16388.2
782.888	16385.26
783.222	16335.77
783.556	16341.19
783.889	16381.87
784.223	16349.1
784.557	16279.5
784.89	16554.75
785.224	16439.72
785.557	16319.05
785.891	16369.67
786.224	16347.07
786.558	16385.04
786.891	16363.11
787.224	16376
787.557	16352.95
787.891	16404.7
788.224	16317.69
788.557	16298.71
788.89	16345.04
789.223	16367.41
789.556	16270.46
789.888	16287.64
790.221	16291.7
790.554	16145.04
790.887	16171.71
791.219	16080.18
791.552	16105.95
791.884	16089.22
792.217	16155.21
792.549	15935.1
792.882	16031.37
793.214	16020.07
793.546	15963.35
793.879	15942.56
794.211	15756.13
794.543	15909.12
794.875	15970.13
795.207	15957.02
795.539	15891.94
795.871	15866.63
796.203	15757.71
796.535	15699.4
796.867	15777.37
797.198	15700.31
797.53	15622.34
797.862	15610.14
798.193	15575.34
798.525	15529.01
798.856	15568.56
799.188	15399.52
799.519	15327.44
799.85	15341.45
800.182	15302.58
800.513	15388.45
800.844	15216.03
801.175	15406.76
801.506	15255.57
801.837	15221.22
802.168	15125.41
802.499	15130.6
802.83	15114.56
803.161	15128.12
803.491	15141.23
803.822	15124.05
804.153	14985.98
804.483	14845.64
804.814	14924.96
805.145	14880.44
805.475	14836.38
805.805	14762.71
806.136	14764.29
806.466	14762.03
806.796	14834.34
807.126	14703.5
807.457	14616.72
807.787	14597.96
808.117	14535.82
808.447	14534.91
808.777	14554.12
809.107	14465.31
809.436	14459.44
809.766	14437.74
810.096	14341.25
810.426	14277.52
810.755	14258.31
811.085	14329.5
811.414	14388.48
811.744	14185.77
812.073	14141.25
812.403	14251.53
812.732	14180.57
813.061	14107.58
813.39	14087.24
813.719	14033.68
814.049	14149.84
814.378	14073.91
814.707	14048.15
815.036	13981.48
815.365	13982.39
815.693	13836.85
816.022	13839.57
816.351	13801.15
816.68	13815.61
817.008	13793.69
817.337	13674.37
817.665	13637.31
817.994	13688.61
818.322	13761.38
818.651	13674.82
818.979	13564.09
819.307	13676.18
819.636	13606.8
819.964	13538.78
820.292	13587.59
820.62	13559.57
820.948	13567.93
821.276	13663.07
821.604	13532
821.932	13616.29
822.259	13587.14
822.587	13550.08
822.915	13532
823.243	13543.53
823.57	13562.96
823.898	13576.97
824.225	13485.45
824.553	13484.55
824.88	13515.73
825.207	13634.6
825.535	13554.6
825.862	13674.15
826.189	13539.69
826.516	13695.16
826.843	13697.42
827.17	13610.87
827.497	13639.8
827.824	13650.87
828.151	13699.68
828.478	13656.07
828.805	13695.84
829.131	13550.76
829.458	13574.71
829.785	13528.16
830.111	13523.87
830.438	13669.4
830.764	13581.72
831.09	13606.13
831.417	13536.97
831.743	13593.92
832.069	13543.75
832.395	13560.7
832.722	13499.69
833.048	13552.79
833.374	13502.4
833.7	13541.72
834.026	13491.78
834.351	13585.33
834.677	13452.46
835.003	13553.92
835.329	13488.16
835.654	13499.69
835.98	13418.56
836.306	13475.51
836.631	13398.45
836.956	13377.2
837.282	13423.08
837.607	13315.96
837.932	13372.01
838.258	13328.39
838.583	13327.04
838.908	13241.16
839.233	13249.75
839.558	13291.11
839.883	13250.43
840.208	13161.17
840.533	13212.24
840.858	13113.26
841.182	13220.37
841.507	13125.69
841.832	13107.61
842.156	13084.56
842.481	13016.99
842.805	12988.29
843.13	13036.2
843.454	13005.69
843.778	12921.17
844.103	12840.5
844.427	12803.21
844.751	12859.93
845.075	12737.9
845.399	12774.51
845.723	12670.1
846.047	12770.89
846.371	12570.45
846.695	12615.42
847.019	12520.96
847.343	12442.09
847.666	12438.7
847.99	12340.17
848.313	12329.1
848.637	12247.97
848.96	12196.44
849.284	12261.53
849.607	12152.6
849.931	12113.06
850.254	12003.68
850.577	11992.83
850.9	11873.29
851.223	11855.44
851.546	11830.13
851.869	11763.46
852.192	11768.21
852.515	11650.47
852.838	11675.55
853.161	11635.78
853.483	11563.24
853.806	11553.52
854.129	11462.68
854.451	11460.42
854.774	11439.18
855.096	11493.86
855.419	11335.68
855.741	11381.78
856.063	11305.85
856.385	11295.68
856.708	11264.27
857.03	11197.6
857.352	11218.39
857.674	11140.2
857.996	11143.82
858.318	11033.76
858.64	11081.22
858.961	11023.37
859.283	11013.88
859.605	10878.06
859.926	10943.6
860.248	10965.97
860.57	10908.12
860.891	10890.94
861.212	10770.27
861.534	10681.46
861.855	10773.88
862.176	10826.76
862.498	10725.07
862.819	10686.2
863.14	10644.17
863.461	10605.98
863.782	10662.25
864.103	10597.39
864.424	10569.59
864.745	10598.29
865.065	10577.73
865.386	10554
865.707	10580.22
866.027	10532.76
866.348	10501.35
866.668	10485.3
866.989	10451.86
867.309	10432.65
867.63	10394.46
867.95	10435.59
868.27	10284.86
868.59	10378.19
868.91	10393.33
869.23	10353.56
869.55	10279.66
869.87	10324.63
870.19	10247.8
870.51	10309.94
870.83	10330.05
871.15	10226.78
871.469	10211.41
871.789	10222.71
872.109	10206.44
872.428	10108.82
872.748	10158.31
873.067	10159.44
873.386	10090.74
873.706	10105.43
874.025	10038.08
874.344	10013.23
874.663	10014.58
874.982	10051.64
875.301	10054.35
875.62	9992.89
875.939	10043.73
876.258	10051.19
876.577	10000.12
876.896	9955.83
877.214	9957.18
877.533	9905.66
877.852	9861.37
878.17	9856.62
878.489	9906.56
878.807	9907.69
879.125	9799.9
879.444	9817.07
879.762	9825.89
880.08	9816.17
880.398	9746.57
880.716	9790.86
881.034	9716.51
881.352	9702.5
881.67	9749.73
881.988	9606.91
882.306	9648.04
882.624	9546.8
882.941	9587.25
883.259	9521.94
883.577	9579.79
883.894	9524.42
884.212	9476.29
884.529	9549.06
884.846	9488.95
885.164	9545.67
885.481	9411.66
885.798	9429.51
886.115	9273.58
886.432	9257.99
886.75	9366.91
887.067	9333.92
887.383	9270.19
887.7	9358.55
888.017	9277.2
888.334	9203.08
888.651	9279.23
888.967	9190.87
889.284	9237.43
889.6	9142.29
889.917	9065.68
890.233	9036.08
890.55	9022.97
890.866	9090.31
891.182	8971.9
891.498	8940.71
891.815	8918.34
892.131	8939.13
892.447	8907.72
892.763	8855.06
893.079	8822.75
893.395	8844.89
893.71	8756.99
894.026	8798.57
894.342	8750.43
894.657	8738.46
894.973	8718.12
895.289	8653.04
895.604	8659.81
895.92	8586.82
896.235	8508.18
896.55	8576.88
896.865	8544.34
897.181	8499.37
897.496	8471.57
897.811	8470.44
898.126	8416.88
898.441	8391.12
898.756	8315.87
899.071	8321.29
899.386	8354.06
899.7	8238.36
900.015	8239.49
900.33	8144.8
900.644	8141.18
900.959	8130.11
901.273	8068.87
901.588	8020.06
901.902	8022.32
902.216	7958.36
902.531	7984.8
902.845	7871.59
903.159	7913.17
903.473	7931.25
903.787	7851.02
904.101	7806.96
904.415	7793.62
904.729	7805.15
905.042	7699.84
905.356	7740.29
905.67	7684.7
905.984	7664.59
906.297	7605.15
906.611	7519.51
906.924	7553.63
907.237	7526.06
907.551	7500.3
907.864	7445.16
908.177	7372.84
908.491	7407.19
908.804	7404.71
909.117	7278.16
909.43	7317.25
909.743	7262.34
910.056	7236.8
910.368	7157.93
910.681	7166.52
910.994	7148.22
911.307	7192.73
911.619	7078.39
911.932	7117.48
912.244	7037.03
912.557	7043.59
912.869	6965.17
913.181	6940.31
913.494	6851.5
913.806	6888.56
914.118	6877.49
914.43	6761.11
914.742	6806.98
915.054	6745.97
915.366	6758.62
915.678	6711.84
915.99	6688.34
916.302	6653.31
916.613	6655.57
916.925	6621.45
917.236	6606.99
917.548	6538.06
917.859	6543.94
918.171	6534.9
918.482	6499.65
918.794	6437.27
919.105	6463.26
919.416	6394.79
919.727	6378.97
920.038	6390.72
920.349	6298.07
920.66	6301.46
920.971	6314.34
921.282	6319.31
921.593	6201.57
921.903	6238.86
922.214	6183.95
922.525	6192.08
922.835	6174
923.146	6126.77
923.456	6132.42
923.767	6124.51
924.077	6062.82
924.387	6007.46
924.697	6034.35
925.008	5990.51
925.318	5954.12
925.628	5974.46
925.938	5937.63
926.248	5821.25
926.558	5855.59
926.867	5838.65
927.177	5800
927.487	5817.86
927.796	5730.4
928.106	5684.75
928.416	5705.54
928.725	5696.5
929.034	5655.6
929.344	5621.02
929.653	5614.92
929.962	5593.23
930.271	5587.58
930.581	5545.32
930.89	5493.8
931.199	5502.84
931.508	5508.71
931.817	5480.46
932.125	5446.57
932.434	5449.05
932.743	5344.87
933.051	5417.64
933.36	5325.44
933.669	5368.83
933.977	5266.68
934.286	5294.48
934.594	5304.42
934.902	5244.09
935.21	5196.85
935.519	5158.21
935.827	5138.1
936.135	5125.22
936.443	5114.6
936.751	5103.07
937.059	5129.74
937.367	5076.41
937.674	5036.63
937.982	5022.4
938.29	5002.28
938.597	5041.83
938.905	4957.31
939.213	4890.2
939.52	4912.34
939.827	4892.91
940.135	4877.32
940.442	4868.95
940.749	4858.56
941.056	4867.37
941.363	4743.99
941.67	4770.43
941.977	4743.76
942.284	4715.06
942.591	4743.08
942.898	4677.09
943.205	4685.68
943.511	4592.58
943.818	4646.13
944.125	4647.26
944.431	4589.64
944.738	4607.04
945.044	4539.92
945.35	4511.22
945.657	4491.11
945.963	4461.73
946.269	4449.3
946.575	4489.08
946.881	4489.08
947.187	4382.19
947.493	4360.94
947.799	4373.6
948.105	4394.62
948.41	4322.08
948.716	4341.74
949.022	4296.77
949.327	4269.42
949.633	4216.99
949.938	4244.79
950.244	4247.05
950.549	4235.52
950.854	4215.41
951.16	4212.47
951.465	4165.47
951.77	4160.5
952.075	4159.14
952.38	4100.84
952.685	4135.41
952.99	4040.05
953.294	4068.75
953.599	4084.12
953.904	4054.29
954.209	4009.54
954.513	3953.05
954.818	3962.99
955.122	3929.77
955.426	3925.93
955.731	3944.01
956.035	3953.5
956.339	3909.43
956.643	3908.08
956.948	3834.63
957.252	3831.24
957.556	3850.22
957.86	3817.91
958.163	3803.67
958.467	3768.19
958.771	3819.04
959.075	3762.99
959.378	3761.41
959.682	3725.71
959.985	3715.09
960.289	3697.69
960.592	3654.75
960.896	3662.21
961.199	3665.82
961.502	3622.88
961.805	3617.69
962.108	3621.98
962.411	3561.42
962.714	3556.22
963.017	3557.58
963.32	3534.98
963.623	3508.09
963.926	3527.07
964.228	3508.09
964.531	3422.21
964.833	3456.11
965.136	3424.7
965.438	3418.82
965.741	3448.88
966.043	3308.32
966.345	3340.18
966.648	3391.48
966.95	3340.86
967.252	3347.19
967.554	3361.65
967.856	3324.81
968.158	3243.91
968.46	3284.14
968.761	3244.59
969.063	3189.45
969.365	3242.33
969.666	3216.34
969.968	3200.98
970.269	3196.91
970.571	3193.74
970.872	3183.8
971.174	3119.85
971.475	3139.28
971.776	3110.58
972.077	3119.62
972.378	3100.86
972.679	3055.44
972.98	3050.7
973.281	3000.08
973.582	3057.48
973.883	3021.09
974.183	3067.42
974.484	3008.89
974.785	2998.04
975.085	2980.87
975.386	2962.79
975.686	2983.13
975.986	2899.06
976.287	2936.58
976.587	2935.67
976.887	2885.5
977.187	2942.22
977.487	2903.36
977.787	2847.54
978.087	2844.37
978.387	2851.38
978.687	2834.88
978.987	2828.33
979.286	2780.87
979.586	2790.59
979.885	2753.3
980.185	2746.3
980.484	2756.69
980.784	2763.7
981.083	2763.02
981.382	2736.13
981.682	2712.4
981.981	2704.04
982.28	2669.24
982.579	2673.76
982.878	2674.21
983.177	2652.52
983.475	2614.1
983.774	2595.34
984.073	2610.71
984.372	2596.47
984.67	2607.09
984.969	2560.77
985.267	2584.72
985.566	2586.75
985.864	2522.8
986.162	2568
986.461	2552.18
986.759	2473.31
987.057	2478.51
987.355	2459.07
987.653	2459.53
987.951	2477.83
988.249	2458.85
988.547	2459.3
988.844	2406.65
989.142	2424.5
989.44	2403.03
989.737	2352.86
990.035	2353.77
990.332	2365.74
990.63	2360.77
990.927	2329.36
991.224	2358.74
991.521	2342.24
991.819	2296.37
992.116	2309.02
992.413	2304.95
992.71	2267.44
993.006	2277.61
993.303	2270.83
993.6	2225.41
993.897	2243.94
994.193	2232.41
994.49	2245.07
994.787	2210.27
995.083	2216.59
995.379	2199.87
995.676	2156.71
995.972	2172.75
996.268	2167.56
996.565	2143.38
996.861	2137.5
997.157	2125.75
997.453	2113.77
997.749	2107.67
998.044	2119.65
998.34	2084.85
998.636	2066.32
998.932	2083.72
999.227	2013.89
999.523	2046.66
999.818	2048.46
1000.114	2013.89
1000.409	2053.43
1000.704	1976.83
1001	1987.9
1001.295	1982.02
1001.59	1997.17
1001.885	1946.09
1002.18	1929.14
1002.475	1955.13
1002.77	1933.66
1003.065	1902.03
1003.359	1894.57
1003.654	1918.75
1003.949	1881.24
1004.243	1889.6
1004.538	1884.85
1004.832	1907.22
1005.127	1841.46
1005.421	1820.67
1005.715	1805.98
1006.009	1810.28
1006.304	1803.27
1006.598	1812.31
1006.892	1790.16
1007.186	1780
1007.48	1741.58
1007.773	1744.06
1008.067	1748.58
1008.361	1733.9
1008.655	1723.73
1008.948	1701.13
1009.242	1743.39
1009.535	1706.55
1009.829	1670.85
1010.122	1669.94
1010.415	1658.64
1010.708	1649.6
1011.001	1651.41
1011.295	1637.63
1011.588	1639.89
1011.881	1584.97
1012.173	1625.2
1012.466	1602.6
1012.759	1593.79
1013.052	1581.36
1013.344	1566.67
1013.637	1591.98
1013.93	1570.28
1014.222	1559.66
1014.514	1553.56
1014.807	1557.4
1015.099	1522.15
1015.391	1518.53
1015.683	1493.68
1015.976	1523.05
1016.268	1524.86
1016.56	1462.26
1016.851	1484.18
1017.143	1451.19
1017.435	1442.15
1017.727	1459.1
1018.018	1440.12
1018.31	1404.64
1018.602	1408.03
1018.893	1430.63
1019.185	1399.89
1019.476	1412.77
1019.767	1396.28
1020.058	1352.21
1020.35	1386.33
1020.641	1337.07
1020.932	1345.43
1021.223	1346.11
1021.514	1311.53
1021.804	1333.91
1022.095	1325.54
1022.386	1311.53
1022.677	1296.62
1022.967	1305.43
1023.258	1273.57
1023.548	1288.48
1023.839	1265.21
1024.129	1248.94
1024.419	1235.38
1024.709	1204.42
1025	1209.84
1025.29	1218.88
1025.58	1213.23
1025.87	1205.55
1026.16	1186.79
1026.449	1178.43
1026.739	1218.65
1027.029	1190.86
1027.319	1167.81
1027.608	1152.44
1027.898	1159.45
1028.187	1123.74
1028.477	1139.11
1028.766	1126.23
1029.055	1141.82
1029.344	1116.06
1029.634	1114.48
1029.923	1113.57
1030.212	1095.95
1030.501	1102.05
1030.79	1070.86
1031.078	1109.28
1031.367	1064.99
1031.656	1103.4
1031.945	1045.55
1032.233	1036.06
1032.522	1039.9
1032.81	1052.11
1033.099	1009.62
1033.387	1024.99
1033.675	1022.5
1033.963	1010.75
1034.251	1005.78
1034.54	999
1034.828	996.29
1035.116	966.91
1035.403	948.61
1035.691	978.89
1035.979	973.46
1036.267	956.51
1036.554	963.75
1036.842	925.78
1037.129	936.63
1037.417	926.68
1037.704	923.75
1037.992	917.42
1038.279	905.22
1038.566	932.33
1038.853	932.33
1039.14	932.33
