Data from hue_90_FLMS001491_6.txt Node
Date: Mon Feb 06 15:24:36 GMT 2017
User: dcchb
Spectrometer: FLMS00149
Trigger mode: 0
Integration Time (sec): 2.000000E-2
Scans to average: 10
Electric dark correction enabled: true
Nonlinearity correction enabled: false
Boxcar width: 0
XAxis mode: Wavelengths
Number of Pixels in Spectrum: 2048
>>>>>Begin Spectral Data<<<<<
341.393	-1.58
341.776	-1.58
342.16	-1.58
342.543	-41.58
342.927	-40.22
343.31	-77.51
343.693	-78.19
344.077	-65.08
344.46	-66.21
344.843	-49.04
345.226	-48.81
345.61	-36.38
345.993	-7.46
346.376	11.98
346.759	7.91
347.142	16.72
347.525	27.12
347.908	47.46
348.291	88.36
348.674	106.89
349.057	122.26
349.44	141.69
349.823	143.05
350.206	176.94
350.588	184.63
350.971	221.24
351.354	232.76
351.737	227.79
352.119	250.39
352.502	258.52
352.884	269.82
353.267	294.46
353.65	301.91
354.032	308.24
354.414	320.9
354.797	319.77
355.179	334
355.562	319.31
355.944	329.71
356.326	350.05
356.709	317.05
357.091	341.91
357.473	335.13
357.855	339.43
358.238	355.24
358.62	354.34
359.002	331.29
359.384	334
359.766	352.76
360.148	322.48
360.53	320.67
360.912	336.71
361.294	348.01
361.676	346.88
362.057	335.36
362.439	319.54
362.821	337.39
363.203	333.78
363.584	346.21
363.966	328.8
364.348	325.42
364.729	308.92
365.111	316.83
365.493	327.67
365.874	343.95
366.256	328.8
366.637	312.99
367.019	335.13
367.4	310.95
367.781	299.65
368.163	316.15
368.544	304.4
368.925	333.78
369.306	318.86
369.688	312.99
370.069	339.43
370.45	296.04
370.831	328.58
371.212	316.38
371.593	299.88
371.974	321.35
372.355	304.17
372.736	322.93
373.117	324.29
373.498	308.92
373.879	312.76
374.26	324.29
374.641	338.3
375.021	325.64
375.402	334.23
375.783	318.86
376.163	334.68
376.544	327.68
376.925	345.98
377.305	336.94
377.686	320.9
378.066	344.85
378.447	318.86
378.827	339.2
379.208	330.61
379.588	314.57
379.968	337.39
380.349	350.27
380.729	336.26
381.109	333.1
381.489	337.39
381.87	344.17
382.25	358.18
382.63	340.78
383.01	343.04
383.39	361.35
383.77	365.19
384.15	357.96
384.53	345.75
384.91	364.51
385.29	356.15
385.67	366.09
386.049	358.41
386.429	346.88
386.809	370.16
387.189	372.19
387.568	356.83
387.948	347.79
388.328	366.54
388.707	375.81
389.087	357.96
389.466	368.13
389.846	367.22
390.225	379.88
390.605	374.91
390.984	377.62
391.363	365.87
391.743	372.87
392.122	372.42
392.501	376.49
392.881	393.89
393.26	364.96
393.639	377.39
394.018	388.24
394.397	389.82
394.776	378.52
395.155	374.68
395.534	396.15
395.913	400.89
396.292	368.58
396.671	379.43
397.05	381.46
397.429	397.05
397.808	399.76
398.186	396.37
398.565	388.46
398.944	409.48
399.323	398.18
399.701	396.83
400.08	387.11
400.458	412.42
400.837	425.98
401.215	425.98
401.594	395.24
401.972	401.8
402.351	412.87
402.729	414.45
403.107	410.16
403.486	410.84
403.864	418.07
404.242	433.66
404.62	447.67
404.999	438.41
405.377	431.18
405.755	428.92
406.133	414.9
406.511	419.88
406.889	428.92
407.267	460.78
407.645	446.99
408.023	457.16
408.401	433.21
408.779	437.73
409.156	437.28
409.534	459.2
409.912	467.78
410.29	458.07
410.667	460.55
411.045	455.81
411.422	459.42
411.8	440.89
412.178	464.62
412.555	473.21
412.933	487.9
413.31	460.1
413.687	470.27
414.065	476.6
414.442	490.83
414.819	476.82
415.197	489.93
415.574	499.2
415.951	507.11
416.328	505.07
416.705	500.78
417.082	513.66
417.46	521.12
417.837	519.08
418.214	506.43
418.591	513.88
418.967	502.13
419.344	535.35
419.721	526.99
420.098	516.82
420.475	519.53
420.852	556.6
421.228	548.69
421.605	534.68
421.982	553.43
422.358	556.82
422.735	559.53
423.111	537.61
423.488	567.89
423.864	550.27
424.241	562.25
424.617	567.44
424.994	568.8
425.37	577.39
425.746	569.25
426.123	572.41
426.499	570.38
426.875	582.58
427.251	587.33
427.627	585.3
428.003	582.58
428.379	628.01
428.756	588.91
429.132	624.84
429.507	615.35
429.883	625.29
430.259	616.93
430.635	629.14
431.011	633.2
431.387	639.53
431.763	644.73
432.138	656.48
432.514	676.37
432.89	670.72
433.265	674.78
433.641	668.23
434.016	693.77
434.392	691.06
434.767	682.24
435.143	670.94
435.518	700.55
435.894	708.23
436.269	696.93
436.644	722.24
437.02	718.17
437.395	734.22
437.77	721.34
438.145	760.88
438.52	728.79
438.895	756.36
439.271	748.68
439.646	762.01
440.021	746.42
440.395	809.7
440.77	780.32
441.145	788.45
441.52	790.26
441.895	781.45
442.27	802.69
442.645	797.72
443.019	810.83
443.394	797.49
443.769	841.11
444.143	803.82
444.518	828.23
444.892	815.8
445.267	835.23
445.641	822.8
446.016	852.86
446.39	834.55
446.764	844.72
447.139	835.91
447.513	851.05
447.887	845.4
448.262	891.28
448.636	861.45
449.01	873.42
449.384	882.24
449.758	883.59
450.132	893.76
450.506	894.67
450.88	907.32
451.254	914.33
451.628	915
452.002	943.25
452.376	974.21
452.75	957.71
453.123	954.1
453.497	973.76
453.871	951.39
454.244	992.97
454.618	1021.67
454.992	1003.59
455.365	1004.04
455.739	1038.84
456.112	1046.53
456.486	1056.02
456.859	1054.44
457.232	1065.28
457.606	1056.7
457.979	1079.29
458.352	1066.64
458.725	1119.29
459.099	1127.43
459.472	1134.66
459.845	1164.72
460.218	1149.57
460.591	1172.17
460.964	1145.96
461.337	1195.45
461.71	1212.62
462.083	1240.19
462.456	1195.9
462.829	1225.73
463.201	1268.44
463.574	1285.16
463.947	1282.68
464.32	1345.5
464.692	1311.15
465.065	1334.43
465.438	1392.28
465.81	1357.03
466.183	1397.03
466.555	1428.66
466.928	1430.7
467.3	1434.76
467.672	1486.29
468.045	1503.01
468.417	1515.44
468.789	1532.16
469.161	1519.73
469.534	1601.09
469.906	1594.76
470.278	1625.49
470.65	1649.67
471.022	1692.61
471.394	1712.72
471.766	1735.32
472.138	1756.79
472.51	1848.31
472.882	1860.97
473.253	1884.92
473.625	1904.81
473.997	1959.5
474.369	1955.88
474.74	1989.78
475.112	2080.4
475.484	2115.42
475.855	2180.96
476.227	2239.04
476.598	2227.51
476.97	2281.75
477.341	2345.7
477.713	2462.53
478.084	2480.61
478.455	2575.75
478.827	2589.54
479.198	2696.2
479.569	2736.65
479.94	2788.85
480.311	2886.25
480.682	2926.02
481.053	3030.88
481.424	3138.67
481.795	3136.19
482.166	3261.38
482.537	3341.83
482.908	3432.23
483.279	3485.78
483.65	3584.54
484.021	3706.57
484.391	3768.94
484.762	3871.08
485.133	3875.6
485.503	4067.24
485.874	4138.65
486.244	4218.19
486.615	4365.99
486.985	4464.97
487.356	4562.14
487.726	4669.71
488.097	4773.21
488.467	4859.31
488.837	5058.85
489.207	5134.55
489.578	5274.66
489.948	5368.9
490.318	5478.27
490.688	5557.59
491.058	5681.21
491.428	5799.4
491.798	5901.31
492.168	6065.83
492.538	6179.95
492.908	6290.91
493.278	6401.64
493.648	6476.21
494.017	6638.02
494.387	6718.02
494.757	6858.12
495.126	7000.95
495.496	7022.64
495.866	7122.98
496.235	7268.51
496.605	7350.54
496.974	7419.47
497.344	7532.68
497.713	7629.63
498.082	7714.15
498.452	7939
498.821	7983.07
499.19	8070.3
499.559	8185.77
499.928	8301.02
500.298	8353.68
500.667	8500.57
501.036	8508.7
501.405	8654.24
501.774	8637.29
502.143	8796.15
502.512	8893.78
502.88	8911.86
503.249	9060.55
503.618	9081.8
503.987	9133.32
504.356	9257.61
504.724	9369.02
505.093	9469.58
505.462	9450.82
505.83	9609.01
506.199	9603.82
506.567	9781.44
506.936	9783.7
507.304	9870.93
507.672	9923.81
508.041	9952.05
508.409	10123.12
508.777	10067.76
509.145	10207.42
509.514	10183.69
509.882	10262.56
510.25	10324.7
510.618	10360.41
510.986	10421.19
511.354	10571.47
511.722	10648.31
512.09	10644.24
512.458	10567.41
512.826	10750.68
513.193	10726.05
513.561	10723.11
513.929	10792.94
514.297	10920.84
514.664	11007.39
515.032	11088.75
515.4	11043.78
515.767	11103.44
516.135	11062.08
516.502	11020.28
516.869	11255.52
517.237	11148.63
517.604	11146.37
517.972	11356.99
518.339	11294.84
518.706	11331.23
519.073	11300.49
519.44	11371.45
519.808	11470.88
520.175	11419.13
520.542	11525.57
520.909	11592.24
521.276	11558.57
521.643	11635.63
522.009	11645.57
522.376	11703.2
522.743	11740.71
523.11	11811.44
523.477	11787.71
523.843	11891.44
524.21	11979.8
524.577	11981.15
524.943	12027.48
525.31	11966.92
525.676	11959.01
526.043	11997.65
526.409	12081.26
526.776	12192.67
527.142	12160.58
527.508	12212.33
527.874	12224.31
528.241	12262.95
528.607	12257.76
528.973	12281.94
529.339	12262.05
529.705	12306.34
530.071	12318.77
530.437	12287.13
530.803	12357.87
531.169	12359.45
531.535	12227.93
531.901	12305.44
532.267	12276.51
532.632	12354.48
532.998	12346.34
533.364	12292.78
533.73	12340.92
534.095	12399.22
534.461	12299.79
534.826	12357.19
535.192	12310.41
535.557	12374.82
535.923	12306.12
536.288	12277.87
536.653	12264.31
537.019	12224.09
537.384	12192.67
537.749	12230.86
538.114	12174.37
538.479	12202.84
538.845	12136.63
539.21	12147.48
539.575	12048.5
539.94	12055.28
540.305	12188.38
540.67	12127.14
541.034	12108.38
541.399	11953.13
541.764	12001.49
542.129	12020.47
542.494	11931.21
542.858	12004.66
543.223	11957.43
543.587	11911.1
543.952	11894.83
544.316	11912.46
544.681	11795.17
545.045	11908.61
545.41	11823.19
545.774	11856.41
546.138	11772.8
546.503	11699.81
546.867	11741.84
547.231	11647.38
547.595	11659.58
547.959	11724.89
548.324	11587.72
548.688	11633.59
549.052	11575.06
549.416	11542.07
549.779	11492.58
550.143	11523.54
550.507	11548.4
550.871	11539.58
551.235	11410.55
551.599	11593.14
551.962	11441.51
552.326	11424.11
552.689	11456.2
553.053	11376.65
553.417	11413.26
553.78	11467.5
554.143	11311.12
554.507	11343.43
554.87	11332.36
555.234	11363.09
555.597	11336.65
555.96	11276.31
556.323	11286.03
556.686	11334.62
557.05	11305.69
557.413	11356.99
557.776	11301.4
558.139	11339.81
558.502	11313.15
558.865	11223.66
559.228	11327.16
559.59	11224.11
559.953	11286.48
560.316	11360.61
560.679	11292.81
561.041	11298.01
561.404	11286.93
561.767	11338.46
562.129	11265.24
562.492	11412.81
562.854	11384.11
563.217	11361.96
563.579	11416.2
563.941	11373.71
564.304	11444.44
564.666	11452.13
565.028	11384.11
565.39	11504.33
565.753	11494.61
566.115	11476.08
566.477	11487.16
566.839	11453.71
567.201	11557.66
567.563	11585.68
567.925	11566.25
568.287	11545.46
568.648	11493.03
569.01	11524.44
569.372	11582.07
569.734	11571.67
570.095	11673.59
570.457	11678.56
570.819	11654.38
571.18	11605.12
571.542	11678.56
571.903	11708.17
572.265	11643.76
572.626	11719.24
572.987	11719.01
573.349	11741.39
573.71	11739.8
574.071	11759.46
574.432	11797.66
574.794	11869.74
575.155	11866.58
575.516	11816.19
575.877	11902.96
576.238	11819.35
576.599	11839.69
576.96	11848.05
577.32	11875.85
577.681	11874.49
578.042	11808.96
578.403	11887.37
578.763	11857.77
579.124	11914.04
579.485	11907.48
579.845	11980.25
580.206	11824.55
580.566	11916.52
580.927	11915.17
581.287	11928.27
581.648	11853.02
582.008	11851.21
582.368	11941.61
582.728	11871.55
583.089	11808.05
583.449	11850.99
583.809	11850.31
584.169	11846.69
584.529	11880.37
584.889	11892.79
585.249	11828.84
585.609	11819.35
585.969	11920.36
586.329	11844.89
586.688	11836.07
587.048	11778.9
587.408	11799.69
587.768	11775.51
588.127	11785.45
588.487	11828.84
588.846	11868.61
589.206	11654.61
589.565	11829.97
589.925	11810.54
590.284	11671.33
590.643	11741.16
591.003	11787.03
591.362	11825.45
591.721	11790.88
592.08	11667.26
592.44	11783.19
592.799	11736.19
593.158	11740.03
593.517	11644.89
593.876	11756.53
594.235	11699.81
594.593	11647.6
594.952	11721.27
595.311	11572.58
595.67	11680.6
596.029	11786.58
596.387	11699.35
596.746	11798.11
597.104	11750.88
597.463	11609.41
597.822	11707.04
598.18	11639.47
598.538	11601.28
598.897	11720.37
599.255	11613.25
599.613	11741.61
599.972	11680.6
600.33	11636.98
600.688	11672.46
601.046	11718.11
601.404	11696.87
601.762	11718.56
602.12	11747.04
602.478	11691.9
602.836	11674.72
603.194	11667.26
603.552	11643.54
603.91	11666.81
604.268	11649.64
604.625	11601.95
604.983	11626.36
605.341	11651.67
605.698	11749.07
606.056	11690.31
606.413	11690.99
606.771	11794.27
607.128	11799.92
607.485	11745
607.843	11644.44
608.2	11748.17
608.557	11790.88
608.914	11708.17
609.272	11780.26
609.629	11867.71
609.986	11865.9
610.343	11843.3
610.7	11871.33
611.057	11788.39
611.414	11938.22
611.771	11818.22
612.127	11844.21
612.484	11823.42
612.841	11908.61
613.198	11857.09
613.554	11786.13
613.911	11917.65
614.267	11871.78
614.624	11855.06
614.98	11913.59
615.337	11980.02
615.693	11965.56
616.05	11964.21
616.406	11948.84
616.762	11862.74
617.118	11957.65
617.475	11882.17
617.831	11902.96
618.187	11914.94
618.543	12025.9
618.899	12033.81
619.255	12004.66
619.611	11976.41
619.967	12054.6
620.323	12099.57
620.678	12034.49
621.034	11945.22
621.39	12014.37
621.746	11974.83
622.101	12136.4
622.457	12003.07
622.812	12040.36
623.168	12008.95
623.523	12063.19
623.879	12144.77
624.234	12035.84
624.589	12047.82
624.945	12078.1
625.3	12119.68
625.655	12010.53
626.01	12042.85
626.365	12079.23
626.72	12013.92
627.075	12079.91
627.43	11976.41
627.785	12043.53
628.14	12003.75
628.495	12059.12
628.85	11988.39
629.205	11975.05
629.559	12019.12
629.914	11939.57
630.269	11926.01
630.623	11935.05
630.978	11904.32
631.332	12026.35
631.687	11907.94
632.041	11998.1
632.396	11900.25
632.75	11851.67
633.104	11930.76
633.459	11845.34
633.813	11847.82
634.167	11775.74
634.521	11855.73
634.875	11772.8
635.229	11806.92
635.583	11786.13
635.937	11785.68
636.291	11753.36
636.645	11763.31
636.999	11695.29
637.352	11703.87
637.706	11673.82
638.06	11685.79
638.413	11652.57
638.767	11695.51
639.121	11716.75
639.474	11646.25
639.828	11629.3
640.181	11662.07
640.534	11646.93
640.888	11629.07
641.241	11535.74
641.594	11657.32
641.947	11603.31
642.301	11530.09
642.654	11592.92
643.007	11622.29
643.36	11573.93
643.713	11542.07
644.066	11559.7
644.419	11485.12
644.771	11410.32
645.124	11305.69
645.477	11315.86
645.83	11181.63
646.182	11232.92
646.535	11141.85
646.888	11150.22
647.24	11094.85
647.593	11209.42
647.945	11146.37
648.298	11091.46
648.65	11097.79
649.002	10997
649.355	11125.13
649.707	11093.49
650.059	11124.45
650.411	11251
650.763	11333.94
651.115	11445.12
651.467	11341.4
651.819	11311.12
652.171	11373.94
652.523	11321.96
652.875	11276.99
653.227	11268.63
653.578	11352.02
653.93	11374.16
654.282	11313.6
654.633	11336.88
654.985	11254.17
655.337	11294.84
655.688	11328.29
656.039	11250.1
656.391	11256.65
656.742	11293.04
657.094	11289.42
657.445	11335.07
657.796	11298.23
658.147	11321.96
658.498	11249.87
658.849	11374.84
659.2	11261.62
659.551	11269.08
659.902	11288.06
660.253	11315.86
660.604	11367.16
660.955	11292.36
661.306	11342.75
661.656	11279.25
662.007	11370.32
662.358	11328.74
662.708	11360.83
663.059	11371.23
663.409	11281.51
663.76	11394.95
664.11	11302.08
664.461	11411.68
664.811	11358.8
665.161	11330.55
665.511	11329.65
665.862	11357.89
666.212	11406.03
666.562	11329.65
666.912	11355.41
667.262	11319.7
667.612	11296.43
667.962	11419.36
668.312	11420.26
668.662	11326.93
669.011	11320.61
669.361	11337.78
669.711	11340.49
670.06	11329.87
670.41	11317.89
670.76	11274.28
671.109	11341.4
671.459	11311.12
671.808	11300.49
672.157	11300.49
672.507	11262.98
672.856	11195.64
673.205	11236.99
673.554	11253.04
673.904	11211.91
674.253	11227.73
674.602	11289.87
674.951	11103.44
675.3	11109.99
675.649	11191.34
675.998	11227.5
676.346	11164.68
676.695	11211.68
677.044	11104.11
677.393	11195.64
677.741	11189.99
678.09	11199.25
678.438	11089.2
678.787	11068.86
679.135	11113.38
679.484	11041.97
679.832	11111.8
680.181	11040.39
680.529	11015.76
680.877	11044.46
681.225	11002.2
681.573	11105.7
681.922	10984.34
682.27	10878.58
682.618	10966.04
682.966	10898.92
683.314	10987.28
683.661	10921.97
684.009	10776.21
684.357	10748.64
684.705	10771.69
685.053	10772.37
685.4	10760.4
685.748	10684.24
686.095	10663.45
686.443	10639.72
686.79	10601.76
687.138	10585.26
687.485	10641.98
687.832	10502.55
688.18	10592.26
688.527	10541.64
688.874	10473.62
689.221	10501.87
689.568	10429.1
689.915	10448.31
690.262	10372.16
690.609	10321.54
690.956	10328.99
691.303	10282.44
691.65	10225.95
691.997	10236.12
692.344	10232.27
692.69	10154.54
693.037	10107.76
693.383	10090.36
693.73	10176.91
694.077	10071.6
694.423	10074.09
694.769	10034.54
695.116	9949.12
695.462	9935.33
695.808	9935.78
696.155	9893.53
696.501	9837.48
696.847	9859.63
697.193	9790.93
697.539	9781.44
697.885	9676.13
698.231	9647.2
698.577	9672.06
698.923	9641.55
699.269	9590.03
699.614	9545.29
699.96	9522.01
700.306	9551.84
700.651	9523.37
700.997	9413.09
701.342	9411.05
701.688	9395.46
702.033	9360.21
702.379	9281.56
702.724	9285.63
703.069	9306.42
703.415	9238.85
703.76	9112.08
704.105	9110.95
704.45	9205.86
704.795	9098.97
705.14	9113.88
705.485	9008.58
705.83	8947.11
706.175	9065.07
706.52	8988.92
706.865	8967.67
707.209	8982.14
707.554	8915.25
707.899	8832.99
708.243	8899.88
708.588	8835.02
708.932	8804.06
709.277	8792.09
709.621	8785.76
709.966	8733.1
710.31	8695.82
710.654	8662.82
710.998	8688.81
711.342	8682.26
711.687	8651.3
712.031	8651.98
712.375	8573.79
712.719	8611.07
713.063	8569.04
713.407	8593.22
713.75	8446.78
714.094	8479.1
714.438	8474.58
714.782	8465.54
715.125	8453.11
715.469	8450.4
715.812	8389.38
716.156	8382.38
716.499	8396.16
716.843	8422.15
717.186	8332.44
717.53	8345.09
717.873	8341.48
718.216	8323.4
718.559	8343.74
718.902	8210.86
719.246	8282.49
719.589	8272.55
719.932	8243.85
720.275	8242.95
720.617	8197.98
720.96	8239.78
721.303	8190.75
721.646	8190.97
721.989	8167.69
722.331	8151.88
722.674	8186.68
723.016	8143.29
723.359	8137.87
723.701	8136.96
724.044	8059.9
724.386	8136.96
724.729	8154.14
725.071	8149.39
725.413	8123.85
725.755	8139.45
726.097	8086.12
726.439	8117.75
726.782	8128.83
727.124	8130.18
727.465	8064.87
727.807	8056.06
728.149	8043.18
728.491	8023.74
728.833	8112.1
729.175	8039.34
729.516	7991.43
729.858	8030.07
730.199	7966.57
730.541	8031.43
730.882	7983.52
731.224	7972.67
731.565	7995.95
731.906	7992.11
732.248	7983.52
732.589	7946.91
732.93	7955.05
733.271	7953.01
733.612	7946.01
733.953	7985.1
734.294	7927.7
734.635	7965.67
734.976	7955.5
735.317	7912.56
735.658	7956.17
735.999	7966.8
736.339	7955.95
736.68	8042.95
737.021	7977.87
737.361	7995.5
737.702	8020.58
738.042	7956.17
738.383	8014.7
738.723	8000.92
739.063	7988.72
739.404	8057.19
739.744	8056.29
740.084	8027.13
740.424	8000.69
740.764	8000.92
741.104	7995.72
741.444	7989.62
741.784	8016.51
742.124	7983.74
742.464	8085.44
742.804	8079.11
743.143	8098.32
743.483	8103.29
743.823	8134.02
744.162	8145.32
744.502	8131.99
744.841	8111.2
745.181	8170.41
745.52	8220.35
745.86	8244.08
746.199	8274.36
746.538	8306.22
746.877	8327.01
747.216	8407.24
747.556	8346.9
747.895	8517.29
748.234	8448.37
748.573	8424.41
748.911	8523.39
749.25	8586.21
749.589	8587.57
749.928	8720.67
750.267	8709.6
750.605	8855.59
750.944	8845.19
751.283	8911.63
751.621	9013.55
751.96	8995.7
752.298	9086.99
752.636	9227.55
752.975	9270.94
753.313	9305.07
753.651	9492.63
753.989	9446.53
754.327	9553.87
754.666	9663.02
755.004	9797.71
755.342	9889.91
755.679	9965.84
756.017	10081.77
756.355	10208.32
756.693	10338.26
757.031	10434.98
757.368	10460.97
757.706	10704.35
758.044	10712.03
758.381	10900.28
758.719	10984.12
759.056	11121.74
759.394	11242.64
759.731	11306.37
760.068	11487.83
760.405	11564.89
760.743	11599.47
761.08	11839.46
761.417	11988.61
761.754	12093.92
762.091	12218.89
762.428	12366.68
762.765	12482.16
763.102	12713.34
763.438	12737.52
763.775	12834.24
764.112	13087.11
764.449	13260.44
764.785	13302.7
765.122	13378.18
765.458	13575.69
765.795	13592.41
766.131	13834.66
766.467	13848.9
766.804	14026.98
767.14	13978.84
767.476	14204.37
767.812	14307.87
768.148	14420.64
768.485	14511.26
768.821	14592.84
769.157	14749.44
769.492	14861.76
769.828	14925.48
770.164	14934.75
770.5	15069.43
770.836	15126.16
771.171	15094.74
771.507	15396.66
771.842	15233.5
772.178	15382.42
772.513	15438.24
772.849	15502.19
773.184	15525.02
773.519	15701.28
773.855	15713.26
774.19	15720.49
774.525	15780.38
774.86	15844.78
775.195	15905.34
775.53	15912.12
775.865	15987.83
776.2	16003.42
776.535	15845.69
776.87	16000.71
777.205	16062.85
777.539	16033.48
777.874	16152.12
778.209	16010.43
778.543	16141.5
778.878	16036.19
779.212	16162.96
779.547	16155.73
779.881	16152.8
780.215	16149.86
780.55	16216.75
780.884	16199.8
781.218	16243.19
781.552	16315.73
781.886	16246.35
782.22	16130.2
782.554	16179.01
782.888	16021.95
783.222	16049.97
783.556	16077.32
783.889	16094.94
784.223	15986.7
784.557	16103.76
784.89	16074.83
785.224	16077.32
785.557	15991.9
785.891	15985.57
786.224	16016.53
786.558	16006.58
786.891	15908.51
787.224	15887.04
787.557	15862.18
787.891	15880.71
788.224	15840.49
788.557	15903.99
788.89	15870.32
789.223	15943.99
789.556	15784.44
789.888	15697.44
790.221	15782.86
790.554	15677.55
790.887	15778.12
791.219	15663.99
791.552	15622.19
791.884	15526.6
792.217	15606.14
792.549	15532.02
792.882	15457.9
793.214	15441.63
793.546	15421.74
793.879	15306.04
794.211	15320.05
794.543	15411.8
794.875	15323.66
795.207	15335.87
795.539	15202.31
795.871	15246.38
796.203	15206.38
796.535	15149.88
796.867	15151.92
797.198	15109.89
797.53	15067.4
797.862	14913.28
798.193	15043.45
798.525	14889.55
798.856	15025.37
799.188	14840.97
799.519	14769.33
799.85	14718.03
800.182	14711.03
800.513	14650.01
800.844	14560.52
801.175	14633.74
801.506	14646.85
801.837	14574.98
802.168	14535.21
802.499	14536.57
802.83	14442.78
803.161	14425.84
803.491	14428.77
803.822	14335.89
804.153	14390.58
804.483	14215.45
804.814	14142.23
805.145	14226.07
805.475	14174.09
805.805	14226.74
806.136	14163.7
806.466	14133.87
806.796	14004.6
807.126	13901.56
807.457	14122.79
807.787	14043.92
808.117	13900.88
808.447	13959.41
808.777	13922.35
809.107	13897.04
809.436	13878.96
809.766	13872.18
810.096	13818.17
810.426	13754.21
810.755	13716.02
811.085	13744.95
811.414	13691.39
811.744	13650.71
812.073	13631.51
812.403	13591.06
812.732	13493.2
813.061	13530.94
813.39	13468.57
813.719	13379.54
814.049	13502.24
814.378	13411.62
814.707	13409.59
815.036	13336.6
815.365	13273.55
815.693	13156.04
816.022	13225.41
816.351	13179.09
816.68	13052.76
817.008	13092.54
817.337	13065.19
817.665	12994.46
817.994	13080.11
818.322	13045.08
818.651	12928.02
818.979	12998.3
819.307	13005.76
819.636	12955.14
819.964	12891.19
820.292	12923.28
820.62	12917.17
820.948	12851.87
821.276	13000.11
821.604	12832.2
821.932	12928.25
822.259	12965.76
822.587	12878.53
822.915	12859.77
823.243	12942.94
823.57	12905.88
823.898	12866.33
824.225	12838.08
824.553	12913.56
824.88	12794.69
825.207	12890.73
825.535	12810.74
825.862	12876.5
826.189	12848.48
826.516	12885.54
826.843	12871.07
827.17	12920.34
827.497	12929.15
827.824	12886.89
828.151	12922.15
828.478	12815.48
828.805	12909.04
829.131	12821.81
829.458	12878.31
829.785	12882.15
830.111	12859.1
830.438	12918.3
830.764	12897.97
831.09	12863.62
831.417	12853
831.743	12874.24
832.069	12836.95
832.395	12850.96
832.722	12809.83
833.048	12750.85
833.374	12773.68
833.7	12794.01
834.026	12781.58
834.351	12788.82
834.677	12772.77
835.003	12752.21
835.329	12749.95
835.654	12838.76
835.98	12689.38
836.306	12672.21
836.631	12608.93
836.956	12647.13
837.282	12680.57
837.607	12591.08
837.932	12556.96
838.258	12610.29
838.583	12583.4
838.908	12507.02
839.233	12584.98
839.558	12502.95
839.883	12455.49
840.208	12528.71
840.533	12464.31
840.858	12424.98
841.182	12438.09
841.507	12433.35
841.832	12275.38
842.156	12264.08
842.481	12293.91
842.805	12316.06
843.13	12274.48
843.454	12305.21
843.778	12201.49
844.103	12160.36
844.427	12150.87
844.751	12163.07
845.075	12073.58
845.399	12101.15
845.723	12011.44
846.047	11989.52
846.371	11919.69
846.695	11855.51
847.019	11798.11
847.343	11834.49
847.666	11703.42
847.99	11641.05
848.313	11700.26
848.637	11535.74
848.96	11557.66
849.284	11527.38
849.607	11441.28
849.931	11455.52
850.254	11377.78
850.577	11301.85
850.9	11276.31
851.223	11243.77
851.546	11169.65
851.869	11145.02
852.192	11161.74
852.515	11090.33
852.838	10934.18
853.161	11034.29
853.483	10892.59
853.806	10881.52
854.129	10887.17
854.451	10806.72
854.774	10801.75
855.096	10766.04
855.419	10744.12
855.741	10672.71
856.063	10705.93
856.385	10623.68
856.708	10538.03
857.03	10585.94
857.352	10565.15
857.674	10488.54
857.996	10460.06
858.318	10468.2
858.64	10409.9
858.961	10395.88
859.283	10363.8
859.605	10296.45
859.926	10265.27
860.248	10214.87
860.57	10237.24
860.891	10288.77
861.212	10198.38
861.534	10084.71
861.855	10097.59
862.176	10185.04
862.498	10140.07
862.819	10037.02
863.14	10053.07
863.461	10050.58
863.782	9994.31
864.103	10022.11
864.424	9972.85
864.745	9983.24
865.065	9938.04
865.386	9939.4
865.707	9879.06
866.027	9933.3
866.348	9942.34
866.668	9901.21
866.989	9908.89
867.309	9811.95
867.63	9879.97
867.95	9884.03
868.27	9771.27
868.59	9850.36
868.91	9751.16
869.23	9751.38
869.55	9707.09
869.87	9740.31
870.19	9761.1
870.51	9750.25
870.83	9693.08
871.15	9623.93
871.469	9619.63
871.789	9702.12
872.109	9652.63
872.428	9649.92
872.748	9650.59
873.067	9563.82
873.386	9575.12
873.706	9534.66
874.025	9479.07
874.344	9471.62
874.663	9483.59
874.982	9420.32
875.301	9445.63
875.62	9451.73
875.939	9367.89
876.258	9387.32
876.577	9383.26
876.896	9357.49
877.214	9341
877.533	9313.88
877.852	9340.55
878.17	9330.15
878.489	9295.12
878.807	9257.16
879.125	9217.16
879.444	9201.11
879.762	9215.58
880.08	9155.24
880.398	9163.37
880.716	9194.11
881.034	9145.75
881.352	9169.48
881.67	9162.24
881.988	9164.96
882.306	9165.63
882.624	9060.78
882.941	9055.13
883.259	8986.43
883.577	9013.77
883.894	9016.26
884.212	8968.13
884.529	8978.52
884.846	8951.4
885.164	8924.51
885.481	8880.9
885.798	8940.56
886.115	8807
886.432	8865.76
886.75	8739.66
887.067	8784.4
887.383	8747.57
887.7	8757.96
888.017	8682.26
888.334	8711.41
888.651	8650.39
888.967	8651.75
889.284	8626.44
889.6	8619.66
889.917	8524.07
890.233	8561.36
890.55	8517.29
890.866	8523.62
891.182	8447.01
891.498	8469.83
891.815	8461.92
892.131	8428.48
892.447	8402.04
892.763	8330.63
893.079	8371.31
893.395	8330.4
893.71	8289.73
894.026	8275.04
894.342	8273.45
894.657	8224.19
894.973	8132.67
895.289	8200.91
895.604	8129.05
895.92	8111.65
896.235	8113.68
896.55	8054.93
896.865	8042.5
897.181	8027.81
897.496	8019.9
897.811	7979
898.126	7895.39
898.441	7886.8
898.756	7921.83
899.071	7875.5
899.386	7772
899.7	7711.21
900.015	7742.4
900.33	7692.23
900.644	7658.33
900.959	7662.17
901.273	7605.22
901.588	7596.18
901.902	7567.71
902.216	7479.8
902.531	7496.53
902.845	7469.86
903.159	7399.58
903.473	7373.37
903.787	7337.21
904.101	7364.78
904.415	7312.12
904.729	7307.6
905.042	7223.76
905.356	7227.61
905.67	7249.3
905.984	7183.99
906.297	7155.52
906.611	7105.8
906.924	7112.36
907.237	7050.89
907.551	7123.88
907.864	7009.31
908.177	7039.59
908.491	6988.52
908.804	6950.78
909.117	6893.6
909.43	6836.66
909.743	6840.72
910.056	6807.28
910.368	6825.81
910.681	6766.6
910.994	6758.69
911.307	6692.93
911.619	6691.58
911.932	6657
912.244	6675.98
912.557	6630.79
912.869	6595.08
913.181	6551.92
913.494	6564.57
913.806	6527.96
914.118	6481.86
914.43	6446.84
914.742	6478.02
915.054	6418.36
915.366	6390.57
915.678	6379.27
915.99	6307.63
916.302	6294.07
916.613	6271.7
916.925	6261.98
917.236	6262.43
917.548	6215.88
917.859	6227.86
918.171	6125.49
918.482	6147.18
918.794	6072.61
919.105	6110.35
919.416	6080.07
919.727	6034.19
920.038	6004.14
920.349	6014.98
920.66	5954.42
920.971	5960.97
921.282	5905.16
921.593	5885.27
921.903	5844.59
922.214	5864.03
922.525	5814.31
922.835	5775.22
923.146	5764.14
923.456	5752.62
923.767	5702.45
924.077	5712.84
924.387	5727.53
924.697	5635.33
925.008	5668.1
925.318	5614.32
925.628	5666.97
925.938	5599.63
926.248	5553.53
926.558	5537.03
926.867	5551.49
927.177	5497.71
927.487	5452.74
927.796	5417.03
928.106	5433.08
928.416	5405.51
928.725	5385.4
929.034	5374.77
929.344	5357.15
929.653	5369.58
929.962	5288.45
930.271	5266.08
930.581	5220.2
930.89	5213.2
931.199	5156.25
931.508	5157.6
931.817	5136.59
932.125	5141.33
932.434	5128.9
932.743	5133.65
933.051	5061.79
933.36	5060.88
933.669	5045.52
933.977	4990.83
934.286	5036.03
934.594	4982.69
934.902	4921.45
935.21	4934.79
935.519	4902.47
935.827	4895.24
936.135	4877.16
936.443	4800.33
936.751	4810.27
937.059	4809.14
937.367	4793.32
937.674	4760.33
937.982	4759.65
938.29	4726.88
938.597	4744.96
938.905	4717.62
939.213	4629.71
939.52	4614.34
939.827	4650.73
940.135	4578.18
940.442	4575.25
940.749	4601.91
941.056	4608.69
941.363	4569.82
941.67	4529.82
941.977	4503.38
942.284	4437.17
942.591	4410.73
942.898	4436.27
943.205	4441.92
943.511	4388.59
943.818	4393.33
944.125	4356.27
944.431	4323.73
944.738	4310.62
945.044	4348.36
945.35	4288.7
945.657	4228.59
945.963	4220.45
946.269	4206.9
946.575	4208.25
946.881	4186.56
947.187	4147.01
947.493	4142.72
947.799	4129.38
948.105	4135.94
948.41	4086.45
948.716	4098.88
949.022	4101.36
949.327	4111.76
949.633	4026.79
949.938	4054.81
950.244	3987.24
950.549	4002.15
950.854	3985.21
951.16	4004.64
951.465	3938.88
951.77	3908.82
952.075	3913.34
952.38	3907.47
952.685	3893.68
952.99	3861.59
953.294	3854.36
953.599	3839.9
953.904	3742.5
954.209	3801.93
954.513	3766
954.818	3781.37
955.122	3754.7
955.426	3726.68
955.731	3695.04
956.035	3679.45
956.339	3689.62
956.643	3707.02
956.948	3670.64
957.252	3621.83
957.556	3633.8
957.86	3662.05
958.163	3613.92
958.467	3548.83
958.771	3577.31
959.075	3549.06
959.378	3544.09
959.682	3559
959.985	3532.79
960.289	3472
960.592	3448.72
960.896	3452.11
961.199	3483.07
961.502	3415.5
961.805	3433.81
962.108	3443.53
962.411	3361.72
962.714	3375.05
963.017	3382.06
963.32	3399.01
963.623	3320.36
963.926	3350.42
964.228	3290.31
964.531	3275.85
964.833	3261.61
965.136	3247.37
965.438	3252.57
965.741	3224.55
966.043	3224.1
966.345	3209.18
966.648	3180.48
966.95	3187.49
967.252	3154.27
967.554	3137.77
967.856	3169.86
968.158	3112.01
968.46	3091.22
968.761	3093.48
969.063	3096.42
969.365	3069.75
969.666	3059.35
969.968	3016.19
970.269	2980.26
970.571	3015.51
970.872	3023.88
971.174	2983.65
971.475	2985.91
971.776	2953.14
972.077	2952.92
972.378	2933.26
972.679	2952.92
972.98	2898
973.281	2907.72
973.582	2885.8
973.883	2903.2
974.183	2894.16
974.484	2838.34
974.785	2838.12
975.085	2834.73
975.386	2846.03
975.686	2785.24
975.986	2766.25
976.287	2803.77
976.587	2742.75
976.887	2747.05
977.187	2744.79
977.487	2754.28
977.787	2700.27
978.087	2718.8
978.387	2669.99
978.687	2672.02
978.987	2675.41
979.286	2641.51
979.586	2640.16
979.885	2704.79
980.185	2628.41
980.484	2615.3
980.784	2624.11
981.083	2567.16
981.382	2570.78
981.682	2577.79
981.981	2568.52
982.28	2533.27
982.579	2521.29
982.878	2524
983.177	2545.02
983.475	2519.48
983.774	2489.2
984.073	2506.37
984.372	2493.27
984.67	2450.33
984.969	2443.55
985.267	2455.75
985.566	2409.88
985.864	2435.19
986.162	2455.75
986.461	2408.98
986.759	2400.84
987.057	2381.86
987.355	2378.47
987.653	2359.94
987.951	2356.32
988.249	2393.38
988.547	2301.41
988.844	2308.19
989.142	2311.8
989.44	2307.51
989.737	2286.95
990.035	2272.03
990.332	2255.76
990.63	2257.79
990.927	2251.24
991.224	2238.13
991.521	2226.38
991.819	2219.6
992.116	2206.72
992.413	2155.65
992.71	2182.99
993.006	2165.82
993.303	2154.97
993.6	2149.77
993.897	2128.98
994.193	2140.28
994.49	2151.13
994.787	2120.17
995.083	2097.35
995.379	2105.48
995.676	2096.89
995.972	2101.41
996.268	2073.17
996.565	2103
996.861	2042.66
997.157	2038.14
997.453	2013.96
997.749	2015.31
998.044	1996.11
998.34	2012.6
998.636	1997.46
998.932	1978.03
999.227	1970.12
999.523	1959.95
999.818	1943.23
1000.114	1935.99
1000.409	1916.56
1000.704	1892.61
1001	1921.76
1001.295	1909.78
1001.59	1887.41
1001.885	1877.01
1002.18	1843.34
1002.475	1850.35
1002.77	1871.82
1003.065	1834.75
1003.359	1834.53
1003.654	1844.7
1003.949	1795.21
1004.243	1797.69
1004.538	1781.65
1004.832	1792.5
1005.127	1794.08
1005.421	1749.11
1005.715	1753.63
1006.009	1736.9
1006.304	1723.8
1006.598	1709.11
1006.892	1721.08
1007.186	1683.12
1007.48	1688.77
1007.773	1661.43
1008.067	1670.24
1008.361	1676.79
1008.655	1668.2
1008.948	1650.58
1009.242	1644.48
1009.535	1633.86
1009.829	1623.91
1010.122	1623.01
1010.415	1601.09
1010.708	1620.07
1011.001	1589.79
1011.295	1568.77
1011.588	1568.77
1011.881	1549.34
1012.173	1543.46
1012.466	1525.61
1012.759	1538.94
1013.052	1524.71
1013.344	1492.39
1013.637	1519.96
1013.93	1496.01
1014.222	1510.47
1014.514	1493.07
1014.807	1455.55
1015.099	1463.46
1015.391	1437.93
1015.683	1450.13
1015.976	1432.28
1016.268	1434.99
1016.56	1436.12
1016.851	1404.48
1017.143	1423.01
1017.435	1399.06
1017.727	1410.36
1018.018	1396.35
1018.31	1365.16
1018.602	1389.79
1018.893	1358.38
1019.185	1337.37
1019.476	1321.77
1019.767	1348.89
1020.058	1335.56
1020.35	1280.64
1020.641	1297.14
1020.932	1310.93
1021.223	1313.19
1021.514	1294.43
1021.804	1259.63
1022.095	1260.08
1022.386	1265.5
1022.677	1239.06
1022.967	1237.48
1023.258	1243.13
1023.548	1214.66
1023.839	1216.24
1024.129	1209.01
1024.419	1203.58
1024.709	1188.22
1025	1175.79
1025.29	1194.54
1025.58	1172.62
1025.87	1148.67
1026.16	1161.1
1026.449	1185.51
1026.739	1133.53
1027.029	1152.29
1027.319	1138.28
1027.608	1156.58
1027.898	1123.59
1028.187	1096.24
1028.477	1110.71
1028.766	1098.28
1029.055	1102.12
1029.344	1074.77
1029.634	1079.07
1029.923	1049.92
1030.212	1068.9
1030.501	1056.47
1030.79	1062.8
1031.078	1030.03
1031.367	1054.66
1031.656	1017.37
1031.945	1029.35
1032.233	1011.05
1032.522	1023.25
1032.81	1021.67
1033.099	994.55
1033.387	985.96
1033.675	1005.85
1033.963	1006.53
1034.251	971.05
1034.54	971.27
1034.828	986.87
1035.116	954.55
1035.403	965.4
1035.691	954.33
1035.979	924.95
1036.267	936.25
1036.554	927.43
1036.842	925.63
1037.129	926.76
1037.417	898.06
1037.704	888.11
1037.992	889.24
1038.279	892.41
1038.566	891.5
1038.853	891.5
1039.14	891.5
