Data from hue_26_FLMS001491_00036.txt Node
Date: Tue Feb 07 17:13:55 GMT 2017
User: dcchb
Spectrometer: FLMS00149
Trigger mode: 0
Integration Time (sec): 2.000000E-2
Scans to average: 10
Electric dark correction enabled: true
Nonlinearity correction enabled: false
Boxcar width: 0
XAxis mode: Wavelengths
Number of Pixels in Spectrum: 2048
>>>>>Begin Spectral Data<<<<<
341.393	-0.62
341.776	-0.62
342.16	-0.62
342.543	-66.61
342.927	-65.93
343.31	-84.46
343.693	-81.98
344.077	-68.64
344.46	-69.09
344.843	-57.57
345.226	-21.86
345.61	-22.32
345.993	-39.26
346.376	-7.4
346.759	-1.98
347.142	25.37
347.525	43.22
347.908	80.96
348.291	80.73
348.674	102.2
349.057	122.09
349.44	106.95
349.823	162.54
350.206	164.8
350.588	194.18
350.971	215.42
351.354	224.46
351.737	245.02
352.119	258.35
352.502	277.34
352.884	261.97
353.267	284.57
353.65	295.64
354.032	315.53
354.414	312.36
354.797	301.29
355.179	350.1
355.562	331.12
355.944	345.13
356.326	333.16
356.709	347.17
357.091	359.82
357.473	331.57
357.855	342.87
358.238	345.36
358.62	331.8
359.002	359.6
359.384	357.34
359.766	366.37
360.148	345.36
360.53	333.83
360.912	337.45
361.294	329.99
361.676	331.57
362.057	342.65
362.439	328.18
362.821	337.67
363.203	331.8
363.584	333.16
363.966	312.82
364.348	322.53
364.729	325.47
365.111	322.76
365.493	328.64
365.874	322.31
366.256	324.57
366.637	340.61
367.019	336.32
367.4	318.92
367.781	320.5
368.163	306.94
368.544	329.99
368.925	331.57
369.306	329.77
369.688	343.78
370.069	318.92
370.45	290.67
370.831	314.85
371.212	312.36
371.593	316.21
371.974	297.68
372.355	315.3
372.736	325.47
373.117	311.23
373.498	327.96
373.879	329.09
374.26	324.79
374.641	322.53
375.021	323.21
375.402	316.66
375.783	327.73
376.163	333.61
376.544	351.91
376.925	334.06
377.305	335.41
377.686	324.12
378.066	317.79
378.447	327.51
378.827	320.5
379.208	340.16
379.588	328.18
379.968	356.21
380.349	330.22
380.729	354.85
381.109	353.04
381.489	310.33
381.87	337
382.25	335.19
382.63	340.16
383.01	357.34
383.39	345.58
383.77	336.54
384.15	335.41
384.53	352.36
384.91	350.56
385.29	331.57
385.67	354.62
386.049	356.66
386.429	339.71
386.809	363.89
387.189	359.14
387.568	376.54
387.948	359.37
388.328	357.79
388.707	342.42
389.087	365.92
389.466	338.35
389.846	371.35
390.225	355.75
390.605	388.75
390.984	361.4
391.363	382.19
391.743	352.36
392.122	385.36
392.501	373.38
392.881	376.32
393.26	387.62
393.639	367.5
394.018	375.87
394.397	374.28
394.776	408.41
395.155	390.1
395.534	367.5
395.913	381.52
396.292	401.63
396.671	380.84
397.05	392.81
397.429	392.81
397.808	403.44
398.186	419.71
398.565	404.11
398.944	404.11
399.323	406.15
399.701	412.25
400.08	391.91
400.458	409.76
400.837	414.06
401.215	418.8
401.594	412.48
401.972	410.67
402.351	437.79
402.729	422.19
403.107	419.48
403.486	403.66
403.864	430.1
404.242	416.77
404.62	434.85
404.999	437.11
405.377	423.32
405.755	419.48
406.133	440.04
406.511	432.59
406.889	442.76
407.267	425.81
407.645	454.06
408.023	455.41
408.401	456.32
408.779	430.55
409.156	445.47
409.534	463.77
409.912	439.14
410.29	459.25
410.667	490.21
411.045	462.87
411.422	466.03
411.8	459.71
412.178	485.47
412.555	472.13
412.933	485.24
413.31	465.13
413.687	462.42
414.065	482.53
414.442	478.69
414.819	467.84
415.197	501.29
415.574	510.33
415.951	503.09
416.328	501.06
416.705	477.33
417.082	488.86
417.46	497.44
417.837	525.24
418.214	521.4
418.591	498.57
418.967	518.91
419.344	530.21
419.721	529.08
420.098	528.4
420.475	530.89
420.852	541.06
421.228	536.09
421.605	546.71
421.982	524.34
422.358	532.25
422.735	537.67
423.111	546.71
423.488	555.52
423.864	547.16
424.241	549.42
424.617	570.89
424.994	563.43
425.37	550.1
425.746	556.65
426.123	562.53
426.499	585.13
426.875	553.71
427.251	583.77
427.627	571.34
428.003	610.21
428.379	576.09
428.756	592.13
429.132	604.79
429.507	627.16
429.883	621.28
430.259	640.72
430.635	612.47
431.011	614.05
431.387	627.38
431.763	617.89
432.138	651.56
432.514	657.44
432.89	652.02
433.265	666.93
433.641	692.02
434.016	675.29
434.392	700.83
434.767	689.3
435.143	698.8
435.518	690.43
435.894	695.63
436.269	718.91
436.644	734.27
437.02	709.87
437.395	707.61
437.77	718.91
438.145	748.51
438.52	748.06
438.895	727.72
439.271	744.67
439.646	759.36
440.021	740.6
440.395	765.91
440.77	777.89
441.145	778.34
441.52	779.02
441.895	771.11
442.27	799.58
442.645	776.76
443.019	788.96
443.394	783.99
443.769	816.08
444.143	790.32
444.518	819.47
444.892	814.27
445.267	801.39
445.641	821.5
446.016	820.6
446.39	813.14
446.764	849.75
447.139	826.7
447.513	851.11
447.887	855.4
448.262	843.88
448.636	831.9
449.01	873.48
449.384	866.47
449.758	868.96
450.132	860.37
450.506	898.79
450.88	895.63
451.254	871.45
451.628	897.21
452.002	922.29
452.376	918.68
452.75	924.33
453.123	945.34
453.497	946.47
453.871	960.94
454.244	924.55
454.618	967.04
454.992	987.6
455.365	986.7
455.739	973.82
456.112	988.51
456.486	1001.84
456.859	1017.88
457.232	1036.64
457.606	1030.31
457.979	1043.87
458.352	1067.37
458.725	1059.01
459.099	1093.14
459.472	1089.75
459.845	1113.7
460.218	1098.56
460.591	1133.13
460.964	1129.29
461.337	1163.64
461.71	1160.7
462.083	1168.16
462.456	1178.56
462.829	1171.1
463.201	1201.61
463.574	1238.44
463.947	1229.18
464.32	1246.8
464.692	1229.4
465.065	1267.37
465.438	1260.59
465.81	1312.79
466.183	1300.36
466.555	1299.68
466.928	1337.42
467.3	1334.94
467.672	1388.04
468.045	1401.83
468.417	1400.02
468.789	1408.61
469.161	1406.12
469.534	1442.5
469.906	1482.73
470.278	1466.91
470.65	1520.69
471.022	1567.25
471.394	1555.04
471.766	1568.83
472.138	1589.17
472.51	1625.55
472.882	1607.02
473.253	1656.51
473.625	1703.06
473.997	1711.2
474.369	1752.1
474.74	1783.51
475.112	1782.16
475.484	1817.41
475.855	1863.06
476.227	1877.07
476.598	1895.83
476.97	1924.53
477.341	1977.41
477.713	2022.83
478.084	2044.07
478.455	2096.27
478.827	2121.81
479.198	2172.43
479.569	2211.3
479.94	2295.59
480.311	2263.05
480.682	2366.77
481.053	2421.24
481.424	2472.08
481.795	2482.25
482.166	2479.54
482.537	2512.08
482.908	2625.3
483.279	2631.17
483.65	2681.57
484.021	2756.82
484.391	2798.4
484.762	2851.05
485.133	2851.73
485.503	2935.8
485.874	3019.41
486.244	3033.2
486.615	3122.01
486.985	3144.15
487.356	3231.38
487.726	3251.5
488.097	3304.83
488.467	3336.01
488.837	3411.72
489.207	3456.01
489.578	3524.94
489.948	3573.75
490.318	3652.16
490.688	3654.2
491.058	3776.23
491.428	3801.99
491.798	3822.55
492.168	3922.89
492.538	3934.19
492.908	3949.11
493.278	4029.56
493.648	4094.64
494.017	4126.5
494.387	4185.71
494.757	4179.16
495.126	4236.56
495.496	4288.31
495.866	4313.62
496.235	4410.79
496.605	4410.79
496.974	4438.81
497.344	4453.72
497.713	4522.65
498.082	4556.77
498.452	4620.27
498.821	4731.46
499.19	4648.3
499.559	4782.3
499.928	4736.2
500.298	4821.62
500.667	4845.58
501.036	4820.04
501.405	4911.79
501.774	4966.93
502.143	4953.15
502.512	4977.1
502.88	5054.61
503.249	5040.38
503.618	5085.8
503.987	5110.43
504.356	5128.06
504.724	5157.21
505.093	5196.08
505.462	5253.48
505.83	5277.21
506.199	5322.18
506.567	5360.37
506.936	5345.23
507.304	5385.23
507.672	5477.43
508.041	5469.74
508.409	5527.14
508.777	5513.36
509.145	5594.94
509.514	5568.72
509.882	5637.87
510.25	5617.99
510.618	5668.61
510.986	5658.89
511.354	5724.43
511.722	5767.14
512.09	5806.46
512.458	5782.28
512.826	5783.18
513.193	5855.72
513.561	5888.72
513.929	5899.56
514.297	5930.97
514.664	5978.2
515.032	6011.2
515.4	6123.29
515.767	6104.08
516.135	6126.9
516.502	6057.98
516.869	6168.93
517.237	6165.09
517.604	6143.85
517.972	6169.84
518.339	6229.72
518.706	6217.07
519.073	6265.2
519.44	6338.87
519.808	6332.32
520.175	6305.43
520.542	6441.7
520.909	6442.37
521.276	6448.02
521.643	6436.5
522.009	6529.6
522.376	6566.21
522.743	6610.28
523.11	6714.23
523.477	6755.13
523.843	6769.14
524.21	6732.31
524.577	6809.37
524.943	6815.24
525.31	6852.76
525.676	6905.86
526.043	6961.46
526.409	7051.85
526.776	7046.88
527.142	7058.18
527.508	7117.61
527.874	7153.54
528.241	7128.68
528.607	7161.45
528.973	7222.01
529.339	7253.2
529.705	7329.58
530.071	7396.25
530.437	7387.88
530.803	7435.34
531.169	7446.19
531.535	7450.48
531.901	7488.22
532.267	7546.75
532.632	7550.37
532.998	7606.41
533.364	7609.8
533.73	7681.66
534.095	7725.05
534.461	7723.7
534.826	7826.52
535.192	7843.69
535.557	7890.02
535.923	7882.56
536.288	8005.95
536.653	7960.75
537.019	7949.23
537.384	8022.9
537.749	8064.25
538.114	7996.23
538.479	8064.25
538.845	8086.4
539.21	8116.91
539.575	8161.65
539.94	8241.42
540.305	8294.98
540.67	8270.35
541.034	8304.47
541.399	8346.05
541.764	8405.26
542.129	8376.79
542.494	8369.33
542.858	8470.34
543.223	8519.61
543.587	8591.24
543.952	8540.62
544.316	8585.37
544.681	8624.01
545.045	8713.5
545.41	8664.24
545.774	8735.87
546.138	8739.49
546.503	8771.35
546.867	8768.87
547.231	8876.43
547.595	8843.21
547.959	8931.12
548.324	8877.79
548.688	8917.79
549.052	8956.21
549.416	9023.32
549.779	9026.71
550.143	9085.69
550.507	9128.86
550.871	9142.19
551.235	9180.15
551.599	9231.68
551.962	9253.6
552.326	9297.89
552.689	9338.57
553.053	9266.71
553.417	9285.69
553.78	9453.37
554.143	9428.96
554.507	9435.06
554.87	9438.23
555.234	9543.08
555.597	9500.15
555.96	9526.81
556.323	9603.19
556.686	9586.47
557.05	9654.94
557.413	9653.36
557.776	9732
558.139	9736.75
558.502	9811.78
558.865	9762.06
559.228	9832.34
559.59	9944.2
559.953	9934.71
560.316	9991.21
560.679	10057.65
561.041	10086.8
561.404	10046.12
561.767	10118.43
562.129	10102.16
562.492	10173.35
562.854	10196.85
563.217	10195.04
563.579	10290.63
563.941	10253.12
564.304	10334.93
564.666	10426.22
565.028	10360.46
565.39	10440.23
565.753	10505.32
566.115	10578.54
566.477	10588.7
566.839	10668.7
567.201	10665.99
567.563	10704.63
567.925	10737.63
568.287	10753.22
568.648	10780.11
569.01	10844.07
569.372	10887
569.734	10869.83
570.095	10942.37
570.457	11050.16
570.819	11019.88
571.18	11149.59
571.542	11148.24
571.903	11205.64
572.265	11281.57
572.626	11303.94
572.987	11409.93
573.349	11392.53
573.71	11498.74
574.071	11500.32
574.432	11644.5
574.794	11669.81
575.155	11679.75
575.516	11673.42
575.877	11831.61
576.238	11918.16
576.599	11962
576.96	12082
577.32	12115.22
577.681	12237.47
578.042	12259.62
578.403	12354.31
578.763	12405.83
579.124	12651.48
579.485	12798.14
579.845	12810.79
580.206	12833.39
580.566	12971.01
580.927	13135.76
581.287	13342.98
581.648	13454.84
582.008	13599.02
582.368	13650.77
582.728	13882.63
583.089	14025.68
583.449	14139.57
583.809	14300.92
584.169	14531.65
584.529	14680.8
584.889	15016.84
585.249	15007.8
585.609	15265.19
585.969	15550.16
586.329	15688.91
586.688	15958.51
587.048	16121.44
587.408	16299.51
587.768	16493.41
588.127	16789.22
588.487	16954.19
588.846	17377
589.206	17372.26
589.565	17723.43
589.925	18067.6
590.284	18236.19
590.643	18602.05
591.003	18840.01
591.362	19147.58
591.721	19383.5
592.08	19707.56
592.44	20058.29
592.799	20258.28
593.158	20484.49
593.517	20806.06
593.876	21182.1
594.235	21315.88
594.593	21677.45
594.952	22039.93
595.311	22310.66
595.67	22573.47
596.029	23013.24
596.387	23345.43
596.746	23670.62
597.104	23843.72
597.463	24118.07
597.822	24523.93
598.18	24635.34
598.538	24940.64
598.897	25389.45
599.255	25490.01
599.613	26171.35
599.972	26250.21
600.33	26591.22
600.688	26818.33
601.046	27040.02
601.404	27519.78
601.762	27697.63
602.12	28134.46
602.478	28373.77
602.836	28733.99
603.194	28680.66
603.552	29117.48
603.91	29321.32
604.268	29634.98
604.625	29826.62
604.983	30184.12
605.341	30318.81
605.698	30747.5
606.056	31013.93
606.413	31177.32
606.771	31635.61
607.128	31856.62
607.485	31879.22
607.843	32203.96
608.2	32608.92
608.557	32811.4
608.914	32880.1
609.272	33223.59
609.629	33546.29
609.986	33805.27
610.343	33740.64
610.7	34266.5
611.057	34448.87
611.414	34510.34
611.771	34784.68
612.127	35112.35
612.484	35218.79
612.841	35535.17
613.198	35580.82
613.554	35838.21
613.911	36168.82
614.267	36204.75
614.624	36389.83
614.98	36633.67
615.337	36925.41
615.693	36886.32
616.05	37007.9
616.406	37612.17
616.762	37419.41
617.118	37630.93
617.475	37546.87
617.831	38012.39
618.187	37993.86
618.543	38259.39
618.899	38478.82
619.255	38550.68
619.611	38584.35
619.967	38933.04
620.323	38958.13
620.678	38963.1
621.034	39132.59
621.39	39274.5
621.746	39183.88
622.101	39799.69
622.457	39657.32
622.812	39693.02
623.168	39874.71
623.523	40000.36
623.879	40282.61
624.234	39989.06
624.589	40297.75
624.945	40290.52
625.3	40407.58
625.655	40565.09
626.01	40676.73
626.365	40612.32
626.72	40855.71
627.075	40922.6
627.43	40786.55
627.785	40890.96
628.14	40896.16
628.495	40962.37
628.85	41074.23
629.205	41016.61
629.559	41292.98
629.914	41119.65
630.269	41213.21
630.623	41140.22
630.978	41137.28
631.332	41359.19
631.687	41509.02
632.041	41333.88
632.396	41448.68
632.75	41378.4
633.104	41416.14
633.459	41234.68
633.813	41309.25
634.167	41308.57
634.521	41381.79
634.875	41631.73
635.229	41516.7
635.583	41401.68
635.937	41414.11
636.291	41469.93
636.645	41491.39
636.999	41302.93
637.352	41585.86
637.706	41239.2
638.06	41627.21
638.413	41408.46
638.767	41385.41
639.121	41486.2
639.474	41260.67
639.828	41394.9
640.181	41361.45
640.534	41461.79
640.888	41332.53
641.241	41286.65
641.594	41341.12
641.947	41455.01
642.301	41323.72
642.654	41368.91
643.007	41327.33
643.36	41266.54
643.713	41371.62
644.066	41514.45
644.419	41179.99
644.771	40895.03
645.124	40542.72
645.477	40507.24
645.83	40309.51
646.182	40136.4
646.535	40058.21
646.888	40177.31
647.24	39968.5
647.593	40247.81
647.945	40005.56
648.298	40001.49
648.65	39974.37
649.002	39836.75
649.355	40073.35
649.707	39960.81
650.059	40205.78
650.411	40661.59
650.763	40783.16
651.115	41040.79
651.467	40961.92
651.819	40977.74
652.171	40810.28
652.523	40803.5
652.875	40820
653.227	40646.22
653.578	40966.66
653.93	40864.29
654.282	40601.02
654.633	40641.7
654.985	40670.63
655.337	40774.58
655.688	40820.9
656.039	40900
656.391	40464.3
656.742	40629.5
657.094	40530.74
657.445	40838.08
657.796	40652.55
658.147	40667.91
658.498	40662.49
658.849	40736.16
659.2	40662.49
659.551	40489.84
659.902	40531.65
660.253	40487.58
660.604	40553.79
660.955	40357.19
661.306	40569.61
661.656	40435.38
662.007	40586.33
662.358	40667.69
662.708	40580.68
663.059	40374.36
663.409	40369.16
663.76	40479.44
664.11	40509.27
664.461	40586.56
664.811	40601.7
665.161	40385.66
665.511	40428.15
665.862	40594.7
666.212	40446
666.562	40483.29
666.912	40475.6
667.262	40417.75
667.612	40390.86
667.962	40544.3
668.312	40362.84
668.662	40533.91
669.011	40476.28
669.361	40375.72
669.711	40274.93
670.06	40391.54
670.41	40323.52
670.76	40287.58
671.109	40233.12
671.459	40344.08
671.808	40257.53
672.157	40355.83
672.507	40009.85
672.856	40048.72
673.205	40191.09
673.554	40302.27
673.904	40138.66
674.253	40488.26
674.602	40144.09
674.951	39638.34
675.3	39490.09
675.649	39996.52
675.998	40082.62
676.346	40138.66
676.695	40259.34
677.044	39857.09
677.393	40070.64
677.741	40075.39
678.09	39899.12
678.438	39805.34
678.787	39840.82
679.135	39940.7
679.484	39685.34
679.832	39885.11
680.181	39538.9
680.529	39690.09
680.877	39475.63
681.225	39554.95
681.573	39728.05
681.922	39480.15
682.27	39273.37
682.618	39439.25
682.966	39386.59
683.314	39458
683.661	39234.05
684.009	39173.49
684.357	39145.69
684.705	39062.31
685.053	39039.48
685.4	39087.16
685.748	38773.05
686.095	38900.5
686.443	38738.25
686.79	38709.77
687.138	38685.59
687.485	38683.11
687.832	38456.67
688.18	38584.35
688.527	38460.29
688.874	38333.06
689.221	38371.25
689.568	38123.57
689.915	38136.23
690.262	38058.94
690.609	37969.91
690.956	37778.5
691.303	37839.29
691.65	37605.85
691.997	37764.26
692.344	37468.22
692.69	37394.33
693.037	37497.38
693.383	37185.75
693.73	37298.96
694.077	37006.32
694.423	37154.11
694.769	37072.53
695.116	36816.04
695.462	36814.68
695.808	36651.97
696.155	36761.8
696.501	36497.18
696.847	36509.38
697.193	36251.98
697.539	36365.65
697.885	36063.52
698.231	36109.62
698.577	36030.3
698.923	35878.21
699.269	35840.92
699.614	35817.42
699.96	35673.02
700.306	35635.05
700.651	35473.02
700.997	35265.34
701.342	35400.93
701.688	35283.65
702.033	35132.47
702.379	35169.53
702.724	35099.02
703.069	34976.54
703.415	34639.15
703.76	34772.25
704.105	34805.02
704.45	34780.61
704.795	34472.14
705.14	34391.69
705.485	34467.85
705.83	34132.27
706.175	34194.19
706.52	34195.99
706.865	34080.06
707.209	33909.45
707.554	33802.78
707.899	34029.9
708.243	33635.1
708.588	33679.4
708.932	33608.89
709.277	33530.25
709.621	33438.05
709.966	33332.74
710.31	33360.54
710.654	33041.67
710.998	33233.08
711.342	33074.22
711.687	33039.19
712.031	32897.04
712.375	32816.14
712.719	32919.87
713.063	32799.87
713.407	32919.19
713.75	32736.14
714.094	32668.12
714.438	32661.34
714.782	32637.16
715.125	32378.19
715.469	32419.77
715.812	32282.37
716.156	32060.91
716.499	32153.79
716.843	32135.93
717.186	32027.01
717.53	32099.78
717.873	32042.6
718.216	31910.86
718.559	31820.69
718.902	31776.85
719.246	31800.8
719.589	31662.5
719.932	31519.91
720.275	31504.99
720.617	31459.79
720.96	31483.3
721.303	31425.22
721.646	31358.33
721.989	31221.83
722.331	31369.85
722.674	31266.13
723.016	31179.35
723.359	31189.97
723.701	31112.23
724.044	31093.93
724.386	30820.72
724.729	31034.04
725.071	30944.33
725.413	30821.39
725.755	30831.11
726.097	30688.52
726.439	30534.17
726.782	30576.88
727.124	30641.28
727.465	30471.57
727.807	30554.73
728.149	30357.68
728.491	30348.41
728.833	30421.86
729.175	30225.7
729.516	30205.82
729.858	30166.95
730.199	30239.94
730.541	30174.86
730.882	30055.99
731.224	30149.77
731.565	29962.43
731.906	29915.88
732.248	29997.23
732.589	29809.67
732.93	29798.14
733.271	29786.62
733.612	29713.4
733.953	29769.67
734.294	29712.72
734.635	29621.88
734.976	29741.65
735.317	29403.8
735.658	29329
735.999	29329.91
736.339	29337.36
736.68	29452.62
737.021	29369.68
737.361	29167.43
737.702	29414.88
738.042	29187.54
738.383	29265.28
738.723	29103.02
739.063	29035.45
739.404	29179.18
739.744	29075
740.084	29146.18
740.424	28885.62
740.764	28910.26
741.104	28941.44
741.444	28757.49
741.784	28755.01
742.124	28763.14
742.464	28679.75
742.804	28633.43
743.143	28654.44
743.483	28576.25
743.823	28461
744.162	28531.28
744.502	28451.96
744.841	28341.68
745.181	28563.83
745.52	28395.47
745.86	28415.13
746.199	28322.7
746.538	28241.57
746.877	28272.76
747.216	28363.38
747.556	28235.92
747.895	28291.29
748.234	27964.52
748.573	28066.89
748.911	28013.33
749.25	27917.06
749.589	27946.44
749.928	27928.59
750.267	28096.72
750.605	27872.77
750.944	27736.5
751.283	27746.22
751.621	27800.46
751.96	27538.54
752.298	27567.02
752.636	27653.79
752.975	27382.16
753.313	27315.5
753.651	27492.21
753.989	27379.68
754.327	27314.82
754.666	27124.99
755.004	27198.89
755.342	27190.53
755.679	27084.99
756.017	26981.27
756.355	27085.67
756.693	27049.06
757.031	26930.42
757.368	26767.71
757.706	26870.31
758.044	26718.68
758.381	26687.94
758.719	26619.92
759.056	26615.18
759.394	26456.54
759.731	26297.22
760.068	26333.83
760.405	26223.32
760.743	26219.93
761.08	26274.17
761.417	25953.27
761.754	26111.01
762.091	25843.9
762.428	25891.13
762.765	25847.74
763.102	25888.64
763.438	25636.9
763.775	25531.36
764.112	25409.11
764.449	25612.49
764.785	25387.86
765.122	25166.4
765.458	25134.76
765.795	25032.17
766.131	25110.13
766.467	24960.98
766.804	24920.76
767.14	24808.67
767.476	24810.25
767.812	24632.4
768.148	24704.27
768.485	24623.82
768.821	24446.42
769.157	24412.3
769.492	24325.07
769.828	24380.88
770.164	24082.59
770.5	24010.95
770.836	24017.05
771.171	23852.76
771.507	23838.75
771.842	23610.06
772.178	23595.82
772.513	23620.45
772.849	23430.17
773.184	23400.8
773.519	23367.58
773.855	23246.9
774.19	23042.16
774.525	23139.11
774.86	23053.91
775.195	23070.86
775.53	22883.75
775.865	22882.17
776.2	22786.8
776.535	22448.51
776.87	22533.02
777.205	22387.04
777.539	22367.38
777.874	22441.27
778.209	22168.29
778.543	22121.96
778.878	21948.63
779.212	21933.94
779.547	21789.77
779.881	21852.36
780.215	21732.59
780.55	21749.99
780.884	21612.6
781.218	21671.8
781.552	21512.71
781.886	21325.6
782.22	21220.52
782.554	21149.78
782.888	21021.2
783.222	21047.41
783.556	20884.48
783.889	20814.65
784.223	20765.16
784.557	20682.9
784.89	20799.96
785.224	20634.32
785.557	20522.68
785.891	20470.7
786.224	20467.99
786.558	20355.23
786.891	20164.27
787.224	20111.39
787.557	19986.88
787.891	20015.12
788.224	19924.05
788.557	19951.17
788.89	19891.74
789.223	19928.35
789.556	19703.04
789.888	19622.37
790.221	19538.53
790.554	19417.63
790.887	19401.81
791.219	19296.05
791.552	19212.66
791.884	19238.65
792.217	19181.93
792.549	19120.91
792.882	19036.39
793.214	18796.4
793.546	18891.99
793.879	18825.78
794.211	18652.9
794.543	18808.83
794.875	18599.12
795.207	18639.34
795.539	18530.19
795.871	18608.61
796.203	18399.35
796.535	18362.96
796.867	18218.11
797.198	18161.16
797.53	18155.51
797.862	18010.88
798.193	18208.17
798.525	17931.79
798.856	18020.83
799.188	17791.91
799.519	17804.79
799.85	17656.32
800.182	17668.74
800.513	17700.61
800.844	17494.74
801.175	17681.63
801.506	17555.3
801.837	17420.84
802.168	17387.62
802.499	17319.6
802.83	17212.26
803.161	17158.7
803.491	17166.84
803.822	17198.02
804.153	17113.05
804.483	17006.39
804.814	16864.47
805.145	16891.36
805.475	16952.61
805.805	16751.93
806.136	16794.87
806.466	16737.92
806.796	16794.42
807.126	16491.37
807.457	16565.95
807.787	16529.79
808.117	16454.77
808.447	16461.54
808.777	16447.53
809.107	16345.39
809.436	16321.44
809.766	16266.3
810.096	16245.96
810.426	16136.58
810.755	16189.24
811.085	16127.09
811.414	16119.18
811.744	15946.98
812.073	15979.07
812.403	15938.17
812.732	15836.7
813.061	15763.94
813.39	15719.87
813.719	15685.29
814.049	15734.56
814.378	15622.7
814.707	15582.02
815.036	15599.19
815.365	15476.49
815.693	15413.66
816.022	15353.1
816.351	15376.15
816.68	15278.07
817.008	15300.67
817.337	15173.67
817.665	15194.91
817.994	15209.6
818.322	15154.69
818.651	15082.15
818.979	15027.23
819.307	15140.45
819.636	15059.55
819.964	14944.52
820.292	15006.44
820.62	14975.26
820.948	14942.71
821.276	15020.45
821.604	14903.39
821.932	14980.91
822.259	14894.58
822.587	14898.2
822.915	14872.89
823.243	14908.14
823.57	14888.03
823.898	14931.42
824.225	14804.86
824.553	14879.44
824.88	14860.46
825.207	14903.17
825.535	14832.89
825.862	14810.97
826.189	14837.63
826.516	14878.31
826.843	14886.22
827.17	14843.73
827.497	14820.01
827.824	14853.45
828.151	14927.35
828.478	14789.5
828.805	14776.39
829.131	14743.62
829.458	14757.63
829.785	14700.23
830.111	14810.74
830.438	14860.91
830.764	14761.7
831.09	14871.53
831.417	14734.13
831.743	14734.81
832.069	14705.43
832.395	14571.42
832.722	14717.18
833.048	14709.73
833.374	14673.79
833.7	14646.45
834.026	14582.72
834.351	14632.89
834.677	14569.39
835.003	14624.3
835.329	14653
835.654	14634.25
835.98	14552.44
836.306	14486.46
836.631	14531.2
836.956	14566.45
837.282	14532.1
837.607	14453.46
837.932	14419.34
838.258	14360.81
838.583	14440.35
838.908	14386.57
839.233	14313.8
839.558	14288.72
839.883	14286.91
840.208	14323.75
840.533	14228.83
840.858	14195.39
841.182	14188.84
841.507	14235.16
841.832	14010.54
842.156	14082.62
842.481	14010.08
842.805	14017.32
843.13	13942.97
843.454	13952.68
843.778	13911.78
844.103	13866.58
844.427	13784.78
844.751	13867.49
845.075	13872.69
845.399	13776.64
845.723	13687.15
846.047	13762.86
846.371	13608.06
846.695	13571.68
847.019	13446.48
847.343	13477.89
847.666	13391.79
847.99	13314.06
848.313	13298.69
848.637	13227.96
848.96	13242.87
849.284	13147.96
849.607	13145.25
849.931	13023.22
850.254	12960.39
850.577	12835.2
850.9	12774.86
851.223	12763.34
851.546	12654.19
851.869	12600.63
852.192	12706.62
852.515	12667.52
852.838	12536.45
853.161	12477.24
853.483	12445.6
853.806	12423.23
854.129	12428.43
854.451	12338.04
854.774	12254.88
855.096	12235.44
855.419	12201.77
855.741	12257.81
856.063	12166.06
856.385	12184.14
856.708	12092.17
857.03	12062.34
857.352	12019.85
857.674	11967.43
857.996	11922.45
858.318	11880.2
858.64	11878.61
858.961	11810.37
859.283	11751.61
859.605	11725.85
859.926	11741.44
860.248	11776.02
860.57	11651.5
860.891	11653.54
861.212	11584.61
861.534	11593.65
861.855	11525.63
862.176	11511.39
862.498	11519.3
862.819	11492.64
863.14	11449.7
863.461	11447.67
863.782	11336.26
864.103	11385.97
864.424	11392.3
864.745	11407.89
865.065	11244.51
865.386	11187.33
865.707	11269.82
866.027	11309.82
866.348	11193.43
866.668	11233.89
866.989	11152.31
867.309	11115.47
867.63	11183.04
867.95	11114.79
868.27	11009.94
868.59	11097.39
868.91	11040.44
869.23	11071.63
869.55	10967.9
869.87	11018.3
870.19	11015.81
870.51	11033.44
870.83	10988.92
871.15	10945.98
871.469	10927.68
871.789	10898.75
872.109	10905.31
872.428	10771.3
872.748	10862.14
873.067	10858.53
873.386	10900.11
873.706	10812.43
874.025	10764.97
874.344	10739.21
874.663	10750.51
874.982	10777.85
875.301	10748.7
875.62	10733.79
875.939	10635.71
876.258	10668.25
876.577	10639.78
876.896	10601.13
877.214	10576.05
877.533	10657.63
877.852	10534.24
878.17	10622.6
878.489	10537.41
878.807	10535.82
879.125	10517.97
879.444	10512.55
879.762	10475.49
880.08	10415.15
880.398	10410.86
880.716	10414.02
881.034	10439.33
881.352	10318.66
881.67	10322.72
881.988	10309.39
882.306	10296.51
882.624	10240.01
882.941	10226.68
883.259	10216.51
883.577	10170.86
883.894	10171.99
884.212	10225.1
884.529	10137.64
884.846	10112.56
885.164	10080.02
885.481	10078.66
885.798	10047.25
886.115	9950.98
886.432	9982.39
886.75	9959.57
887.067	9952.79
887.383	9951.21
887.7	9879.8
888.017	9836.63
888.334	9896.97
888.651	9802.06
888.967	9814.04
889.284	9827.37
889.6	9699.01
889.917	9715.28
890.233	9721.61
890.55	9605.91
890.866	9615.4
891.182	9609.52
891.498	9593.93
891.815	9585.34
892.131	9619.92
892.447	9493.14
892.763	9431.67
893.079	9527.49
893.395	9430.99
893.71	9446.81
894.026	9420.6
894.342	9385.8
894.657	9337.66
894.973	9330.21
895.289	9255.18
895.604	9273.26
895.92	9229.87
896.235	9139.93
896.55	9185.58
896.865	9104.45
897.181	9102.87
897.496	9098.8
897.811	9032.81
898.126	9018.8
898.441	8952.59
898.756	8958.92
899.071	8884.57
899.386	8846.15
899.7	8781.52
900.015	8762.76
900.33	8662.43
900.644	8671.92
900.959	8715.76
901.273	8692.03
901.588	8616.78
901.902	8625.14
902.216	8592.6
902.531	8586.05
902.845	8579.04
903.159	8486.39
903.473	8399.61
903.787	8368.2
904.101	8390.12
904.415	8413.62
904.729	8311.7
905.042	8263.12
905.356	8297.24
905.67	8240.29
905.984	8260.86
906.297	8193.29
906.611	8168.88
906.924	8140.86
907.237	8075.78
907.551	8068.54
907.864	7987.42
908.177	8015.21
908.491	7959.85
908.804	7926.63
909.117	7906.52
909.43	7889.34
909.743	7815.22
910.056	7744.71
910.368	7822.22
910.681	7702.9
910.994	7704.03
911.307	7711.27
911.619	7588.78
911.932	7586.98
912.244	7539.75
912.557	7607.77
912.869	7538.16
913.181	7464.49
913.494	7447.77
913.806	7429.92
914.118	7374.55
914.43	7272.41
914.742	7333.2
915.054	7260.66
915.366	7250.94
915.678	7256.36
915.99	7176.36
916.302	7179.75
916.613	7140.66
916.925	7142.69
917.236	7086.42
917.548	7060.21
917.859	7030.15
918.171	6965.3
918.482	6930.95
918.794	6976.37
919.105	6952.64
919.416	6807.34
919.727	6881.46
920.038	6796.26
920.349	6771.18
920.66	6744.29
920.971	6733.66
921.282	6659.99
921.593	6667.23
921.903	6644.18
922.214	6631.75
922.525	6578.19
922.835	6582.93
923.146	6513.78
923.456	6518.98
923.767	6514.24
924.077	6442.82
924.387	6424.97
924.697	6385.65
925.008	6388.82
925.318	6378.42
925.628	6326.9
925.938	6282.15
926.248	6310.85
926.558	6246.9
926.867	6208.03
927.177	6250.51
927.487	6216.39
927.796	6056.39
928.106	6089.61
928.416	6118.77
928.725	6114.02
929.034	6027.92
929.344	6015.94
929.653	6041.03
929.962	5977.53
930.271	5943.18
930.581	5891.2
930.89	5886.68
931.199	5875.38
931.508	5859.34
931.817	5843.52
932.125	5777.76
932.434	5758.78
932.743	5741.15
933.051	5656.4
933.36	5690.53
933.669	5685.56
933.977	5590.87
934.286	5589.06
934.594	5580.47
934.902	5579.34
935.21	5488.95
935.519	5513.58
935.827	5486.01
936.135	5462.96
936.443	5431.33
936.751	5415.06
937.059	5383.19
937.367	5401.5
937.674	5360.59
937.982	5381.84
938.29	5300.71
938.597	5316.53
938.905	5229.07
939.213	5214.83
939.52	5193.59
939.827	5217.09
940.135	5151.33
940.442	5115.18
940.749	5104.78
941.056	5148.4
941.363	5072.92
941.67	5040.38
941.977	5042.64
942.284	5013.94
942.591	4970.77
942.898	4926.93
943.205	4980.04
943.511	4915.86
943.818	4933.71
944.125	4896.42
944.431	4850.55
944.738	4825.92
945.044	4815.52
945.35	4761.06
945.657	4817.33
945.963	4753.6
946.269	4781.63
946.575	4681.52
946.881	4692.36
947.187	4716.32
947.493	4640.84
947.799	4685.58
948.105	4645.36
948.41	4583.89
948.716	4627.96
949.022	4573.95
949.327	4571.46
949.633	4523.55
949.938	4508.64
950.244	4483.1
950.549	4433.16
950.854	4427.28
951.16	4447.85
951.465	4441.07
951.77	4349.09
952.075	4378.02
952.38	4323.78
952.685	4361.3
952.99	4307.29
953.294	4324.01
953.599	4287.4
953.904	4248.53
954.209	4238.36
954.513	4208.53
954.818	4200.4
955.122	4164.24
955.426	4173.05
955.731	4147.52
956.035	4101.19
956.339	4104.58
956.643	4129.21
956.948	4094.86
957.252	4078.82
957.556	4053.96
957.86	3996.56
958.163	4013.51
958.467	4012.38
958.771	3994.98
959.075	3969.67
959.378	3916.11
959.682	3949.33
959.985	3892.84
960.289	3901.87
960.592	3924.25
960.896	3812.84
961.199	3856.68
961.502	3846.28
961.805	3782.33
962.108	3797.92
962.411	3777.81
962.714	3756.79
963.017	3716.12
963.32	3797.02
963.623	3728.55
963.926	3702.78
964.228	3697.59
964.531	3693.52
964.833	3669.11
965.136	3602
965.438	3617.59
965.741	3601.09
966.043	3557.25
966.345	3613.75
966.648	3550.02
966.95	3545.73
967.252	3531.72
967.554	3544.6
967.856	3516.57
968.158	3459.4
968.46	3490.13
968.761	3465.05
969.063	3457.59
969.365	3390.7
969.666	3413.07
969.968	3402.45
970.269	3367.2
970.571	3382.11
970.872	3346.18
971.174	3286.75
971.475	3305.28
971.776	3320.65
972.077	3312.74
972.378	3250.14
972.679	3261.21
972.98	3263.7
973.281	3247.65
973.582	3208.56
973.883	3222.57
974.183	3173.08
974.484	3155.23
974.785	3145.96
975.085	3153.42
975.386	3111.61
975.686	3127.88
975.986	3118.39
976.287	3109.35
976.587	3093.53
976.887	3057.83
977.187	3038.62
977.487	3041.78
977.787	3021.67
978.087	3015.34
978.387	3003.37
978.687	2964.5
978.987	2943.93
979.286	2944.16
979.586	2935.57
979.885	2912.52
980.185	2909.36
980.484	2896.93
980.784	2891.05
981.083	2862.13
981.382	2885.4
981.682	2849.7
981.981	2837.95
982.28	2804.28
982.579	2849.25
982.878	2771.28
983.177	2791.17
983.475	2786.65
983.774	2780.1
984.073	2739.42
984.372	2754.11
984.67	2741.23
984.969	2718.86
985.267	2724.05
985.566	2687.67
985.864	2662.36
986.162	2651.96
986.461	2658.52
986.759	2624.85
987.057	2588.46
987.355	2629.14
987.653	2592.53
987.951	2574.45
988.249	2616.48
988.547	2546.88
988.844	2572.19
989.142	2530.84
989.44	2562.7
989.737	2548.92
990.035	2498.52
990.332	2503.04
990.63	2464.17
990.927	2467.56
991.224	2492.42
991.521	2478.64
991.819	2434.79
992.116	2440.67
992.413	2421.91
992.71	2436.15
993.006	2393.67
993.303	2395.25
993.6	2386.89
993.897	2379.43
994.193	2360.22
994.49	2364.06
994.787	2350.5
995.083	2332.42
995.379	2328.36
995.676	2329.03
995.972	2302.14
996.268	2267.57
996.565	2309.15
996.861	2254.69
997.157	2259.88
997.453	2194.35
997.749	2225.08
998.044	2195.48
998.34	2182.6
998.636	2202.48
998.932	2197.06
999.227	2167.01
999.523	2176.95
999.818	2153.9
1000.114	2139.44
1000.409	2123.84
1000.704	2103.05
1001	2110.74
1001.295	2105.54
1001.59	2097.63
1001.885	2064.41
1002.18	2048.36
1002.475	2037.29
1002.77	2042.04
1003.065	2027.8
1003.359	2035.48
1003.654	2000.68
1003.949	1975.82
1004.243	1966.11
1004.538	1962.04
1004.832	2006.11
1005.127	1963.17
1005.421	1956.62
1005.715	1955.71
1006.009	1935.82
1006.304	1933.56
1006.598	1891.76
1006.892	1891.53
1007.186	1901.93
1007.48	1863.06
1007.773	1870.29
1008.067	1864.19
1008.361	1818.77
1008.655	1821.48
1008.948	1845.43
1009.242	1755.04
1009.535	1799.33
1009.829	1780.57
1010.122	1769.05
1010.415	1753
1010.708	1745.1
1011.001	1731.99
1011.295	1741.25
1011.588	1724.76
1011.881	1693.8
1012.173	1737.41
1012.466	1665.1
1012.759	1692.89
1013.052	1661.93
1013.344	1651.76
1013.637	1663.06
1013.93	1661.48
1014.222	1634.59
1014.514	1619.45
1014.807	1607.92
1015.099	1610.64
1015.391	1627.13
1015.683	1626.45
1015.976	1583.07
1016.268	1559.34
1016.56	1560.92
1016.851	1562.05
1017.143	1556.17
1017.435	1555.04
1017.727	1536.97
1018.018	1515.27
1018.31	1497.87
1018.602	1475.72
1018.893	1496.74
1019.185	1456.97
1019.476	1489.51
1019.767	1468.94
1020.058	1455.61
1020.35	1438.44
1020.641	1428.04
1020.932	1436.85
1021.223	1413.35
1021.514	1407.7
1021.804	1401.38
1022.095	1388.72
1022.386	1402.73
1022.677	1376.07
1022.967	1351.21
1023.258	1362.28
1023.548	1363.41
1023.839	1318.21
1024.129	1335.16
1024.419	1316.63
1024.709	1308.04
1025	1313.02
1025.29	1302.85
1025.58	1304.43
1025.87	1266.46
1026.16	1242.96
1026.449	1259.46
1026.739	1238.22
1027.029	1251.1
1027.319	1235.28
1027.608	1196.41
1027.898	1240.48
1028.187	1205.45
1028.477	1178.33
1028.766	1210.65
1029.055	1194.38
1029.344	1178.56
1029.634	1175.62
1029.923	1162.29
1030.212	1174.04
1030.501	1166.35
1030.79	1160.7
1031.078	1108.73
1031.367	1118.45
1031.656	1109.63
1031.945	1105.79
1032.233	1103.98
1032.522	1082.06
1032.81	1075.28
1033.099	1063.53
1033.387	1083.64
1033.675	1074.83
1033.963	1053.59
1034.251	1077.09
1034.54	1043.42
1034.828	1054.72
1035.116	1026.7
1035.403	1038.67
1035.691	1050.42
1035.979	1040.48
1036.267	1000.48
1036.554	1003.19
1036.842	1010.2
1037.129	996.64
1037.417	1004.32
1037.704	978.79
1037.992	961.61
1038.279	964.1
1038.566	949.86
1038.853	949.86
1039.14	949.86
