Data from hue_22_FLMS001491_00011.txt Node
Date: Tue Feb 07 17:09:40 GMT 2017
User: dcchb
Spectrometer: FLMS00149
Trigger mode: 0
Integration Time (sec): 2.000000E-2
Scans to average: 10
Electric dark correction enabled: true
Nonlinearity correction enabled: false
Boxcar width: 0
XAxis mode: Wavelengths
Number of Pixels in Spectrum: 2048
>>>>>Begin Spectral Data<<<<<
341.393	-6.95
341.776	-6.95
342.16	-6.95
342.543	-70.45
342.927	-77.91
343.31	-59.15
343.693	-68.64
344.077	-68.19
344.46	-54.18
344.843	-48.3
345.226	-15.99
345.61	-27.74
345.993	-46.72
346.376	3.9
346.759	0.51
347.142	39.15
347.525	44.58
347.908	53.84
348.291	79.6
348.674	76.66
349.057	90.68
349.44	120.28
349.823	127.06
350.206	148.75
350.588	204.34
350.971	201.18
351.354	213.38
351.737	238.47
352.119	256.09
352.502	262.65
352.884	280.05
353.267	279.6
353.65	288.86
354.032	282.53
354.414	300.16
354.797	325.7
355.179	306.49
355.562	334.74
355.944	324.79
356.326	334.74
356.709	326.38
357.091	352.82
357.473	343.1
357.855	345.13
358.238	339.93
358.62	357.56
359.002	334.74
359.384	349.2
359.766	334.74
360.148	335.41
360.53	316.43
360.912	318.01
361.294	332.48
361.676	341.52
362.057	333.38
362.439	338.13
362.821	348.97
363.203	322.31
363.584	318.92
363.966	318.24
364.348	340.16
364.729	310.56
365.111	328.64
365.493	298.13
365.874	317.79
366.256	329.09
366.637	311.46
367.019	295.87
367.4	313.49
367.781	308.75
368.163	323.66
368.544	306.94
368.925	313.72
369.306	312.59
369.688	280.73
370.069	318.69
370.45	315.75
370.831	284.34
371.212	310.56
371.593	313.27
371.974	304.23
372.355	308.52
372.736	325.47
373.117	307.85
373.498	323.89
373.879	312.59
374.26	309.88
374.641	322.08
375.021	304.23
375.402	326.83
375.783	320.05
376.163	315.3
376.544	342.65
376.925	325.47
377.305	318.01
377.686	347.62
378.066	347.39
378.447	329.31
378.827	319.37
379.208	332.48
379.588	324.79
379.968	334.51
380.349	349.2
380.729	335.41
381.109	334.28
381.489	363.21
381.87	335.19
382.25	366.15
382.63	339.03
383.01	352.36
383.39	350.78
383.77	347.62
384.15	354.4
384.53	332.25
384.91	346.04
385.29	352.82
385.67	347.84
386.049	355.53
386.429	352.14
386.809	361.85
387.189	348.52
387.568	365.02
387.948	353.72
388.328	358.47
388.707	374.96
389.087	355.3
389.466	364.79
389.846	376.77
390.225	381.06
390.605	346.71
390.984	397.33
391.363	385.36
391.743	377.67
392.122	378.58
392.501	378.35
392.881	396.66
393.26	391.46
393.639	377.9
394.018	378.35
394.397	380.84
394.776	372.93
395.155	384.45
395.534	397.33
395.913	401.4
396.292	420.61
396.671	394.4
397.05	407.05
397.429	400.5
397.808	363.66
398.186	405.7
398.565	383.1
398.944	402.08
399.323	386.49
399.701	402.76
400.08	408.18
400.458	423.55
400.837	402.76
401.215	411.57
401.594	400.95
401.972	415.64
402.351	423.55
402.729	412.7
403.107	414.28
403.486	414.96
403.864	408.63
404.242	410.67
404.62	434.62
404.999	432.59
405.377	420.38
405.755	419.03
406.133	450.89
406.511	437.33
406.889	451.57
407.267	460.84
407.645	448.41
408.023	446.6
408.401	448.41
408.779	445.02
409.156	462.64
409.534	466.48
409.912	454.51
410.29	456.09
410.667	478.24
411.045	474.39
411.422	469.42
411.8	474.39
412.178	484.79
412.555	493.38
412.933	487.73
413.31	468.07
413.687	487.28
414.065	505.35
414.442	502.19
414.819	511.68
415.197	483.89
415.574	511
415.951	524.79
416.328	528.63
416.705	511.68
417.082	531.12
417.46	520.27
417.837	511.91
418.214	544
418.591	542.87
418.967	550.32
419.344	536.77
419.721	535.18
420.098	559.14
420.475	546.71
420.852	557.56
421.228	558.69
421.605	567.5
421.982	559.14
422.358	558.01
422.735	588.06
423.111	578.35
423.488	565.01
423.864	579.93
424.241	575.18
424.617	582.87
424.994	583.09
425.37	578.8
425.746	600.72
426.123	601.17
426.499	599.36
426.875	611.79
427.251	615.86
427.627	610.44
428.003	623.99
428.379	631.45
428.756	657.89
429.132	663.54
429.507	670.1
429.883	634.39
430.259	668.06
430.635	644.56
431.011	664.9
431.387	671.23
431.763	683.43
432.138	699.93
432.514	655.63
432.89	682.98
433.265	709.42
433.641	696.76
434.016	706.48
434.392	724.78
434.767	719.59
435.143	723.65
435.518	720.04
435.894	739.02
436.269	734.73
436.644	732.69
437.02	746.03
437.395	757.1
437.77	764.33
438.145	780.83
438.52	788.96
438.895	790.09
439.271	786.02
439.646	804.78
440.021	785.8
440.395	812.24
440.77	795.97
441.145	816.53
441.52	824.22
441.895	818.79
442.27	829.19
442.645	826.93
443.019	837.55
443.394	844.1
443.769	823.09
444.143	818.79
444.518	868.28
444.892	842.29
445.267	859.69
445.641	877.77
446.016	857.21
446.39	850.43
446.764	880.03
447.139	895.63
447.513	897.21
447.887	898.34
448.262	880.03
448.636	914.16
449.01	916.64
449.384	919.58
449.758	892.24
450.132	920.26
450.506	920.94
450.88	935.85
451.254	936.53
451.628	954.38
452.002	974.95
452.376	959.13
452.75	980.37
453.123	991.67
453.497	996.19
453.871	1006.81
454.244	1016.3
454.618	1009.75
454.992	1043.42
455.365	1041.16
455.739	1040.93
456.112	1066.24
456.486	1058.11
456.859	1047.26
457.232	1084.32
457.606	1113.25
457.979	1125.9
458.352	1144.21
458.725	1142.4
459.099	1147.14
459.472	1171.78
459.845	1151.44
460.218	1195.51
460.591	1173.13
460.964	1219.01
461.337	1230.53
461.71	1245
462.083	1257.88
462.456	1249.29
462.829	1266.24
463.201	1281.15
463.574	1291.55
463.947	1300.59
464.32	1329.29
464.692	1315.73
465.065	1340.81
465.438	1349.4
465.81	1382.39
466.183	1401.83
466.555	1419.23
466.928	1423.75
467.3	1439.34
467.672	1466.46
468.045	1499
468.417	1503.97
468.789	1528.83
469.161	1524.08
469.534	1539.45
469.906	1598.43
470.278	1613.8
470.65	1619.45
471.022	1616.51
471.394	1685.89
471.766	1661.48
472.138	1715.04
472.51	1732.89
472.882	1782.16
473.253	1768.37
473.625	1804.3
473.997	1857.18
474.369	1869.61
474.74	1863.51
475.112	1923.17
475.484	1944.19
475.855	1988.7
476.227	2005.88
476.598	2044.07
476.97	2060.34
477.341	2092.66
477.713	2136.95
478.084	2157.06
478.455	2209.72
478.827	2243.39
479.198	2348.7
479.569	2316.38
479.94	2392.54
480.311	2410.16
480.682	2478.41
481.053	2556.15
481.424	2607.22
481.795	2593.66
482.166	2648.35
482.537	2689.48
482.908	2750.94
483.279	2788.91
483.65	2833.65
484.021	2921.34
484.391	2930.83
484.762	2992.29
485.133	3003.82
485.503	3083.14
485.874	3153.87
486.244	3171.72
486.615	3232.29
486.985	3307.54
487.356	3332.17
487.726	3362
488.097	3479.96
488.467	3477.71
488.837	3545.73
489.207	3592.05
489.578	3634.99
489.948	3661.66
490.318	3731.71
490.688	3753.86
491.058	3790.92
491.428	3892.16
491.798	3942.78
492.168	3986.62
492.538	4035.88
492.908	4090.57
493.278	4130.57
493.648	4106.39
494.017	4245.37
494.387	4261.64
494.757	4284.46
495.126	4321.98
495.496	4367.17
495.866	4402.43
496.235	4442.43
496.605	4490.11
496.974	4516.55
497.344	4585.47
497.713	4585.47
498.082	4623.66
498.452	4707.96
498.821	4686.71
499.19	4799.7
499.559	4820.95
499.928	4841.74
500.298	4877.89
500.667	4923.09
501.036	4918.57
501.405	4983.43
501.774	4980.04
502.143	4993.82
502.512	5032.47
502.88	5104.78
503.249	5064.78
503.618	5123.09
503.987	5145.01
504.356	5145.68
504.724	5169.86
505.093	5258.68
505.462	5273.59
505.83	5336.19
506.199	5313.59
506.567	5436.07
506.936	5375.51
507.304	5404.66
507.672	5491.66
508.041	5485.79
508.409	5534.15
508.777	5527.82
509.145	5600.59
509.514	5600.36
509.882	5607.82
510.25	5652.34
510.618	5690.3
510.986	5663.41
511.354	5745.67
511.722	5829.06
512.09	5827.47
512.458	5828.83
512.826	5869.73
513.193	5868.83
513.561	5928.26
513.929	5950.86
514.297	6016.17
514.664	5998.54
515.032	6026.79
515.4	6071.76
515.767	6090.07
516.135	6184.98
516.502	6071.31
516.869	6176.84
517.237	6225.66
517.604	6178.88
517.972	6248.71
518.339	6272.89
518.706	6309.27
519.073	6266.33
519.44	6360.12
519.808	6462.03
520.175	6374.8
520.542	6437.18
520.909	6445.31
521.276	6502.48
521.643	6526.21
522.009	6561.24
522.376	6666.77
522.743	6640.79
523.11	6692.99
523.477	6706.55
523.843	6798.07
524.21	6807.34
524.577	6912.19
524.943	6871.51
525.31	6857.96
525.676	6989.03
526.043	7020.21
526.409	7013.66
526.776	7119.42
527.142	7131.39
527.508	7144.05
527.874	7238.96
528.241	7229.92
528.607	7250.94
528.973	7329.81
529.339	7315.57
529.705	7386.3
530.071	7440.76
530.437	7514.89
530.803	7526.19
531.169	7587.65
531.535	7546.3
531.901	7573.42
532.267	7596.47
532.632	7699.52
532.998	7705.62
533.364	7730.7
533.73	7803.92
534.095	7854.09
534.461	7799.63
534.826	7874.2
535.192	7928.21
535.557	8041.43
535.923	7932.5
536.288	7969.79
536.653	8010.69
537.019	8005.95
537.384	8072.61
537.749	8143.57
538.114	8197.81
538.479	8168.2
538.845	8216.79
539.21	8212.5
539.575	8280.06
539.94	8315.32
540.305	8349.22
540.67	8357.58
541.034	8411.59
541.399	8438.93
541.764	8448.87
542.129	8513.28
542.494	8558.02
542.858	8587.4
543.223	8526.16
543.587	8650
543.952	8666.27
544.316	8675.31
544.681	8725.02
545.045	8714.4
545.41	8806.6
545.774	8817.23
546.138	8814.29
546.503	8905.13
546.867	8899.48
547.231	8971.57
547.595	8965.7
547.959	9048.18
548.324	9026.71
548.688	9100.83
549.052	9095.18
549.416	9165.01
549.779	9115.97
550.143	9133.6
550.507	9234.16
550.871	9284.78
551.235	9306.03
551.599	9351.68
551.962	9309.19
552.326	9379.92
552.689	9443.65
553.053	9414.95
553.417	9532.91
553.78	9566.13
554.143	9453.59
554.507	9537.66
554.87	9573.82
555.234	9685.9
555.597	9719.35
555.96	9658.79
556.323	9776.3
556.686	9812.45
557.05	9839.12
557.413	9870.31
557.776	9863.3
558.139	10002.73
558.502	9949.85
558.865	9980.36
559.228	10063.52
559.59	10055.61
559.953	10070.98
560.316	10157.98
560.679	10150.3
561.041	10195.27
561.404	10231.65
561.767	10284.31
562.129	10291.31
562.492	10416.05
562.854	10394.13
563.217	10365.21
563.579	10455.15
563.941	10566.33
564.304	10536.05
564.666	10581.25
565.028	10626.44
565.39	10625.54
565.753	10742.37
566.115	10688.36
566.477	10757.51
566.839	10840.68
567.201	10860.34
567.563	10885.42
567.925	10943.05
568.287	10936.04
568.648	11066.88
569.01	11067.11
569.372	11118.18
569.734	11080.9
570.095	11177.62
570.457	11266.43
570.819	11307.56
571.18	11193.89
571.542	11365.18
571.903	11364.96
572.265	11414.22
572.626	11493.31
572.987	11496.48
573.349	11632.52
573.71	11600.2
574.071	11722.01
574.432	11768.56
574.794	11876.81
575.155	11896.69
575.516	11900.53
575.877	11960.42
576.238	12093.3
576.599	12155.67
576.96	12170.13
577.32	12284.25
577.681	12319.05
578.042	12447.64
578.403	12601.99
578.763	12647.86
579.124	12722.21
579.485	12873.84
579.845	12992.48
580.206	13082.2
580.566	13170.33
580.927	13269.99
581.287	13400.16
581.648	13577.55
582.008	13735.51
582.368	13774.84
582.728	13975.06
583.089	14101.83
583.449	14259.79
583.809	14441.03
584.169	14563.06
584.529	14705.66
584.889	15010.06
585.249	15180.67
585.609	15302.25
585.969	15550.16
586.329	15781.56
586.688	15919.64
587.048	16149.69
587.408	16373.41
587.768	16570.02
588.127	16829.44
588.487	17098.14
588.846	17442.99
589.206	17528.18
589.565	17823.99
589.925	18209.07
590.284	18378.56
590.643	18604.77
591.003	19021.48
591.362	19340.34
591.721	19587.11
592.08	19773.55
592.44	20186.19
592.799	20492.4
593.158	20701.89
593.517	20986.4
593.876	21394.97
594.235	21512.71
594.593	21879.48
594.952	22234.95
595.311	22498.45
595.67	22918.55
596.029	23283.74
596.387	23672.2
596.746	23991.74
597.104	24153.32
597.463	24633.31
597.822	24902.23
598.18	25180.41
598.538	25602.55
598.897	26001.63
599.255	26027.17
599.613	26663.76
599.972	26884.55
600.33	27193.47
600.688	27514.59
601.046	27877.06
601.404	28288.13
601.762	28484.05
602.12	28894.44
602.478	29249.68
602.836	29387.31
603.194	29606.28
603.552	30022.54
603.91	30315.19
604.268	30685.13
604.625	30808.74
604.983	31262.29
605.341	31365.11
605.698	31888.48
606.056	32131.64
606.413	32361.24
606.771	32769.36
607.128	33000.32
607.485	33140.2
607.843	33343.36
608.2	33707.64
608.557	34219.27
608.914	34177.01
609.272	34735.19
609.629	34845.47
609.986	35224.22
610.343	35434.15
610.7	35787.59
611.057	36116.39
611.414	36073.46
611.771	36339.21
612.127	36821.91
612.484	36923.83
612.841	37237.04
613.198	37318.85
613.554	37505.29
613.911	37845.84
614.267	37983.92
614.624	38138.04
614.98	38372.61
615.337	38816.21
615.693	38873.84
616.05	38810.56
616.406	39260.95
616.762	39312.92
617.118	39501.39
617.475	39642.86
617.831	40023.18
618.187	40040.13
618.543	40153.58
618.899	40727.35
619.255	40658.42
619.611	40685.99
619.967	40958.3
620.323	41264.06
620.678	41117.17
621.034	41241.01
621.39	41350.83
621.746	41558.96
622.101	41880.54
622.457	41693.2
622.812	41926.64
623.168	42166.18
623.523	42160.53
623.879	42441.2
624.234	42187.65
624.589	42469.9
624.945	42587.41
625.3	42751.25
625.655	42804.81
626.01	42992.6
626.365	43078.47
626.72	42994.86
627.075	43190.56
627.43	43134.97
627.785	43165.25
628.14	43332.93
628.495	43431.46
628.85	43409.99
629.205	43319.37
629.559	43758
629.914	43475.75
630.269	43538.35
630.623	43532.47
630.978	43567.5
631.332	43705.8
631.687	43833.03
632.041	43686.59
632.396	43743.54
632.75	43731.34
633.104	43765.91
633.459	43795.74
633.813	43870.09
634.167	43918.22
634.521	43861.05
634.875	43959.8
635.229	43968.84
635.583	43824.67
635.937	43871.22
636.291	43881.61
636.645	43907.15
636.999	43886.13
637.352	43997.09
637.706	43666.25
638.06	43998.9
638.413	43893.37
638.767	43832.35
639.121	43892.69
639.474	43671.45
639.828	43781.5
640.181	43850.2
640.534	43873.03
640.888	43727.27
641.241	43703.77
641.594	43597.78
641.947	43855.85
642.301	43753.03
642.654	43829.41
643.007	43787.15
643.36	43841.16
643.713	43656.99
644.066	43983.31
644.419	43735.4
644.771	43423.32
645.124	43040.73
645.477	43033.73
645.83	42753.28
646.182	42591.48
646.535	42698.14
646.888	42668.54
647.24	42528.43
647.593	42766.84
647.945	42800.96
648.298	42555.55
648.65	42502.67
649.002	42364.37
649.355	42571.37
649.707	42453.63
650.059	42693.4
650.411	43180.84
650.763	43134.97
651.115	43647.04
651.467	43508.97
651.819	43496.99
652.171	43201.41
652.523	43396.66
652.875	43184.01
653.227	43240.95
653.578	43389.2
653.93	43304.45
654.282	43254.06
654.633	43029.43
654.985	43261.29
655.337	43260.16
655.688	43207.28
656.039	43333.38
656.391	43037.57
656.742	42998.93
657.094	43101.07
657.445	43289.31
657.796	43185.14
658.147	43118.47
658.498	43063.33
658.849	43184.23
659.2	43098.36
659.551	43009.77
659.902	43006.16
660.253	43143.78
660.604	43059.72
660.955	42847.29
661.306	43123.89
661.656	42987.4
662.007	43025.14
662.358	43045.93
662.708	43021.75
663.059	43053.84
663.409	42783.56
663.76	43023.11
664.11	43065.59
664.461	43194.17
664.811	43140.39
665.161	42978.59
665.511	42889.1
665.862	42932.26
666.212	43036.44
666.562	43018.81
666.912	42911.47
667.262	42987.4
667.612	43029.66
667.962	43090.9
668.312	42859.04
668.662	43141.07
669.011	42937.91
669.361	42834.86
669.711	42816.11
670.06	42820.17
670.41	42776.11
670.76	42784.02
671.109	42937.23
671.459	42840.74
671.808	42846.16
672.157	42941.75
672.507	42611.82
672.856	42663.79
673.205	42657.24
673.554	42620.86
673.904	42679.84
674.253	42830.79
674.602	42664.02
674.951	42106.97
675.3	41907.43
675.649	42570.01
675.998	42577.24
676.346	42581.99
676.695	42666.51
677.044	42224.93
677.393	42548.77
677.741	42449.56
678.09	42431.26
678.438	42427.19
678.787	42564.59
679.135	42476
679.484	42257.48
679.832	42365.72
680.181	42058.61
680.529	42339.28
680.877	42071.72
681.225	42109.01
681.573	42353.29
681.922	42049.8
682.27	41921.21
682.618	42066.75
682.966	41789.47
683.314	41909.24
683.661	41815.91
684.009	41639.19
684.357	41523.48
684.705	41577.72
685.053	41494.56
685.4	41502.02
685.748	41246.88
686.095	41295.02
686.443	41140.67
686.79	41117.85
687.138	41223.38
687.485	41223.61
687.832	41160.1
688.18	41039.66
688.527	40937.29
688.874	40827.01
689.221	40805.99
689.568	40570.74
689.915	40695.48
690.262	40588.14
690.609	40494.58
690.956	40362.84
691.303	40295.72
691.65	40035.61
691.997	40160.36
692.344	39911.55
692.69	39839.69
693.037	39861.16
693.383	39468.17
693.73	39710.2
694.077	39452.13
694.423	39475.63
694.769	39433.14
695.116	39222.08
695.462	39166.03
695.808	39114.06
696.155	39241.51
696.501	38684.92
696.847	39008.97
697.193	38675.42
697.539	38716.1
697.885	38470.68
698.231	38289.67
698.577	38444.47
698.923	38406.05
699.269	38191.59
699.614	37961.77
699.96	38019.17
700.306	37909.57
700.651	37778.27
700.997	37719.06
701.342	37610.82
701.688	37598.84
702.033	37400.66
702.379	37482.69
702.724	37367.44
703.069	37357.04
703.415	36977.39
703.76	37045.64
704.105	36879.09
704.45	36989.82
704.795	36753.44
705.14	36644.74
705.485	36578.76
705.83	36500.79
706.175	36479.78
706.52	36511.41
706.865	36221.25
707.209	36282.72
707.554	36185.55
707.899	36277.75
708.243	35890.86
708.588	36100.12
708.932	35597.99
709.277	35757.53
709.621	35754.6
709.966	35475.28
710.31	35706.01
710.654	35280.03
710.998	35281.61
711.342	35426.24
711.687	35273.25
712.031	35126.82
712.375	34954.17
712.719	34971.79
713.063	34974.05
713.407	35000.94
713.75	34743.32
714.094	34728.41
714.438	34594.4
714.782	34749.2
715.125	34615.42
715.469	34515.99
715.812	34361.41
716.156	34311.24
716.499	34283.67
716.843	34239.83
717.186	34173.62
717.53	34250.46
717.873	34181.53
718.216	34117.35
718.559	34013.17
718.902	33793.29
719.246	33779.73
719.589	33771.37
719.932	33706.74
720.275	33551.94
720.617	33616.57
720.96	33541.77
721.303	33516.01
721.646	33549.46
721.989	33293.64
722.331	33448.89
722.674	33324.6
723.016	33211.84
723.359	33244.15
723.701	33248.22
724.044	33037.61
724.386	32847.78
724.729	33077.15
725.071	32847.1
725.413	32794.9
725.755	32884.16
726.097	32692.76
726.439	32528.24
726.782	32477.62
727.124	32525.53
727.465	32551.52
727.807	32494.8
728.149	32463.38
728.491	32318.53
728.833	32359.88
729.175	32226.55
729.516	32241.24
729.858	32215.71
730.199	32310.62
730.541	32142.26
730.882	32090.74
731.224	32158.08
731.565	31860.91
731.906	31936.17
732.248	32057.97
732.589	31891.2
732.93	31709.73
733.271	31743.63
733.612	31687.81
733.953	31726.45
734.294	31619.56
734.635	31524.43
734.976	31474.94
735.317	31331.89
735.658	31448.72
735.999	31417.08
736.339	31316.3
736.68	31430.87
737.021	31323.3
737.361	31169.18
737.702	31392.9
738.042	31273.58
738.383	31184.32
738.723	31205.56
739.063	31033.36
739.404	31120.37
739.744	31004.44
740.084	30820.72
740.424	30955.85
740.764	30768.96
741.104	30902.07
741.444	30634.51
741.784	30740.04
742.124	30540.27
742.464	30812.81
742.804	30475.19
743.143	30521.29
743.483	30578.91
743.823	30406.04
744.162	30471.57
744.502	30410.56
744.841	30335.08
745.181	30434.28
745.52	30282.88
745.86	30230.22
746.199	30231.13
746.538	30133.05
746.877	30129.89
747.216	30207.85
747.556	30064.35
747.895	30101.19
748.234	29839.5
748.573	29862.1
748.911	29806.96
749.25	29866.62
749.589	29729.44
749.928	29763.34
750.267	29853.51
750.605	29755.88
750.944	29673.4
751.283	29536.68
751.621	29660.97
751.96	29538.26
752.298	29489.22
752.636	29474.54
752.975	29397.25
753.313	29276.8
753.651	29385.95
753.989	29074.09
754.327	29200.87
754.666	28919.07
755.004	28992.97
755.342	28908.22
755.679	28953.65
756.017	28749.13
756.355	28781.45
756.693	28653.54
757.031	28732.41
757.368	28578.29
757.706	28505.75
758.044	28382.59
758.381	28538.74
758.719	28346.2
759.056	28298.75
759.394	28403.6
759.731	28044.74
760.068	28063.5
760.405	28024.86
760.743	27857.18
761.08	28047
761.417	27749.61
761.754	27778.08
762.091	27843.17
762.428	27603.85
762.765	27483.63
763.102	27552.78
763.438	27422.16
763.775	27240.02
764.112	27245.67
764.449	27388.94
764.785	27198.44
765.122	26929.74
765.458	26814.04
765.795	26718
766.131	26758
766.467	26675.06
766.804	26555.06
767.14	26524.78
767.476	26329.76
767.812	26256.32
768.148	26404.56
768.485	26214.96
768.821	26089.54
769.157	26000.05
769.492	26061.07
769.828	25992.14
770.164	25731.36
770.5	25625.6
770.836	25665.6
771.171	25466.73
771.507	25511.7
771.842	25239.17
772.178	25275.55
772.513	25224.93
772.849	25068.1
773.184	25018.38
773.519	24943.81
773.855	24826.52
774.19	24690.48
774.525	24745.85
774.86	24745.85
775.195	24563.7
775.53	24532.97
775.865	24277.61
776.2	24121.23
776.535	23980.67
776.87	23990.84
777.205	23954.23
777.539	23818.64
777.874	23903.16
778.209	23649.6
778.543	23645.99
778.878	23431.53
779.212	23597.63
779.547	23370.06
779.881	23403.28
780.215	23208.94
780.55	23301.36
780.884	23080.81
781.218	23114.93
781.552	23071.99
781.886	22834.48
782.22	22723.98
782.554	22682.85
782.888	22522.63
783.222	22430.88
783.556	22274.05
783.889	22203.54
784.223	22236.76
784.557	22001.29
784.89	22156.31
785.224	21989.76
785.557	21884.45
785.891	21765.59
786.224	21702.99
786.558	21711.35
786.891	21586.38
787.224	21420.96
787.557	21312.26
787.891	21364.24
788.224	21345.94
788.557	21300.97
788.89	21218.03
789.223	21178.93
789.556	21030.69
789.888	21053.74
790.221	20814.65
790.554	20750.25
790.887	20692.39
791.219	20613.98
791.552	20677.48
791.884	20538.27
792.217	20442.91
792.549	20444.72
792.882	20296.92
793.214	20145.06
793.546	20206.08
793.879	20147.55
794.211	19994.11
794.543	20073.88
794.875	19964.96
795.207	20004.05
795.539	19803.6
795.871	19841.12
796.203	19625.76
796.535	19518.64
796.867	19432.09
797.198	19315.25
797.53	19362.03
797.862	19265.54
798.193	19329.72
798.525	19096.28
798.856	19178.54
799.188	19027.58
799.519	18928.37
799.85	18862.16
800.182	18859.45
800.513	18902.84
800.844	18672.33
801.175	18732.22
801.506	18774.93
801.837	18600.7
802.168	18566.12
802.499	18487.93
802.83	18488.84
803.161	18342.85
803.491	18382.17
803.822	18340.37
804.153	18332.91
804.483	18084.78
804.814	17950.32
805.145	18031.22
805.475	18049.98
805.805	17977.21
806.136	17877.55
806.466	17971.56
806.796	17878.46
807.126	17659.03
807.457	17673.04
807.787	17664.68
808.117	17562.31
808.447	17480.27
808.777	17601.63
809.107	17487.51
809.436	17402.54
809.766	17374.74
810.096	17321.63
810.426	17255.87
810.755	17296.1
811.085	17154.86
811.414	17207.97
811.744	17042.09
812.073	17127.06
812.403	16969.55
812.732	16861.31
813.061	16947.86
813.39	16803.46
813.719	16734.08
814.049	16837.13
814.378	16852.95
814.707	16650.01
815.036	16586.51
815.365	16566.17
815.693	16447.53
816.022	16508.55
816.351	16446.63
816.68	16302.23
817.008	16393.98
817.337	16160.76
817.665	16244.15
817.994	16201.89
818.322	16171.16
818.651	16124.6
818.979	16095.68
819.307	16133.42
819.636	16069.24
819.964	15965.51
820.292	16077.37
820.62	16090.03
820.948	15941.33
821.276	15989.92
821.604	15905.18
821.932	15943.37
822.259	15974.78
822.587	15865.85
822.915	15928.45
823.243	15925.97
823.57	15784.5
823.898	15930.03
824.225	15858.62
824.553	15808.91
824.88	15926.87
825.207	15916.7
825.535	15814.56
825.862	15873.99
826.189	15819.98
826.516	15864.5
826.843	15882.12
827.17	15870.15
827.497	15895.46
827.824	15755.8
828.151	15843.71
828.478	15833.76
828.805	15828.11
829.131	15798.51
829.458	15801.22
829.785	15759.42
830.111	15815.01
830.438	15874.22
830.764	15809.58
831.09	15793.09
831.417	15595.35
831.743	15826.76
832.069	15770.72
832.395	15744.28
832.722	15756.93
833.048	15703.82
833.374	15647.78
833.7	15635.8
834.026	15590.83
834.351	15606.2
834.677	15647.1
835.003	15771.39
835.329	15699.08
835.654	15552.64
835.98	15571.4
836.306	15560.55
836.631	15542.92
836.956	15526.2
837.282	15535.02
837.607	15448.69
837.932	15490.5
838.258	15403.49
838.583	15350.39
838.908	15318.3
839.233	15338.41
839.558	15296.38
839.883	15268.81
840.208	15170.96
840.533	15206.89
840.858	15156.95
841.182	15127.12
841.507	15187.68
841.832	14995.14
842.156	15054.58
842.481	15108.36
842.805	14963.96
843.13	14966.44
843.454	14991.75
843.778	14810.51
844.103	14912.43
844.427	14766.22
844.751	14776.62
845.075	14743.85
845.399	14627.69
845.723	14564.65
846.047	14597.41
846.371	14497.08
846.695	14482.84
847.019	14374.82
847.343	14396.51
847.666	14248.5
847.99	14279.46
848.313	14220.02
848.637	14090.99
848.96	14091.21
849.284	14089.18
849.607	13981.16
849.931	13896.87
850.254	13846.25
850.577	13763.99
850.9	13601.05
851.223	13655.74
851.546	13651.9
851.869	13470.21
852.192	13576.87
852.515	13485.8
852.838	13327.39
853.161	13401.51
853.483	13273.61
853.806	13269.54
854.129	13207.39
854.451	13159.48
854.774	13204.68
855.096	13137.56
855.419	13127.39
855.741	12986.83
856.063	13000.39
856.385	12942.99
856.708	12844.69
857.03	12792.71
857.352	12864.8
857.674	12840.4
857.996	12787.52
858.318	12623.45
858.64	12659.38
858.961	12537.58
859.283	12612.15
859.605	12526.73
859.926	12599.73
860.248	12487.19
860.57	12405.61
860.891	12394.53
861.212	12376.23
861.534	12325.61
861.855	12265.04
862.176	12358.6
862.498	12284.71
862.819	12280.19
863.14	12241.99
863.461	12247.19
863.782	12190.02
864.103	12147.99
864.424	12143.69
864.745	12121.77
865.065	12087.42
865.386	12024.83
865.707	12004.26
866.027	12006.29
866.348	11952.06
866.668	12045.84
866.989	11905.28
867.309	11834.32
867.63	11830.03
867.95	11898.73
868.27	11789.13
868.59	11864.38
868.91	11782.8
869.23	11812.85
869.55	11754.78
869.87	11812.18
870.19	11781.22
870.51	11781.22
870.83	11765.62
871.15	11646.98
871.469	11702.57
871.789	11733.31
872.109	11657.83
872.428	11566.08
872.748	11627.1
873.067	11564.5
873.386	11603.59
873.706	11554.78
874.025	11482.24
874.344	11448.34
874.663	11497.61
874.982	11423.94
875.301	11439.08
875.62	11428.23
875.939	11405.86
876.258	11405.86
876.577	11325.41
876.896	11324.28
877.214	11229.82
877.533	11329.48
877.852	11266.43
878.17	11260.1
878.489	11346.42
878.807	11207.45
879.125	11238.86
879.444	11164.73
879.762	11181.01
880.08	11227.33
880.398	11146.2
880.716	11144.85
881.034	11065.3
881.352	11084.06
881.67	11025.3
881.988	11044.06
882.306	10971.52
882.624	10969.71
882.941	10983.04
883.259	10897.4
883.577	10838.19
883.894	10818.3
884.212	10799.77
884.529	10901.69
884.846	10831.64
885.164	10758.42
885.481	10735.14
885.798	10765.42
886.115	10658.08
886.432	10686.56
886.75	10572.89
887.067	10598.65
887.383	10587.12
887.7	10646.78
888.017	10543.06
888.334	10446.34
888.651	10428.71
888.967	10482.72
889.284	10426.67
889.6	10322.27
889.917	10310.97
890.233	10390.52
890.55	10273.46
890.866	10308.94
891.182	10253.12
891.498	10193.69
891.815	10167.92
892.131	10178.32
892.447	10097.87
892.763	10084.76
893.079	10089.96
893.395	10057.19
893.71	9974.26
894.026	9880.47
894.342	9987.36
894.657	9936.52
894.973	9825.11
895.289	9883.19
895.604	9801.38
895.92	9736.3
896.235	9708.28
896.55	9758.9
896.865	9661.95
897.181	9701.72
897.496	9628.96
897.811	9616.07
898.126	9541.73
898.441	9543.31
898.756	9505.12
899.071	9470.54
899.386	9452.24
899.7	9382.63
900.015	9336.76
900.33	9266.93
900.644	9308.74
900.959	9300.15
901.273	9261.73
901.588	9172.24
901.902	9147.39
902.216	9171.34
902.531	9033.27
902.845	9115.3
903.159	9058.58
903.473	9029.65
903.787	9019.93
904.101	8925.02
904.415	8835.53
904.729	8851.35
905.042	8870.56
905.356	8874.85
905.67	8759.15
905.984	8764.57
906.297	8736.55
906.611	8651.81
906.924	8679.38
907.237	8646.83
907.551	8599.15
907.864	8526.61
908.177	8515.09
908.491	8477.8
908.804	8448.42
909.117	8451.59
909.43	8360.06
909.743	8315.09
910.056	8371.36
910.368	8259.05
910.681	8290.69
910.994	8224.92
911.307	8249.78
911.619	8138.83
911.932	8134.53
912.244	8046.62
912.557	8041.65
912.869	7950.13
913.181	7957.14
913.494	7917.14
913.806	7937.47
914.118	7850.7
914.43	7795.56
914.742	7879.4
915.054	7782
915.366	7734.54
915.678	7773.64
915.99	7673.98
916.302	7573.19
916.613	7607.31
916.925	7579.52
917.236	7574.55
917.548	7496.58
917.859	7599.18
918.171	7467.43
918.482	7432.4
918.794	7408.9
919.105	7394.66
919.416	7369.58
919.727	7287.77
920.038	7267.89
920.349	7221.56
920.66	7229.92
920.971	7212.97
921.282	7139.08
921.593	7174.56
921.903	7108.34
922.214	7064.96
922.525	7094.33
922.835	7035.13
923.146	6999.87
923.456	6946.99
923.767	6902.7
924.077	6896.82
924.387	6864.73
924.697	6797.62
925.008	6826.77
925.318	6777.51
925.628	6748.13
925.938	6659.99
926.248	6628.36
926.558	6663.16
926.867	6591.52
927.177	6604.63
927.487	6571.86
927.796	6488.47
928.106	6495.7
928.416	6520.11
928.725	6444.63
929.034	6425.42
929.344	6431.07
929.653	6337.29
929.962	6391.07
930.271	6312.43
930.581	6289.83
930.89	6223.85
931.199	6250.97
931.508	6197.41
931.817	6205.77
932.125	6193.57
932.434	6151.76
932.743	6112.66
933.051	6085.09
933.36	6069.73
933.669	5989.5
933.977	6013.01
934.286	5960.35
934.594	5965.78
934.902	5916.06
935.21	5899.11
935.519	5864.08
935.827	5840.81
936.135	5828.83
936.443	5737.76
936.751	5791.32
937.059	5748.61
937.367	5728.04
937.674	5695.5
937.982	5667.93
938.29	5634.71
938.597	5683.75
938.905	5595.62
939.213	5563.98
939.52	5539.12
939.827	5556.29
940.135	5492.79
940.442	5464.32
940.749	5437.65
941.056	5449.63
941.363	5380.25
941.67	5379.8
941.977	5315.17
942.284	5342.06
942.591	5297.09
942.898	5288.96
943.205	5270.88
943.511	5224.78
943.818	5218.9
944.125	5161.95
944.431	5196.08
944.738	5137.1
945.044	5128.51
945.35	5067.72
945.657	5068.17
945.963	5055.74
946.269	5053.71
946.575	5076.76
946.881	4970.77
947.187	4977.55
947.493	4946.37
947.799	4962.19
948.105	4901.4
948.41	4906.37
948.716	4858.69
949.022	4863.21
949.327	4855.3
949.633	4809.65
949.938	4831.12
950.244	4773.94
950.549	4735.98
950.854	4743.21
951.16	4705.47
951.465	4703.44
951.77	4680.39
952.075	4645.13
952.38	4664.34
952.685	4596.77
952.99	4580.5
953.294	4533.5
953.599	4542.08
953.904	4544.12
954.209	4475.42
954.513	4489.2
954.818	4453.72
955.122	4444.23
955.426	4433.61
955.731	4430.22
956.035	4346.38
956.339	4389.09
956.643	4370.34
956.948	4324.24
957.252	4330.56
957.556	4309.55
957.86	4277.91
958.163	4271.36
958.467	4264.58
958.771	4255.76
959.075	4178.48
959.378	4165.6
959.682	4214.86
959.985	4113.39
960.289	4132.6
960.592	4113.39
960.896	4069.55
961.199	4052.15
961.502	4072.49
961.805	4052.61
962.108	4030.91
962.411	3992.49
962.714	3983.23
963.017	3972.83
963.32	3997.69
963.623	3923.8
963.926	3949.78
964.228	3871.59
964.531	3907.3
964.833	3867.75
965.136	3862.55
965.438	3860.97
965.741	3797.47
966.043	3809.9
966.345	3799.73
966.648	3756.12
966.95	3727.64
967.252	3697.59
967.554	3703.69
967.856	3717.25
968.158	3639.28
968.46	3660.98
968.761	3629.11
969.063	3626.85
969.365	3576.91
969.666	3565.16
969.968	3568.32
970.269	3557.48
970.571	3578.04
970.872	3562.22
971.174	3521.32
971.475	3509.57
971.776	3512.51
972.077	3510.92
972.378	3466.18
972.679	3458.95
972.98	3416.92
973.281	3440.87
973.582	3398.61
973.883	3371.49
974.183	3339.4
974.484	3356.58
974.785	3341.66
975.085	3284.49
975.386	3353.41
975.686	3324.26
975.986	3312.29
976.287	3279.97
976.587	3209.92
976.887	3258.5
977.187	3240.2
977.487	3205.4
977.787	3178.05
978.087	3194.1
978.387	3187.09
978.687	3128.79
978.987	3134.66
979.286	3088.79
979.586	3108
979.885	3071.84
980.185	3099.18
980.484	3051.28
980.784	3059.41
981.083	3051.05
981.382	3051.05
981.682	3028.68
981.981	2980.54
982.28	2978.96
982.579	2969.47
982.878	2941.9
983.177	2929.47
983.475	2929.02
983.774	2931.28
984.073	2878.4
984.372	2865.29
984.67	2891.96
984.969	2864.61
985.267	2837.27
985.566	2860.09
985.864	2848.34
986.162	2798.4
986.461	2787.1
986.759	2754.11
987.057	2763.83
987.355	2754.79
987.653	2796.82
987.951	2747.1
988.249	2723.83
988.547	2709.36
988.844	2692.42
989.142	2729.25
989.44	2676.6
989.737	2695.13
990.035	2664.39
990.332	2668.46
990.63	2617.16
990.927	2629.82
991.224	2582.81
991.521	2610.61
991.819	2602.25
992.116	2606.99
992.413	2547.11
992.71	2518.18
993.006	2532.87
993.303	2516.15
993.6	2494.91
993.897	2531.06
994.193	2535.13
994.49	2495.13
994.787	2468.24
995.083	2439.31
995.379	2427.34
995.676	2388.47
995.972	2381.01
996.268	2399.77
996.565	2377.85
996.861	2409.26
997.157	2375.14
997.453	2358.41
997.749	2340.79
998.044	2328.58
998.34	2341.01
998.636	2312.76
998.932	2310.5
999.227	2266.44
999.523	2241.13
999.818	2260.79
1000.114	2259.43
1000.409	2254.23
1000.704	2219.43
1001	2230.05
1001.295	2242.48
1001.59	2200.9
1001.885	2182.82
1002.18	2189.38
1002.475	2153.45
1002.77	2144.41
1003.065	2126.1
1003.359	2109.38
1003.654	2108.48
1003.949	2106.44
1004.243	2110.74
1004.538	2063.96
1004.832	2047.46
1005.127	2037.74
1005.421	2051.3
1005.715	2014.24
1006.009	2025.77
1006.304	2022.83
1006.598	2020.79
1006.892	1989.83
1007.186	1983.28
1007.48	1955.94
1007.773	1968.59
1008.067	1956.84
1008.361	1919.55
1008.655	1931.76
1008.948	1903.51
1009.242	1906.67
1009.535	1884.53
1009.829	1882.94
1010.122	1862.61
1010.415	1864.41
1010.708	1829.84
1011.001	1842.72
1011.295	1823.74
1011.588	1824.64
1011.881	1769.73
1012.173	1806.11
1012.466	1774.02
1012.759	1776.51
1013.052	1758.2
1013.344	1776.73
1013.637	1738.77
1013.93	1733.8
1014.222	1724.53
1014.514	1725.21
1014.807	1656.96
1015.099	1682.27
1015.391	1683.85
1015.683	1668.26
1015.976	1653.8
1016.268	1663.74
1016.56	1654.25
1016.851	1623.06
1017.143	1590.07
1017.435	1617.87
1017.727	1597.53
1018.018	1592.78
1018.31	1556.17
1018.602	1557.3
1018.893	1547.81
1019.185	1558.66
1019.476	1522.5
1019.767	1536.06
1020.058	1514.14
1020.35	1514.82
1020.641	1476.63
1020.932	1484.09
1021.223	1470.53
1021.514	1493.8
1021.804	1442.28
1022.095	1435.27
1022.386	1453.35
1022.677	1425.1
1022.967	1420.81
1023.258	1393.24
1023.548	1420.81
1023.839	1396.18
1024.129	1383.97
1024.419	1360.25
1024.709	1371.77
1025	1364.31
1025.29	1342.39
1025.58	1310.3
1025.87	1311.89
1026.16	1317.76
1026.449	1339.68
1026.739	1310.98
1027.029	1309.4
1027.319	1289.06
1027.608	1276.63
1027.898	1260.36
1028.187	1231.66
1028.477	1268.05
1028.766	1232.11
1029.055	1231.44
1029.344	1212
1029.634	1211.1
1029.923	1194.15
1030.212	1225.79
1030.501	1232.57
1030.79	1176.75
1031.078	1156.86
1031.367	1209.97
1031.656	1188.73
1031.945	1168.61
1032.233	1165.9
1032.522	1143.53
1032.81	1139.69
1033.099	1131.1
1033.387	1121.83
1033.675	1139.69
1033.963	1122.96
1034.251	1136.75
1034.54	1116.19
1034.828	1071.89
1035.116	1078.9
1035.403	1083.87
1035.691	1056.53
1035.979	1070.31
1036.267	1057.2
1036.554	1028.28
1036.842	1030.99
1037.129	1019.24
1037.417	1030.09
1037.704	1054.72
1037.992	1007.04
1038.279	1002.74
1038.566	1008.39
1038.853	1008.39
1039.14	1008.39
