Data from hue_60_FLMS001491_11.txt Node
Date: Mon Feb 06 15:11:59 GMT 2017
User: dcchb
Spectrometer: FLMS00149
Trigger mode: 0
Integration Time (sec): 2.000000E-2
Scans to average: 10
Electric dark correction enabled: true
Nonlinearity correction enabled: false
Boxcar width: 0
XAxis mode: Wavelengths
Number of Pixels in Spectrum: 2048
>>>>>Begin Spectral Data<<<<<
341.393	-31.26
341.776	-31.26
342.16	-31.26
342.543	-85.27
342.927	-53.18
343.31	-74.42
343.693	-68.77
344.077	-70.8
344.46	-56.34
344.843	-55.21
345.226	-53.85
345.61	-32.16
345.993	-8.88
346.376	3.09
346.759	25.01
347.142	25.92
347.525	44.67
347.908	67.72
348.291	69.98
348.674	96.88
349.057	87.16
349.44	120.6
349.823	133.03
350.206	141.85
350.588	195.63
350.971	206.7
351.354	221.62
351.737	235.86
352.119	235.18
352.502	258.45
352.884	271.11
353.267	291.45
353.65	297.1
354.032	284.44
354.414	307.94
354.797	290.54
355.179	306.14
355.562	311.33
355.944	323.54
356.326	326.93
356.709	336.87
357.091	328.28
357.473	347.04
357.855	340.71
358.238	331.22
358.62	326.25
359.002	327.15
359.384	316.31
359.766	342.29
360.148	322.63
360.53	321.73
360.912	329.19
361.294	349.3
361.676	336.42
362.057	344.55
362.439	319.69
362.821	311.56
363.203	332.8
363.584	331.22
363.966	302.07
364.348	308.17
364.729	319.02
365.111	316.08
365.493	300.26
365.874	335.97
366.256	306.59
366.637	310.66
367.019	306.36
367.4	293.71
367.781	303.2
368.163	320.15
368.544	302.29
368.925	310.43
369.306	334.84
369.688	301.39
370.069	305.23
370.45	306.81
370.831	308.85
371.212	301.39
371.593	304.55
371.974	298
372.355	302.75
372.736	286.25
373.117	314.05
373.498	321.28
373.879	330.54
374.26	309.75
374.641	295.06
375.021	297.77
375.402	298.45
375.783	298.45
376.163	319.69
376.544	312.46
376.925	316.31
377.305	346.13
377.686	309.3
378.066	312.24
378.447	313.82
378.827	314.05
379.208	316.53
379.588	330.99
379.968	311.79
380.349	317.21
380.729	330.32
381.109	321.95
381.489	325.12
381.87	331.22
382.25	338.45
382.63	316.08
383.01	332.58
383.39	340.49
383.77	314.95
384.15	329.19
384.53	338.68
384.91	339.81
385.29	335.97
385.67	351.78
386.049	355.17
386.429	340.71
386.809	327.38
387.189	332.8
387.568	343.2
387.948	344.33
388.328	334.84
388.707	339.58
389.087	348.17
389.466	358.56
389.846	345.91
390.225	354.72
390.605	348.17
390.984	358.79
391.363	366.02
391.743	363.99
392.122	342.29
392.501	330.99
392.881	367.38
393.26	366.02
393.639	369.64
394.018	353.82
394.397	373.25
394.776	360.37
395.155	359.24
395.534	369.86
395.913	370.77
396.292	375.29
396.671	345.46
397.05	358.34
397.429	348.62
397.808	388.39
398.186	377.77
398.565	386.59
398.944	373.25
399.323	396.98
399.701	381.84
400.08	379.13
400.458	383.87
400.837	383.87
401.215	385.23
401.594	377.55
401.972	373.93
402.351	395.85
402.729	366.93
403.107	412.8
403.486	365.57
403.864	382.52
404.242	403.08
404.62	406.92
404.999	382.29
405.377	392.91
405.755	394.04
406.133	411.22
406.511	403.08
406.889	413.93
407.267	395.63
407.645	401.05
408.023	422.74
408.401	428.39
408.779	402.18
409.156	402.86
409.534	417.32
409.912	440.14
410.29	422.07
410.667	419.58
411.045	441.73
411.422	446.02
411.8	433.82
412.178	465.68
412.555	436.3
412.933	428.17
413.31	424.55
413.687	439.47
414.065	458.9
414.442	436.08
414.819	467.94
415.197	458.67
415.574	456.19
415.951	452.12
416.328	466.58
416.705	461.61
417.082	449.41
417.46	469.97
417.837	483.31
418.214	472.69
418.591	491.89
418.967	488.96
419.344	482.85
419.721	495.28
420.098	505.45
420.475	502.06
420.852	486.92
421.228	490.54
421.605	488.96
421.982	515.17
422.358	512.01
422.735	512.68
423.111	514.27
423.488	510.42
423.864	514.04
424.241	545.45
424.617	530.31
424.994	529.18
425.37	540.93
425.746	526.7
426.123	548.62
426.499	541.61
426.875	537.99
427.251	534.38
427.627	544.77
428.003	568.73
428.379	542.97
428.756	546.13
429.132	565.56
429.507	567.6
429.883	577.99
430.259	596.3
430.635	585
431.011	581.38
431.387	601.95
431.763	601.27
432.138	591.55
432.514	610.53
432.89	622.74
433.265	617.09
433.641	630.87
434.016	604.66
434.392	628.16
434.767	629.29
435.143	645.34
435.518	663.19
435.894	672
436.269	668.84
436.644	656.18
437.02	626.81
437.395	662.06
437.77	682.62
438.145	673.58
438.52	672.45
438.895	660.48
439.271	673.13
439.646	680.82
440.021	679.23
440.395	703.41
440.77	701.83
441.145	709.74
441.52	726.01
441.895	713.13
442.27	697.76
442.645	723.75
443.019	704.77
443.394	712.23
443.769	746.35
444.143	720.59
444.518	756.52
444.892	748.16
445.267	748.84
445.641	737.99
446.016	754.49
446.39	749.51
446.764	756.07
447.139	767.37
447.513	771.89
447.887	764.88
448.262	775.73
448.636	769.63
449.01	771.21
449.384	768.95
449.758	796.29
450.132	796.74
450.506	816.86
450.88	828.38
451.254	826.8
451.628	833.35
452.002	817.99
452.376	826.57
452.75	849.17
453.123	873.13
453.497	876.52
453.871	863.64
454.244	872.22
454.618	856.63
454.992	889.85
455.365	883.75
455.739	896.85
456.112	919.91
456.486	910.87
456.859	915.61
457.232	930.98
457.606	946.8
457.979	950.41
458.352	959.23
458.725	977.53
459.099	981.6
459.472	978.21
459.845	992.22
460.218	999.23
460.591	1017.53
460.964	1021.82
461.337	1048.49
461.71	1047.81
462.083	1075.61
462.456	1108.6
462.829	1109.96
463.201	1121.26
463.574	1128.26
463.947	1147.92
464.32	1162.16
464.692	1172.33
465.065	1168.49
465.438	1190.63
465.81	1222.27
466.183	1214.36
466.555	1257.52
466.928	1238.31
467.3	1270.4
467.672	1289.84
468.045	1296.39
468.417	1343.62
468.789	1329.16
469.161	1356.96
469.534	1416.39
469.906	1413.68
470.278	1447.57
470.65	1449.38
471.022	1474.47
471.394	1514.01
471.766	1566.22
472.138	1578.19
472.51	1621.36
472.882	1671.07
473.253	1692.77
473.625	1737.28
473.997	1770.5
474.369	1800.79
474.74	1836.27
475.112	1848.24
475.484	1920.33
475.855	1951.74
476.227	2007.33
476.598	2088.46
476.97	2125.98
477.341	2210.94
477.713	2230.38
478.084	2280.55
478.455	2381.56
478.827	2397.61
479.198	2492.75
479.569	2522.35
479.94	2623.36
480.311	2698.84
480.682	2764.38
481.053	2869.91
481.424	2979.06
481.795	3056.35
482.166	3101.32
482.537	3200.75
482.908	3313.74
483.279	3391.93
483.65	3492.94
484.021	3607.74
484.391	3718.25
484.762	3780.17
485.133	3874.86
485.503	4011.8
485.874	4139.93
486.244	4217.67
486.615	4348.06
486.985	4483.88
487.356	4609.3
487.726	4763.42
488.097	4902.17
488.467	4968.84
488.837	5143.52
489.207	5287.25
489.578	5428.49
489.948	5576.28
490.318	5754.35
490.688	5801.58
491.058	5990.05
491.428	6184.63
491.798	6297.39
492.168	6506.2
492.538	6608.12
492.908	6721.33
493.278	6946.64
493.648	7036.35
494.017	7228.21
494.387	7333.3
494.757	7510.24
495.126	7669.33
495.496	7829.55
495.866	7986.61
496.235	8131.47
496.605	8311.8
496.974	8397.9
497.344	8567.84
497.713	8724.67
498.082	8893.03
498.452	9059.8
498.821	9189.07
499.19	9342.73
499.559	9449.17
499.928	9624.54
500.298	9796.28
500.667	9892.55
501.036	10050.74
501.405	10170.28
501.774	10293.22
502.143	10490.28
502.512	10623.15
502.88	10778.63
503.249	10824.05
503.618	11056.36
503.987	11130.94
504.356	11342.68
504.724	11420.19
505.093	11617.7
505.462	11662.22
505.83	11825.38
506.199	12004.36
506.567	12217.24
506.936	12283.22
507.304	12441.64
507.672	12589.2
508.041	12701.29
508.409	12766.83
508.777	12947.39
509.145	13142.63
509.514	13240.03
509.882	13365.68
510.25	13412.68
510.618	13633.02
510.986	13702.62
511.354	13901.71
511.722	14060.35
512.09	14251.53
512.458	14221.7
512.826	14357.07
513.193	14577.63
513.561	14583.95
513.929	14728.81
514.297	14966.09
514.664	15026.43
515.032	15180.1
515.4	15449.69
515.767	15463.03
516.135	15661.44
516.502	15591.61
516.869	15849.68
517.237	15865.05
517.604	15921.77
517.972	16225.72
518.339	16313.85
518.706	16433.17
519.073	16470.23
519.44	16701.86
519.808	16897.79
520.175	16835.42
520.542	17211.23
520.909	17264.79
521.276	17352.47
521.643	17545.46
522.009	17660.71
522.376	17775.06
522.743	17936.63
523.11	18123.07
523.477	18337.07
523.843	18449.61
524.21	18585.66
524.577	18811.19
524.943	18896.38
525.31	18971.41
525.676	19219.99
526.043	19273.55
526.409	19311.96
526.776	19598.28
527.142	19678.51
527.508	19878.05
527.874	20026.97
528.241	20081.66
528.607	20194.2
528.973	20389.9
529.339	20396.68
529.705	20603.91
530.071	20765.03
530.437	20796.67
530.803	21045.03
531.169	21151.46
531.535	21165.25
531.901	21240.95
532.267	21338.35
532.632	21536.99
532.998	21602.3
533.364	21686.36
533.73	21751.9
534.095	21877.09
534.461	22078.67
534.826	22143.98
535.192	22266.46
535.557	22381.04
535.923	22406.8
536.288	22415.16
536.653	22608.37
537.019	22513.69
537.384	22705.77
537.749	22840.23
538.114	22971.08
538.479	22993.22
538.845	23254.01
539.21	23049.27
539.575	23131.75
539.94	23227.12
540.305	23516.83
540.67	23353.21
541.034	23591.85
541.399	23634.11
541.764	23795.69
542.129	23820.77
542.494	23930.15
542.858	23883.37
543.223	24026.64
543.587	24237.94
543.952	24284.26
544.316	24282.68
544.681	24224.83
545.045	24440.64
545.41	24432.28
545.774	24572.84
546.138	24541.21
546.503	24723.35
546.867	24722.22
547.231	24927.18
547.595	24839.28
547.959	25082.43
548.324	24852.38
548.688	25160.4
549.052	25282.43
549.416	25309.32
549.779	25354.74
550.143	25405.14
550.507	25509.32
550.871	25719.03
551.235	25722.42
551.599	25818.91
551.962	26051.22
552.326	26013.93
552.689	26168.73
553.053	26082.41
553.417	26194.04
553.78	26397.43
554.143	26434.71
554.507	26447.6
554.87	26566.69
555.234	26890.52
555.597	26699.11
555.96	26886.91
556.323	27024.08
556.686	27001.93
557.05	27318.31
557.413	27396.27
557.776	27462.26
558.139	27582.71
558.502	27641.91
558.865	27698.64
559.228	27897.05
559.59	27981.11
559.953	28050.27
560.316	28406.87
560.679	28360.31
561.041	28474.66
561.404	28617.26
561.767	28771.6
562.129	28727.99
562.492	29057.24
562.854	29026.74
563.217	29134.76
563.579	29116.68
563.941	29362.55
564.304	29465.14
564.666	29675.99
565.028	29920.27
565.39	29888.18
565.753	30077.1
566.115	30014.06
566.477	30238.46
566.839	30315.97
567.201	30701.72
567.563	30581.05
567.925	30767.93
568.287	30875.5
568.648	30822.62
569.01	31153.01
569.372	31292.89
569.734	31212.67
570.095	31374.7
570.457	31555.48
570.819	31700.56
571.18	31502.83
571.542	31865.08
571.903	31989.6
572.265	32014.45
572.626	31932.88
572.987	32025.3
573.349	32230.95
573.71	32417.38
574.071	32482.92
574.432	32500.77
574.794	32797.03
575.155	32669.13
575.516	32788.22
575.877	32744.38
576.238	32870.25
576.599	32989.12
576.96	33072.96
577.32	32950.25
577.681	33316.12
578.042	33317.7
578.403	33263.69
578.763	33366.06
579.124	33361.54
579.485	33577.8
579.845	33658.93
580.206	33552.49
580.566	33511.82
580.927	33711.59
581.287	33781.64
581.648	33702.55
582.008	33937.34
582.368	33827.74
582.728	33932.14
583.089	33905.03
583.449	33887.4
583.809	33931.47
584.169	33913.16
584.529	33832.49
584.889	34201.06
585.249	33967.85
585.609	33946.83
585.969	34200.39
586.329	34009.66
586.688	34093.27
587.048	34115.19
587.408	34137.79
587.768	34106.15
588.127	34111.8
588.487	34024.8
588.846	34368.97
589.206	34058.69
589.565	34000.39
589.925	34371.68
590.284	34169.88
590.643	34306.37
591.003	34305.69
591.362	34468.18
591.721	34432.24
592.08	34425.24
592.44	34422.3
592.799	34408.29
593.158	34395.41
593.517	34435.18
593.876	34608.06
594.235	34502.75
594.593	34462.3
594.952	34621.17
595.311	34519.93
595.67	34674.5
596.029	34812.35
596.387	34838.79
596.746	34968.28
597.104	34822.29
597.463	34612.35
597.822	34972.12
598.18	34844.66
598.538	34661.62
598.897	35124.43
599.255	34759.69
599.613	35306.8
599.972	35071.32
600.33	35231.32
600.688	35077.88
601.046	35198.55
601.404	35282.39
601.762	35258.66
602.12	35398.09
602.478	35369.85
602.836	35363.97
603.194	35190.87
603.552	35395.38
603.91	35307.02
604.268	35618.65
604.625	35373.01
604.983	35662.72
605.341	35432.22
605.698	35727.58
606.056	35759.22
606.413	35689.39
606.771	35871.08
607.128	35937.06
607.485	35742.49
607.843	35792.66
608.2	36021.36
608.557	36232.42
608.914	36031.3
609.272	36255.7
609.629	36434.23
609.986	36462.02
610.343	36346.32
610.7	36581.57
611.057	36455.24
611.414	36558.74
611.771	36590.15
612.127	36665.86
612.484	36762.13
612.841	36866.3
613.198	36732.75
613.554	36745.4
613.911	37051.84
614.267	37028.56
614.624	36932.97
614.98	37115.11
615.337	37311.72
615.693	37184.71
616.05	37246.18
616.406	37414.54
616.762	37217.93
617.118	37350.59
617.475	37362.79
617.831	37542.9
618.187	37518.72
618.543	37683.01
618.899	37885.49
619.255	37842.55
619.611	37735.43
619.967	37892.72
620.323	37941.08
620.678	37893.62
621.034	37819.95
621.39	37816.79
621.746	37756
622.101	38214.74
622.457	37956.45
622.812	38110.57
623.168	38142.43
623.523	38201.41
623.879	38301.75
624.234	37947.18
624.589	38140.62
624.945	38262.43
625.3	38348.07
625.655	38270.56
626.01	38434.63
626.365	38258.58
626.72	38307.62
627.075	38355.76
627.43	38243.9
627.785	38253.39
628.14	38471.23
628.495	38402.08
628.85	38427.39
629.205	38386.72
629.559	38362.54
629.914	38407.28
630.269	38361.41
630.623	38276.66
630.978	38252.93
631.332	38460.39
631.687	38437.34
632.041	38299.04
632.396	38276.66
632.75	38285.48
633.104	38439.14
633.459	38153.28
633.813	38103.33
634.167	38125.48
634.521	38222.2
634.875	38193.5
635.229	38231.47
635.583	38051.36
635.937	38123.9
636.291	38075.31
636.645	38035.54
636.999	38037.8
637.352	38128.87
637.706	37952.6
638.06	38117.35
638.413	37983.11
638.767	37937.24
639.121	37821.31
639.474	37791.7
639.828	37725.94
640.181	37844.13
640.534	37860.18
640.888	37877.35
641.241	37572.73
641.594	37707.41
641.947	37696.11
642.301	37642.56
642.654	37745.6
643.007	37778.15
643.36	37665.83
643.713	37555.55
644.066	37806.17
644.419	37559.17
644.771	37211.83
645.124	36980.88
645.477	36894.55
645.83	36663.37
646.182	36434
646.535	36278.3
646.888	36470.38
647.24	36311.07
647.593	36552.41
647.945	36419.99
648.298	36311.97
648.65	36243.95
649.002	36164.63
649.355	36270.61
649.707	36193.78
650.059	36361.23
650.411	36817.72
650.763	36809.58
651.115	37143.13
651.467	37006.19
651.819	36901.11
652.171	36902.46
652.523	36895.91
652.875	36864.04
653.227	36723.26
653.578	36966.42
653.93	36906.98
654.282	36700.21
654.633	36611.85
654.985	36652.07
655.337	36764.39
655.688	36668.57
656.039	36899.3
656.391	36557.84
656.742	36693.65
657.094	36781.11
657.445	36794.89
657.796	36808.91
658.147	36554.22
658.498	36731.84
658.849	36692.75
659.2	36580.21
659.551	36514.9
659.902	36673.09
660.253	36602.36
660.604	36587.44
660.955	36354.45
661.306	36536.82
661.656	36532.75
662.007	36543.15
662.358	36514.45
662.708	36478.52
663.059	36477.61
663.409	36288.01
663.76	36491.17
664.11	36493.43
664.461	36562.81
664.811	36457.95
665.161	36396.03
665.511	36371.4
665.862	36352.42
666.212	36541.12
666.562	36479.87
666.912	36354.91
667.262	36314.91
667.612	36365.75
667.962	36370.05
668.312	36270.39
668.662	36452.3
669.011	36418.86
669.361	36300.44
669.711	36182.25
670.06	36174.12
670.41	36239.88
670.76	36123.73
671.109	36213.21
671.459	36118.3
671.808	36263.38
672.157	36323.95
672.507	36008.25
672.856	36080.56
673.205	36230.16
673.554	36236.94
673.904	36010.73
674.253	36278.75
674.602	36154.68
674.951	35493.91
675.3	35445.55
675.649	35983.84
675.998	35941.36
676.346	35971.64
676.695	35976.38
677.044	35755.6
677.393	35867.69
677.741	35920.11
678.09	35925.76
678.438	35679.22
678.787	35799.89
679.135	35704.75
679.484	35515.83
679.832	35782.49
680.181	35536.85
680.529	35680.57
680.877	35534.59
681.225	35457.98
681.573	35691.87
681.922	35424.31
682.27	35189.51
682.618	35257.99
682.966	35241.26
683.314	35314.26
683.661	35242.84
684.009	35019.12
684.357	35004.43
684.705	34875.4
685.053	35016.86
685.4	34891.44
685.748	34806.92
686.095	34753.37
686.443	34706.36
686.79	34694.16
687.138	34725.12
687.485	34668.62
687.832	34478.34
688.18	34508.17
688.527	34346.82
688.874	34460.27
689.221	34350.21
689.568	34242.19
689.915	34081.29
690.262	34057.79
690.609	33964.69
690.956	33839.49
691.303	33996.1
691.65	33731.7
691.997	33659.38
692.344	33463
692.69	33502.78
693.037	33442.21
693.383	33235.44
693.73	33355.89
694.077	33158.15
694.423	33073.18
694.769	33060.53
695.116	33037.03
695.462	32985.05
695.808	32853.75
696.155	33016.01
696.501	32700.54
696.847	32719.75
697.193	32472.97
697.539	32580.99
697.885	32307.78
698.231	32220.55
698.577	32310.94
698.923	32210.38
699.269	32066.2
699.614	31889.94
699.96	31807.68
700.306	31777.4
700.651	31721.81
700.997	31636.84
701.342	31711.64
701.688	31583.05
702.033	31508.25
702.379	31350.29
702.724	31414.24
703.069	31466.22
703.415	31103.97
703.76	31073.69
704.105	30956.63
704.45	30900.13
704.795	30851.32
705.14	30750.99
705.485	30633.47
705.83	30492.46
706.175	30660.59
706.52	30506.47
706.865	30365.01
707.209	30456.3
707.554	30202.07
707.899	30389.64
708.243	30208.4
708.588	30078.69
708.932	29886.83
709.277	29838.69
709.621	29976.32
709.966	29741.29
710.31	29821.74
710.654	29455.88
710.998	29637.12
711.342	29544.69
711.687	29406.39
712.031	29374.98
712.375	29103.8
712.719	29264.24
713.063	29269.22
713.407	29372.72
713.75	29244.81
714.094	29242.1
714.438	28973.63
714.782	29087.07
715.125	28843.69
715.469	28885.72
715.812	28825.61
716.156	28608.44
716.499	28886.18
716.843	28704.71
717.186	28542.23
717.53	28584.49
717.873	28663.81
718.216	28663.81
718.559	28440.99
718.902	28343.59
719.246	28332.07
719.589	28324.61
719.932	28065.41
720.275	28078.97
720.617	28158.74
720.96	28047.1
721.303	27962.13
721.646	28033.99
721.989	27885.3
722.331	27954.45
722.674	27758.52
723.016	27725.08
723.359	27750.39
723.701	27729.14
724.044	27534.12
724.386	27448.93
724.729	27660.45
725.071	27467
725.413	27513.1
725.755	27465.42
726.097	27334.58
726.439	27125.32
726.782	27135.04
727.124	27218.42
727.465	27020.01
727.807	27048.71
728.149	27104.75
728.491	26991.08
728.833	27030.86
729.175	26869.73
729.516	26847.59
729.858	26839
730.199	26755.61
730.541	26950.41
730.882	26721.26
731.224	26852.56
731.565	26619.12
731.906	26661.38
732.248	26655.5
732.589	26548.16
732.93	26479.23
733.271	26387.71
733.612	26522.62
733.953	26545.22
734.294	26548.84
734.635	26359.01
734.976	26408.73
735.317	26227.49
735.658	26243.53
735.999	26216.19
736.339	26152.69
736.68	26147.49
737.021	26051.9
737.361	26021.62
737.702	26051.45
738.042	25986.82
738.383	26055.06
738.723	25905.91
739.063	25731.23
739.404	25908.63
739.744	25779.59
740.084	25784.56
740.424	25692.36
740.764	25652.36
741.104	25711.57
741.444	25520.61
741.784	25447.17
742.124	25587.05
742.464	25505.7
742.804	25449.2
743.143	25404.23
743.483	25316.78
743.823	25293.95
744.162	25323.78
744.502	25280.85
744.841	25224.58
745.181	25189.1
745.52	25159.04
745.86	25227.74
746.199	24989.1
746.538	25038.59
746.877	25034.3
747.216	25101.87
747.556	24931.25
747.895	24900.74
748.234	24899.39
748.573	24831.14
748.911	24679.96
749.25	24729.22
749.589	24604.71
749.928	24844.02
750.267	24713.63
750.605	24462.34
750.944	24496.91
751.283	24439.29
751.621	24472.96
751.96	24315.9
752.298	24371.49
752.636	24481.55
752.975	24302.79
753.313	24121.33
753.651	24235
753.989	24072.74
754.327	23983.48
754.666	23939.86
755.004	23933.09
755.342	23970.15
755.679	23889.02
756.017	23656.48
756.355	23801.11
756.693	23792.52
757.031	23718.63
757.368	23571.74
757.706	23457.17
758.044	23428.92
758.381	23360.67
758.719	23264.85
759.056	23395.7
759.394	23259.66
759.731	23060.57
760.068	23052.88
760.405	22951.64
760.743	23005.65
761.08	22904.41
761.417	22807.92
761.754	22794.81
762.091	22748.26
762.428	22681.37
762.765	22443.41
763.102	22548.26
763.438	22421.49
763.775	22399.79
764.112	22342.17
764.449	22377.42
764.785	22240.93
765.122	22030.08
765.458	22115.96
765.795	22033.7
766.131	21971.56
766.467	21904.66
766.804	21779.47
767.14	21737.66
767.476	21723.88
767.812	21595.52
768.148	21526.82
768.485	21463.09
768.821	21285.7
769.157	21311.23
769.492	21347.39
769.828	21258.58
770.164	21060.84
770.5	20998.93
770.836	20999.6
771.171	20825.37
771.507	20791.7
771.842	20556.9
772.178	20594.42
772.513	20535.21
772.849	20519.39
773.184	20344.93
773.519	20367.53
773.855	20337.7
774.19	20219.28
774.525	20138.38
774.86	20191.04
775.195	20066.29
775.53	20033.07
775.865	20058.16
776.2	19812.06
776.535	19648.23
776.87	19706.08
777.205	19573.2
777.539	19445.29
777.874	19614.33
778.209	19416.37
778.543	19367.56
778.878	19176.6
779.212	19181.57
779.547	19028.13
779.881	19037.85
780.215	18958.07
780.55	18947.23
780.884	18841.47
781.218	18717.63
781.552	18786.78
781.886	18677.4
782.22	18639.21
782.554	18487.35
782.888	18387.69
783.222	18352.44
783.556	18295.72
783.889	18226.12
784.223	18088.04
784.557	17974.37
784.89	18129.17
785.224	17942.51
785.557	17860.7
785.891	17723.76
786.224	17767.37
786.558	17725.34
786.891	17616.19
787.224	17500.03
787.557	17457.78
787.891	17438.11
788.224	17391.79
788.557	17415.97
788.89	17291.68
789.223	17296.2
789.556	17238.57
789.888	17110.21
790.221	17099.59
790.554	16820.96
790.887	16952.25
791.219	16915.42
791.552	16783.22
791.884	16748.42
792.217	16690.79
792.549	16618.7
792.882	16492.83
793.214	16438.37
793.546	16439.05
793.879	16367.18
794.211	16337.58
794.543	16310.23
794.875	16280.18
795.207	16257.13
795.539	16191.37
795.871	16175.55
796.203	16126.06
796.535	15933.75
796.867	15917.93
797.198	15908.89
797.53	15835.45
797.862	15756.8
798.193	15762.9
798.525	15622.8
798.856	15703.7
799.188	15425.96
799.519	15495.57
799.85	15368.11
800.182	15428.9
800.513	15369.69
800.844	15222.81
801.175	15373.99
801.506	15293.09
801.837	15195.46
802.168	15145.07
802.499	15157.5
802.83	15064.39
803.161	14969.25
803.491	14946.43
803.822	14980.33
804.153	14900.78
804.483	14768.58
804.814	14720.67
805.145	14729.71
805.475	14718.64
805.805	14614.91
806.136	14670.05
806.466	14704.4
806.796	14553.45
807.126	14465.31
807.457	14450.85
807.787	14412.88
808.117	14401.58
808.447	14402.49
808.777	14269.61
809.107	14289.05
809.436	14193.23
809.766	14210.18
810.096	14190.29
810.426	14034.81
810.755	14046.57
811.085	13985.1
811.414	14007.02
811.744	13891.32
812.073	13853.35
812.403	13876.85
812.732	13783.75
813.061	13725.67
813.39	13680.47
813.719	13630.08
814.049	13688.61
814.378	13682.73
814.707	13573.36
815.036	13580.59
815.365	13529.97
815.693	13417.88
816.022	13465.34
816.351	13384.44
816.68	13329.75
817.008	13396.87
817.337	13251.33
817.665	13172.24
817.994	13299.92
818.322	13200.03
818.651	13130.66
818.979	13064.22
819.307	13190.77
819.636	13186.93
819.964	12965.01
820.292	13019.02
820.62	13103.99
820.948	12969.98
821.276	12985.35
821.604	13031.45
821.932	12985.12
822.259	12972.7
822.587	12988.51
822.915	13023.77
823.243	12994.84
823.57	12953.26
823.898	12941.06
824.225	12879.82
824.553	12901.06
824.88	12866.26
825.207	12945.8
825.535	12888.4
825.862	12981.73
826.189	12913.71
826.516	12938.12
826.843	13001.4
827.17	12976.54
827.497	12941.06
827.824	13000.94
828.151	12958.68
828.478	12911.91
828.805	13033.03
829.131	12907.39
829.458	12852.47
829.785	12801.4
830.111	12849.54
830.438	12928.4
830.764	12850.21
831.09	12821.29
831.417	12854.96
831.743	12794.4
832.069	12807.05
832.395	12737.67
832.722	12858.35
833.048	12760.05
833.374	12729.99
833.7	12751.23
834.026	12813.38
834.351	12784.23
834.677	12745.13
835.003	12737.67
835.329	12656.55
835.654	12634.85
835.98	12659.48
836.306	12726.15
836.631	12581.97
836.956	12673.72
837.282	12592.14
837.607	12506.27
837.932	12624.23
838.258	12520.5
838.583	12518.24
838.908	12473.05
839.233	12554.4
839.558	12516.89
839.883	12401.19
840.208	12383.78
840.533	12350.79
840.858	12325.93
841.182	12419.49
841.507	12350.79
841.832	12296.78
842.156	12274.18
842.481	12188.31
842.805	12246.84
843.13	12138.37
843.454	12197.12
843.778	12184.02
844.103	12132.27
844.427	12072.15
844.751	12112.38
845.075	12022.89
845.399	11984.02
845.723	11983.57
846.047	11960.07
846.371	11825.16
846.695	11803.91
847.019	11691.37
847.343	11677.14
847.666	11695.67
847.99	11532.96
848.313	11590.59
848.637	11524.6
848.96	11501.32
849.284	11476.01
849.607	11415.9
849.931	11380.2
850.254	11244.61
850.577	11199.41
850.9	11158.96
851.223	11151.95
851.546	11119.86
851.869	11053.42
852.192	11085.29
852.515	10903.15
852.838	10930.72
853.161	10881
853.483	10876.71
853.806	10850.49
854.129	10831.96
854.451	10750.16
854.774	10711.74
855.096	10681.46
855.419	10634.9
855.741	10652.08
856.063	10463.38
856.385	10554
856.708	10461.8
857.03	10467.45
857.352	10421.35
857.674	10404.63
857.996	10419.77
858.318	10306.55
858.64	10320.56
858.961	10298.64
859.283	10241.24
859.605	10228.59
859.926	10269.72
860.248	10180.45
860.57	10077.63
860.891	10100.23
861.212	10048.7
861.534	10024.98
861.855	10011.87
862.176	10120.79
862.498	10055.71
862.819	10036.28
863.14	9981.81
863.461	9889.39
863.782	9925.54
864.103	9927.8
864.424	9877.86
864.745	9966.9
865.065	9840.35
865.386	9874.02
865.707	9795.83
866.027	9803.97
866.348	9800.12
866.668	9774.81
866.989	9728.04
867.309	9688.49
867.63	9721.26
867.95	9674.7
868.27	9651.88
868.59	9614.37
868.91	9684.42
869.23	9611.65
869.55	9537.76
869.87	9551.32
870.19	9483.3
870.51	9617.3
870.83	9545.44
871.15	9512.67
871.469	9462.51
871.789	9519.91
872.109	9494.14
872.428	9472.9
872.748	9475.61
873.067	9484.2
873.386	9394.26
873.706	9457.53
874.025	9394.48
874.344	9440.59
874.663	9348.16
874.982	9402.17
875.301	9327.59
875.62	9323.3
875.939	9341.83
876.258	9256.64
876.577	9219.35
876.896	9221.16
877.214	9221.38
877.533	9218.67
877.852	9210.08
878.17	9235.84
878.489	9219.35
878.807	9199.46
879.125	9116.07
879.444	9187.94
879.762	9142.29
880.08	9107.03
880.398	9052.8
880.716	9115.62
881.034	8996.08
881.352	9053.02
881.67	8981.84
881.988	9100.71
882.306	8975.51
882.624	8954.72
882.941	8883.54
883.259	8912.24
883.577	8859.36
883.894	8874.72
884.212	8792.01
884.529	8844.67
884.846	8840.15
885.164	8777.55
885.481	8764.67
885.798	8760.6
886.115	8704.33
886.432	8780.94
886.75	8725.35
887.067	8715.63
887.383	8617.1
887.7	8601.74
888.017	8568.97
888.334	8566.26
888.651	8580.04
888.967	8542.3
889.284	8563.09
889.6	8495.53
889.917	8443.32
890.233	8425.02
890.55	8417.79
890.866	8461.4
891.182	8302.54
891.498	8341.63
891.815	8331.24
892.131	8269.09
892.447	8294.4
892.763	8204.91
893.079	8200.39
893.395	8183.22
893.71	8147.96
894.026	8142.54
894.342	8138.25
894.657	8081.75
894.973	8089.43
895.289	8069.1
895.604	8027.74
895.92	8012.37
896.235	7977.12
896.55	7959.49
896.865	7955.43
897.181	7952.94
897.496	7936.9
897.811	7827.07
898.126	7802.66
898.441	7819.61
898.756	7789.1
899.071	7776.45
899.386	7737.35
899.7	7621.2
900.015	7681.08
900.33	7601.99
900.644	7573.97
900.959	7583.01
901.273	7523.12
901.588	7488.32
901.902	7426.85
902.216	7434.76
902.531	7410.58
902.845	7403.35
903.159	7340.98
903.473	7327.19
903.787	7326.74
904.101	7262.79
904.415	7275.67
904.729	7246.74
905.042	7163.36
905.356	7161.55
905.67	7161.77
905.984	7161.32
906.297	7105.28
906.611	7044.49
906.924	7126.07
907.237	7034.55
907.551	7032.74
907.864	6932.63
908.177	6943.7
908.491	6940.09
908.804	6904.83
909.117	6867.32
909.43	6833.65
909.743	6855.34
910.056	6799.07
910.368	6771.5
910.681	6742.12
910.994	6691.28
911.307	6625.29
911.619	6615.8
911.932	6666.42
912.244	6649.02
912.557	6533.09
912.869	6525.63
913.181	6515.69
913.494	6525.63
913.806	6466.2
914.118	6416.26
914.43	6389.37
914.742	6358.18
915.054	6348.69
915.366	6343.27
915.678	6302.36
915.99	6259.2
916.302	6201.57
916.613	6173.1
916.925	6246.54
917.236	6152.76
917.548	6177.17
917.859	6157.73
918.171	6112.54
918.482	6055.14
918.794	6048.58
919.105	6015.36
919.416	5946.44
919.727	5987.34
920.038	5977.63
920.349	5905.08
920.66	5936.72
920.971	5887.23
921.282	5882.94
921.593	5816.27
921.903	5835.93
922.214	5759.78
922.525	5740.12
922.835	5758.87
923.146	5621.25
923.456	5674.81
923.767	5632.78
924.077	5653.11
924.387	5608.82
924.697	5577.86
925.008	5581.7
925.318	5546.9
925.628	5540.8
925.938	5546
926.248	5455.38
926.558	5468.03
926.867	5424.65
927.177	5410.18
927.487	5369.28
927.796	5346.68
928.106	5372.44
928.416	5359.56
928.725	5245.22
929.034	5247.02
929.344	5275.04
929.653	5229.85
929.962	5209.96
930.271	5142.62
930.581	5120.7
930.89	5193.69
931.199	5117.99
931.508	5120.47
931.817	5066.91
932.125	5053.36
932.434	5031.66
932.743	5009.52
933.051	4977.65
933.36	4958.9
933.669	4926.58
933.977	4949.86
934.286	4931.55
934.594	4875.51
934.902	4905.79
935.21	4838.9
935.519	4811.33
935.827	4779.24
936.135	4783.98
936.443	4780.82
936.751	4681.39
937.059	4713.03
937.367	4685.68
937.674	4656.53
937.982	4633.71
938.29	4653.14
938.597	4591.67
938.905	4562.52
939.213	4555.06
939.52	4519.58
939.827	4507.61
940.135	4520.04
940.442	4524.78
940.749	4475.07
941.056	4512.58
941.363	4443.2
941.67	4449.3
941.977	4406.59
942.284	4369.53
942.591	4333.37
942.898	4377.44
943.205	4338.57
943.511	4256.31
943.818	4253.83
944.125	4261.29
944.431	4268.29
944.738	4259.03
945.044	4226.26
945.35	4194.4
945.657	4157.33
945.963	4159.37
946.269	4167.28
946.575	4164.11
946.881	4093.16
947.187	4100.84
947.493	4089.77
947.799	4056.09
948.105	4048.41
948.41	4034.17
948.716	4011.8
949.022	3955.98
949.327	4022.65
949.633	3944.46
949.938	3935.42
950.244	3939.94
950.549	3879.83
950.854	3879.15
951.16	3865.82
951.465	3868.98
951.77	3829.66
952.075	3821.07
952.38	3813.16
952.685	3810.45
952.99	3784.24
953.294	3763.9
953.599	3710.34
953.904	3732.71
954.209	3677.35
954.513	3683
954.818	3678.93
955.122	3677.57
955.426	3624.69
955.731	3616.78
956.035	3582.43
956.339	3581.76
956.643	3583.79
956.948	3580.85
957.252	3533.85
957.556	3530.01
957.86	3509.89
958.163	3521.19
958.467	3463.57
958.771	3521.19
959.075	3457.24
959.378	3420.18
959.682	3436.9
959.985	3451.14
960.289	3378.15
960.592	3393.29
960.896	3417.92
961.199	3371.37
961.502	3357.13
961.805	3340.18
962.108	3353.97
962.411	3285.94
962.714	3274.65
963.017	3254.53
963.32	3253.18
963.623	3205.04
963.926	3260.41
964.228	3193.07
964.531	3189.9
964.833	3229.22
965.136	3179.05
965.438	3151.48
965.741	3117.81
966.043	3117.14
966.345	3146.29
966.648	3130.92
966.95	3113.52
967.252	3073.52
967.554	3089.79
967.856	3069.23
968.158	3060.64
968.46	3029.45
968.761	3031.49
969.063	2991.72
969.365	3007.76
969.666	2950.36
969.968	2956.01
970.269	2974.77
970.571	2930.47
970.872	2938.61
971.174	2867.88
971.475	2896.58
971.776	2894.32
972.077	2869.91
972.378	2884.15
972.679	2857.71
972.98	2852.51
973.281	2831.95
973.582	2839.18
973.883	2810.7
974.183	2772.29
974.484	2759.63
974.785	2801.44
975.085	2766.18
975.386	2755.79
975.686	2690.71
975.986	2704.49
976.287	2711.95
976.587	2721.67
976.887	2685.51
977.187	2671.95
977.487	2631.5
977.787	2633.76
978.087	2662.01
978.387	2592.4
978.687	2614.78
978.987	2622.46
979.286	2588.79
979.586	2602.57
979.885	2533.87
980.185	2556.7
980.484	2530.71
980.784	2531.84
981.083	2525.51
981.382	2499.98
981.682	2474.67
981.981	2495.46
982.28	2465.85
982.579	2465.63
982.878	2461.79
983.177	2445.74
983.475	2473.08
983.774	2399.64
984.073	2420.43
984.372	2406.87
984.67	2412.52
984.969	2380.66
985.267	2417.49
985.566	2361.68
985.864	2361.45
986.162	2334.78
986.461	2310.38
986.759	2351.05
987.057	2316.25
987.355	2303.82
987.653	2301.79
987.951	2279.19
988.249	2262.24
988.547	2259.08
988.844	2245.97
989.142	2268.34
989.44	2248.68
989.737	2217.05
990.035	2214.33
990.332	2205.75
990.63	2175.24
990.927	2145.64
991.224	2184.05
991.521	2169.36
991.819	2146.99
992.116	2157.39
992.413	2155.13
992.71	2133.21
993.006	2109.03
993.303	2093.43
993.6	2089.37
993.897	2078.74
994.193	2091.63
994.49	2070.84
994.787	2062.7
995.083	2047.56
995.379	2034.45
995.676	1982.93
995.972	2011.63
996.268	2019.31
996.565	1995.13
996.861	1988.58
997.157	1968.92
997.453	1963.72
997.749	1933.89
998.044	1939.77
998.34	1904.96
998.636	1931.18
998.932	1923.27
999.227	1908.35
999.523	1918.07
999.818	1885.3
1000.114	1918.97
1000.409	1858.41
1000.704	1851.18
1001	1868.35
1001.295	1824.29
1001.59	1822.93
1001.885	1826.1
1002.18	1802.59
1002.475	1816.15
1002.77	1805.31
1003.065	1787
1003.359	1791.07
1003.654	1781.35
1003.949	1765.53
1004.243	1731.41
1004.538	1741.13
1004.832	1716.04
1005.127	1711.07
1005.421	1691.41
1005.715	1690.05
1006.009	1687.57
1006.304	1695.7
1006.598	1690.96
1006.892	1671.3
1007.186	1653.45
1007.48	1657.29
1007.773	1652.54
1008.067	1643.05
1008.361	1598.31
1008.655	1606.67
1008.948	1600.79
1009.242	1603.5
1009.535	1569.83
1009.829	1573.9
1010.122	1570.96
1010.415	1547.23
1010.708	1581.36
1011.001	1560.57
1011.295	1543.62
1011.588	1523.96
1011.881	1526.67
1012.173	1515.6
1012.466	1488.25
1012.759	1499.32
1013.052	1489.61
1013.344	1466.11
1013.637	1482.6
1013.93	1462.72
1014.222	1469.04
1014.514	1453.9
1014.807	1413.9
1015.099	1427.91
1015.391	1413.9
1015.683	1384.07
1015.976	1448.25
1016.268	1413.9
1016.56	1372.1
1016.851	1404.64
1017.143	1363.28
1017.435	1356.28
1017.727	1354.02
1018.018	1354.47
1018.31	1366.67
1018.602	1335.49
1018.893	1329.61
1019.185	1310.86
1019.476	1307.24
1019.767	1328.71
1020.058	1285.77
1020.35	1276.96
1020.641	1247.13
1020.932	1265.66
1021.223	1268.6
1021.514	1235.6
1021.804	1234.02
1022.095	1211.2
1022.386	1223.4
1022.677	1230.18
1022.967	1229.5
1023.258	1175.72
1023.548	1190.86
1023.839	1206.68
1024.129	1197.64
1024.419	1184.31
1024.709	1150.63
1025	1158.32
1025.29	1142.5
1025.58	1152.22
1025.87	1144.98
1026.16	1131.65
1026.449	1112.89
1026.739	1090.52
1027.029	1107.92
1027.319	1102.5
1027.608	1106.57
1027.898	1106.11
1028.187	1103.63
1028.477	1067.92
1028.766	1091.43
1029.055	1074.48
1029.344	1027.92
1029.634	1069.96
1029.923	1052.56
1030.212	1052.78
1030.501	1032.44
1030.79	1009.39
1031.078	1023.18
1031.367	1012.78
1031.656	1008.04
1031.945	1015.27
1032.233	987.25
1032.522	987.93
1032.81	972.11
1033.099	966.91
1033.387	991.32
1033.675	992.45
1033.963	941.15
1034.251	938.66
1034.54	943.86
1034.828	946.57
1035.116	933.01
1035.403	926.23
1035.691	931.2
1035.979	905.89
1036.267	907.7
1036.554	903.86
1036.842	891.66
1037.129	891.88
1037.417	879.68
1037.704	887.36
1037.992	874.93
1038.279	872
1038.566	865.22
1038.853	865.22
1039.14	865.22
