Data from hue_110_FLMS001491_00074.txt Node
Date: Tue Feb 07 17:01:48 GMT 2017
User: dcchb
Spectrometer: FLMS00149
Trigger mode: 0
Integration Time (sec): 2.000000E-2
Scans to average: 10
Electric dark correction enabled: true
Nonlinearity correction enabled: false
Boxcar width: 0
XAxis mode: Wavelengths
Number of Pixels in Spectrum: 2048
>>>>>Begin Spectral Data<<<<<
341.393	-10.47
341.776	-10.47
342.16	-10.47
342.543	-69.45
342.927	-64.7
343.31	-62.67
343.693	-69.22
344.077	-77.58
344.46	-69.9
344.843	-41.65
345.226	-49.56
345.61	-37.36
345.993	-5.27
346.376	0.83
346.759	13.94
347.142	20.49
347.525	40.38
347.908	57.78
348.291	79.48
348.674	93.49
349.057	106.82
349.44	122.41
349.823	116.99
350.206	159.47
350.588	188.4
350.971	226.59
351.354	219.58
351.737	228.17
352.119	242.41
352.502	256.42
352.884	267.94
353.267	283.31
353.65	291
354.032	302.75
354.414	314.27
354.797	287.61
355.179	335.51
355.562	340.71
355.944	330.09
356.326	330.77
356.709	333.71
357.091	332.8
357.473	347.72
357.855	353.82
358.238	364.21
358.62	332.35
359.002	347.49
359.384	335.06
359.766	356.08
360.148	342.97
360.53	347.49
360.912	344.1
361.294	314.05
361.676	346.36
362.057	315.63
362.439	344.78
362.821	352.24
363.203	325.57
363.584	321.05
363.966	312.46
364.348	304.1
364.729	322.86
365.111	316.08
365.493	333.03
365.874	326.47
366.256	328.28
366.637	331.45
367.019	305.01
367.4	313.59
367.781	313.82
368.163	332.35
368.544	319.92
368.925	336.42
369.306	336.87
369.688	333.93
370.069	327.38
370.45	329.41
370.831	334.84
371.212	326.25
371.593	322.18
371.974	345.46
372.355	333.93
372.736	324.67
373.117	343.42
373.498	331.22
373.879	315.85
374.26	324.89
374.641	297.32
375.021	322.41
375.402	305.68
375.783	326.93
376.163	345.68
376.544	329.19
376.925	315.85
377.305	348.85
377.686	314.5
378.066	342.97
378.447	326.25
378.827	347.72
379.208	339.81
379.588	348.17
379.968	371.9
380.349	349.07
380.729	340.26
381.109	351.33
381.489	365.34
381.87	345.23
382.25	367.6
382.63	352.01
383.01	359.24
383.39	338.68
383.77	351.78
384.15	351.33
384.53	349.98
384.91	368.73
385.29	356.76
385.67	376.42
386.049	346.36
386.429	365.57
386.809	346.13
387.189	380.26
387.568	375.96
387.948	372.57
388.328	377.09
388.707	357.66
389.087	381.61
389.466	391.11
389.846	373.7
390.225	370.54
390.605	373.7
390.984	392.91
391.363	388.62
391.743	392.24
392.122	390.65
392.501	378
392.881	417.09
393.26	367.6
393.639	393.14
394.018	393.37
394.397	387.49
394.776	391.56
395.155	413.93
395.534	393.14
395.913	403.08
396.292	414.61
396.671	394.04
397.05	414.16
397.429	408.05
397.808	413.48
398.186	418.68
398.565	413.25
398.944	429.07
399.323	420.94
399.701	417.09
400.08	422.52
400.458	417.55
400.837	435.4
401.215	429.3
401.594	420.71
401.972	438.11
402.351	431.78
402.729	431.56
403.107	436.75
403.486	435.4
403.864	444.44
404.242	456.64
404.62	447.6
404.999	467.71
405.377	443.08
405.755	453.48
406.133	459.13
406.511	476.3
406.889	469.75
407.267	487.83
407.645	481.72
408.023	479.24
408.401	483.31
408.779	487.37
409.156	483.31
409.534	505.23
409.912	493.02
410.29	483.98
410.667	498.67
411.045	516.98
411.422	481.72
411.8	516.07
412.178	495.51
412.555	508.39
412.933	532.8
413.31	529.86
413.687	542.74
414.065	517.88
414.442	526.02
414.819	519.46
415.197	540.48
415.574	519.92
415.951	536.86
416.328	567.15
416.705	535.06
417.082	533.02
417.46	549.52
417.837	568.73
418.214	574.6
418.591	557.43
418.967	572.8
419.344	585.68
419.721	562.17
420.098	571.44
420.475	573.25
420.852	568.5
421.228	594.72
421.605	581.16
421.982	599.69
422.358	617.77
422.735	622.96
423.111	595.39
423.488	610.08
423.864	618.9
424.241	639.69
424.617	643.08
424.994	625.22
425.37	638.33
425.746	649.4
426.123	673.58
426.499	647.14
426.875	661.83
427.251	676.52
427.627	669.06
428.003	677.2
428.379	693.24
428.756	693.92
429.132	693.24
429.507	718.78
429.883	729.63
430.259	714.94
430.635	722.62
431.011	744.09
431.387	745.45
431.763	742.06
432.138	748.38
432.514	766.91
432.89	781.38
433.265	777.76
433.641	781.83
434.016	797.65
434.392	771.43
434.767	806.91
435.143	812.79
435.518	822.73
435.894	832.22
436.269	830.64
436.644	832
437.02	854.14
437.395	855.73
437.77	862.51
438.145	845.1
438.52	862.73
438.895	890.53
439.271	866.8
439.646	909.51
440.021	902.5
440.395	915.84
440.77	922.17
441.145	910.64
441.52	913.35
441.895	923.29
442.27	926.46
442.645	948.61
443.019	934.82
443.394	934.82
443.769	949.28
444.143	946.8
444.518	967.36
444.892	988.15
445.267	988.15
445.641	989.51
446.016	979.11
446.39	989.28
446.764	1010.3
447.139	1022.73
447.513	1024.54
447.887	1028.83
448.262	1022.95
448.636	1031.54
449.01	1035.83
449.384	1050.3
449.758	1076.74
450.132	1066.34
450.506	1066.57
450.88	1093.69
451.254	1109.28
451.628	1111.54
452.002	1096.62
452.376	1119.67
452.75	1119
453.123	1151.99
453.497	1154.93
453.871	1141.59
454.244	1158.32
454.618	1198.77
454.992	1202.16
455.365	1221.37
455.739	1238.77
456.112	1239.67
456.486	1264.3
456.859	1249.39
457.232	1292.78
457.606	1283.29
457.979	1304.3
458.352	1335.71
458.725	1343.17
459.099	1355.15
459.472	1382.94
459.845	1379.1
460.218	1407.58
460.591	1444.41
460.964	1430.63
461.337	1487.12
461.71	1474.69
462.083	1481.92
462.456	1504.07
462.829	1515.37
463.201	1534.8
463.574	1549.49
463.947	1580.23
464.32	1603.05
464.692	1620.23
465.065	1665.2
465.438	1695.48
465.81	1727.34
466.183	1720.79
466.555	1724.63
466.928	1759.21
467.3	1801.24
467.672	1799.43
468.045	1876.72
468.417	1880.11
468.789	1898.64
469.161	1952.42
469.534	1969.14
469.906	1982.25
470.278	2043.04
470.65	2052.53
471.022	2124.17
471.394	2156.71
471.766	2150.61
472.138	2202.58
472.51	2284.62
472.882	2339.98
473.253	2366.87
473.625	2408.68
473.997	2459.98
474.369	2502.01
474.74	2562.35
475.112	2649.58
475.484	2683.7
475.855	2732.29
476.227	2803.47
476.598	2882.34
476.97	2942
477.341	3031.04
477.713	3085.95
478.084	3153.29
478.455	3251.14
478.827	3286.4
479.198	3429.9
479.569	3469.89
479.94	3574.52
480.311	3616.78
480.682	3822.65
481.053	3935.65
481.424	3996.43
481.795	4054.74
482.166	4186.71
482.537	4246.6
482.908	4366.37
483.279	4516.19
483.65	4633.93
484.021	4771.33
484.391	4846.58
484.762	4996.63
485.133	5096.29
485.503	5196.85
485.874	5385.78
486.244	5485.21
486.615	5640.46
486.985	5768.59
487.356	5961.35
487.726	6049.04
488.097	6168.13
488.467	6360.67
488.837	6499.87
489.207	6604.95
489.578	6785.74
489.948	6959.52
490.318	7136.69
490.688	7185.96
491.058	7386.18
491.428	7544.59
491.798	7743
492.168	7933.73
492.538	8028.64
492.908	8210.56
493.278	8353.16
493.648	8514.96
494.017	8717.89
494.387	8777.78
494.757	8975.29
495.126	9122.4
495.496	9172.8
495.866	9315.84
496.235	9489.85
496.605	9650.98
496.974	9688.94
497.344	9964.19
497.713	10050.96
498.082	10165.09
498.452	10296.38
498.821	10430.16
499.19	10490.5
499.559	10637.62
499.928	10784.5
500.298	10875.35
500.667	11047.32
501.036	11122.57
501.405	11339.29
501.774	11351.95
502.143	11495.9
502.512	11612.51
502.88	11759.39
503.249	11769.11
503.618	11786.29
503.987	11957.36
504.356	12063.79
504.724	12122.1
505.093	12247.97
505.462	12277.35
505.83	12418.13
506.199	12595.98
506.567	12691.57
506.936	12787.39
507.304	12916.2
507.672	13006.59
508.041	13067.16
508.409	13147.38
508.777	13250.88
509.145	13320.71
509.514	13378.33
509.882	13431.89
510.25	13403.42
510.618	13624.2
510.986	13588.05
511.354	13746.69
511.722	13899.9
512.09	13980.58
512.458	13937.19
512.826	14001.37
513.193	14074.59
513.561	14131.76
513.929	14243.17
514.297	14326.33
514.664	14367.24
515.032	14477.29
515.4	14529.94
515.767	14572.65
516.135	14666.66
516.502	14555.7
516.869	14757.28
517.237	14848.8
517.604	14770.61
517.972	14866.66
518.339	15011.51
518.706	14962.25
519.073	15049.25
519.44	15074.56
519.808	15191.85
520.175	15030.72
520.542	15366.08
520.909	15268.45
521.276	15326.08
521.643	15434.78
522.009	15492.4
522.376	15542.12
522.743	15582.8
523.11	15609.46
523.477	15775.56
523.843	15837.93
524.21	15824.6
524.577	15950.7
524.943	15941.43
525.31	15976.01
525.676	16164.7
526.043	16170.35
526.409	16116.12
526.776	16277.47
527.142	16220.97
527.508	16304.81
527.874	16358.37
528.241	16403.11
528.607	16291.48
528.973	16475.65
529.339	16450.34
529.705	16484.47
530.071	16630.68
530.437	16559.49
530.803	16490.12
531.169	16597.91
531.535	16543.9
531.901	16487.41
532.267	16577.57
532.632	16615.76
532.998	16612.83
533.364	16727.63
533.73	16623.45
534.095	16712.48
534.461	16631.81
534.826	16700.73
535.192	16610.11
535.557	16770.34
535.923	16636.33
536.288	16703.22
536.653	16666.84
537.019	16580.96
537.384	16667.74
537.749	16607.4
538.114	16498.93
538.479	16488.31
538.845	16505.94
539.21	16439.95
539.575	16471.59
539.94	16454.19
540.305	16529.21
540.67	16357.92
541.034	16421.42
541.399	16427.97
541.764	16391.81
542.129	16440.4
542.494	16346.17
542.858	16380.97
543.223	16280.41
543.587	16306.17
543.952	16251.03
544.316	16178.49
544.681	16199.73
545.045	16210.8
545.41	16275.43
545.774	16145.27
546.138	16097.81
546.503	16133.74
546.867	15990.7
547.231	16152.95
547.595	16051.03
547.959	15997.02
548.324	15997.47
548.688	15967.19
549.052	16012.39
549.416	15878.38
549.779	15919.06
550.143	15853.98
550.507	15960.19
550.871	15816.01
551.235	15809.68
551.599	15808.55
551.962	15795.45
552.326	15810.36
552.689	15812.62
553.053	15721.1
553.417	15747.54
553.78	15918.38
554.143	15660.99
554.507	15712.28
554.87	15777.14
555.234	15728.33
555.597	15661.89
555.96	15547.54
556.323	15628.9
556.686	15567.66
557.05	15590.03
557.413	15650.82
557.776	15613.76
558.139	15644.49
558.502	15634.77
558.865	15666.41
559.228	15640.65
559.59	15678.39
559.953	15612.85
560.316	15717.71
560.679	15716.13
561.041	15699.63
561.404	15857.59
561.767	15734.2
562.129	15697.6
562.492	15823.69
562.854	15700.53
563.217	15704.83
563.579	15765.62
563.941	15807.88
564.304	15806.52
564.666	15964.03
565.028	15860.3
565.39	15886.74
565.753	15896.01
566.115	15937.36
566.477	15933.75
566.839	15984.82
567.201	16078.83
567.563	16007.87
567.925	15987.53
568.287	16082.44
568.648	16046.29
569.01	16087.64
569.372	16152.95
569.734	16133.74
570.095	16096.91
570.457	16168.09
570.819	16200.41
571.18	16137.81
571.542	16347.75
571.903	16140.75
572.265	16263
572.626	16272.95
572.987	16317.24
573.349	16280.86
573.71	16308.43
574.071	16276.79
574.432	16267.98
574.794	16480.17
575.155	16412.61
575.516	16305.94
575.877	16406.73
576.238	16442.43
576.599	16471.36
576.96	16424.13
577.32	16570.34
577.681	16573.28
578.042	16483.79
578.403	16528.53
578.763	16590
579.124	16440.4
579.485	16512.72
579.845	16470
580.206	16577.57
580.566	16524.92
580.927	16494.64
581.287	16543.9
581.648	16481.08
582.008	16566.5
582.368	16540.74
582.728	16518.82
583.089	16441.76
583.449	16507.52
583.809	16496.9
584.169	16515.65
584.529	16304.13
584.889	16546.16
585.249	16367.41
585.609	16385.26
585.969	16413.51
586.329	16350.91
586.688	16391.81
587.048	16419.84
587.408	16325.38
587.768	16380.74
588.127	16355.88
588.487	16319.5
588.846	16468.42
589.206	16305.72
589.565	16273.85
589.925	16344.36
590.284	16340.29
590.643	16368.09
591.003	16328.99
591.362	16371.25
591.721	16369.44
592.08	16317.92
592.44	16360.18
592.799	16330.8
593.158	16194.31
593.517	16234.3
593.876	16212.16
594.235	16235.66
594.593	16194.98
594.952	16262.55
595.311	16150.24
595.67	16185.04
596.029	16248.32
596.387	16334.42
596.746	16329.9
597.104	16175.32
597.463	16157.7
597.822	16235.21
598.18	16127.64
598.538	16222.1
598.897	16233.63
599.255	16108.66
599.613	16289.22
599.972	16164.7
600.33	16257.36
600.688	16152.05
601.046	16212.61
601.404	16284.02
601.762	16178.71
602.12	16289.44
602.478	16269.78
602.836	16232.95
603.194	16154.53
603.552	16202.89
603.91	16017.81
604.268	16153.4
604.625	16115.89
604.983	16177.81
605.341	16122.9
605.698	16166.51
606.056	16237.02
606.413	16173.29
606.771	16197.24
607.128	16159.5
607.485	16235.21
607.843	16122.22
608.2	16261.2
608.557	16258.71
608.914	16304.59
609.272	16346.62
609.629	16326.28
609.986	16340.29
610.343	16303.46
610.7	16380.97
611.057	16375.77
611.414	16283.8
611.771	16249.45
612.127	16464.81
612.484	16317.47
612.841	16500.29
613.198	16389.78
613.554	16303.23
613.911	16477.24
614.267	16531.25
614.624	16489.44
614.98	16442.66
615.337	16521.08
615.693	16483.11
616.05	16582.54
616.406	16535.99
616.762	16483.79
617.118	16507.07
617.475	16522.66
617.831	16586.61
618.187	16613.5
618.543	16510.23
618.899	16665.48
619.255	16632.49
619.611	16604.24
619.967	16707.29
620.323	16787.51
620.678	16578.02
621.034	16628.19
621.39	16664.12
621.746	16667.97
622.101	16832.48
622.457	16672.03
622.812	16594.97
623.168	16682.2
623.523	16641.3
623.879	16768.98
624.234	16539.61
624.589	16660.96
624.945	16725.82
625.3	16686.27
625.655	16689.43
626.01	16651.02
626.365	16717.46
626.72	16663.22
627.075	16607.4
627.43	16706.38
627.785	16626.61
628.14	16624.13
628.495	16709.09
628.85	16687.85
629.205	16701.86
629.559	16653.05
629.914	16599.27
630.269	16638.36
630.623	16540.29
630.978	16504.13
631.332	16540.96
631.687	16585.71
632.041	16550.68
632.396	16506.84
632.75	16490.57
633.104	16463
633.459	16360.63
633.813	16429.55
634.167	16419.84
634.521	16415.32
634.875	16477.91
635.229	16374.87
635.583	16379.16
635.937	16240.86
636.291	16288.31
636.645	16227.98
636.999	16176.68
637.352	16252.16
637.706	16240.41
638.06	16206.28
638.413	16194.98
638.767	16131.71
639.121	16188.66
639.474	16067.98
639.828	15985.5
640.181	16075.66
640.534	16035.89
640.888	16044.25
641.241	15941.43
641.594	15951.15
641.947	15935.56
642.301	16011.26
642.654	15982.33
643.007	16049.45
643.36	15976.91
643.713	15922
644.066	15949.11
644.419	15905.73
644.771	15760.87
645.124	15613.98
645.477	15645.85
645.83	15588.45
646.182	15492.18
646.535	15392.74
646.888	15454.44
647.24	15316.59
647.593	15479.07
647.945	15389.81
648.298	15388.45
648.65	15262.35
649.002	15352.75
649.355	15402.69
649.707	15375.12
650.059	15358.85
650.411	15640.65
650.763	15721.1
651.115	15806.07
651.467	15771.94
651.819	15789.34
652.171	15686.52
652.523	15678.84
652.875	15715
653.227	15657.82
653.578	15767.88
653.93	15714.54
654.282	15642.46
654.633	15726.3
654.985	15668.44
655.337	15692.17
655.688	15698.05
656.039	15714.32
656.391	15611.5
656.742	15659.63
657.094	15729.01
657.445	15754.32
657.796	15620.99
658.147	15606.52
658.498	15693.75
658.849	15761.1
659.2	15740.76
659.551	15648.78
659.902	15788.21
660.253	15708.89
660.604	15767.88
660.955	15739.4
661.306	15838.16
661.656	15791.6
662.007	15750.48
662.358	15770.81
662.708	15760.87
663.059	15819.63
663.409	15600.65
663.76	15727.2
664.11	15685.17
664.461	15744.6
664.811	15804.94
665.161	15727.43
665.511	15708.67
665.862	15760.42
666.212	15820.98
666.562	15754.09
666.912	15648.33
667.262	15668.44
667.612	15693.08
667.962	15750.25
668.312	15747.99
668.662	15818.72
669.011	15676.81
669.361	15700.99
669.711	15652.17
670.06	15772.62
670.41	15618.95
670.76	15662.34
671.109	15681.55
671.459	15606.98
671.808	15645.85
672.157	15695.11
672.507	15629.8
672.856	15576.69
673.205	15639.52
673.554	15629.12
673.904	15463.93
674.253	15672.51
674.602	15561.55
674.951	15394.1
675.3	15371.28
675.649	15537.83
675.998	15538.05
676.346	15529.46
676.695	15529.24
677.044	15459.41
677.393	15518.39
677.741	15489.24
678.09	15460.99
678.438	15382.8
678.787	15358.4
679.135	15349.81
679.484	15264.39
679.832	15433.65
680.181	15278.85
680.529	15296.7
680.877	15234.33
681.225	15202.02
681.573	15336.25
681.922	15186.87
682.27	15207.89
682.618	15013.09
682.966	15128.8
683.314	15078.63
683.661	15076.82
684.009	14987.11
684.357	14932.42
684.705	14942.81
685.053	14836.83
685.4	14872.53
685.748	14825.53
686.095	14687
686.443	14739.65
686.79	14785.98
687.138	14713.21
687.485	14737.39
687.832	14556.83
688.18	14680
688.527	14526.55
688.874	14556.38
689.221	14418.31
689.568	14388.7
689.915	14421.25
690.262	14498.98
690.609	14321.13
690.956	14290.18
691.303	14254.92
691.65	14210.86
691.997	14291.31
692.344	14075.27
692.69	13996.62
693.037	14029.17
693.383	13988.94
693.73	14039.56
694.077	13863.07
694.423	13917.08
694.769	13929.05
695.116	13779
695.462	13760.02
695.808	13726.8
696.155	13781.94
696.501	13620.36
696.847	13661.04
697.193	13534.94
697.539	13580.59
697.885	13408.16
698.231	13404.1
698.577	13420.59
698.923	13314.38
699.269	13278.68
699.614	13220.6
699.96	13135.18
700.306	13207.27
700.651	13066.7
700.997	13055.86
701.342	13026.03
701.688	12973.37
702.033	12908.97
702.379	12828.29
702.724	12838.91
703.069	12819.71
703.415	12627.62
703.76	12684.12
704.105	12748.97
704.45	12635.76
704.795	12573.38
705.14	12560.5
705.485	12515.08
705.83	12548.07
706.175	12433.95
706.52	12401.19
706.865	12405.7
707.209	12336.1
707.554	12344.24
707.899	12282.09
708.243	12157.58
708.588	12141.76
708.932	12071.48
709.277	12040.06
709.621	12026.28
709.966	12019.73
710.31	11982.21
710.654	11848.43
710.998	11901.09
711.342	11883.68
711.687	11799.62
712.031	11777.7
712.375	11767.76
712.719	11745.61
713.063	11679.17
713.407	11796.68
713.75	11647.08
714.094	11654.31
714.438	11624.93
714.782	11722.33
715.125	11572.51
715.469	11642.79
715.812	11526.86
716.156	11449.12
716.499	11599.17
716.843	11431.95
717.186	11438.95
717.53	11452.51
717.873	11471.27
718.216	11486.86
718.559	11363.92
718.902	11304.04
719.246	11351.95
719.589	11385.84
719.932	11283.02
720.275	11263.14
720.617	11317.6
720.96	11252.06
721.303	11221.78
721.646	11227.2
721.989	11191.05
722.331	11236.92
722.674	11231.72
723.016	11212.97
723.359	11220.65
723.701	11172.52
724.044	11104.04
724.386	11106.53
724.729	11169.13
725.071	11140.65
725.413	11144.04
725.755	11005.74
726.097	11046.42
726.439	11007.55
726.782	10972.07
727.124	11003.71
727.465	11065.63
727.807	11014.1
728.149	10969.58
728.491	10979.75
728.833	10993.31
729.175	10931.17
729.516	10919.87
729.858	10912.41
730.199	10885.52
730.541	10992.41
730.882	10926.65
731.224	10962.35
731.565	10883.26
731.906	10864.05
732.248	10941.34
732.589	10851.62
732.93	10819.08
733.271	10856.82
733.612	10991.96
733.953	10920.32
734.294	10848.68
734.635	10870.83
734.976	10841
735.317	10863.37
735.658	10814.33
735.999	10829.48
736.339	10894.11
736.68	10882.81
737.021	10885.74
737.361	10830.83
737.702	10891.85
738.042	10838.74
738.383	10870.38
738.723	10884.16
739.063	10841.45
739.404	10878.97
739.744	10877.61
740.084	10837.16
740.424	10949.92
740.764	10863.37
741.104	11001
741.444	10910.38
741.784	10926.2
742.124	11050.94
742.464	11038.96
742.804	11043.93
743.143	10954.67
743.483	11086.42
743.823	11030.6
744.162	11104.5
744.502	11188.11
744.841	11135
745.181	11237.6
745.52	11210.48
745.86	11260.88
746.199	11347.88
746.538	11319.41
746.877	11385.39
747.216	11497.71
747.556	11485.5
747.895	11540.42
748.234	11579.96
748.573	11632.39
748.911	11623.35
749.25	11799.39
749.589	11814.53
749.928	11863.8
750.267	11999.84
750.605	12100.85
750.944	12068.31
751.283	12209.55
751.621	12338.81
751.96	12319.15
752.298	12467.85
752.636	12591.91
752.975	12655.19
753.313	12714.85
753.651	12903.54
753.989	12983.09
754.327	13092.69
754.666	13147.83
755.004	13351.22
755.342	13435.96
755.679	13534.49
756.017	13649.29
756.355	13848.38
756.693	13975.83
757.031	14159.56
757.368	14237.75
757.706	14288.14
758.044	14494.69
758.381	14698.98
758.719	14701.01
759.056	14990.04
759.394	15057.16
759.731	15197.04
760.068	15449.47
760.405	15494.89
760.743	15653.53
761.08	15796.35
761.417	15960.87
761.754	16216.9
762.091	16326.51
762.428	16380.29
762.765	16489.67
763.102	16931.24
763.438	16911.8
763.775	17008.97
764.112	17305.46
764.449	17510.43
764.785	17544.55
765.122	17588.17
765.458	17761.5
765.795	17832.91
766.131	18042.62
766.467	18172.56
766.804	18283.52
767.14	18362.16
767.476	18565.09
767.812	18628.37
768.148	18910.62
768.485	18823.62
768.821	18859.55
769.157	19103.38
769.492	19107.68
769.828	19304.28
770.164	19219.99
770.5	19432.64
770.836	19601.22
771.171	19586.31
771.507	19677.15
771.842	19676.47
772.178	19782.01
772.513	19828.79
772.849	19952.63
773.184	19911.27
773.519	20142.45
773.855	20148.33
774.19	20137.25
774.525	20164.37
774.86	20428.09
775.195	20364.59
775.53	20291.6
775.865	20396.68
776.2	20279.85
776.535	20347.19
776.87	20320.07
777.205	20441.43
777.539	20379.96
777.874	20502.44
778.209	20382.67
778.543	20432.16
778.878	20412.95
779.212	20472.84
779.547	20367.76
779.881	20666.28
780.215	20447.75
780.55	20571.14
780.884	20351.94
781.218	20534.53
781.552	20475.32
781.886	20410.01
782.22	20529.56
782.554	20456.79
782.888	20424.03
783.222	20237.82
783.556	20243.69
783.889	20361.43
784.223	20203.01
784.557	20208.89
784.89	20277.59
785.224	20138.38
785.557	20006.63
785.891	20120.76
786.224	20139.51
786.558	20199.4
786.891	19993.3
787.224	19877.15
787.557	19919.63
787.891	19919.41
788.224	19906.98
788.557	19900.88
788.89	19894.55
789.223	19778.62
789.556	19761.22
789.888	19731.84
790.221	19767.09
790.554	19585.18
790.887	19643.48
791.219	19589.24
791.552	19535.23
791.884	19354.45
792.217	19422.02
792.549	19331.85
792.882	19331.17
793.214	19174.11
793.546	19253.43
793.879	19223.6
794.211	19056.15
794.543	19120.56
794.875	19125.3
795.207	19165.3
795.539	19003.27
795.871	19072.2
796.203	18913.78
796.535	18872.2
796.867	18897.51
797.198	18784.97
797.53	18840.79
797.862	18699.32
798.193	18623.39
798.525	18709.72
798.856	18637.41
799.188	18467.47
799.519	18384.53
799.85	18314.02
800.182	18399.22
800.513	18248.72
800.844	18212.56
801.175	18317.64
801.506	18302.27
801.837	18253.91
802.168	18138.89
802.499	18107.7
802.83	18134.37
803.161	17922.85
803.491	17968.5
803.822	17942.51
804.153	17867.71
804.483	17848.05
804.814	17697.77
805.145	17643.53
805.475	17648.05
805.805	17665
806.136	17626.13
806.466	17663.65
806.796	17602.86
807.126	17445.12
807.457	17355.41
807.787	17408.51
808.117	17475.85
808.447	17256.2
808.777	17346.59
809.107	17115.19
809.436	17111.12
809.766	17227.72
810.096	17082.19
810.426	17091.46
810.755	16968.97
811.085	17000.84
811.414	17036.77
811.744	16847.17
812.073	16854.4
812.403	16944.12
812.732	16777.12
813.061	16766.27
813.39	16618.48
813.719	16559.72
814.049	16691.24
814.378	16653.73
814.707	16603.33
815.036	16637.68
815.365	16449.21
815.693	16406.05
816.022	16434.75
816.351	16360.63
816.68	16269.33
817.008	16336.67
817.337	16209.67
817.665	16056.23
817.994	16253.74
818.322	16180.29
818.651	16138.26
818.979	15972.62
819.307	16164.93
819.636	16075.44
819.964	15947.08
820.292	16018.49
820.62	15956.8
820.948	15872.51
821.276	15994.99
821.604	15880.19
821.932	15922.9
822.259	15955.89
822.587	15970.36
822.915	15896.23
823.243	15945.72
823.57	15895.56
823.898	15947.31
824.225	15892.39
824.553	15884.26
824.88	15912.96
825.207	15969.45
825.535	15962
825.862	15925.61
826.189	15872.05
826.516	15962.9
826.843	16004.93
827.17	15932.84
827.497	15948.89
827.824	15931.04
828.151	15944.37
828.478	15930.36
828.805	15924.26
829.131	15935.1
829.458	15893.07
829.785	15829.34
830.111	15953.41
830.438	16002.9
830.764	15870.47
831.09	15875.67
831.417	15783.02
831.743	15880.19
832.069	15903.69
832.395	15862.79
832.722	15904.14
833.048	15860.3
833.374	15803.13
833.7	15742.34
834.026	15771.49
834.351	15814.88
834.677	15764.49
835.003	15776.01
835.329	15728.56
835.654	15775.79
835.98	15693.98
836.306	15783.24
836.631	15647.2
836.956	15669.12
837.282	15727.2
837.607	15609.46
837.932	15626.64
838.258	15632.51
838.583	15512.06
838.908	15568.11
839.233	15522.69
839.558	15422.12
839.883	15431.39
840.208	15306.19
840.533	15368.11
840.858	15294.44
841.182	15286.53
841.507	15326.08
841.832	15271.39
842.156	15276.82
842.481	15232.07
842.805	15166.99
843.13	15101.23
843.454	15204.95
843.778	14914.11
844.103	15013.32
844.427	14971.29
844.751	14929.93
845.075	14955.92
845.399	14913.21
845.723	14760.9
846.047	14797.51
846.371	14725.42
846.695	14728.13
847.019	14586.89
847.343	14561.35
847.666	14441.36
847.99	14414.01
848.313	14340.12
848.637	14383.73
848.96	14274.81
849.284	14233
849.607	14157.75
849.931	14113
850.254	14001.6
850.577	13986.91
850.9	13889.06
851.223	13859.68
851.546	13807.02
851.869	13692.68
852.192	13775.39
852.515	13653.13
852.838	13594.6
853.161	13518.44
853.483	13521.61
853.806	13445.68
854.129	13422.4
854.451	13351.44
854.774	13325.91
855.096	13297.43
855.419	13299.69
855.741	13212.92
856.063	13194.16
856.385	13141.28
856.708	13054.95
857.03	13077.1
857.352	13044.11
857.674	13054.5
857.996	12886.14
858.318	12824
858.64	12873.72
858.961	12832.81
859.283	12771.8
859.605	12731.12
859.926	12751.68
860.248	12718.47
860.57	12584.01
860.891	12665.13
861.212	12634.85
861.534	12653.38
861.855	12476.44
862.176	12497.45
862.498	12524.57
862.819	12487.28
863.14	12393.5
863.461	12365.93
863.782	12312.15
864.103	12358.02
864.424	12362.99
864.745	12305.14
865.065	12230.79
865.386	12177.24
865.707	12196.67
866.027	12207.97
866.348	12160.29
866.668	12256.1
866.989	12131.36
867.309	12056.11
867.63	12073.96
867.95	12096.56
868.27	11906.06
868.59	12039.16
868.91	11968.65
869.23	11991.03
869.55	11880.75
869.87	11999.61
870.19	11928.66
870.51	11949.9
870.83	11944.25
871.15	11869.22
871.469	11895.89
871.789	11868.32
872.109	11908.99
872.428	11708.1
872.748	11730.24
873.067	11743.58
873.386	11777.47
873.706	11788.32
874.025	11664.03
874.344	11600.75
874.663	11708.55
874.982	11632.62
875.301	11657.48
875.62	11611.83
875.939	11540.87
876.258	11549.46
876.577	11578.16
876.896	11541.55
877.214	11497.48
877.533	11469.91
877.852	11444.83
878.17	11462.9
878.489	11418.16
878.807	11366.86
879.125	11400.76
879.444	11385.62
879.762	11371.61
880.08	11316.69
880.398	11226.53
880.716	11303.36
881.034	11300.42
881.352	11270.14
881.67	11297.49
881.988	11244.15
882.306	11190.82
882.624	11127.77
882.941	11104.72
883.259	11110.15
883.577	11019.53
883.894	11021.79
884.212	11041.45
884.529	11036.25
884.846	11002.13
885.164	10994.22
885.481	10966.19
885.798	10888
886.115	10825.63
886.432	10859.3
886.75	10892.52
887.067	10810.49
887.383	10820.89
887.7	10792.87
888.017	10682.13
888.334	10682.36
888.651	10703.83
888.967	10604.62
889.284	10554
889.6	10576.15
889.917	10462.71
890.233	10565.3
890.55	10429.71
890.866	10455.02
891.182	10409.6
891.498	10381.58
891.815	10355.14
892.131	10304.52
892.447	10243.28
892.763	10242.15
893.079	10255.48
893.395	10177.51
893.71	10194.46
894.026	10140
894.342	10106.78
894.657	10069.04
894.973	10000.12
895.289	9970.51
895.604	10024.52
895.92	9939.33
896.235	9842.38
896.55	9855.72
896.865	9822.04
897.181	9845.09
897.496	9844.64
897.811	9732.55
898.126	9661.37
898.441	9717.41
898.756	9606.91
899.071	9566.91
899.386	9677.87
899.7	9544.09
900.015	9531.66
900.33	9446.23
900.644	9419.57
900.959	9390.19
901.273	9291.66
901.588	9347.25
901.902	9293.02
902.216	9307.48
902.531	9166.47
902.845	9176.41
903.159	9191.33
903.473	9134.38
903.787	9067.49
904.101	9051.89
904.415	8978.45
904.729	8966.93
905.042	8902.52
905.356	8875.85
905.67	8910.43
905.984	8856.65
906.297	8886.25
906.611	8774.84
906.924	8746.37
907.237	8722.64
907.551	8691.9
907.864	8659.14
908.177	8641.06
908.491	8579.59
908.804	8490.55
909.117	8528.07
909.43	8475.64
909.743	8475.64
910.056	8426.37
910.368	8386.6
910.681	8340.05
910.994	8315.87
911.307	8294.4
911.619	8201.52
911.932	8281.52
912.244	8161.07
912.557	8166.49
912.869	8041.98
913.181	7989.32
913.494	8034.07
913.806	8022.77
914.118	7978.02
914.43	7936.67
914.742	7931.47
915.054	7866.16
915.366	7814.64
915.678	7784.13
915.99	7798.14
916.302	7771.02
916.613	7622.78
916.925	7662.1
917.236	7665.72
917.548	7567.64
917.859	7604.93
918.171	7540.97
918.482	7530.35
918.794	7512.95
919.105	7484.93
919.416	7421.43
919.727	7428.89
920.038	7367.42
920.349	7319.96
920.66	7319.74
920.971	7346.18
921.282	7283.13
921.593	7210.14
921.903	7143.02
922.214	7167.65
922.525	7134.21
922.835	7062.57
923.146	7007.88
923.456	7054.66
923.767	6980.08
924.077	6998.62
924.387	6947.09
924.697	6895.79
925.008	6882.91
925.318	6790.03
925.628	6819.41
925.938	6823.7
926.248	6733.31
926.558	6728.34
926.867	6686.31
927.177	6671.17
927.487	6668
927.796	6573.32
928.106	6550.49
928.416	6541.45
928.725	6544.62
929.034	6555.46
929.344	6501
929.653	6489.7
929.962	6427.11
930.271	6428.69
930.581	6396.82
930.89	6291.97
931.199	6306.66
931.508	6312.31
931.817	6274.57
932.125	6288.8
932.434	6243.38
932.743	6197.73
933.051	6185.76
933.36	6153.67
933.669	6109.6
933.977	6123.38
934.286	6080.45
934.594	6068.92
934.902	5982.6
935.21	5969.04
935.519	5979.66
935.827	5961.81
936.135	5915.93
936.443	5921.36
936.751	5820.34
937.059	5823.05
937.367	5821.47
937.674	5788.25
937.982	5730.4
938.29	5733.11
938.597	5731.53
938.905	5658.76
939.213	5663.28
939.52	5662.61
939.827	5668.03
940.135	5613.57
940.442	5596.17
940.749	5598.88
941.056	5565.88
941.363	5484.98
941.67	5491.08
941.977	5458.09
942.284	5395.72
942.591	5455.15
942.898	5393.91
943.205	5377.87
943.511	5410.41
943.818	5350.52
944.125	5273.92
944.431	5277.08
944.738	5228.72
945.044	5258.32
945.35	5218.1
945.657	5162.96
945.963	5123.18
946.269	5132.68
946.575	5129.51
946.881	5088.16
947.187	5050.64
947.493	5032.11
947.799	5024.2
948.105	5015.84
948.41	4978.1
948.716	5000.25
949.022	4933.81
949.327	4974.94
949.633	4851.78
949.938	4877.77
950.244	4854.49
950.549	4801.16
950.854	4824.66
951.16	4838.67
951.465	4746.7
951.77	4701.95
952.075	4691.56
952.38	4744.44
952.685	4676.87
952.99	4632.12
953.294	4647.94
953.599	4633.71
953.904	4624.67
954.209	4600.26
954.513	4594.38
954.818	4497.44
955.122	4500.38
955.426	4498.34
955.731	4462.86
956.035	4492.47
956.339	4485.46
956.643	4421.06
956.948	4381.51
957.252	4377.67
957.556	4393.71
957.86	4364.56
958.163	4334.96
958.467	4318.23
958.771	4238.69
959.075	4302.19
959.378	4273.04
959.682	4250.89
959.985	4280.72
960.289	4237.33
960.592	4223.77
960.896	4176.32
961.199	4158.92
961.502	4132.02
961.805	4117.34
962.108	4094.96
962.411	4049.77
962.714	4060.61
963.017	4084.57
963.32	4051.57
963.623	4019.03
963.926	4033.04
964.228	3996.89
964.531	3926.38
964.833	3948.98
965.136	3898.13
965.438	3917.34
965.741	3891.13
966.043	3857.91
966.345	3899.49
966.648	3839.6
966.95	3852.94
967.252	3807.29
967.554	3774.75
967.856	3752.83
968.158	3719.15
968.46	3748.76
968.761	3685.48
969.063	3744.46
969.365	3689.55
969.666	3664.47
969.968	3652.71
970.269	3683
970.571	3645.03
970.872	3584.47
971.174	3567.29
971.475	3572.26
971.776	3560.74
972.077	3546.05
972.378	3523
972.679	3538.82
972.98	3528.65
973.281	3510.35
973.582	3449.33
973.883	3444.81
974.183	3440.06
974.484	3446.84
974.785	3390.12
975.085	3426.05
975.386	3370.24
975.686	3382.44
975.986	3373.85
976.287	3319.84
976.587	3303.8
976.887	3309.45
977.187	3334.53
977.487	3290.24
977.787	3271.71
978.087	3221.54
978.387	3230.8
978.687	3247.3
978.987	3204.36
979.286	3202.33
979.586	3197.36
979.885	3150.58
980.185	3140.64
980.484	3122.79
980.784	3171.15
981.083	3091.6
981.382	3122.11
981.682	3101.32
981.981	3050.02
982.28	3060.64
982.579	3048.21
982.878	2996.23
983.177	3074.65
983.475	3022.9
983.774	2990.81
984.073	2981.09
984.372	2948.33
984.67	2935.9
984.969	2919.85
985.267	2902.45
985.566	2907.88
985.864	2919.63
986.162	2874.66
986.461	2856.35
986.759	2847.09
987.057	2823.36
987.355	2816.35
987.653	2832.62
987.951	2785.17
988.249	2821.32
988.547	2775
988.844	2759.63
989.142	2816.8
989.44	2699.97
989.737	2745.17
990.035	2708.56
990.332	2705.85
990.63	2661.55
990.927	2705.39
991.224	2666.75
991.521	2658.16
991.819	2642.35
992.116	2651.16
992.413	2647.77
992.71	2615.68
993.006	2562.12
993.303	2571.39
993.6	2549.24
993.897	2556.92
994.193	2563.03
994.49	2537.94
994.787	2511.05
995.083	2486.42
995.379	2477.38
995.676	2493.42
995.972	2468.11
996.268	2435.57
996.565	2425.85
996.861	2449.58
997.157	2390.38
997.453	2409.81
997.749	2379.75
998.044	2389.7
998.34	2364.84
998.636	2368.91
998.932	2330.26
999.227	2320.77
999.523	2303.6
999.818	2307.21
1000.114	2285.52
1000.409	2292.07
1000.704	2269.47
1001	2291.85
1001.295	2265.86
1001.59	2198.97
1001.885	2249.36
1002.18	2209.59
1002.475	2203.04
1002.77	2183.15
1003.065	2175.47
1003.359	2172.08
1003.654	2148.57
1003.949	2162.36
1004.243	2160.1
1004.538	2126.2
1004.832	2103.15
1005.127	2100.67
1005.421	2074.23
1005.715	2062.93
1006.009	2073.32
1006.304	2038.75
1006.598	2012.53
1006.892	2005.07
1007.186	1987
1007.48	2001.23
1007.773	1984.06
1008.067	2011.18
1008.361	1978.63
1008.655	1921.46
1008.948	1956.94
1009.242	1970.73
1009.535	1938.18
1009.829	1907
1010.122	1904.29
1010.415	1862.48
1010.708	1859.09
1011.001	1843.27
1011.295	1873.78
1011.588	1822.03
1011.881	1836.27
1012.173	1819.99
1012.466	1797.17
1012.759	1803.95
1013.052	1795.36
1013.344	1787.45
1013.637	1767.79
1013.93	1787.45
1014.222	1742.48
1014.514	1716.72
1014.807	1713.78
1015.099	1759.21
1015.391	1702.48
1015.683	1681.47
1015.976	1681.24
1016.268	1662.03
1016.56	1666.78
1016.851	1664.29
1017.143	1653.67
1017.435	1634.69
1017.727	1623.84
1018.018	1603.5
1018.31	1590.62
1018.602	1599.89
1018.893	1579.1
1019.185	1531.41
1019.476	1570.74
1019.767	1572.09
1020.058	1507.69
1020.35	1540
1020.641	1522.83
1020.932	1514.47
1021.223	1490.96
1021.514	1462.49
1021.804	1451.87
1022.095	1456.39
1022.386	1464.07
1022.677	1450.51
1022.967	1431.53
1023.258	1450.51
1023.548	1401.7
1023.839	1400.12
1024.129	1409.84
1024.419	1396.5
1024.709	1383.17
1025	1370.74
1025.29	1350.4
1025.58	1340.91
1025.87	1348.37
1026.16	1334.36
1026.449	1351.98
1026.739	1319.67
1027.029	1335.04
1027.319	1291.65
1027.608	1275.15
1027.898	1299.1
1028.187	1282.38
1028.477	1262.04
1028.766	1259.33
1029.055	1255.04
1029.344	1266.34
1029.634	1253.68
1029.923	1226.56
1030.212	1211.87
1030.501	1207.58
1030.79	1206.45
1031.078	1196.06
1031.367	1188.82
1031.656	1198.99
1031.945	1174.36
1032.233	1181.14
1032.522	1156.28
1032.81	1160.8
1033.099	1137.75
1033.387	1140.46
1033.675	1107.02
1033.963	1111.09
1034.251	1139.56
1034.54	1111.09
1034.828	1114.93
1035.116	1105.44
1035.403	1074.03
1035.691	1080.35
1035.979	1084.87
1036.267	1049.85
1036.554	1041.48
1036.842	1050.75
1037.129	1037.87
1037.417	1002.39
1037.704	1031.54
1037.992	1029.28
1038.279	994.71
1038.566	1005.55
1038.853	1005.55
1039.14	1005.55
