Data from hue_32_FLMS001491_00080.txt Node
Date: Tue Feb 07 17:23:54 GMT 2017
User: dcchb
Spectrometer: FLMS00149
Trigger mode: 0
Integration Time (sec): 2.000000E-2
Scans to average: 10
Electric dark correction enabled: true
Nonlinearity correction enabled: false
Boxcar width: 0
XAxis mode: Wavelengths
Number of Pixels in Spectrum: 2048
>>>>>Begin Spectral Data<<<<<
341.393	-23.15
341.776	-23.15
342.16	-23.15
342.543	-60.21
342.927	-74.67
343.31	-76.93
343.693	-69.25
344.077	-60.89
344.46	-43.71
344.843	-42.36
345.226	-41
345.61	-28.8
345.993	-22.02
346.376	-7.78
346.759	8.94
347.142	29.73
347.525	22.73
347.908	71.99
348.291	62.95
348.674	92.55
349.057	103.85
349.44	119.22
349.823	146.79
350.206	161.25
350.588	194.25
350.971	211.65
351.354	222.72
351.737	241.7
352.119	249.16
352.502	289.61
352.884	295.94
353.267	284.64
353.65	301.14
354.032	282.61
354.414	315.6
354.797	306.33
355.179	319.44
355.562	339.78
355.944	330.29
356.326	351.98
356.709	351.08
357.091	323.96
357.473	345.65
357.855	358.31
358.238	352.66
358.62	355.82
359.002	344.98
359.384	357.86
359.766	348.14
360.148	336.84
360.53	348.14
360.912	346.33
361.294	344.98
361.676	345.2
362.057	337.52
362.439	350.63
362.821	341.14
363.203	329.38
363.584	337.07
363.966	326.67
364.348	332.77
364.729	339.55
365.111	320.12
365.493	332.32
365.874	325.09
366.256	320.12
366.637	328.03
367.019	323.51
367.4	297.75
367.781	316.73
368.163	328.71
368.544	349.95
368.925	323.06
369.306	333.68
369.688	302.94
370.069	323.06
370.45	331.19
370.831	316.28
371.212	336.39
371.593	327.8
371.974	313.79
372.355	333.68
372.736	343.85
373.117	343.85
373.498	324.86
373.879	323.73
374.26	320.57
374.641	318.76
375.021	305.43
375.402	328.93
375.783	334.81
376.163	328.71
376.544	327.12
376.925	320.8
377.305	339.55
377.686	340.91
378.066	325.54
378.447	325.99
378.827	342.49
379.208	328.93
379.588	371.42
379.968	328.03
380.349	333.9
380.729	343.17
381.109	330.29
381.489	330.74
381.87	338.42
382.25	339.78
382.63	340.23
383.01	362.83
383.39	347.01
383.77	354.24
384.15	361.02
384.53	346.11
384.91	350.4
385.29	350.4
385.67	341.81
386.049	360.12
386.429	361.47
386.809	360.34
387.189	360.12
387.568	364.19
387.948	371.87
388.328	362.15
388.707	357.63
389.087	359.21
389.466	361.25
389.846	365.77
390.225	373.68
390.605	373.45
390.984	347.24
391.363	364.41
391.743	397.4
392.122	374.35
392.501	390.17
392.881	373
393.26	384.98
393.639	403.51
394.018	382.72
394.397	375.48
394.776	394.02
395.155	379.78
395.534	387.46
395.913	384.3
396.292	392.66
396.671	397.63
397.05	389.95
397.429	402.83
397.808	368.93
398.186	394.69
398.565	391.98
398.944	405.54
399.323	390.63
399.701	416.61
400.08	389.27
400.458	388.82
400.837	402.38
401.215	426.33
401.594	403.51
401.972	414.81
402.351	399.89
402.729	401.47
403.107	428.59
403.486	400.34
403.864	427.91
404.242	422.49
404.62	418.42
404.999	412.55
405.377	440.12
405.755	427.46
406.133	420.23
406.511	425.2
406.889	433.56
407.267	426.33
407.645	429.04
408.023	469.49
408.401	458.42
408.779	453.45
409.156	446.9
409.534	448.93
409.912	455.03
410.29	483.96
410.667	448.7
411.045	447.8
411.422	457.29
411.8	473.79
412.178	471.75
412.555	494.35
412.933	464.3
413.31	486.89
413.687	478.31
414.065	476.05
414.442	505.42
414.819	471.98
415.197	490.28
415.574	516.95
415.951	501.13
416.328	506.1
416.705	493.22
417.082	498.19
417.46	517.18
417.837	509.04
418.214	519.21
418.591	518.98
418.967	520.57
419.344	515.82
419.721	530.73
420.098	507.01
420.475	542.49
420.852	537.51
421.228	510.4
421.605	527.34
421.982	519.66
422.358	529.38
422.735	547.01
423.111	561.02
423.488	563.95
423.864	554.91
424.241	546.78
424.617	539.77
424.994	552.65
425.37	561.24
425.746	570.28
426.123	575.93
426.499	583.39
426.875	573.22
427.251	590.62
427.627	572.09
428.003	591.3
428.379	600.79
428.756	605.31
429.132	600.79
429.507	621.35
429.883	620
430.259	622.26
430.635	640.11
431.011	619.09
431.387	644.86
431.763	629.94
432.138	613.22
432.514	658.87
432.89	636.27
433.265	650.05
433.641	648.7
434.016	671.52
434.392	699.54
434.767	671.3
435.143	657.51
435.518	691.41
435.894	702.03
436.269	722.82
436.644	714.91
437.02	710.39
437.395	738.64
437.77	725.76
438.145	715.81
438.52	737.06
438.895	748.81
439.271	744.97
439.646	742.25
440.021	762.82
440.395	766.21
440.77	746.77
441.145	771.63
441.52	779.54
441.895	763.27
442.27	749.03
442.645	784.51
443.019	773.89
443.394	796.04
443.769	791.07
444.143	798.75
444.518	811.18
444.892	804.63
445.267	821.57
445.641	824.06
446.016	810.95
446.39	832.65
446.764	841.01
447.139	837.17
447.513	815.25
447.887	834.23
448.262	861.12
448.636	826.32
449.01	853.44
449.384	845.53
449.758	859.09
450.132	871.29
450.506	892.31
450.88	883.72
451.254	867.22
451.628	877.84
452.002	910.61
452.376	907.22
452.75	908.8
453.123	894.57
453.497	932.76
453.871	938.63
454.244	957.39
454.618	932.76
454.992	936.83
455.365	955.58
455.739	975.24
456.112	987.22
456.486	998.07
456.859	997.39
457.232	1019.54
457.606	1022.25
457.979	1040.78
458.352	1032.19
458.725	1047.11
459.099	1077.84
459.472	1064.51
459.845	1059.53
460.218	1100.89
460.591	1101.79
460.964	1099.53
461.337	1104.96
461.71	1126.2
462.083	1159.42
462.456	1163.94
462.829	1188.8
463.201	1171.62
463.574	1190.6
463.947	1217.27
464.32	1231.51
464.692	1237.61
465.065	1243.94
465.438	1253.2
465.81	1288.45
466.183	1295.01
466.555	1317.15
466.928	1318.06
467.3	1329.81
467.672	1377.49
468.045	1368.45
468.417	1410.26
468.789	1406.42
469.161	1434.44
469.534	1467.21
469.906	1479.86
470.278	1483.7
470.65	1535.68
471.022	1543.36
471.394	1567.09
471.766	1598.28
472.138	1623.14
472.51	1623.81
472.882	1662.91
473.253	1685.05
473.625	1722.57
473.997	1776.58
474.369	1786.75
474.74	1784.26
475.112	1862.9
475.484	1901.09
475.855	1860.19
476.227	1930.7
476.598	2013.63
476.97	2049.79
477.341	2087.76
477.713	2138.38
478.084	2171.14
478.455	2196.23
478.827	2241.2
479.198	2342.89
479.569	2323.46
479.94	2435.54
480.311	2466.28
480.682	2509.67
481.053	2593.51
481.424	2631.47
481.795	2690
482.166	2759.6
482.537	2802.31
482.908	2895.64
483.279	2938.81
483.65	3061.29
484.021	3086.15
484.391	3161.63
484.762	3209.53
485.133	3281.17
485.503	3369.76
485.874	3434.16
486.244	3514.84
486.615	3575.17
486.985	3635.51
487.356	3759.58
487.726	3816.3
488.097	3910.53
488.467	3957.54
488.837	4043.86
489.207	4107.82
489.578	4208.6
489.948	4268.04
490.318	4357.3
490.688	4420.8
491.058	4540.12
491.428	4604.07
491.798	4682.94
492.168	4799.32
492.538	4874.58
492.908	4951.41
493.278	4996.38
493.648	5068.69
494.017	5182.82
494.387	5241.12
494.757	5348.91
495.126	5364.28
495.496	5472.3
495.866	5473.66
496.235	5663.03
496.605	5689.92
496.974	5752.52
497.344	5864.61
497.713	5887.2
498.082	5991.83
498.452	5983.25
498.821	6107.76
499.19	6105.73
499.559	6224.14
499.928	6341.2
500.298	6347.76
500.667	6450.8
501.036	6447.42
501.405	6577.13
501.774	6577.36
502.143	6653.51
502.512	6748.65
502.88	6755.2
503.249	6834.52
503.618	6868.87
503.987	6850.57
504.356	6935.54
504.724	7010.34
505.093	7113.61
505.462	7073.84
505.83	7184.34
506.199	7258.02
506.567	7294.62
506.936	7358.58
507.304	7457.56
507.672	7499.59
508.041	7556.76
508.409	7559.02
508.777	7638.12
509.145	7763.09
509.514	7717.21
509.882	7773.48
510.25	7845.34
510.618	7891.22
510.986	7968.05
511.354	8034.04
511.722	8055.06
512.09	8138.22
512.458	8111.78
512.826	8159.01
513.193	8300.02
513.561	8318.55
513.929	8313.58
514.297	8394.26
514.664	8466.57
515.032	8490.98
515.4	8544.76
515.767	8582.73
516.135	8619.79
516.502	8612.56
516.869	8790.63
517.237	8814.58
517.604	8756.06
517.972	8876.5
518.339	8878.09
518.706	8906.56
519.073	8952.89
519.44	8992.66
519.808	9018.87
520.175	8984.52
520.542	9181.35
520.909	9245.99
521.276	9201.69
521.643	9336.15
522.009	9337.73
522.376	9415.7
522.743	9414.34
523.11	9517.39
523.477	9670.38
523.843	9699.76
524.21	9702.92
524.577	9801.9
524.943	9881.9
525.31	9912.18
525.676	9934.1
526.043	10001.22
526.409	10108.56
526.776	10150.82
527.142	10186.07
527.508	10212.06
527.874	10307.43
528.241	10352.4
528.607	10331.83
528.973	10430.36
529.339	10456.12
529.705	10563.24
530.071	10645.72
530.437	10745.38
530.803	10706.29
531.169	10838.03
531.535	10807.75
531.901	10814.98
532.267	10871.48
532.632	10920.52
532.998	10983.79
533.364	11030.35
533.73	11087.52
534.095	11168.65
534.461	11213.17
534.826	11207.74
535.192	11328.19
535.557	11403.67
535.923	11355.53
536.288	11425.36
536.653	11501.75
537.019	11431.24
537.384	11607.28
537.749	11644.57
538.114	11689.09
538.479	11686.6
538.845	11736.54
539.21	11818.8
539.575	11846.14
539.94	11880.72
540.305	11986.7
540.67	11945.8
541.034	12057.89
541.399	12059.7
541.764	12141.95
542.129	12072.13
542.494	12193.03
542.858	12180.15
543.223	12223.08
543.587	12335.4
543.952	12315.28
544.316	12428.27
544.681	12413.81
545.045	12506.24
545.41	12535.16
545.774	12608.16
546.138	12549.63
546.503	12687.48
546.867	12755.27
547.231	12820.13
547.595	12830.98
547.959	12863.07
548.324	12929.73
548.688	12885.44
549.052	13028.94
549.416	13025.1
549.779	13099.44
550.143	13100.12
550.507	13193.9
550.871	13347.8
551.235	13262.15
551.599	13370.17
551.962	13405.42
552.326	13468.25
552.689	13536.27
553.053	13477.96
553.417	13487.46
553.78	13665.76
554.143	13587.11
554.507	13708.69
554.87	13704.85
555.234	13877.5
555.597	13696.26
555.96	13850.38
556.323	13818.75
556.686	13865.75
557.05	13988.91
557.413	13997.95
557.776	14085.41
558.139	14169.02
558.502	14178.96
558.865	14211.05
559.228	14316.81
559.59	14357.72
559.953	14321.78
560.316	14536.69
560.679	14501.21
561.041	14615.56
561.404	14634.54
561.767	14735.33
562.129	14701.44
562.492	14863.69
562.854	14854.2
563.217	14818.04
563.579	14844.26
563.941	14991.37
564.304	14993.63
564.666	15076.34
565.028	15110.46
565.39	15131.71
565.753	15286.96
566.115	15237.47
566.477	15366.73
566.839	15353.85
567.201	15451.47
567.563	15474.75
567.925	15641.75
568.287	15562.88
568.648	15682.2
569.01	15637.68
569.372	15751.8
569.734	15840.61
570.095	15874.51
570.457	16017.79
570.819	16063.43
571.18	16035.86
571.542	16166.03
571.903	16175.75
572.265	16230.89
572.626	16330.77
572.987	16422.97
573.349	16544.55
573.71	16563.31
574.071	16712
574.432	16783.87
574.794	16895.5
575.155	16988.38
575.516	16978.66
575.877	17193.8
576.238	17223.86
576.599	17292.33
576.96	17461.81
577.32	17505.66
577.681	17740.9
578.042	17797.63
578.403	17934.8
578.763	18015.02
579.124	18132.53
579.485	18404.61
579.845	18540.43
580.206	18589.69
580.566	18733.42
580.927	18928.44
581.287	19097.48
581.648	19173.18
582.008	19460.63
582.368	19430.35
582.728	19769.1
583.089	19880.51
583.449	20159.6
583.809	20275.3
584.169	20524.33
584.529	20597.55
584.889	21060.36
585.249	21120.25
585.609	21365.67
585.969	21624.87
586.329	21767.92
586.688	22109.6
587.048	22388.69
587.408	22492.42
587.768	22745.52
588.127	22943.48
588.487	23186.18
588.846	23657.13
589.206	23695.55
589.565	23873.85
589.925	24387.96
590.284	24458.92
590.643	24702.08
591.003	24997.44
591.362	25356.52
591.721	25643.75
592.08	25825.21
592.44	26113.79
592.799	26478.98
593.158	26587.22
593.517	26938.4
593.876	27345.4
594.235	27415.45
594.593	27774.31
594.952	28022.44
595.311	28243.9
595.67	28647.96
596.029	28924.34
596.387	29156.42
596.746	29493.59
597.104	29727.26
597.463	29871.21
597.822	30262.83
598.18	30384.86
598.538	30480.46
598.897	30985.75
599.255	30952.99
599.613	31716.13
599.972	31727.88
600.33	31946.63
600.688	32175.1
601.046	32344.14
601.404	32747.51
601.762	32883.33
602.12	33343.21
602.478	33469.76
602.836	33664.78
603.194	33753.82
603.552	34025.45
603.91	34055.5
604.268	34614.36
604.625	34520.35
604.983	34931.86
605.341	34987.91
605.698	35184.29
606.056	35537.27
606.413	35792.18
606.771	35967.32
607.128	36226.52
607.485	36241.89
607.843	36473.74
608.2	36674.19
608.557	36914.18
608.914	36905.6
609.272	37205.93
609.629	37473.94
609.986	37703.32
610.343	37661.06
610.7	37960.26
611.057	38119.58
611.414	38294.04
611.771	38330.19
612.127	38690.64
612.484	38789.16
612.841	38980.35
613.198	39029.84
613.554	39105.09
613.911	39391.41
614.267	39518.86
614.624	39681.57
614.98	39876.14
615.337	40039.3
615.693	40030.49
616.05	40213.98
616.406	40498.27
616.762	40506.41
617.118	40471.15
617.475	40628.44
617.831	40891.26
618.187	40943.23
618.543	41067.52
618.899	41238.36
619.255	41310
619.611	41404.46
619.967	41484.46
620.323	41798.58
620.678	41637.22
621.034	41711.8
621.39	41785.7
621.746	41844.22
622.101	42381.39
622.457	41996.09
622.812	42184.1
623.168	42301.61
623.523	42367.37
623.879	42429.07
624.234	42214.84
624.589	42512.46
624.945	42717.2
625.3	42741.6
625.655	42695.73
626.01	42750.87
626.365	42874.71
626.72	42880.36
627.075	42856.63
627.43	42889.17
627.785	42808.27
628.14	43088.26
628.495	43121.25
628.85	43056.62
629.205	42740.47
629.559	43302.94
629.914	42987.25
630.269	43201.48
630.623	42974.36
630.978	42938.89
631.332	43316.28
631.687	43223.4
632.041	43186.79
632.396	43173.68
632.75	43116.51
633.104	43094.81
633.459	42984.53
633.813	43055.04
634.167	43078.99
634.521	43177.07
634.875	43196.28
635.229	43189.05
635.583	42921.71
635.937	43014.82
636.291	42990.86
636.645	43022.95
636.999	43034.7
637.352	43055.72
637.706	42828.15
638.06	43142.95
638.413	43070.18
638.767	42949.05
639.121	43180.91
639.474	42926.91
639.828	42989.05
640.181	42937.53
640.534	42904.08
640.888	42806.46
641.241	42720.13
641.594	42863.63
641.947	42950.41
642.301	42735.27
642.654	42865.21
643.007	42851.66
643.36	42721.72
643.713	42753.13
644.066	42941.14
644.419	42620.93
644.771	42377.32
645.124	41999.7
645.477	41947.5
645.83	41810.33
646.182	41593.61
646.535	41592.93
646.888	41651.91
647.24	41395.2
647.593	41554.97
647.945	41540.05
648.298	41344.35
648.65	41259.16
649.002	41326.05
649.355	41429.32
649.707	41441.52
650.059	41625.02
650.411	42018.23
650.763	41968.06
651.115	42349.75
651.467	42282.86
651.819	42295.96
652.171	42273.37
652.523	42189.98
652.875	42148.62
653.227	41933.94
653.578	42236.53
653.93	41997.44
654.282	41976.65
654.633	41932.81
654.985	41936.2
655.337	42038.34
655.688	41977.1
656.039	42140.26
656.391	41831.12
656.742	41908.4
657.094	41922.19
657.445	42093.26
657.796	41857.78
658.147	41774.85
658.498	41889.65
658.849	41958.57
659.2	41819.82
659.551	41774.62
659.902	41885.13
660.253	41640.39
660.604	41828.63
660.955	41672.7
661.306	41832.25
661.656	41705.02
662.007	41692.36
662.358	41663.66
662.708	41843.77
663.059	41706.38
663.409	41469.77
663.76	41722.19
664.11	41824.79
664.461	41899.59
664.811	41812.14
665.161	41842.64
665.511	41580.5
665.862	41779.37
666.212	41713.15
666.562	41671.35
666.912	41651.24
667.262	41640.39
667.612	41559.94
667.962	41684.91
668.312	41596.55
668.662	41892.36
669.011	41581.18
669.361	41577.11
669.711	41547.74
670.06	41469.32
670.41	41387.51
670.76	41436.78
671.109	41539.37
671.459	41381.64
671.808	41312.04
672.157	41428.19
672.507	41268.19
672.856	41384.12
673.205	41378.02
673.554	41445.14
673.904	41232.72
674.253	41482.88
674.602	41355.2
674.951	40800.86
675.3	40460.76
675.649	41319.94
675.998	41111.36
676.346	41385.48
676.695	41477.23
677.044	41080.18
677.393	41052.83
677.741	41145.94
678.09	41084.92
678.438	40935.32
678.787	41140.74
679.135	41110.01
679.484	40773.29
679.832	40921.54
680.181	40680.64
680.529	40758.6
680.877	40823.91
681.225	40745.04
681.573	40851.93
681.922	40654.88
682.27	40563.13
682.618	40512.73
682.966	40464.37
683.314	40603.35
683.661	40391.38
684.009	40235
684.357	40076.81
684.705	40044.27
685.053	40147.32
685.4	40088.11
685.748	39985.74
686.095	39939.42
686.443	39831.62
686.79	39740.78
687.138	39889.93
687.485	39835.92
687.832	39653.32
688.18	39563.15
688.527	39500.56
688.874	39406.77
689.221	39374.23
689.568	39191.86
689.915	39174.92
690.262	39084.07
690.609	39045.65
690.956	38862.38
691.303	38857.64
691.65	38712.56
691.997	38702.39
692.344	38392.34
692.69	38325.9
693.037	38488.15
693.383	38152.12
693.73	38295.17
694.077	38223.53
694.423	38102.18
694.769	38024.21
695.116	37859.7
695.462	37872.35
695.808	37837.78
696.155	37803.43
696.501	37587.61
696.847	37584.22
697.193	37325.7
697.539	37506.49
697.885	37132.26
698.231	37020.4
698.577	37013.62
698.923	36951.47
699.269	36788.76
699.614	36687.52
699.96	36714.42
700.306	36574.76
700.651	36491.82
700.997	36405.72
701.342	36315.1
701.688	36332.51
702.033	36012.51
702.379	36054.55
702.724	35969.35
703.069	36125.05
703.415	35559.64
703.76	35721
704.105	35547.67
704.45	35581.11
704.795	35483.49
705.14	35297.5
705.485	35313.1
705.83	35045.31
706.175	35234.68
706.52	34909.04
706.865	34974.35
707.209	34994.69
707.554	34642.15
707.899	34822.49
708.243	34613
708.588	34773
708.932	34448.26
709.277	34295.95
709.621	34470.18
709.966	34114.26
710.31	34269.28
710.654	33875.85
710.998	34143.86
711.342	34025.22
711.687	33852.12
712.031	33812.8
712.375	33782.52
712.719	33740.93
713.063	33555.4
713.407	33740.03
713.75	33619.13
714.094	33559.47
714.438	33234.06
714.782	33457.78
715.125	33195.41
715.469	33374.62
715.812	33109.09
716.156	32898.92
716.499	32852.6
716.843	32955.42
717.186	32783.9
717.53	32930.33
717.873	32948.41
718.216	32811.47
718.559	32635.43
718.902	32518.14
719.246	32512.49
719.589	32491.7
719.932	32425.49
720.275	32359.95
720.617	32380.97
720.96	32106.4
721.303	32295.1
721.646	32217.13
721.989	32056.91
722.331	32141.2
722.674	31987.31
723.016	31995.67
723.359	31934.43
723.701	32050.36
724.044	31747.09
724.386	31589.35
724.729	31799.29
725.071	31577.6
725.413	31560.65
725.755	31521.11
726.097	31461.22
726.439	31253.54
726.782	31285.86
727.124	31543.7
727.465	31209.25
727.807	31218.52
728.149	31124.28
728.491	31103.49
728.833	31240.21
729.175	31058.52
729.516	31064.4
729.858	30938.75
730.199	31075.69
730.541	30878.19
730.882	30820.33
731.224	30873.67
731.565	30736.04
731.906	30763.84
732.248	30677.96
732.589	30589.15
732.93	30518.42
733.271	30484.52
733.612	30625.99
733.953	30601.13
734.294	30477.74
734.635	30273.91
734.976	30448.14
735.317	30201.82
735.658	30240.24
735.999	30166.11
736.339	30045.89
736.68	30211.08
737.021	30019
737.361	29956.4
737.702	30213.12
738.042	29923.86
738.383	29939.68
738.723	29879.57
739.063	29887.48
739.404	29842.96
739.744	29779.23
740.084	29566.36
740.424	29697.88
740.764	29617.43
741.104	29700.82
741.444	29520.25
741.784	29546.02
742.124	29499.92
742.464	29455.85
742.804	29339.69
743.143	29376.3
743.483	29443.87
743.823	29337.21
744.162	29303.54
744.502	29294.5
744.841	29096.76
745.181	29200.94
745.52	29059.02
745.86	29139.25
746.199	29095.41
746.538	28919.82
746.877	28932.7
747.216	29050.66
747.556	28919.37
747.895	28765.92
748.234	28702.65
748.573	28645.93
748.911	28683.21
749.25	28723.44
749.589	28575.42
749.928	28588.98
750.267	28649.54
750.605	28528.42
750.944	28452.03
751.283	28295.65
751.621	28373.62
751.96	28207.52
752.298	28321.64
752.636	28217.24
752.975	28138.6
753.313	28071.71
753.651	28222.44
753.989	28013.85
754.327	27899.96
754.666	27827.19
755.004	27930.24
755.342	27909
755.679	27764.82
756.017	27656.35
756.355	27688.89
756.693	27529.35
757.031	27640.98
757.368	27574.32
757.706	27363.7
758.044	27351.27
758.381	27392.4
758.719	27245.06
759.056	27265.62
759.394	27214.33
759.731	27050.94
760.068	27066.99
760.405	26979.53
760.743	26809.82
761.08	26825.86
761.417	26737.5
761.754	26713.55
762.091	26536.6
762.428	26544.51
762.765	26350.62
763.102	26497.96
763.438	26259.78
763.775	26258.42
764.112	26179.78
764.449	26233.11
764.785	25989.27
765.122	25946.34
765.458	25777.98
765.795	25782.27
766.131	25733.01
766.467	25627.7
766.804	25488.27
767.14	25417.99
767.476	25470.42
767.812	25250.76
768.148	25279.24
768.485	25152.69
768.821	25030.2
769.157	24984.33
769.492	24911.56
769.828	24934.16
770.164	24733.04
770.5	24694.39
770.836	24622.76
771.171	24436.55
771.507	24444.68
771.842	24166.27
772.178	24237.91
772.513	24146.16
772.849	24167.63
773.184	24038.37
773.519	24013.51
773.855	23908.88
774.19	23729.45
774.525	23716.57
774.86	23705.27
775.195	23601.99
775.53	23421.88
775.865	23321.55
776.2	23276.35
776.535	23072.29
776.87	23091.72
777.205	22970.14
777.539	22854.22
777.874	22902.8
778.209	22673.43
778.543	22728.12
778.878	22545.3
779.212	22505.75
779.547	22409.26
779.881	22437.28
780.215	22261.69
780.55	22320.22
780.884	22120.9
781.218	22096.95
781.552	22036.84
781.886	21902.83
782.22	21804.53
782.554	21836.84
782.888	21540.35
783.222	21526.79
783.556	21512.56
783.889	21408.15
784.223	21258.55
784.557	21216.07
784.89	21281.6
785.224	20999.35
785.557	21054.71
785.891	20987.15
786.224	20895.4
786.558	20842.52
786.891	20717.1
787.224	20596.2
787.557	20566.37
787.891	20527.95
788.224	20420.38
788.557	20434.62
788.89	20370.21
789.223	20266.49
789.556	20240.5
789.888	20112.37
790.221	19991.01
790.554	19902.2
790.887	19933.39
791.219	19810.45
791.552	19740.4
791.884	19719.38
792.217	19600.06
792.549	19477.36
792.882	19426.96
793.214	19400.07
793.546	19382.22
793.879	19363.91
794.211	19106.74
794.543	19243.01
794.875	19180.64
795.207	19191.26
795.539	19008.44
795.871	19002.79
796.203	18899.52
796.535	18825.17
796.867	18775.9
797.198	18682.8
797.53	18701.33
797.862	18619.98
798.193	18559.64
798.525	18419.76
798.856	18438.06
799.188	18180.67
799.519	18183.83
799.85	18121.68
800.182	18107.22
800.513	18144.06
800.844	17944.29
801.175	18017.96
801.506	18049.82
801.837	17909.71
802.168	17779.77
802.499	17875.82
802.83	17664.3
803.161	17640.12
803.491	17666.33
803.822	17639.21
804.153	17483.06
804.483	17421.36
804.814	17362.38
805.145	17296.4
805.475	17324.64
805.805	17272.44
806.136	17231.54
806.466	17178.21
806.796	17163.97
807.126	17002.17
807.457	16954.48
807.787	17060.47
808.117	16895.28
808.447	16854.6
808.777	16822.06
809.107	16707.71
809.436	16721.95
809.766	16761.72
810.096	16651.89
810.426	16553.36
810.755	16640.82
811.085	16555.4
811.414	16430.2
811.744	16371.22
812.073	16272.47
812.403	16224.33
812.732	16271.34
813.061	16211.23
813.39	16180.72
813.719	16121.74
814.049	16133.94
814.378	16068.63
814.707	15957.67
815.036	16019.59
815.365	15927.62
815.693	15728.53
816.022	15728.3
816.351	15708.64
816.68	15623.45
817.008	15634.74
817.337	15542.09
817.665	15549.55
817.994	15571.47
818.322	15544.35
818.651	15484.24
818.979	15466.61
819.307	15473.62
819.636	15414.64
819.964	15252.61
820.292	15429.55
820.62	15326.96
820.948	15277.92
821.276	15411.7
821.604	15301.87
821.932	15303.23
822.259	15316.33
822.587	15264.81
822.915	15208.31
823.243	15263.68
823.57	15230.24
823.898	15320.63
824.225	15123.8
824.553	15223.46
824.88	15233.85
825.207	15132.84
825.535	15206.05
825.862	15201.76
826.189	15137.36
826.516	15169.22
826.843	15219.16
827.17	15178.26
827.497	15215.32
827.824	15188.43
828.151	15252.61
828.478	15161.54
828.805	15237.01
829.131	15195.21
829.458	15080.41
829.785	15042.44
830.111	15178.49
830.438	15190.46
830.764	15182.78
831.09	15119.96
831.417	15108.66
831.743	15143.68
832.069	15131.93
832.395	15077.24
832.722	15112.72
833.048	15098.94
833.374	15092.61
833.7	15001.54
834.026	14926.51
834.351	15068.88
834.677	14919.96
835.003	15032.5
835.329	15010.58
835.654	14974.2
835.98	14888.55
836.306	14912.28
836.631	14874.09
836.956	14954.54
837.282	14831.83
837.607	14840.19
837.932	14752.96
838.258	14773.75
838.583	14829.57
838.908	14610.59
839.233	14684.71
839.558	14590.7
839.883	14614.21
840.208	14505.51
840.533	14602.68
840.858	14570.59
841.182	14549.58
841.507	14459.18
841.832	14474.1
842.156	14384.16
842.481	14446.3
842.805	14357.26
843.13	14375.57
843.454	14304.16
843.778	14269.81
844.103	14309.81
844.427	14224.39
844.751	14182.81
845.075	14192.3
845.399	14123.37
845.723	14028.91
846.047	13991.62
846.371	13939.2
846.695	13962.47
847.019	13820.33
847.343	13695.36
847.666	13636.6
847.99	13712.99
848.313	13558.87
848.637	13509.6
848.96	13525.87
849.284	13527.91
849.607	13416.95
849.931	13345.99
850.254	13287.46
850.577	13195.03
850.9	13090.63
851.223	13152.55
851.546	13028.26
851.869	12937.41
852.192	13090.4
852.515	12963.18
852.838	12829.85
853.161	12782.16
853.483	12802.28
853.806	12772.22
854.129	12642.96
854.451	12673.92
854.774	12577.88
855.096	12499.01
855.419	12523.19
855.741	12490.65
856.063	12371.33
856.385	12444.77
856.708	12365.45
857.03	12328.84
857.352	12297.2
857.674	12193.25
857.996	12238.9
858.318	12117.1
858.64	12168.85
858.961	12186.47
859.283	12027.16
859.605	11996.2
859.926	11996.65
860.248	11961.85
860.57	11959.13
860.891	11967.95
861.212	11824.9
861.534	11811.79
861.855	11833.04
862.176	11808.86
862.498	11716.66
862.819	11808.63
863.14	11641.63
863.461	11713.04
863.782	11702.87
864.103	11724.11
864.424	11632.59
864.745	11583.55
865.065	11569.54
865.386	11545.36
865.707	11581.74
866.027	11539.26
866.348	11487.28
866.668	11551.91
866.989	11510.33
867.309	11383.1
867.63	11527.06
867.95	11377.68
868.27	11359.83
868.59	11352.15
868.91	11252.03
869.23	11326.16
869.55	11233.96
869.87	11310.11
870.19	11290.23
870.51	11286.16
870.83	11229.21
871.15	11165.26
871.469	11187.63
871.789	11213.39
872.109	11171.81
872.428	11042.55
872.748	11108.54
873.067	11060.63
873.386	11051.81
873.706	11072.83
874.025	10995.54
874.344	11009.78
874.663	10989.67
874.982	10948.77
875.301	11010.23
875.62	10933.62
875.939	10935.43
876.258	10932.5
876.577	10830.35
876.896	10850.24
877.214	10811.82
877.533	10877.36
877.852	10848.2
878.17	10813.63
878.489	10812.95
878.807	10758.71
879.125	10747.64
879.444	10737.92
879.762	10719.39
880.08	10704.03
880.398	10637.81
880.716	10651.6
881.034	10656.12
881.352	10669.23
881.67	10563.92
881.988	10621.99
882.306	10516.91
882.624	10504.26
882.941	10482.34
883.259	10493.41
883.577	10445.73
883.894	10424.03
884.212	10345.62
884.529	10337.48
884.846	10311.49
885.164	10293.19
885.481	10223.81
885.798	10267.88
886.115	10182.01
886.432	10207.32
886.75	10219.07
887.067	10185.4
887.383	10138.39
887.7	10094.32
888.017	10057.72
888.334	10128.45
888.651	10081.67
888.967	10057.49
889.284	9989.92
889.6	9974.1
889.917	9867.89
890.233	9927.55
890.55	9938.62
890.866	9837.61
891.182	9802.36
891.498	9849.13
891.815	9782.92
892.131	9677.16
892.447	9730.72
892.763	9723.04
893.079	9701.11
893.395	9655.24
893.71	9574.11
894.026	9653.88
894.342	9540.44
894.657	9459.31
894.973	9451.86
895.289	9501.8
895.604	9457.96
895.92	9413.89
896.235	9399.88
896.55	9363.95
896.865	9273.78
897.181	9241.47
897.496	9309.49
897.811	9287.11
898.126	9187.68
898.441	9177.29
898.756	9070.62
899.071	9061.13
899.386	9052.09
899.7	9007.12
900.015	9005.09
900.33	8928.71
900.644	8903.17
900.959	8954.69
901.273	8888.03
901.588	8825.21
901.902	8781.37
902.216	8762.16
902.531	8752.89
902.845	8695.94
903.159	8647.36
903.473	8691.42
903.787	8625.89
904.101	8538.43
904.415	8541.15
904.729	8507.25
905.042	8457.31
905.356	8443.97
905.67	8444.65
905.984	8440.13
906.297	8394.48
906.611	8307.48
906.924	8305.45
907.237	8292.34
907.551	8257.54
907.864	8250.98
908.177	8207.37
908.491	8133.02
908.804	8145.68
909.117	8062.06
909.43	8021.61
909.743	7914.95
910.056	7976.41
910.368	7912.24
910.681	7906.81
910.994	7911.78
911.307	7839.69
911.619	7771
911.932	7822.52
912.244	7800.6
912.557	7705.91
912.869	7743.2
913.181	7609.19
913.494	7639.47
913.806	7565.58
914.118	7547.95
914.43	7532.36
914.742	7497.56
915.054	7416.43
915.366	7484.9
915.678	7389.76
915.99	7387.73
916.302	7264.79
916.613	7276.55
916.925	7204.23
917.236	7312.03
917.548	7178.7
917.859	7208.53
918.171	7160.39
918.482	7090.79
918.794	7077.23
919.105	7052.82
919.416	6960.4
919.727	6977.34
920.038	6968.31
920.349	6908.87
920.66	6874.52
920.971	6901.87
921.282	6899.38
921.593	6815.99
921.903	6785.03
922.214	6740.74
922.525	6722.89
922.835	6696.22
923.146	6660.74
923.456	6660.52
923.767	6634.53
924.077	6564.25
924.387	6600.41
924.697	6543.01
925.008	6506.4
925.318	6461.2
925.628	6472.05
925.938	6424.36
926.248	6344.14
926.558	6315.89
926.867	6342.11
927.177	6315.44
927.487	6265.95
927.796	6261.21
928.106	6182.11
928.416	6194.54
928.725	6184.6
929.034	6193.86
929.344	6125.62
929.653	6176.46
929.962	6039.29
930.271	6057.82
930.581	6017.82
930.89	6008.33
931.199	5959.29
931.508	5959.07
931.817	5936.24
932.125	5975.56
932.434	5881.55
932.743	5880.88
933.051	5847.66
933.36	5799.97
933.669	5755.91
933.977	5700.54
934.286	5761.56
934.594	5724.27
934.902	5702.58
935.21	5620.77
935.519	5657.61
935.827	5639.75
936.135	5605.63
936.443	5542.13
936.751	5505.52
937.059	5523.6
937.367	5508.68
937.674	5457.38
937.982	5499.64
938.29	5482.02
938.597	5428.01
938.905	5394.34
939.213	5315.02
939.52	5296.03
939.827	5339.65
940.135	5256.26
940.442	5236.83
940.749	5188.01
941.056	5263.72
941.363	5182.36
941.67	5174.91
941.977	5116.15
942.284	5100.78
942.591	5098.75
942.898	5066.43
943.205	5084.97
943.511	5080.67
943.818	5048.81
944.125	4999.77
944.431	4976.49
944.738	4956.83
945.044	4928.81
945.35	4872.77
945.657	4887.23
945.963	4887
946.269	4799.55
946.575	4840.23
946.881	4834.8
947.187	4767.01
947.493	4738.76
947.799	4783.05
948.105	4724.3
948.41	4688.37
948.716	4687.24
949.022	4661.47
949.327	4633
949.633	4600.68
949.938	4614.24
950.244	4595.26
950.549	4560.46
950.854	4538.09
951.16	4516.39
951.465	4491.99
951.77	4478.2
952.075	4449.05
952.38	4418.54
952.685	4442.72
952.99	4382.84
953.294	4397.3
953.599	4401.14
953.904	4331.76
954.209	4357.3
954.513	4336.06
954.818	4266.46
955.122	4264.65
955.426	4241.37
955.731	4230.52
956.035	4218.1
956.339	4199.56
956.643	4200.47
956.948	4155.27
957.252	4109.4
957.556	4086.57
957.86	4102.39
958.163	4081.15
958.467	4076.63
958.771	4039.34
959.075	4037.31
959.378	4017.87
959.682	4013.81
959.985	3958.89
960.289	4007.25
960.592	3951.66
960.896	3957.76
961.199	3936.29
961.502	3868.73
961.805	3903.3
962.108	3884.54
962.411	3894.94
962.714	3810.2
963.017	3816.75
963.32	3803.64
963.623	3772.23
963.926	3787.37
964.228	3752.34
964.531	3751.44
964.833	3730.88
965.136	3729.75
965.438	3686.58
965.741	3631.67
966.043	3676.41
966.345	3639.58
966.648	3647.71
966.95	3604.78
967.252	3583.54
967.554	3570.43
967.856	3563.88
968.158	3528.85
968.46	3537.44
968.761	3525.23
969.063	3495.63
969.365	3506.02
969.666	3477.55
969.968	3446.36
970.269	3432.81
970.571	3405.69
970.872	3394.16
971.174	3379.93
971.475	3393.94
971.776	3339.7
972.077	3322.3
972.378	3362.52
972.679	3295.86
972.98	3288.18
973.281	3273.49
973.582	3279.36
973.883	3252.02
974.183	3246.14
974.484	3234.62
974.785	3251.57
975.085	3211.79
975.386	3242.75
975.686	3174.51
975.986	3174.05
976.287	3167.28
976.587	3136.32
976.887	3110.55
977.187	3093.83
977.487	3112.59
977.787	3117.33
978.087	3053.15
978.387	3085.92
978.687	2996.88
978.987	3055.19
979.286	3047.28
979.586	2964.34
979.885	2964.12
980.185	2964.79
980.484	2960.95
980.784	2928.19
981.083	2961.86
981.382	2919.37
981.682	2918.92
981.981	2863.33
982.28	2843.67
982.579	2876.21
982.878	2843.89
983.177	2853.61
983.475	2825.59
983.774	2807.06
984.073	2779.04
984.372	2826.72
984.67	2785.59
984.969	2770.68
985.267	2762.31
985.566	2729.77
985.864	2723.45
986.162	2746.72
986.461	2706.72
986.759	2692.71
987.057	2653.84
987.355	2635.31
987.653	2661.07
987.951	2623.79
988.249	2610
988.547	2615.2
988.844	2635.31
989.142	2603.22
989.44	2582.66
989.737	2619.72
990.035	2559.61
990.332	2582.88
990.63	2579.04
990.927	2501.98
991.224	2512.38
991.521	2500.17
991.819	2533.17
992.116	2473.06
992.413	2487.07
992.71	2472.15
993.006	2451.14
993.303	2424.47
993.6	2443.68
993.897	2428.99
994.193	2450.23
994.49	2423.34
994.787	2372.49
995.083	2346.05
995.379	2338.37
995.676	2332.72
995.972	2336.34
996.268	2306.73
996.565	2282.33
996.861	2307.19
997.157	2275.32
997.453	2284.13
997.749	2273.51
998.044	2265.15
998.34	2261.76
998.636	2238.71
998.932	2204.81
999.227	2198.04
999.523	2188.32
999.818	2187.41
1000.114	2164.14
1000.409	2148.77
1000.704	2128.88
1001	2174.08
1001.295	2126.62
1001.59	2134.53
1001.885	2115.33
1002.18	2104.48
1002.475	2063.12
1002.77	2083.69
1003.065	2052.73
1003.359	2034.2
1003.654	2038.72
1003.949	2023.12
1004.243	2025.61
1004.538	1980.41
1004.832	1969.57
1005.127	1990.13
1005.421	1996.68
1005.715	1945.39
1006.009	1921.66
1006.304	1948.32
1006.598	1914.2
1006.892	1935.22
1007.186	1881.43
1007.48	1931.83
1007.773	1873.52
1008.067	1904.94
1008.361	1872.62
1008.655	1880.3
1008.948	1854.09
1009.242	1850.02
1009.535	1828.55
1009.829	1792.17
1010.122	1815.9
1010.415	1815.9
1010.708	1788.55
1011.001	1763.7
1011.295	1766.63
1011.588	1747.65
1011.881	1726.64
1012.173	1722.34
1012.466	1696.58
1012.759	1723.47
1013.052	1707.2
1013.344	1698.61
1013.637	1695
1013.93	1624.49
1014.222	1662.23
1014.514	1639.86
1014.807	1657.03
1015.099	1630.82
1015.391	1622.01
1015.683	1637.6
1015.976	1600.31
1016.268	1615.45
1016.56	1597.6
1016.851	1569.35
1017.143	1575.23
1017.435	1572.74
1017.727	1531.39
1018.018	1546.98
1018.31	1527.32
1018.602	1545.4
1018.893	1512.86
1019.185	1505.17
1019.476	1498.62
1019.767	1508.11
1020.058	1488.9
1020.35	1437.38
1020.641	1447.55
1020.932	1444.61
1021.223	1426.98
1021.514	1438.51
1021.804	1418.17
1022.095	1400.77
1022.386	1424.5
1022.677	1382.92
1022.967	1400.54
1023.258	1363.93
1023.548	1344.27
1023.839	1329.36
1024.129	1339.3
1024.419	1358.51
1024.709	1335.01
1025	1328.45
1025.29	1298.85
1025.58	1295.01
1025.87	1301.56
1026.16	1277.16
1026.449	1281.9
1026.739	1280.32
1027.029	1251.62
1027.319	1237.61
1027.608	1252.07
1027.898	1258.85
1028.187	1245.07
1028.477	1209.59
1028.766	1215.46
1029.055	1190.6
1029.344	1181.79
1029.634	1186.08
1029.923	1175.46
1030.212	1180.89
1030.501	1159.64
1030.79	1165.97
1031.078	1151.96
1031.367	1129.14
1031.656	1128.69
1031.945	1125.75
1032.233	1138.85
1032.522	1130.04
1032.81	1071.29
1033.099	1097.5
1033.387	1075.13
1033.675	1100.66
1033.963	1100.89
1034.251	1072.19
1034.54	1057.05
1034.828	1074
1035.116	1038.74
1035.403	1050.72
1035.691	1038.52
1035.979	1041.46
1036.267	1031.74
1036.554	1022.02
1036.842	1012.3
1037.129	998.07
1037.417	996.26
1037.704	1010.95
1037.992	976.6
1038.279	971.85
1038.566	963.94
1038.853	963.94
1039.14	963.94
