Data from hue_210_FLMS001491_00069.txt Node
Date: Tue Feb 07 16:41:33 GMT 2017
User: dcchb
Spectrometer: FLMS00149
Trigger mode: 0
Integration Time (sec): 2.000000E-2
Scans to average: 10
Electric dark correction enabled: true
Nonlinearity correction enabled: false
Boxcar width: 0
XAxis mode: Wavelengths
Number of Pixels in Spectrum: 2048
>>>>>Begin Spectral Data<<<<<
341.393	-31.33
341.776	-31.33
342.16	-31.33
342.543	-77.88
342.927	-79.91
343.31	-73.59
343.693	-64.77
344.077	-59.57
344.46	-51.21
344.843	-44.66
345.226	-41.95
345.61	-27.94
345.993	-17.09
346.376	-5.34
346.759	3.93
347.142	19.97
347.525	48.67
347.908	74.89
348.291	54.77
348.674	80.08
349.057	103.81
349.44	111.27
349.823	155.33
350.206	176.58
350.588	187.88
350.971	219.74
351.354	211.38
351.737	241.89
352.119	269.46
352.502	226.52
352.884	257.93
353.267	246.63
353.65	292.51
354.032	290.92
354.414	299.29
354.797	327.31
355.179	321.21
355.562	320.98
355.944	313.52
356.326	302.45
356.709	313.75
357.091	348.78
357.473	325.05
357.855	333.18
358.238	325.73
358.62	350.81
359.002	353.75
359.384	343.8
359.766	333.18
360.148	340.64
360.53	342.67
360.912	337.48
361.294	335.67
361.676	332.51
362.057	322.79
362.439	333.18
362.821	312.62
363.203	321.88
363.584	339.51
363.966	308.78
364.348	328.44
364.729	331.6
365.111	307.42
365.493	311.04
365.874	288.44
366.256	299.74
366.637	325.05
367.019	306.97
367.4	321.66
367.781	311.94
368.163	306.07
368.544	295.22
368.925	314.88
369.306	326.18
369.688	311.49
370.069	313.07
370.45	323.01
370.831	327.53
371.212	310.13
371.593	312.84
371.974	291.15
372.355	312.17
372.736	323.47
373.117	295.9
373.498	309.68
373.879	304.48
374.26	298.16
374.641	302
375.021	300.64
375.402	297.93
375.783	337.03
376.163	307.42
376.544	308.33
376.925	326.63
377.305	322.56
377.686	336.12
378.066	320.53
378.447	316.46
378.827	325.5
379.208	315.33
379.588	343.8
379.968	332.51
380.349	320.75
380.729	304.03
381.109	332.96
381.489	342
381.87	345.61
382.25	301.55
382.63	347.19
383.01	320.08
383.39	332.05
383.77	344.71
384.15	337.03
384.53	339.51
384.91	331.83
385.29	349.45
385.67	355.1
386.049	349.23
386.429	359.17
386.809	342.45
387.189	310.81
387.568	343.8
387.948	332.51
388.328	345.61
388.707	364.37
389.087	355.78
389.466	368.44
389.846	377.93
390.225	374.31
390.605	345.61
390.984	369.57
391.363	374.09
391.743	374.54
392.122	370.92
392.501	369.57
392.881	373.18
393.26	371.83
393.639	372.28
394.018	367.76
394.397	391.26
394.776	367.31
395.155	367.08
395.534	383.8
395.913	383.35
396.292	391.94
396.671	381.54
397.05	406.18
397.429	401.2
397.808	391.26
398.186	394.65
398.565	400.53
398.944	413.41
399.323	415.67
399.701	399.4
400.08	417.7
400.458	394.2
400.837	402.79
401.215	419.06
401.594	412.28
401.972	420.86
402.351	415.44
402.729	426.74
403.107	425.38
403.486	425.61
403.864	450.47
404.242	447.76
404.62	424.03
404.999	462.45
405.377	451.37
405.755	447.76
406.133	486.17
406.511	473.97
406.889	456.8
407.267	460.19
407.645	463.58
408.023	465.38
408.401	500.18
408.779	489.79
409.156	475.78
409.534	499.51
409.912	508.09
410.29	522.1
410.667	544.7
411.045	541.09
411.422	558.26
411.8	557.13
412.178	565.27
412.555	578.83
412.933	593.74
413.31	600.52
413.687	599.39
414.065	621.76
414.442	613.63
414.819	598.94
415.197	638.71
415.574	640.75
415.951	646.85
416.328	664.93
416.705	675.1
417.082	671.71
417.46	680.74
417.837	681.87
418.214	694.08
418.591	717.13
418.967	736.79
419.344	707.41
419.721	730.91
420.098	734.3
420.475	763.23
420.852	777.69
421.228	763.91
421.605	813.62
421.982	790.35
422.358	830.35
422.735	830.35
423.111	845.71
423.488	839.16
423.864	862.89
424.241	878.71
424.617	881.87
424.994	912.6
425.37	898.59
425.746	922.09
426.123	927.97
426.499	921.87
426.875	975.2
427.251	978.36
427.627	1006.39
428.003	1033.96
428.379	1011.81
428.756	1035.76
429.132	1032.15
429.507	1053.84
429.883	1092.26
430.259	1076.21
430.635	1096.1
431.011	1099.26
431.387	1153.27
431.763	1148.76
432.138	1165.7
432.514	1191.01
432.89	1189.88
433.265	1223.56
433.641	1228.53
434.016	1272.37
434.392	1293.16
434.767	1311.01
435.143	1310.56
435.518	1311.91
435.894	1379.03
436.269	1386.71
436.644	1407.51
437.02	1426.94
437.395	1456.32
437.77	1466.26
438.145	1484.34
438.52	1515.75
438.895	1546.94
439.271	1565.47
439.646	1596.2
440.021	1619.25
440.395	1661.96
440.77	1637.78
441.145	1671.91
441.52	1700.83
441.895	1689.53
442.27	1746.25
442.645	1811.11
443.019	1790.09
443.394	1772.92
443.769	1795.52
444.143	1788.74
444.518	1843.43
444.892	1835.29
445.267	1876.65
445.641	1888.4
446.016	1882.52
446.39	1950.77
446.764	1932.01
447.139	1937.89
447.513	1954.61
447.887	1956.19
448.262	1992.8
448.636	1988.51
449.01	2018.56
449.384	2032.35
449.758	2038.9
450.132	2087.94
450.506	2075.28
450.88	2114.83
451.254	2111.89
451.628	2131.1
452.002	2181.5
452.376	2205.68
452.75	2244.09
453.123	2218.78
453.497	2264.66
453.871	2260.14
454.244	2297.65
454.618	2301.49
454.992	2349.18
455.365	2351.44
455.739	2437.76
456.112	2416.07
456.486	2453.13
456.859	2490.41
457.232	2514.82
457.606	2506.01
457.979	2558.44
458.352	2609.51
458.725	2635.95
459.099	2630.98
459.472	2686.57
459.845	2689.96
460.218	2713.91
460.591	2740.58
460.964	2771.99
461.337	2846.34
461.71	2837.3
462.083	2866.68
462.456	2888.82
462.829	2902.83
463.201	2941.02
463.574	2968.14
463.947	3042.49
464.32	3077.07
464.692	3142.15
465.065	3125.2
465.438	3154.58
465.81	3197.29
466.183	3206.55
466.555	3293.33
466.928	3303.73
467.3	3315.03
467.672	3413.1
468.045	3406.32
468.417	3450.16
468.789	3465.53
469.161	3498.52
469.534	3596.83
469.906	3640.67
470.278	3624.17
470.65	3725.18
471.022	3774.9
471.394	3847.44
471.766	3839.31
472.138	3906.87
472.51	3963.37
472.882	4027.1
473.253	4070.94
473.625	4135.8
473.997	4185.29
474.369	4173.53
474.74	4230.48
475.112	4304.83
475.484	4350.7
475.855	4428.89
476.227	4431.61
476.598	4628.21
476.97	4653.07
477.341	4705.5
477.713	4773.97
478.084	4822.78
478.455	4938.71
478.827	4951.37
479.198	5116.79
479.569	5099.16
479.94	5224.13
480.311	5246.95
480.682	5388.64
481.053	5495.76
481.424	5563.33
481.795	5567.17
482.166	5661.4
482.537	5678.58
482.908	5843.32
483.279	5824.34
483.65	6011.68
484.021	6040.6
484.391	6121.28
484.762	6166.25
485.133	6202.41
485.503	6293.25
485.874	6432.23
486.244	6496.41
486.615	6545
486.985	6647.82
487.356	6706.12
487.726	6770.98
488.097	6882.84
488.467	6861.83
488.837	7020.24
489.207	7091.88
489.578	7125.32
489.948	7223.85
490.318	7360.12
490.688	7334.13
491.058	7420.45
491.428	7502.94
491.798	7551.52
492.168	7741.12
492.538	7669.94
492.908	7813.21
493.278	7855.7
493.648	7907.45
494.017	7986.54
494.387	8034.9
494.757	8070.83
495.126	8123.71
495.496	8133.2
495.866	8150.38
496.235	8252.07
496.605	8326.87
496.974	8441.67
497.344	8400.09
497.713	8396.7
498.082	8480.54
498.452	8537.49
498.821	8612.74
499.19	8570.25
499.559	8647.99
499.928	8678.73
500.298	8734.09
500.667	8773.41
501.036	8755.11
501.405	8805.05
501.774	8864.71
502.143	8929.34
502.512	8965.05
502.88	8958.27
503.249	9014.76
503.618	9027.42
503.987	9003.24
504.356	9105.38
504.724	9044.14
505.093	9066.29
505.462	9110.58
505.83	9171.6
506.199	9256.79
506.567	9256.79
506.936	9313.29
507.304	9360.97
507.672	9396.67
508.041	9333.62
508.409	9415.66
508.777	9526.39
509.145	9480.51
509.514	9489.55
509.882	9465.15
510.25	9555.31
510.618	9563.22
510.986	9575.88
511.354	9636.89
511.722	9692.03
512.09	9683.67
512.458	9660.17
512.826	9709.21
513.193	9773.61
513.561	9750.11
513.929	9752.14
514.297	9779.04
514.664	9753.73
515.032	9907.85
515.4	9934.96
515.767	9887.96
516.135	9911.24
516.502	9778.81
516.869	9911.69
517.237	9927.51
517.604	9947.62
517.972	9951.69
518.339	9972.48
518.706	10017
519.073	10000.73
519.44	10054.74
519.808	10022.42
520.175	9980.16
520.542	10087.73
520.909	10073.94
521.276	10048.18
521.643	9995.75
522.009	10160.72
522.376	10163.43
522.743	10121.85
523.11	10171.79
523.477	10219.48
523.843	10277.33
524.21	10286.14
524.577	10329.53
524.943	10300.15
525.31	10271
525.676	10306.48
526.043	10328.17
526.409	10334.95
526.776	10427.16
527.142	10322.75
527.508	10402.98
527.874	10341.51
528.241	10367.04
528.607	10405.69
528.973	10488.85
529.339	10390.55
529.705	10463.76
530.071	10486.14
530.437	10432.35
530.803	10466.25
531.169	10460.6
531.535	10460.83
531.901	10385.35
532.267	10364.56
532.632	10399.13
532.998	10349.87
533.364	10392.35
533.73	10390.32
534.095	10385.35
534.461	10380.15
534.826	10423.77
535.192	10284.11
535.557	10323.66
535.923	10227.39
536.288	10311.23
536.653	10263.77
537.019	10189.65
537.384	10163.89
537.749	10157.33
538.114	10221.74
538.479	10151.91
538.845	10122.98
539.21	10047.05
539.575	10120.5
539.94	10083.89
540.305	10085.47
540.67	10076.43
541.034	10030.33
541.399	9972.93
541.764	10030.33
542.129	9904.23
542.494	9903.55
542.858	9884.12
543.223	9872.82
543.587	9877.79
543.952	9768.19
544.316	9830.79
544.681	9700.85
545.045	9674.18
545.41	9764.35
545.774	9735.2
546.138	9646.38
546.503	9627.18
546.867	9621.98
547.231	9572.49
547.595	9602.77
547.959	9622.2
548.324	9538.82
548.688	9530
549.052	9454.53
549.416	9471.93
549.779	9394.19
550.143	9408.2
550.507	9383.57
550.871	9417.01
551.235	9353.29
551.599	9420.85
551.962	9370.46
552.326	9321.87
552.689	9284.13
553.053	9216.57
553.417	9278.03
553.78	9203.91
554.143	9245.27
554.507	9235.77
554.87	9138.6
555.234	9226.28
555.597	9095.89
555.96	9099.73
556.323	9120.07
556.686	9120.3
557.05	9158.26
557.413	9131.6
557.776	9045.95
558.139	9067.64
558.502	9014.31
558.865	9082.56
559.228	9029.23
559.59	9037.36
559.953	9064.25
560.316	9063.58
560.679	9007.98
561.041	9086.63
561.404	9112.16
561.767	9108.32
562.129	9022.45
562.492	9065.38
562.854	9022.45
563.217	9086.4
563.579	9122.78
563.941	9110.35
564.304	9072.84
564.666	9105.38
565.028	9101.54
565.39	9125.49
565.753	9092.95
566.115	9120.52
566.477	9178.37
566.839	9189.9
567.201	9176.79
567.563	9107.19
567.925	9210.01
568.287	9204.36
568.648	9198.03
569.01	9180.63
569.372	9219.5
569.734	9188.09
570.095	9212.5
570.457	9324.81
570.819	9199.39
571.18	9266.06
571.542	9294.3
571.903	9239.39
572.265	9319.61
572.626	9309.9
572.987	9326.62
573.349	9381.31
573.71	9342.44
574.071	9354.87
574.432	9353.96
574.794	9407.97
575.155	9382.66
575.516	9412.04
575.877	9443.23
576.238	9441.19
576.599	9447.97
576.96	9517.12
577.32	9455.88
577.681	9493.62
578.042	9486.16
578.403	9499.95
578.763	9465.15
579.124	9542.66
579.485	9576.56
579.845	9552.15
580.206	9544.92
580.566	9576.1
580.927	9514.41
581.287	9611.81
581.648	9632.37
582.008	9619.04
582.368	9609.55
582.728	9583.56
583.089	9581.53
583.449	9595.09
583.809	9617.46
584.169	9666.5
584.529	9687.74
584.889	9699.49
585.249	9631.24
585.609	9570.91
585.969	9730.68
586.329	9652.49
586.688	9699.26
587.048	9689.32
587.408	9675.08
587.768	9638.02
588.127	9646.38
588.487	9736.33
588.846	9785.82
589.206	9635.54
589.565	9635.31
589.925	9824.69
590.284	9676.21
590.643	9687.97
591.003	9673.05
591.362	9727.29
591.721	9756.21
592.08	9704.69
592.44	9805.48
592.799	9750.11
593.158	9778.81
593.517	9790.79
593.876	9786.04
594.235	9790.56
594.593	9773.84
594.952	9784.91
595.311	9718.7
595.67	9828.3
596.029	9857
596.387	9832.37
596.746	9822.2
597.104	9786.04
597.463	9751.92
597.822	9768.42
598.18	9744.46
598.538	9671.92
598.897	9772.26
599.255	9781.52
599.613	9880.5
599.972	9749.88
600.33	9833.95
600.688	9727.96
601.046	9832.14
601.404	9828.75
601.762	9826.04
602.12	9856.55
602.478	9839.6
602.836	9811.58
603.194	9814.97
603.552	9811.58
603.91	9809.77
604.268	9808.41
604.625	9785.36
604.983	9778.81
605.341	9786.04
605.698	9790.11
606.056	9852.03
606.413	9851.58
606.771	9849.54
607.128	9893.61
607.485	9779.94
607.843	9779.04
608.2	9888.19
608.557	9984.23
608.914	9876.44
609.272	9884.34
609.629	9946.04
609.986	9982.65
610.343	9882.31
610.7	10000.27
611.057	10027.84
611.414	9947.39
611.771	10009.77
612.127	10069.65
612.484	9995.75
612.841	9934.51
613.198	9972.93
613.554	9991.46
613.911	10031.01
614.267	10008.86
614.624	9987.39
614.98	10024.68
615.337	10084.11
615.693	9998.92
616.05	9989.43
616.406	10064.45
616.762	10041.18
617.118	10027.62
617.475	10087.28
617.831	10149.42
618.187	10066.49
618.543	10112.36
618.899	10184.22
619.255	10152.13
619.611	10152.59
619.967	10125.24
620.323	10170.66
620.678	10157.78
621.034	10135.41
621.39	10083.66
621.746	10076.88
622.101	10125.24
622.457	10147.61
622.812	10183.77
623.168	10124.79
623.523	10168.18
623.879	10157.56
624.234	10113.04
624.589	10127.5
624.945	10156.43
625.3	10187.61
625.655	10138.35
626.01	10146.26
626.365	10164.56
626.72	10129.54
627.075	10140.61
627.43	10137.22
627.785	10113.49
628.14	10126.82
628.495	10180.38
628.85	10158.24
629.205	10086.37
629.559	10129.54
629.914	10035.75
630.269	10091.8
630.623	9990.56
630.978	9971.35
631.332	10019.03
631.687	10024.68
632.041	10021.52
632.396	10051.8
632.75	10057.45
633.104	10012.93
633.459	9986.71
633.813	9996.88
634.167	9981.29
634.521	9918.69
634.875	9949.88
635.229	9915.08
635.583	9877.57
635.937	9901.52
636.291	9902.42
636.645	9882.76
636.999	9913.27
637.352	9922.76
637.706	9748.98
638.06	9919.37
638.413	9800.73
638.767	9800.28
639.121	9854.29
639.474	9788.53
639.828	9776.1
640.181	9766.38
640.534	9753.73
640.888	9707.4
641.241	9673.95
641.594	9720.06
641.947	9714.63
642.301	9677.34
642.654	9767.96
643.007	9678.7
643.36	9709.21
643.713	9634.63
644.066	9719.6
644.419	9619.49
644.771	9537.46
645.124	9523.45
645.477	9530.23
645.83	9449.55
646.182	9326.85
646.535	9358.71
646.888	9443
647.24	9336.34
647.593	9356
647.945	9353.29
648.298	9312.83
648.65	9294.76
649.002	9322.1
649.355	9323
649.707	9332.27
650.059	9350.12
650.411	9487.74
650.763	9470.34
651.115	9533.62
651.467	9588.53
651.819	9501.08
652.171	9584.69
652.523	9494.52
652.875	9538.82
653.227	9556.22
653.578	9539.04
653.93	9552.38
654.282	9549.44
654.633	9525.48
654.985	9554.18
655.337	9552.38
655.688	9530
656.039	9595.31
656.391	9489.78
656.742	9552.38
657.094	9435.99
657.445	9585.82
657.796	9558.7
658.147	9508.76
658.498	9538.59
658.849	9529.78
659.2	9581.75
659.551	9558.7
659.902	9571.36
660.253	9539.72
660.604	9633.5
660.955	9507.63
661.306	9542.21
661.656	9504.02
662.007	9551.92
662.358	9588.08
662.708	9588.08
663.059	9556.22
663.409	9542.43
663.76	9600.74
664.11	9547.18
664.461	9572.94
664.811	9587.86
665.161	9603.67
665.511	9588.53
665.862	9593.05
666.212	9572.49
666.562	9591.24
666.912	9556.67
667.262	9538.59
667.612	9585.37
667.962	9625.59
668.312	9559.83
668.662	9619.27
669.011	9591.92
669.361	9539.04
669.711	9509.44
670.06	9574.3
670.41	9554.64
670.76	9520.51
671.109	9563.22
671.459	9608.87
671.808	9504.02
672.157	9553.96
672.507	9497.01
672.856	9483.23
673.205	9542.21
673.554	9539.04
673.904	9468.76
674.253	9523
674.602	9508.76
674.951	9372.95
675.3	9357.58
675.649	9417.92
675.998	9405.94
676.346	9448.42
676.695	9437.8
677.044	9300.18
677.393	9363.91
677.741	9392.38
678.09	9326.62
678.438	9343.34
678.787	9365.49
679.135	9401.87
679.484	9239.39
679.832	9309.44
680.181	9205.49
680.529	9263.12
680.877	9221.54
681.225	9187.19
681.573	9320.52
681.922	9214.53
682.27	9216.57
682.618	9186.74
682.966	9122.1
683.314	9214.31
683.661	9111.26
684.009	9137.92
684.357	9107.64
684.705	9062.9
685.053	9132.5
685.4	9046.4
685.748	9042.78
686.095	9005.72
686.443	9017.02
686.79	8926.18
687.138	8878.5
687.485	8988.32
687.832	8907.65
688.18	8866.97
688.527	8878.27
688.874	8814.99
689.221	8833.75
689.568	8787.42
689.915	8770.02
690.262	8737.48
690.609	8710.14
690.956	8723.47
691.303	8699.52
691.65	8583.36
691.997	8675.11
692.344	8541.78
692.69	8545.4
693.037	8511.73
693.383	8519.41
693.73	8499.52
694.077	8463.14
694.423	8461.78
694.769	8416.36
695.116	8386.53
695.462	8345.63
695.808	8311.05
696.155	8302.01
696.501	8309.02
696.847	8301.56
697.193	8209.59
697.539	8211.62
697.885	8163.03
698.231	8105.63
698.577	8092.98
698.923	8062.25
699.269	8002.81
699.614	7985.41
699.96	7974.11
700.306	7903.15
700.651	7904.74
700.997	7866.77
701.342	7878.97
701.688	7848.69
702.033	7812.08
702.379	7797.85
702.724	7784.51
703.069	7753.55
703.415	7651.41
703.76	7693.89
704.105	7650.51
704.45	7644.63
704.795	7605.53
705.14	7573.44
705.485	7521.47
705.83	7528.47
706.175	7497.97
706.52	7474.24
706.865	7410.74
707.209	7434.01
707.554	7407.8
707.899	7352.89
708.243	7409.83
708.588	7381.36
708.932	7238.99
709.277	7304.75
709.621	7322.38
709.966	7257.52
710.31	7244.64
710.654	7168.94
710.998	7232.89
711.342	7238.99
711.687	7166.9
712.031	7121.71
712.375	7090.29
712.719	7085.32
713.063	7104.76
713.407	7103.85
713.75	7094.14
714.094	7115.15
714.438	7035.15
714.782	7076.73
715.125	7021.82
715.469	7062.95
715.812	7008.94
716.156	7021.6
716.499	6977.53
716.843	6981.37
717.186	6949.73
717.53	6920.58
717.873	6934.59
718.216	6937.53
718.559	6937.53
718.902	6860.7
719.246	6877.42
719.589	6883.97
719.932	6807.14
720.275	6897.76
720.617	6878.77
720.96	6845.1
721.303	6812.79
721.646	6832.9
721.989	6800.81
722.331	6836.29
722.674	6757.65
723.016	6804.65
723.359	6834.71
723.701	6836.74
724.044	6799.45
724.386	6738.89
724.729	6746.57
725.071	6733.02
725.413	6763.07
725.755	6709.51
726.097	6725.56
726.439	6674.03
726.782	6704.99
727.124	6750.42
727.465	6694.82
727.807	6701.38
728.149	6650.08
728.491	6661.15
728.833	6667.48
729.175	6744.54
729.516	6648.95
729.858	6654.83
730.199	6637.42
730.541	6644.66
730.882	6659.12
731.224	6682.85
731.565	6623.87
731.906	6662.06
732.248	6673.13
732.589	6689.17
732.93	6638.78
733.271	6629.06
733.612	6650.98
733.953	6659.34
734.294	6672.45
734.635	6610.08
734.976	6706.35
735.317	6686.91
735.658	6627.26
735.999	6694.82
736.339	6601.49
736.68	6694.15
737.021	6722.17
737.361	6671.55
737.702	6642.62
738.042	6712.9
738.383	6687.14
738.723	6735.5
739.063	6688.72
739.404	6741.38
739.744	6749.51
740.084	6705.67
740.424	6729.63
740.764	6724.65
741.104	6750.42
741.444	6724.2
741.784	6753.81
742.124	6787.48
742.464	6819.34
742.804	6814.37
743.143	6892.11
743.483	6848.49
743.823	6895.72
744.162	6833.8
744.502	6960.58
744.841	6862.73
745.181	6944.08
745.52	6966.91
745.86	6987.7
746.199	7052.33
746.538	7054.14
746.877	7098.66
747.216	7186.34
747.556	7191.99
747.895	7216.62
748.234	7252.78
748.573	7298.42
748.911	7367.12
749.25	7410.74
749.589	7424.52
749.928	7473.11
750.267	7638.3
750.605	7611.86
750.944	7643.05
751.283	7782.03
751.621	7861.12
751.96	7912.65
752.298	8017.95
752.636	8057.27
752.975	8207.33
753.313	8204.84
753.651	8330.04
753.989	8492.06
754.327	8521.22
754.666	8607.09
755.004	8797.59
755.342	8882.11
755.679	8989.23
756.017	9080.3
756.355	9282.1
756.693	9367.75
757.031	9499.95
757.368	9597.8
757.706	9775.42
758.044	9912.82
758.381	10064
758.719	10204.11
759.056	10388.74
759.394	10560.03
759.731	10625.34
760.068	10803.87
760.405	10939.91
760.743	11054.94
761.08	11292.67
761.417	11383.74
761.754	11663.05
762.091	11739.44
762.428	11853.33
762.765	12082.25
763.102	12244.96
763.438	12372.87
763.775	12539.87
764.112	12826.64
764.449	12928.78
764.785	13095.56
765.122	13213.75
765.458	13414.2
765.795	13584.13
766.131	13751.36
766.467	13705.49
766.804	13929.89
767.14	14112.26
767.476	14252.14
767.812	14427.5
768.148	14558.12
768.485	14686.93
768.821	14782.97
769.157	14880.37
769.492	15017.77
769.828	15107.48
770.164	15217.99
770.5	15331.89
770.836	15464.31
771.171	15588.15
771.507	15689.62
771.842	15741.59
772.178	15925.77
772.513	16038.76
772.849	16048.93
773.184	16128.93
773.519	16344.74
773.855	16306.77
774.19	16397.39
774.525	16434.68
774.86	16562.14
775.195	16627.9
775.53	16637.16
775.865	16717.84
776.2	16728.01
776.535	16791.06
776.87	16894.56
777.205	16824.95
777.539	16915.8
777.874	16998.06
778.209	16888.91
778.543	17004.38
778.878	17078.28
779.212	17109.92
779.547	17150.37
779.881	17213.42
780.215	17192.4
780.55	17257.71
780.884	17210.93
781.218	17299.74
781.552	17342.45
781.886	17282.34
782.22	17191.05
782.554	17196.02
782.888	17156.24
783.222	17255
783.556	17248.67
783.889	17283.02
784.223	17129.13
784.557	17061.56
784.89	17244.38
785.224	17183.81
785.557	17124.83
785.891	17101.56
786.224	17105.4
786.558	17166.19
786.891	17100.65
787.224	17105.62
787.557	17019.52
787.891	17114.44
788.224	17059.3
788.557	17178.62
788.89	17190.82
789.223	17094.32
789.556	17019.52
789.888	17006.19
790.221	16991.28
790.554	16875.8
790.887	16981.11
791.219	16914.22
791.552	16838.29
791.884	16804.61
792.217	16823.82
792.549	16775.69
792.882	16834.9
793.214	16723.71
793.546	16645.75
793.879	16613.66
794.211	16583.15
794.543	16699.98
794.875	16546.32
795.207	16616.82
795.539	16505.64
795.871	16609.37
796.203	16445.75
796.535	16403.5
796.867	16348.13
797.198	16302.25
797.53	16340.45
797.862	16353.1
798.193	16244.4
798.525	16206.89
798.856	16227.91
799.188	16047.8
799.519	16095.48
799.85	15925.77
800.182	16012.32
800.513	16033.79
800.844	15842.15
801.175	15939.33
801.506	15985.65
801.837	15888.93
802.168	15885.32
802.499	15882.38
802.83	15746.56
803.161	15760.8
803.491	15797.86
803.822	15723.06
804.153	15655.27
804.483	15542.5
804.814	15537.08
805.145	15504.31
805.475	15416.18
805.805	15512.22
806.136	15477.19
806.466	15434.71
806.796	15420.02
807.126	15312
807.457	15300.25
807.787	15255.95
808.117	15220.93
808.447	15113.59
808.777	15202.17
809.107	15247.82
809.436	15055.28
809.766	15117.2
810.096	15007.15
810.426	15046.24
810.755	15001.27
811.085	14975.51
811.414	15037.66
811.744	14945.23
812.073	14854.16
812.403	14842.63
812.732	14810.32
813.061	14801.96
813.39	14676.31
813.719	14674.05
814.049	14790.66
814.378	14646.71
814.707	14651.68
815.036	14648.74
815.365	14586.59
815.693	14469.76
816.022	14536.2
816.351	14486.71
816.68	14432.7
817.008	14386.15
817.337	14252.59
817.665	14326.94
817.994	14264.79
818.322	14351.35
818.651	14240.61
818.979	14136.21
819.307	14311.35
819.636	14269.31
819.964	14240.84
820.292	14210.56
820.62	14167.85
820.948	14197.9
821.276	14267.73
821.604	14102.54
821.932	14175.76
822.259	14186.38
822.587	14185.93
822.915	14112.93
823.243	14145.25
823.57	14136.21
823.898	14128.07
824.225	14068.42
824.553	14051.24
824.88	14149.77
825.207	14103.44
825.535	14141.41
825.862	14182.76
826.189	14091.24
826.516	14140.5
826.843	14250.33
827.17	14088.98
827.497	14120.84
827.824	14178.47
828.151	14240.16
828.478	14129.66
828.805	14180.28
829.131	14181.86
829.458	14162.42
829.785	14131.92
830.111	14119.94
830.438	14237
830.764	14223.44
831.09	14264.79
831.417	14153.84
831.743	14136.66
832.069	14125.82
832.395	14050.11
832.722	14113.39
833.048	14028.64
833.374	14092.82
833.7	14094.63
834.026	14071.35
834.351	14149.32
834.677	14042.43
835.003	14077.45
835.329	14010.79
835.654	14009.89
835.98	14049.43
836.306	13902.54
836.631	13953.39
836.956	14026.83
837.282	14015.54
837.607	13893.96
837.932	13839.95
838.258	13913.62
838.583	13884.47
838.908	13729.44
839.233	13855.77
839.558	13841.75
839.883	13703.45
840.208	13696
840.533	13703
840.858	13729.22
841.182	13693.96
841.507	13661.65
841.832	13634.75
842.156	13563.34
842.481	13560.63
842.805	13551.82
843.13	13526.06
843.454	13444.93
843.778	13411.71
844.103	13444.25
844.427	13438.38
844.751	13440.86
845.075	13289.45
845.399	13284.48
845.723	13190.7
846.047	13239.74
846.371	13178.04
846.695	13183.24
847.019	13073.87
847.343	13053.53
847.666	12961.55
847.99	12919.52
848.313	12830.26
848.637	12801.78
848.96	12843.14
849.284	12740.09
849.607	12682.46
849.931	12686.53
850.254	12539.64
850.577	12529.47
850.9	12416.03
851.223	12442.24
851.546	12392.75
851.869	12225.98
852.192	12260.33
852.515	12191.63
852.838	12188.92
853.161	12129.03
853.483	12053.33
853.806	12035.7
854.129	11982.14
854.451	11952.54
854.774	11919.55
855.096	11920.9
855.419	11817.63
855.741	11888.36
856.063	11765.2
856.385	11781.24
856.708	11653.56
857.03	11633.45
857.352	11688.14
857.674	11576.5
857.996	11573.34
858.318	11512.32
858.64	11487.92
858.961	11514.58
859.283	11388.49
859.605	11366.11
859.926	11400.91
860.248	11385.32
860.57	11263.07
860.891	11356.62
861.212	11343.52
861.534	11268.49
861.855	11162.73
862.176	11198.21
862.498	11213.12
862.819	11238.66
863.14	11077.99
863.461	11096.52
863.782	11031.43
864.103	11042.73
864.424	11061.04
864.745	11044.09
865.065	10990.98
865.386	10887.93
865.707	10947.59
866.027	10945.79
866.348	10851.32
866.668	10824.43
866.989	10907.59
867.309	10776.3
867.63	10885.22
867.95	10851.32
868.27	10811.78
868.59	10785.79
868.91	10702.18
869.23	10758.45
869.55	10686.58
869.87	10729.29
870.19	10694.49
870.51	10733.36
870.83	10726.81
871.15	10621.73
871.469	10612.91
871.789	10655.62
872.109	10677.09
872.428	10609.98
872.748	10611.11
873.067	10589.64
873.386	10574.27
873.706	10562.29
874.025	10477.32
874.344	10440.94
874.663	10479.13
874.982	10409.98
875.301	10452.01
875.62	10465.8
875.939	10374.95
876.258	10365.46
876.577	10382.41
876.896	10349.19
877.214	10346.25
877.533	10321.85
877.852	10367.04
878.17	10251.57
878.489	10273.49
878.807	10266.71
879.125	10301.06
879.444	10163.66
879.762	10263.09
880.08	10169.53
880.398	10228.52
880.716	10189.2
881.034	10163.21
881.352	10089.31
881.67	10062.65
881.988	10137.22
882.306	10047.5
882.624	9993.27
882.941	9993.27
883.259	9944.91
883.577	9962.53
883.894	9880.05
884.212	9942.65
884.529	9893.16
884.846	9861.29
885.164	9766.83
885.481	9780.62
885.798	9833.05
886.115	9691.81
886.432	9769.32
886.75	9717.34
887.067	9692.03
887.383	9697.68
887.7	9701.75
888.017	9560.96
888.334	9630.57
888.651	9546.5
888.967	9544.01
889.284	9518.25
889.6	9520.06
889.917	9414.3
890.233	9490
890.55	9384.7
890.866	9468.08
891.182	9366.62
891.498	9360.52
891.815	9257.47
892.131	9278.94
892.447	9260.41
892.763	9178.83
893.079	9155.55
893.395	9153.29
893.71	9177.7
894.026	9147.19
894.342	9158.04
894.657	9041.43
894.973	9013.63
895.289	8963.69
895.604	8972.73
895.92	8901.32
896.235	8873.3
896.55	8911.71
896.865	8922.79
897.181	8863.81
897.496	8804.15
897.811	8808.89
898.126	8668.33
898.441	8748.56
898.756	8641.21
899.071	8583.36
899.386	8555.57
899.7	8497.49
900.015	8501.1
900.33	8432.41
900.644	8413.2
900.959	8458.85
901.273	8443.93
901.588	8408.23
901.902	8329.58
902.216	8336.14
902.531	8267.89
902.845	8263.6
903.159	8232.64
903.473	8185.18
903.787	8085.07
904.101	8098.4
904.415	8123.71
904.729	8036.03
905.042	8037.61
905.356	7955.58
905.67	7952.42
905.984	7984.51
906.297	7949.71
906.611	7861.12
906.924	7838.07
907.237	7850.5
907.551	7758.3
907.864	7686.89
908.177	7744.74
908.491	7697.06
908.804	7635.59
909.117	7625.42
909.43	7558.08
909.743	7532.54
910.056	7553.78
910.368	7499.55
910.681	7509.49
910.994	7390.17
911.307	7418.19
911.619	7361.47
911.932	7313.11
912.244	7318.31
912.557	7308.37
912.869	7255.26
913.181	7249.16
913.494	7253.68
913.806	7162.83
914.118	7141.37
914.43	7092.1
914.742	7095.72
915.054	7079.67
915.366	6998.09
915.678	6966.91
915.99	6985.21
916.302	6892.78
916.613	6848.72
916.925	6889.62
917.236	6877.42
917.548	6859.11
917.859	6860.92
918.171	6819.34
918.482	6784.31
918.794	6706.58
919.105	6713.58
919.416	6646.01
919.727	6699.12
920.038	6645.79
920.349	6578.44
920.66	6590.42
920.971	6549.74
921.282	6534.38
921.593	6488.28
921.903	6481.5
922.214	6469.52
922.525	6418.45
922.835	6393.59
923.146	6311.33
923.456	6368.05
923.767	6281.28
924.077	6292.8
924.387	6281.05
924.697	6208.96
925.008	6213.93
925.318	6142.07
925.628	6185.91
925.938	6135.52
926.248	6115.63
926.558	6065.24
926.867	6048.74
927.177	6062.98
927.487	6043.54
927.796	5931
928.106	5986.14
928.416	5924.45
928.725	5920.38
929.034	5844.68
929.344	5904.79
929.653	5870.44
929.962	5745.47
930.271	5727.17
930.581	5730.78
930.89	5717
931.199	5700.05
931.508	5648.75
931.817	5661.18
932.125	5666.6
932.434	5648.75
932.743	5605.14
933.051	5561.29
933.36	5535.76
933.669	5514.52
933.977	5462.77
934.286	5475.2
934.594	5469.55
934.902	5453.95
935.21	5414.41
935.519	5411.24
935.827	5398.36
936.135	5358.36
936.443	5281.53
936.751	5324.01
937.059	5286.73
937.367	5269.1
937.674	5241.53
937.982	5181.42
938.29	5233.17
938.597	5209.21
938.905	5135.77
939.213	5152.49
939.52	5095.09
939.827	5113.62
940.135	5052.16
940.442	5053.29
940.749	5038.6
941.056	5025.49
941.363	5021.2
941.67	4964.25
941.977	4929.45
942.284	4878.6
942.591	4904.36
942.898	4882.67
943.205	4876.79
943.511	4860.3
943.818	4801.09
944.125	4839.51
944.431	4782.11
944.738	4760.64
945.044	4755.89
945.35	4741.43
945.657	4691.94
945.963	4694.88
946.269	4651.49
946.575	4619.17
946.881	4602.9
947.187	4599.96
947.493	4564.48
947.799	4569.91
948.105	4538.72
948.41	4491.04
948.716	4496.92
949.022	4520.42
949.327	4445.39
949.633	4416.01
949.938	4452.85
950.244	4418.27
950.549	4420.53
950.854	4378.5
951.16	4347.99
951.465	4317.49
951.77	4309.58
952.075	4260.76
952.38	4288.79
952.685	4273.42
952.99	4220.54
953.294	4226.41
953.599	4218.05
953.904	4175.79
954.209	4190.26
954.513	4155.46
954.818	4123.14
955.122	4176.02
955.426	4103.71
955.731	4050.37
956.035	4073.2
956.339	4036.59
956.643	4033.65
956.948	4028.45
957.252	3997.72
957.556	3962.24
957.86	3894.45
958.163	3940.32
958.467	3900.32
958.771	3924.95
959.075	3894.45
959.378	3853.99
959.682	3867.55
959.985	3841.34
960.289	3833.43
960.592	3812.87
960.896	3783.49
961.199	3804.5
961.502	3780.55
961.805	3724.51
962.108	3719.53
962.411	3712.53
962.714	3663.04
963.017	3680.67
963.32	3657.39
963.623	3658.29
963.926	3619.42
964.228	3633.44
964.531	3611.52
964.833	3564.28
965.136	3554.34
965.438	3532.42
965.741	3522.48
966.043	3515.7
966.345	3505.08
966.648	3486.32
966.95	3490.84
967.252	3443.61
967.554	3489.71
967.856	3480.22
968.158	3405.87
968.46	3429.83
968.761	3411.52
969.063	3399.09
969.365	3348.7
969.666	3372.65
969.968	3320.68
970.269	3289.72
970.571	3315.03
970.872	3314.8
971.174	3225.99
971.475	3250.17
971.776	3293.11
972.077	3249.72
972.378	3247.23
972.679	3168.14
972.98	3184.41
973.281	3204.52
973.582	3187.8
973.883	3126.33
974.183	3150.51
974.484	3132.43
974.785	3099.44
975.085	3117.06
975.386	3102.38
975.686	3114.58
975.986	3063.73
976.287	3111.42
976.587	3016.28
976.887	3007.69
977.187	3004.07
977.487	2965.88
977.787	2986.22
978.087	2954.36
978.387	2945.54
978.687	2930.4
978.987	2941.7
979.286	2920.91
979.586	2879.33
979.885	2858.99
980.185	2836.85
980.484	2844.53
980.784	2841.37
981.083	2822.84
981.382	2815.6
981.682	2826.23
981.981	2793.46
982.28	2751.88
982.579	2732.22
982.878	2777.41
983.177	2726.11
983.475	2739.9
983.774	2722.5
984.073	2719.34
984.372	2722.05
984.67	2656.74
984.969	2668.04
985.267	2657.87
985.566	2667.13
985.864	2598.66
986.162	2604.76
986.461	2540.58
986.759	2595.27
987.057	2576.74
987.355	2580.36
987.653	2531.09
987.951	2578.55
988.249	2552.11
988.547	2514.37
988.844	2527.02
989.142	2480.47
989.44	2518.21
989.737	2489.06
990.035	2434.37
990.332	2463.97
990.63	2454.26
990.927	2449.06
991.224	2423.75
991.521	2425.56
991.819	2381.04
992.116	2398.21
992.413	2366.35
992.71	2374.49
993.006	2349.4
993.303	2332.9
993.6	2358.89
993.897	2348.95
994.193	2321.83
994.49	2311.89
994.787	2317.54
995.083	2253.13
995.379	2279.8
995.676	2254.26
995.972	2241.16
996.268	2231.89
996.565	2230.53
996.861	2248.61
997.157	2219.69
997.453	2210.87
997.749	2211.55
998.044	2167.49
998.34	2133.14
998.636	2151.67
998.932	2133.81
999.227	2096.53
999.523	2118
999.818	2094.94
1000.114	2118.67
1000.409	2097.66
1000.704	2058.56
1001	2065.57
1001.295	2063.99
1001.59	2071.89
1001.885	2029.41
1002.18	1981.05
1002.475	2006.13
1002.77	2013.59
1003.065	1970.88
1003.359	1968.62
1003.654	1968.39
1003.949	1923.88
1004.243	1934.5
1004.538	1932.46
1004.832	1915.51
1005.127	1904.44
1005.421	1920.71
1005.715	1845.91
1006.009	1856.99
1006.304	1893.82
1006.598	1862.18
1006.892	1851.79
1007.186	1815.4
1007.48	1843.43
1007.773	1821.73
1008.067	1818.12
1008.361	1779.92
1008.655	1815.86
1008.948	1749.87
1009.242	1779.02
1009.535	1704.22
1009.829	1755.07
1010.122	1713.49
1010.415	1714.39
1010.708	1715.52
1011.001	1695.18
1011.295	1700.15
1011.588	1665.8
1011.881	1673.71
1012.173	1678.68
1012.466	1675.52
1012.759	1631.45
1013.052	1618.12
1013.344	1605.24
1013.637	1632.36
1013.93	1619.25
1014.222	1606.14
1014.514	1600.04
1014.807	1569.99
1015.099	1598.69
1015.391	1575.64
1015.683	1548.97
1015.976	1566.6
1016.268	1512.14
1016.56	1527.28
1016.851	1530.21
1017.143	1528.86
1017.435	1510.78
1017.727	1487.28
1018.018	1475.75
1018.31	1451.12
1018.602	1450.67
1018.893	1443.89
1019.185	1425.36
1019.476	1444.11
1019.767	1425.81
1020.058	1415.64
1020.35	1395.53
1020.641	1392.59
1020.932	1385.59
1021.223	1400.73
1021.514	1351.69
1021.804	1355.08
1022.095	1355.76
1022.386	1348.75
1022.677	1327.73
1022.967	1344.23
1023.258	1319.15
1023.548	1339.26
1023.839	1311.91
1024.129	1285.02
1024.419	1257.23
1024.709	1276.89
1025	1273.27
1025.29	1256.77
1025.58	1254.74
1025.87	1263.1
1026.16	1221.3
1026.449	1236.44
1026.739	1204.35
1027.029	1208.87
1027.319	1215.19
1027.608	1216.55
1027.898	1212.48
1028.187	1172.71
1028.477	1190.34
1028.766	1191.69
1029.055	1151.92
1029.344	1144.24
1029.634	1146.95
1029.923	1142.88
1030.212	1149.66
1030.501	1123.45
1030.79	1081.86
1031.078	1097.23
1031.367	1068.98
1031.656	1079.83
1031.945	1098.81
1032.233	1078.7
1032.522	1111.69
1032.81	1052.03
1033.099	1053.62
1033.387	1079.6
1033.675	1045.48
1033.963	1021.07
1034.251	1026.95
1034.54	1012.49
1034.828	1017.91
1035.116	1010.23
1035.403	1001.64
1035.691	978.14
1035.979	984.92
1036.267	1005.71
1036.554	1014.75
1036.842	983.56
1037.129	950.57
1037.417	978.59
1037.704	959.38
1037.992	939.04
1038.279	943.56
1038.566	926.84
1038.853	926.84
1039.14	926.84
