Data from hue_330_FLMS001491_63.txt Node
Date: Mon Feb 06 15:45:43 GMT 2017
User: dcchb
Spectrometer: FLMS00149
Trigger mode: 0
Integration Time (sec): 2.000000E-2
Scans to average: 10
Electric dark correction enabled: true
Nonlinearity correction enabled: false
Boxcar width: 0
XAxis mode: Wavelengths
Number of Pixels in Spectrum: 2048
>>>>>Begin Spectral Data<<<<<
341.393	2.2
341.776	2.2
342.16	2.2
342.543	-71.47
342.927	-59.72
343.31	-83.44
343.693	-79.38
344.077	-73.27
344.46	-52.26
344.843	-43.9
345.226	-66.04
345.61	-31.47
345.993	-5.25
346.376	-0.73
346.759	13.95
347.142	33.61
347.525	26.84
347.908	60.28
348.291	92.82
348.674	101.18
349.057	107.06
349.44	126.95
349.823	128.08
350.206	166.72
350.588	187.28
350.971	210.33
351.354	228.41
351.737	227.06
352.119	238.13
352.502	269.99
352.884	265.93
353.267	284.23
353.65	290.78
354.032	276.77
354.414	309.54
354.797	308.18
355.179	322.19
355.562	326.94
355.944	314.29
356.326	313.16
356.709	329.2
357.091	336.21
357.473	329.88
357.855	326.71
358.238	345.25
358.62	334.62
359.002	321.74
359.384	331.91
359.766	328.07
360.148	324.68
360.53	309.09
360.912	344.12
361.294	348.18
361.676	328.75
362.057	321.52
362.439	321.52
362.821	335.53
363.203	306.38
363.584	308.18
363.966	337.56
364.348	320.39
364.729	312.93
365.111	317.45
365.493	313.61
365.874	313.38
366.256	322.65
366.637	315.64
367.019	312.7
367.4	301.18
367.781	322.19
368.163	320.84
368.544	294.17
368.925	308.64
369.306	316.77
369.688	315.64
370.069	302.31
370.45	312.03
370.831	313.83
371.212	298.92
371.593	303.66
371.974	306.83
372.355	307.73
372.736	288.98
373.117	303.66
373.498	315.87
373.879	326.49
374.26	302.08
374.641	292.37
375.021	296.88
375.402	304.57
375.783	327.17
376.163	317.22
376.544	310.22
376.925	305.47
377.305	323.78
377.686	328.3
378.066	319.03
378.447	315.19
378.827	326.71
379.208	305.25
379.588	311.8
379.968	333.04
380.349	314.06
380.729	306.83
381.109	321.74
381.489	335.53
381.87	329.2
382.25	340.05
382.63	319.48
383.01	339.6
383.39	316.77
383.77	338.01
384.15	341.4
384.53	321.07
384.91	330.78
385.29	343.21
385.67	335.3
386.049	353.15
386.429	345.47
386.809	329.65
387.189	326.26
387.568	360.61
387.948	348.86
388.328	342.76
388.707	357.9
389.087	345.92
389.466	344.57
389.846	339.82
390.225	352.02
390.605	361.97
390.984	330.33
391.363	343.21
391.743	346.15
392.122	367.17
392.501	349.54
392.881	335.75
393.26	338.24
393.639	368.52
394.018	360.16
394.397	371.91
394.776	365.36
395.155	363.78
395.534	376.43
395.913	362.42
396.292	380.95
396.671	363.32
397.05	380.72
397.429	375.07
397.808	369.88
398.186	385.7
398.565	400.38
398.944	375.53
399.323	378.46
399.701	380.5
400.08	413.27
400.458	377.33
400.837	420.5
401.215	379.82
401.594	395.19
401.972	421.85
402.351	418.24
402.729	395.41
403.107	394.28
403.486	386.6
403.864	401.06
404.242	391.8
404.62	402.42
404.999	420.5
405.377	411.68
405.755	409.65
406.133	413.49
406.511	421.4
406.889	436.77
407.267	432.47
407.645	425.47
408.023	416.88
408.401	448.29
408.779	455.52
409.156	450.1
409.534	450.78
409.912	458.69
410.29	459.37
410.667	435.86
411.045	468.18
411.422	477.45
411.8	476.54
412.178	485.35
412.555	457.78
412.933	496.43
413.31	505.47
413.687	517.22
414.065	501.85
414.442	504.34
414.819	506.14
415.197	541.17
415.574	533.04
415.951	529.42
416.328	541.17
416.705	521.74
417.082	540.04
417.46	563.09
417.837	563.09
418.214	561.96
418.591	565.8
418.967	581.4
419.344	561.06
419.721	559.7
420.098	578.69
420.475	583.66
420.852	592.92
421.228	584.56
421.605	616.88
421.982	609.64
422.358	602.19
422.735	632.24
423.111	636.31
423.488	643.77
423.864	643.09
424.241	629.08
424.617	646.48
424.994	653.71
425.37	652.58
425.746	646.71
426.123	648.97
426.499	667.95
426.875	696.2
427.251	700.49
427.627	667.27
428.003	698.68
428.379	736.87
428.756	718.34
429.132	713.6
429.507	725.57
429.883	735.29
430.259	731
430.635	726.48
431.011	774.84
431.387	746.82
431.763	764.9
432.138	772.13
432.514	787.95
432.89	832.69
433.265	822.07
433.641	806.02
434.016	810.77
434.392	815.74
434.767	839.02
435.143	849.19
435.518	835.4
435.894	833.82
436.269	879.02
436.644	878.11
437.02	878.34
437.395	901.39
437.77	926.25
438.145	903.87
438.52	905.23
438.895	905.46
439.271	918.79
439.646	965.57
440.021	942.97
440.395	930.31
440.77	933.03
441.145	952.01
441.52	943.65
441.895	942.52
442.27	969.86
442.645	997.21
443.019	971.9
443.394	979.58
443.769	1004.66
444.143	1002.85
444.518	995.4
444.892	1006.47
445.267	1020.48
445.641	987.94
446.016	1026.36
446.39	1018.67
446.764	1026.81
447.139	1032.91
447.513	1017.54
447.887	1008.73
448.262	1033.81
448.636	1036.75
449.01	1065
449.384	1083.53
449.758	1046.24
450.132	1051.44
450.506	1071.55
450.88	1058.9
451.254	1092.12
451.628	1080.14
452.002	1086.47
452.376	1086.47
452.75	1117.43
453.123	1116.52
453.497	1126.92
453.871	1107.71
454.244	1146.81
454.618	1130.99
454.992	1149.07
455.365	1143.87
455.739	1159.24
456.112	1197.43
456.486	1178.44
456.859	1194.49
457.232	1191.78
457.606	1221.83
457.979	1217.76
458.352	1228.61
458.725	1234.26
459.099	1234.49
459.472	1252.57
459.845	1257.54
460.218	1284.2
460.591	1269.97
460.964	1284.88
461.337	1309.29
461.71	1296.63
462.083	1308.84
462.456	1305.9
462.829	1328.95
463.201	1344.99
463.574	1358.55
463.947	1374.82
464.32	1375.5
464.692	1411.88
465.065	1400.36
465.438	1402.39
465.81	1429.28
466.183	1427.7
466.555	1453.01
466.928	1441.71
467.3	1455.95
467.672	1481.26
468.045	1489.17
468.417	1483.52
468.789	1505.44
469.161	1546.12
469.534	1550.64
469.906	1583.86
470.278	1569.85
470.65	1586.79
471.022	1599.45
471.394	1634.02
471.766	1639.22
472.138	1651.88
472.51	1691.65
472.882	1700.92
473.253	1695.72
473.625	1754.47
473.997	1760.8
474.369	1783.4
474.74	1782.72
475.112	1791.53
475.484	1828.14
475.855	1863.85
476.227	1855.49
476.598	1925.54
476.97	1905.88
477.341	1940.46
477.713	1949.72
478.084	2002.15
478.455	2038.76
478.827	2055.71
479.198	2098.42
479.569	2074.24
479.94	2156.05
480.311	2141.58
480.682	2182.48
481.053	2224.97
481.424	2257.74
481.795	2251.86
482.166	2283.73
482.537	2310.17
482.908	2374.57
483.279	2356.27
483.65	2408.69
484.021	2448.69
484.391	2476.71
484.762	2431.07
485.133	2474.68
485.503	2518.07
485.874	2538.63
486.244	2575.92
486.615	2590.61
486.985	2635.81
487.356	2695.69
487.726	2676.03
488.097	2748.57
488.467	2743.83
488.837	2747.89
489.207	2785.86
489.578	2830.38
489.948	2843.26
490.318	2915.35
490.688	2910.38
491.058	2945.4
491.428	2962.58
491.798	2962.35
492.168	3050.94
492.538	3041.67
492.908	3068.34
493.278	3099.52
493.648	3119.86
494.017	3186.53
494.387	3165.28
494.757	3219.75
495.126	3182.91
495.496	3218.62
495.866	3265.62
496.235	3269.46
496.605	3290.7
496.974	3323.47
497.344	3314.66
497.713	3291.61
498.082	3367.31
498.452	3375.22
498.821	3399.4
499.19	3410.7
499.559	3406.41
499.928	3463.58
500.298	3505.84
500.667	3522.79
501.036	3461.1
501.405	3490.47
501.774	3525.05
502.143	3523.92
502.512	3538.38
502.88	3560.3
503.249	3578.83
503.618	3573.86
503.987	3607.53
504.356	3586.29
504.724	3645.95
505.093	3628.1
505.462	3652.95
505.83	3690.02
506.199	3684.59
506.567	3714.42
506.936	3723.69
507.304	3781.31
507.672	3721.65
508.041	3807.98
508.409	3769.79
508.777	3761.65
509.145	3841.2
509.514	3837.81
509.882	3821.99
510.25	3831.03
510.618	3842.33
510.986	3841.88
511.354	3854.76
511.722	3901.31
512.09	3901.76
512.458	3948.77
512.826	3947.41
513.193	3946.05
513.561	3949.22
513.929	3924.81
514.297	3984.7
514.664	3969.33
515.032	4012.04
515.4	4050.23
515.767	3974.3
516.135	4033.28
516.502	4045.49
516.869	4073.96
517.237	4108.76
517.604	4076.22
517.972	4100.17
518.339	4101.98
518.706	4112.6
519.073	4166.84
519.44	4136.33
519.808	4153.05
520.175	4113.28
520.542	4217.91
520.909	4170.46
521.276	4158.25
521.643	4192.6
522.009	4247.29
522.376	4251.58
522.743	4267.85
523.11	4276.22
523.477	4296.1
523.843	4327.29
524.21	4310.11
524.577	4356.44
524.943	4388.53
525.31	4400.96
525.676	4438.92
526.043	4470.56
526.409	4434.4
526.776	4471.69
527.142	4508.75
527.508	4550.56
527.874	4582.87
528.241	4555.76
528.607	4566.6
528.973	4588.3
529.339	4602.76
529.705	4656.32
530.071	4662.65
530.437	4686.83
530.803	4704.9
531.169	4720.05
531.535	4759.14
531.901	4755.98
532.267	4767.5
532.632	4812.02
532.998	4845.01
533.364	4864.67
533.73	4868.52
534.095	4863.54
534.461	4908.97
534.826	4941.73
535.192	4934.05
535.557	4955.97
535.923	4995.74
536.288	4981.28
536.653	4999.59
537.019	4988.06
537.384	5021.96
537.749	5057.89
538.114	5110.77
538.479	5110.09
538.845	5135.18
539.21	5132.24
539.575	5204.1
539.94	5155.74
540.305	5218.56
540.67	5149.86
541.034	5242.07
541.399	5226.7
541.764	5294.95
542.129	5307.15
542.494	5269.64
542.858	5327.04
543.223	5323.87
543.587	5431.44
543.952	5447.03
544.316	5388.73
544.681	5429.41
545.045	5491.55
545.41	5511.89
545.774	5486.58
546.138	5527.93
546.503	5528.61
546.867	5543.53
547.231	5630.08
547.595	5669.62
547.959	5654.94
548.324	5630.76
548.688	5675.05
549.052	5704.88
549.416	5686.35
549.779	5696.74
550.143	5701.26
550.507	5783.52
550.871	5772.67
551.235	5773.58
551.599	5781.71
551.962	5811.32
552.326	5845.21
552.689	5883.18
553.053	5914.82
553.417	5860.13
553.78	5963.18
554.143	5927.02
554.507	5891.09
554.87	5921.37
555.234	6000.46
555.597	5919.56
555.96	5969.5
556.323	5982.16
556.686	6067.81
557.05	6056.28
557.413	6070.07
557.776	6081.37
558.139	6120.69
558.502	6182.15
558.865	6158.65
559.228	6187.13
559.59	6197.52
559.953	6221.7
560.316	6253.34
560.679	6257.41
561.041	6283.39
561.404	6281.13
561.767	6389.15
562.129	6368.36
562.492	6367.69
562.854	6376.27
563.217	6355.03
563.579	6437.06
563.941	6497.85
564.304	6496.04
564.666	6480.9
565.028	6508.92
565.39	6515.48
565.753	6550.05
566.115	6590.96
566.477	6559.09
566.839	6600.67
567.201	6639.54
567.563	6639.09
567.925	6644.74
568.287	6711.63
568.648	6691.74
569.01	6766.32
569.372	6756.83
569.734	6766.32
570.095	6826.2
570.457	6905.07
570.819	6901
571.18	6957.05
571.542	6952.08
571.903	6982.13
572.265	7040.89
572.626	7048.57
572.987	7086.31
573.349	7054
573.71	7222.13
574.071	7235.46
574.432	7195.23
574.794	7378.05
575.155	7386.42
575.516	7439.97
575.877	7426.64
576.238	7533.76
576.599	7560.42
576.96	7559.29
577.32	7639.74
577.681	7738.72
578.042	7903.46
578.403	7939.4
578.763	8012.61
579.124	8098.71
579.485	8202.89
579.845	8400.63
580.206	8402.43
580.566	8484.24
580.927	8591.36
581.287	8700.96
581.648	8767.4
582.008	9047.62
582.368	9060.04
582.728	9214.84
583.089	9310.21
583.449	9577.09
583.809	9695.96
584.169	9796.07
584.529	9960.36
584.889	10175.5
585.249	10415.04
585.609	10510.85
585.969	10763.05
586.329	10898.41
586.688	11141.12
587.048	11347.67
587.408	11490.49
587.768	11703.14
588.127	11947.43
588.487	12174.09
588.846	12538.6
589.206	12632.83
589.565	12865.14
589.925	13120.5
590.284	13408.86
590.643	13604.33
591.003	13919.35
591.362	14212.68
591.721	14432.11
592.08	14677.3
592.44	15093.11
592.799	15313.67
593.158	15532.19
593.517	15808.57
593.876	16084.72
594.235	16374.65
594.593	16637.25
594.952	17040.85
595.311	17171.24
595.67	17534.4
596.029	18008.74
596.387	18230.88
596.746	18568.04
597.104	18787.7
597.463	19003.51
597.822	19427.68
598.18	19526.44
598.538	19775.24
598.897	20262.01
599.255	20392.63
599.613	20886.63
599.972	20960.97
600.33	21358.25
600.688	21561.41
601.046	21828.97
601.404	22212.01
601.762	22515.74
602.12	22809.51
602.478	23015.84
602.836	23291.53
603.194	23494.47
603.552	23743.27
603.91	24019.2
604.268	24390.26
604.625	24626.41
604.983	24927.2
605.341	25037.48
605.698	25355.89
606.056	25554.53
606.413	25839.72
606.771	26049.65
607.128	26346.37
607.485	26352.47
607.843	26600.37
608.2	27154.94
608.557	27429.96
608.914	27500.69
609.272	27782.49
609.629	28052.99
609.986	28359.88
610.343	28374.34
610.7	28734.1
611.057	28887.77
611.414	29068.56
611.771	29244.15
612.127	29500.86
612.484	29704.7
612.841	29887.29
613.198	29961.42
613.554	30149.43
613.911	30508.29
614.267	30550.33
614.624	30867.15
614.98	30977.43
615.337	31252.91
615.693	31376.29
616.05	31452.9
616.406	31753.46
616.762	31630.98
617.118	31926.34
617.475	32104.86
617.831	32228.02
618.187	32453.78
618.543	32605.41
618.899	32803.83
619.255	32731.51
619.611	32992.97
619.967	33160.65
620.323	33315.23
620.678	33254.89
621.034	33366.98
621.39	33422.12
621.746	33413.53
622.101	34025.04
622.457	33724.48
622.812	33973.97
623.168	34102.55
623.523	34184.36
623.879	34369.44
624.234	34238.14
624.589	34441.98
624.945	34502.09
625.3	34653.5
625.655	34695.75
626.01	34815.07
626.365	34871.34
626.72	34839.48
627.075	34966.71
627.43	34952.7
627.785	35057.55
628.14	35226.59
628.495	35178.23
628.85	35253.71
629.205	35160.15
629.559	35532.34
629.914	35440.14
630.269	35399.92
630.623	35465
630.978	35326.02
631.332	35523.53
631.687	35757.42
632.041	35493.93
632.396	35690.53
632.75	35533.02
633.104	35667.93
633.459	35547.48
633.813	35674.49
634.167	35594.71
634.521	35706.35
634.875	35672.68
635.229	35667.93
635.583	35432.68
635.937	35613.7
636.291	35620.93
636.645	35663.86
636.999	35681.04
637.352	35809.62
637.706	35597.65
638.06	35759.46
638.413	35717.65
638.767	35554.71
639.121	35723.75
639.474	35466.81
639.828	35639.23
640.181	35721.04
640.534	35719.68
640.888	35516.52
641.241	35464.32
641.594	35640.81
641.947	35667.03
642.301	35549.29
642.654	35724.43
643.007	35681.04
643.36	35637.42
643.713	35572.34
644.066	35654.37
644.419	35477.43
644.771	35342.07
645.124	34992.02
645.477	35021.4
645.83	34755.19
646.182	34728.07
646.535	34610.78
646.888	34613.95
647.24	34466.61
647.593	34639.26
647.945	34520.84
648.298	34454.18
648.65	34492.6
649.002	34387.06
649.355	34416.67
649.707	34445.37
650.059	34473.84
650.411	34898.69
650.763	35120.6
651.115	35352.46
651.467	35312.01
651.819	35245.8
652.171	35153.6
652.523	35139.36
652.875	35151.56
653.227	34925.8
653.578	35325.12
653.93	35135.97
654.282	35023.66
654.633	34986.14
654.985	35154.27
655.337	35115.63
655.688	35113.37
656.039	35172.8
656.391	34845.13
656.742	35028.4
657.094	35018.91
657.445	35206.7
657.796	35015.75
658.147	34976.2
658.498	34989.08
658.849	35032.92
659.2	34913.38
659.551	34981.4
659.902	34916.31
660.253	34966.48
660.604	35029.53
660.955	34949.31
661.306	34934.84
661.656	34905.69
662.007	34884.9
662.358	34818.69
662.708	34832.93
663.059	34778.69
663.409	34656.21
663.76	34900.49
664.11	34967.16
664.461	34971.91
664.811	34938.23
665.161	34893.26
665.511	34807.84
665.862	34898.46
666.212	34950.89
666.562	35052.36
666.912	34940.27
667.262	34805.58
667.612	34787.96
667.962	34833.83
668.312	34849.2
668.662	34985.46
669.011	34886.03
669.361	34726.49
669.711	34827.95
670.06	34717
670.41	34684
670.76	34715.19
671.109	34768.29
671.459	34745.24
671.808	34696.21
672.157	34879.93
672.507	34501.18
672.856	34535.53
673.205	34701.63
673.554	34674.51
673.904	34449.66
674.253	34711.57
674.602	34518.36
674.951	34046.51
675.3	33886.74
675.649	34500.28
675.998	34420.28
676.346	34440.85
676.695	34486.72
677.044	34266.16
677.393	34386.84
677.741	34337.35
678.09	34308.87
678.438	34314.07
678.787	34411.69
679.135	34398.14
679.484	34068.43
679.832	34203.11
680.181	34044.02
680.529	34236.33
680.877	34074.53
681.225	34104.36
681.573	34146.16
681.922	33973.06
682.27	33880.63
682.618	34017.35
682.966	33791.82
683.314	33923.35
683.661	33835.21
684.009	33542.34
684.357	33643.58
684.705	33532.4
685.053	33580.08
685.4	33566.97
685.748	33330.59
686.095	33326.3
686.443	33282.68
686.79	33218.05
687.138	33217.6
687.485	33221.67
687.832	33143.48
688.18	33205.4
688.527	32912.52
688.874	33010.15
689.221	32945.07
689.568	32939.64
689.915	32882.02
690.262	32822.36
690.609	32585.53
690.956	32605.64
691.303	32680.44
691.65	32356.38
691.997	32439.09
692.344	32256.95
692.69	32312.77
693.037	32291.07
693.383	32002.27
693.73	32129.72
694.077	31950.52
694.423	31843.4
694.769	31790.29
695.116	31625.55
695.462	31687.02
695.808	31601.15
696.155	31624.2
696.501	31409.51
696.847	31465.56
697.193	31208.39
697.539	31359.57
697.885	31072.12
698.231	30935.63
698.577	30970.43
698.923	31025.34
699.269	30736.08
699.614	30660.83
699.96	30605.01
700.306	30490.44
700.651	30548.29
700.997	30308.75
701.342	30360.5
701.688	30281.63
702.033	30187.17
702.379	30209.09
702.724	30118.25
703.069	30098.36
703.415	29811.59
703.76	29790.12
704.105	29860.18
704.45	29798.26
704.795	29636.45
705.14	29605.94
705.485	29501.54
705.83	29534.53
706.175	29466.97
706.52	29389
706.865	29233.98
707.209	29108.56
707.554	29127.99
707.899	29092.51
708.243	29077.82
708.588	29021.1
708.932	28798.73
709.277	28714.44
709.621	28746.98
709.966	28576.59
710.31	28624.73
710.654	28424.96
710.998	28491.4
711.342	28225.42
711.687	28365.98
712.031	28320.55
712.375	28111.97
712.719	28161.01
713.063	28053.44
713.407	28123.05
713.75	28151.97
714.094	28051.41
714.438	27938.42
714.782	27989.49
715.125	27854.13
715.469	27744.07
715.812	27692.55
716.156	27545.89
716.499	27633.34
716.843	27592.66
717.186	27418.43
717.53	27598.31
717.873	27559.9
718.216	27431.54
718.559	27304.54
718.902	27144.09
719.246	27139.57
719.589	27150.64
719.932	27091.89
720.275	27097.08
720.617	26952.68
720.96	26953.36
721.303	26940.93
721.646	27008.5
721.989	26745.45
722.331	26922.63
722.674	26767.15
723.016	26798.56
723.359	26703.65
723.701	26695.96
724.044	26462.75
724.386	26326.26
724.729	26488.51
725.071	26458.46
725.413	26561.5
725.755	26531
726.097	26360.61
726.439	26128.3
726.782	26233.6
727.124	26178.69
727.465	26177.79
727.807	26029.32
728.149	26106.6
728.491	26036.32
728.833	26017.34
729.175	25938.24
729.516	25829.55
729.858	25949.54
730.199	25902.31
730.541	25807.17
730.882	25838.81
731.224	26001.52
731.565	25712.04
731.906	25703.9
732.248	25700.74
732.589	25700.06
732.93	25446.51
733.271	25585.03
733.612	25543.23
733.953	25531.02
734.294	25425.94
734.635	25341.2
734.976	25424.36
735.317	25222.11
735.658	25151.37
735.999	25212.16
736.339	25164.93
736.68	25378.26
737.021	25178.49
737.361	25046.74
737.702	25072.73
738.042	25098.04
738.383	24985.73
738.723	24982.79
739.063	24803.36
739.404	24882.45
739.744	24812.85
740.084	24827.31
740.424	24809.23
740.764	24708.67
741.104	24867.31
741.444	24715
741.784	24668
742.124	24596.13
742.464	24594.33
742.804	24484.05
743.143	24369.25
743.483	24660.54
743.823	24368.57
744.162	24380.09
744.502	24414.67
744.841	24226.2
745.181	24342.58
745.52	24324.5
745.86	24302.81
746.199	24181.23
746.538	24130.61
746.877	24286.76
747.216	24244.5
747.556	24060.1
747.895	24169.93
748.234	23985.75
748.573	23959.54
748.911	23992.53
749.25	23937.17
749.589	23746.44
749.928	23843.61
750.267	23857.17
750.605	23735.14
750.944	23628.25
751.283	23574.46
751.621	23628.02
751.96	23557.52
752.298	23479.78
752.636	23488.37
752.975	23340.8
753.313	23273.91
753.651	23323.4
753.989	23248.37
754.327	23216.51
754.666	23075.27
755.004	23136.28
755.342	23099.45
755.679	23146.91
756.017	22947.59
756.355	23054.25
756.693	22844.54
757.031	22934.93
757.368	22743.3
757.706	22829.85
758.044	22601.61
758.381	22663.75
758.719	22555.73
759.056	22569.52
759.394	22475.74
759.731	22420.14
760.068	22297.89
760.405	22250.21
760.743	22189.64
761.08	22278.45
761.417	22093.83
761.754	22046.14
762.091	21957.56
762.428	21998.69
762.765	21784
763.102	21819.93
763.438	21727.28
763.775	21664.68
764.112	21661.97
764.449	21624.46
764.785	21544.46
765.122	21397.8
765.458	21321.87
765.795	21244.36
766.131	21307.41
766.467	21188.31
766.804	21018.37
767.14	21053.63
767.476	20846.18
767.812	20901.31
768.148	20856.12
768.485	20705.16
768.821	20597.59
769.157	20577.93
769.492	20490.48
769.828	20412.51
770.164	20367.54
770.5	20341.1
770.836	20288.68
771.171	20216.59
771.507	20235.8
771.842	20077.61
772.178	20060.21
772.513	19920.78
772.849	19848.01
773.184	19834.68
773.519	19767.79
773.855	19692.08
774.19	19687.79
774.525	19530.28
774.86	19552.65
775.195	19484.85
775.53	19281.92
775.865	19304.97
776.2	19184.3
776.535	18993.34
776.87	19019.33
777.205	19028.6
777.539	18892.55
777.874	18960.8
778.209	18702.5
778.543	18651.43
778.878	18592.22
779.212	18612.11
779.547	18535.28
779.881	18559.68
780.215	18379.8
780.55	18409.63
780.884	18296.41
781.218	18266.36
781.552	18212.12
781.886	18064.1
782.22	17932.58
782.554	17925.57
782.888	17805.58
783.222	17776.43
783.556	17605.58
783.889	17669.54
784.223	17587.96
784.557	17553.83
784.89	17508.86
785.224	17425.47
785.557	17281.75
785.891	17290.34
786.224	17195.88
786.558	17275.65
786.891	17042.89
787.224	17014.86
787.557	16891.02
787.891	17009.89
788.224	16934.64
788.557	16855.32
788.89	16798.82
789.223	16767.64
789.556	16627.75
789.888	16568.32
790.221	16556.57
790.554	16383.69
790.887	16332.4
791.219	16300.76
791.552	16339.63
791.884	16223.7
792.217	16211.04
792.549	16079.52
792.882	16030.48
793.214	15894.67
793.546	16005.62
793.879	15872.52
794.211	15771.28
794.543	15882.46
794.875	15720.89
795.207	15862.8
795.539	15690.83
795.871	15697.38
796.203	15450.61
796.535	15433.21
796.867	15493.32
797.198	15374.23
797.53	15367
797.862	15251.75
798.193	15208.36
798.525	15277.06
798.856	15197.74
799.188	15103.73
799.519	15024.18
799.85	14969.49
800.182	14943.28
800.513	14882.04
800.844	14799.1
801.175	14866.9
801.506	14793
801.837	14719.56
802.168	14673.91
802.499	14608.82
802.83	14588.71
803.161	14468.04
803.491	14528.6
803.822	14525.44
804.153	14382.39
804.483	14308.49
804.814	14334.03
805.145	14258.1
805.475	14308.49
805.805	14207.25
806.136	14227.37
806.466	14159.12
806.796	14151.44
807.126	13971.33
807.457	13988.5
807.787	13975.62
808.117	13991.21
808.447	13970.88
808.777	13840.26
809.107	13862.4
809.436	13832.12
809.766	13755.51
810.096	13780.82
810.426	13773.59
810.755	13667.38
811.085	13671.22
811.414	13628.06
811.744	13505.35
812.073	13441.85
812.403	13512.58
812.732	13329.99
813.061	13361.4
813.39	13311.91
813.719	13290.44
814.049	13358.24
814.378	13259.71
814.707	13322.53
815.036	13226.94
815.365	13165.93
815.693	13077.79
816.022	12998.02
816.351	13000.96
816.68	12841.87
817.008	12958.7
817.337	12807.29
817.665	12851.58
817.994	12821.08
818.322	12881.86
818.651	12682.77
818.979	12731.81
819.307	12763.9
819.636	12748.53
819.964	12635.77
820.292	12649.33
820.62	12650.68
820.948	12674.41
821.276	12650.68
821.604	12532.5
821.932	12608.65
822.259	12660.85
822.587	12538.82
822.915	12616.56
823.243	12626.5
823.57	12561.2
823.898	12566.17
824.225	12523.23
824.553	12474.64
824.88	12509.45
825.207	12482.33
825.535	12492.5
825.862	12572.27
826.189	12516.22
826.516	12464.93
826.843	12585.38
827.17	12518.94
827.497	12563.68
827.824	12514.87
828.151	12576.79
828.478	12562.55
828.805	12515.32
829.131	12497.69
829.458	12486.39
829.785	12421.99
830.111	12427.64
830.438	12509.22
830.764	12523
831.09	12512.16
831.417	12479.16
831.743	12480.07
832.069	12491.37
832.395	12361.2
832.722	12495.89
833.048	12359.62
833.374	12403.91
833.7	12368.21
834.026	12299.96
834.351	12438.71
834.677	12360.75
835.003	12440.97
835.329	12346.96
835.654	12355.78
835.98	12348.77
836.306	12304.48
836.631	12220.19
836.956	12350.81
837.282	12379.51
837.607	12192.62
837.932	12163.69
838.258	12155.78
838.583	12147.87
838.908	12182.9
839.233	12133.18
839.558	12115.56
839.883	12023.36
840.208	12018.61
840.533	12018.16
840.858	12043.92
841.182	12044.15
841.507	12025.16
841.832	11878.5
842.156	11866.07
842.481	11904.94
842.805	11825.4
843.13	11824.49
843.454	11781.1
843.778	11728.67
844.103	11758.73
844.427	11724.16
844.751	11643.71
845.075	11611.16
845.399	11567.32
845.723	11504.5
846.047	11554.89
846.371	11496.82
846.695	11456.82
847.019	11425.41
847.343	11323.49
847.666	11306.31
847.99	11268.8
848.313	11314
848.637	11190.61
848.96	11135.24
849.284	11059.31
849.607	11090.95
849.931	11031.97
850.254	10934.12
850.577	10883.05
850.9	10825.65
851.223	10815.48
851.546	10738.87
851.869	10671.98
852.192	10675.82
852.515	10625.43
852.838	10573.45
853.161	10641.02
853.483	10532.77
853.806	10504.53
854.129	10461.59
854.451	10414.13
854.774	10351.08
855.096	10284.87
855.419	10271.99
855.741	10347.02
856.063	10163.29
856.385	10191.31
856.708	10131.2
857.03	10126.68
857.352	10115.61
857.674	10109.28
857.996	10051.66
858.318	9992
858.64	10064.09
858.961	10015.73
859.283	9971.43
859.605	9927.59
859.926	9948.38
860.248	9919
860.57	9847.14
860.891	9840.14
861.212	9752.23
861.534	9738.9
861.855	9747.48
862.176	9768.95
862.498	9787.71
862.819	9677.2
863.14	9708.84
863.461	9626.81
863.782	9676.98
864.103	9640.14
864.424	9638.56
864.745	9648.5
865.065	9562.4
865.386	9552.69
865.707	9524.44
866.027	9523.31
866.348	9533.25
866.668	9479.69
866.989	9439.02
867.309	9349.98
867.63	9470.2
867.95	9429.75
868.27	9395.18
868.59	9411.22
868.91	9387.49
869.23	9365.8
869.55	9288.06
869.87	9331.22
870.19	9362.18
870.51	9307.04
870.83	9324.9
871.15	9206.71
871.469	9226.14
871.789	9251
872.109	9285.8
872.428	9200.38
872.748	9243.09
873.067	9237.21
873.386	9206.71
873.706	9164.67
874.025	9116.54
874.344	9067.73
874.663	9120.38
874.982	9113.38
875.301	9050.78
875.62	9071.8
875.939	9102.53
876.258	9001.51
876.577	9013.04
876.896	8980.5
877.214	8955.87
877.533	8932.36
877.852	8923.78
878.17	8874.96
878.489	8914.29
878.807	8929.43
879.125	8854.63
879.444	8964.91
879.762	8881.07
880.08	8877.9
880.398	8810.33
880.716	8804.68
881.034	8753.84
881.352	8745.02
881.67	8747.06
881.988	8740.73
882.306	8738.7
882.624	8672.26
882.941	8642.2
883.259	8662.09
883.577	8644.46
883.894	8623.22
884.212	8531.02
884.529	8637.46
884.846	8513.62
885.164	8501.64
885.481	8487.18
885.798	8494.18
886.115	8462.77
886.432	8380.97
886.75	8404.47
887.067	8441.3
887.383	8417.12
887.7	8426.16
888.017	8317.46
888.334	8334.19
888.651	8270.46
888.967	8316.34
889.284	8289.22
889.6	8190.01
889.917	8161.76
890.233	8213.96
890.55	8132.16
890.866	8153.63
891.182	8099.84
891.498	8097.36
891.815	8051.71
892.131	8018.49
892.447	8037.7
892.763	8021.2
893.079	8031.6
893.395	7937.59
893.71	7980.75
894.026	7939.17
894.342	7899.17
894.657	7836.35
894.973	7821.43
895.289	7833.41
895.604	7765.62
895.92	7719.06
896.235	7776.46
896.55	7773.98
896.865	7715.22
897.181	7691.49
897.496	7699.4
897.811	7644.26
898.126	7636.8
898.441	7565.17
898.756	7523.81
899.071	7437.26
899.386	7472.52
899.7	7461.89
900.015	7421.44
900.33	7379.64
900.644	7406.75
900.959	7352.07
901.273	7373.08
901.588	7332.63
901.902	7286.53
902.216	7226.87
902.531	7217.83
902.845	7283.82
903.159	7161.11
903.473	7145.07
903.787	7103.49
904.101	7058.06
904.415	7058.51
904.729	7024.17
905.042	6983.04
905.356	6982.58
905.67	6997.27
905.984	6915.47
906.297	6898.07
906.611	6880.44
906.924	6933.32
907.237	6866.66
907.551	6856.03
907.864	6767.22
908.177	6759.99
908.491	6748.01
908.804	6731.74
909.117	6644.74
909.43	6634.57
909.743	6593.89
910.056	6600
910.368	6548.7
910.681	6498.08
910.994	6536.49
911.307	6488.36
911.619	6464.86
911.932	6494.46
912.244	6376.5
912.557	6454.01
912.869	6335.14
913.181	6344.86
913.494	6316.16
913.806	6269.16
914.118	6281.36
914.43	6298.31
914.742	6207.24
915.054	6206.11
915.366	6174.92
915.678	6135.38
915.99	6053.8
916.302	6027.13
916.613	6040.69
916.925	6040.24
917.236	6053.8
917.548	6041.59
917.859	5984.42
918.171	5908.04
918.482	5921.6
918.794	5895.16
919.105	5857.42
919.416	5795.72
919.727	5841.15
920.038	5791.2
920.349	5775.38
920.66	5748.27
920.971	5729.51
921.282	5702.39
921.593	5699.91
921.903	5662.62
922.214	5619
922.525	5618.1
922.835	5590.98
923.146	5611.32
923.456	5532
923.767	5481.16
924.077	5515.96
924.387	5471.66
924.697	5451.55
925.008	5414.94
925.318	5409.07
925.628	5366.13
925.938	5359.58
926.248	5270.31
926.558	5315.96
926.867	5267.6
927.177	5306.24
927.487	5249.52
927.796	5187.6
928.106	5155.51
928.416	5217.66
928.725	5113.71
929.034	5142.41
929.344	5170.66
929.653	5123.88
929.962	5040.94
930.271	5060.6
930.581	5031
930.89	5019.7
931.199	4960.72
931.508	4967.04
931.817	4989.19
932.125	4959.36
932.434	4891.79
932.743	4896.54
933.051	4838.46
933.36	4839.82
933.669	4828.74
933.977	4798.91
934.286	4781.96
934.594	4762.53
934.902	4749.2
935.21	4728.41
935.519	4758.24
935.827	4683.44
936.135	4656.32
936.443	4606.83
936.751	4625.36
937.059	4562.54
937.367	4587.85
937.674	4577.22
937.982	4553.27
938.29	4551.69
938.597	4554.4
938.905	4478.24
939.213	4444.57
939.52	4452.93
939.827	4429.21
940.135	4382.88
940.442	4423.56
940.749	4388.08
941.056	4404.57
941.363	4304.01
941.67	4297.91
941.977	4304.92
942.284	4253.39
942.591	4308.53
942.898	4266.5
943.205	4222.88
943.511	4206.39
943.818	4194.64
944.125	4179.49
944.431	4165.71
944.738	4134.52
945.044	4155.54
945.35	4058.59
945.657	4060.63
945.963	4101.76
946.269	4083
946.575	4012.04
946.881	4037.35
947.187	4029.44
947.493	3996
947.799	3932.27
948.105	3959.61
948.41	3909.9
948.716	3923.46
949.022	3946.28
949.327	3918.03
949.633	3860.41
949.938	3866.06
950.244	3828.77
950.549	3800.75
950.854	3786.74
951.16	3785.38
951.465	3798.04
951.77	3723.01
952.075	3751.48
952.38	3712.39
952.685	3732.05
952.99	3676.91
953.294	3684.37
953.599	3675.78
953.904	3641.43
954.209	3594.43
954.513	3613.86
954.818	3589.45
955.122	3607.53
955.426	3532.51
955.731	3566.4
956.035	3519.62
956.339	3513.52
956.643	3470.13
956.948	3491.38
957.252	3495.67
957.556	3460.64
957.86	3451.83
958.163	3471.26
958.467	3429.23
958.771	3384.04
959.075	3416.35
959.378	3352.85
959.682	3375.9
959.985	3327.09
960.289	3312.85
960.592	3308.78
960.896	3304.49
961.199	3273.76
961.502	3265.17
961.805	3259.29
962.108	3228.56
962.411	3221.78
962.714	3208.9
963.017	3172.52
963.32	3232.17
963.623	3175
963.926	3167.32
964.228	3136.36
964.531	3113.08
964.833	3111.95
965.136	3099.07
965.438	3121.44
965.741	3068.34
966.043	3042.35
966.345	3057.26
966.648	3039.41
966.95	3034.89
967.252	3043.93
967.554	3030.15
967.856	2987.44
968.158	2940.88
968.46	2923.03
968.761	2903.6
969.063	2909.92
969.365	2884.84
969.666	2922.13
969.968	2899.53
970.269	2893.65
970.571	2859.53
970.872	2856.59
971.174	2826.76
971.475	2877.16
971.776	2857.27
972.077	2779.98
972.378	2784.96
972.679	2799.42
972.98	2768.46
973.281	2763.49
973.582	2777.27
973.883	2720.32
974.183	2744.28
974.484	2737.72
974.785	2717.39
975.085	2685.3
975.386	2712.64
975.686	2697.27
975.986	2665.64
976.287	2657.73
976.587	2613.89
976.887	2605.52
977.187	2615.47
977.487	2614.79
977.787	2623.83
978.087	2615.24
978.387	2613.66
978.687	2569.37
978.987	2562.81
979.286	2551.97
979.586	2506.09
979.885	2515.13
980.185	2494.12
980.484	2478.97
980.784	2487.56
981.083	2481.69
981.382	2500.67
981.682	2477.62
981.981	2487.11
982.28	2425.64
982.579	2424.74
982.878	2399.88
983.177	2377.73
983.475	2354.46
983.774	2392.2
984.073	2382.93
984.372	2367.34
984.67	2370.95
984.969	2358.75
985.267	2356.04
985.566	2323.27
985.864	2306.32
986.162	2302.03
986.461	2279.21
986.759	2254.57
987.057	2263.16
987.355	2278.98
987.653	2257.96
987.951	2238.75
988.249	2241.01
988.547	2214.8
988.844	2234.24
989.142	2221.58
989.44	2193.11
989.737	2147.01
990.035	2166.67
990.332	2145.65
990.63	2132.32
990.927	2136.38
991.224	2135.71
991.521	2138.64
991.819	2151.07
992.116	2119.66
992.413	2079.66
992.71	2095.71
993.006	2048.25
993.303	2041.92
993.6	2052.54
993.897	2052.32
994.193	2036.95
994.49	2059.32
994.787	1985.2
995.083	2015.26
995.379	2006.44
995.676	1997.41
995.972	1960.8
996.268	1961.25
996.565	1954.69
996.861	1958.08
997.157	1933.45
997.453	1944.07
997.749	1921.02
998.044	1930.06
998.34	1906.79
998.636	1881.93
998.932	1861.14
999.227	1838.54
999.523	1843.28
999.818	1853.45
1000.114	1866.11
1000.409	1800.8
1000.704	1826.56
1001	1821.14
1001.295	1796.51
1001.59	1795.38
1001.885	1780.01
1002.18	1784.98
1002.475	1767.13
1002.77	1761.03
1003.065	1757.64
1003.359	1776.85
1003.654	1739.11
1003.949	1721.48
1004.243	1719.45
1004.538	1704.76
1004.832	1686.68
1005.127	1710.18
1005.421	1688.03
1005.715	1667.47
1006.009	1665.89
1006.304	1657.53
1006.598	1631.31
1006.892	1637.19
1007.186	1639.22
1007.48	1631.54
1007.773	1602.61
1008.067	1581.14
1008.361	1599.22
1008.655	1586.79
1008.948	1580.01
1009.242	1596.96
1009.535	1527.13
1009.829	1528.04
1010.122	1547.02
1010.415	1521.49
1010.708	1522.39
1011.001	1528.26
1011.295	1507.93
1011.588	1486.91
1011.881	1476.74
1012.173	1491.43
1012.466	1460.02
1012.759	1475.16
1013.052	1442.39
1013.344	1434.48
1013.637	1467.93
1013.93	1428.61
1014.222	1423.63
1014.514	1415.05
1014.807	1424.09
1015.099	1395.39
1015.391	1376.18
1015.683	1365.11
1015.976	1373.69
1016.268	1379.12
1016.56	1371.66
1016.851	1353.13
1017.143	1371.21
1017.435	1340.93
1017.727	1334.37
1018.018	1336.86
1018.31	1319.46
1018.602	1334.15
1018.893	1302.96
1019.185	1287.59
1019.476	1333.24
1019.767	1268.16
1020.058	1271.1
1020.35	1253.24
1020.641	1253.02
1020.932	1234.49
1021.223	1223.64
1021.514	1238.33
1021.804	1220.02
1022.095	1220.7
1022.386	1205.56
1022.677	1179.12
1022.967	1196.75
1023.258	1183.19
1023.548	1169.18
1023.839	1144.55
1024.129	1128.95
1024.419	1136.41
1024.709	1155.62
1025	1150.2
1025.29	1140.48
1025.58	1113.13
1025.87	1122.85
1026.16	1112.91
1026.449	1093.25
1026.739	1088.05
1027.029	1104.1
1027.319	1099.8
1027.608	1095.96
1027.898	1081.95
1028.187	1101.61
1028.477	1083.3
1028.766	1044.89
1029.055	1040.82
1029.344	1027.04
1029.634	1021.39
1029.923	1039.24
1030.212	1007.37
1030.501	1002.63
1030.79	1009.18
1031.078	1010.09
1031.367	995.85
1031.656	982.29
1031.945	971.9
1032.233	982.52
1032.522	959.24
1032.81	937.09
1033.099	969.64
1033.387	950.88
1033.675	950.43
1033.963	927.38
1034.251	949.75
1034.54	937.55
1034.828	882.86
1035.116	917.21
1035.403	919.24
1035.691	888.06
1035.979	912.24
1036.267	884.89
1036.554	906.59
1036.842	897.1
1037.129	869.53
1037.417	880.6
1037.704	864.78
1037.992	890.32
1038.279	848.73
1038.566	851.45
1038.853	851.45
1039.14	851.45
