Data from hue_70_FLMS001491_54.txt Node
Date: Mon Feb 06 15:21:07 GMT 2017
User: dcchb
Spectrometer: FLMS00149
Trigger mode: 0
Integration Time (sec): 2.000000E-2
Scans to average: 10
Electric dark correction enabled: true
Nonlinearity correction enabled: false
Boxcar width: 0
XAxis mode: Wavelengths
Number of Pixels in Spectrum: 2048
>>>>>Begin Spectral Data<<<<<
341.393	-18.83
341.776	-18.83
342.16	-18.83
342.543	-70.8
342.927	-64.25
343.31	-57.24
343.693	-73.06
344.077	-59.73
344.46	-59.28
344.843	-49.11
345.226	-31.93
345.61	-32.84
345.993	-28.09
346.376	-14.08
346.759	23.43
347.142	19.59
347.525	51.45
347.908	62.3
348.291	76.09
348.674	68.18
349.057	104.33
349.44	139.59
349.823	146.14
350.206	170.77
350.588	199.02
350.971	207.38
351.354	222.07
351.737	243.76
352.119	238.57
352.502	266.59
352.884	266.36
353.267	280.6
353.65	281.73
354.032	301.62
354.414	303.42
354.797	300.26
355.179	302.52
355.562	329.19
355.944	343.42
356.326	336.64
356.709	332.12
357.091	347.04
357.473	338.9
357.855	335.97
358.238	330.54
358.62	323.99
359.002	345.01
359.384	352.24
359.766	343.2
360.148	340.71
360.53	336.19
360.912	340.94
361.294	320.82
361.676	333.93
362.057	332.35
362.439	319.02
362.821	331.9
363.203	311.79
363.584	331.22
363.966	327.15
364.348	312.46
364.729	324.67
365.111	318.79
365.493	306.81
365.874	323.99
366.256	313.37
366.637	335.06
367.019	336.64
367.4	320.82
367.781	290.54
368.163	316.08
368.544	324.21
368.925	313.82
369.306	316.76
369.688	295.06
370.069	302.75
370.45	315.4
370.831	320.82
371.212	326.93
371.593	325.57
371.974	314.05
372.355	288.96
372.736	306.14
373.117	314.72
373.498	310.66
373.879	302.52
374.26	316.98
374.641	315.85
375.021	319.69
375.402	299.58
375.783	302.97
376.163	320.15
376.544	323.31
376.925	330.54
377.305	312.01
377.686	314.72
378.066	313.82
378.447	307.04
378.827	319.92
379.208	322.18
379.588	314.72
379.968	348.62
380.349	314.95
380.729	329.86
381.109	330.32
381.489	317.89
381.87	338.45
382.25	323.08
382.63	338.9
383.01	336.87
383.39	335.29
383.77	341.39
384.15	333.25
384.53	361.95
384.91	334.16
385.29	323.99
385.67	345.68
386.049	359.24
386.429	336.64
386.809	336.19
387.189	344.55
387.568	340.49
387.948	350.65
388.328	357.66
388.707	346.59
389.087	335.97
389.466	340.03
389.846	350.88
390.225	350.65
390.605	351.56
390.984	354.5
391.363	351.33
391.743	349.3
392.122	346.36
392.501	373.7
392.881	369.64
393.26	341.16
393.639	352.24
394.018	352.46
394.397	342.29
394.776	377.32
395.155	367.83
395.534	385.23
395.913	354.95
396.292	387.72
396.671	376.87
397.05	362.18
397.429	369.41
397.808	371.9
398.186	376.19
398.565	356.76
398.944	376.64
399.323	371.9
399.701	386.13
400.08	383.65
400.458	385.46
400.837	392.46
401.215	383.65
401.594	390.65
401.972	389.75
402.351	368.28
402.729	370.32
403.107	392.46
403.486	402.63
403.864	376.87
404.242	390.2
404.62	385
404.999	368.51
405.377	397.21
405.755	405.12
406.133	408.51
406.511	390.88
406.889	405.79
407.267	403.76
407.645	410.99
408.023	422.97
408.401	414.16
408.779	409.86
409.156	409.41
409.534	408.96
409.912	410.99
410.29	436.08
410.667	420.71
411.045	419.81
411.422	422.97
411.8	420.26
412.178	414.61
412.555	458.67
412.933	443.76
413.31	451.22
413.687	454.38
414.065	459.35
414.442	444.89
414.819	454.61
415.197	453.02
415.574	458
415.951	454.38
416.328	455.96
416.705	464.55
417.082	470.65
417.46	458.67
417.837	466.13
418.214	480.59
418.591	481.27
418.967	485.79
419.344	504.1
419.721	488.05
420.098	475.4
420.475	506.36
420.852	498.45
421.228	489.86
421.605	504.32
421.982	519.92
422.358	487.83
422.735	522.85
423.111	496.87
423.488	508.39
423.864	497.54
424.241	514.94
424.617	518.11
424.994	522.18
425.37	520.59
425.746	530.08
426.123	541.16
426.499	526.47
426.875	548.16
427.251	535.28
427.627	535.51
428.003	519.69
428.379	528.28
428.756	546.81
429.132	567.6
429.507	569.86
429.883	564.21
430.259	566.92
430.635	566.02
431.011	574.38
431.387	573.47
431.763	567.37
432.138	590.65
432.514	613.25
432.89	589.97
433.265	612.57
433.641	614.83
434.016	620.7
434.392	606.47
434.767	609.63
435.143	598.78
435.518	611.89
435.894	602.85
436.269	647.14
436.644	633.81
437.02	640.36
437.395	644.88
437.77	648.5
438.145	632.46
438.52	646.01
438.895	658.22
439.271	668.16
439.646	681.27
440.021	647.14
440.395	676.07
440.77	686.92
441.145	702.74
441.52	690.76
441.895	703.41
442.27	706.8
442.645	683.08
443.019	722.85
443.394	717.42
443.769	707.26
444.143	718.55
444.518	732.57
444.892	720.59
445.267	697.76
445.641	719.91
446.016	703.87
446.39	729.63
446.764	727.37
447.139	715.16
447.513	721.72
447.887	752.9
448.262	765.33
448.636	746.8
449.01	760.81
449.384	763.3
449.758	760.36
450.132	775.28
450.506	755.62
450.88	772.79
451.254	778.21
451.628	787.93
452.002	803.75
452.376	804.2
452.75	785.22
453.123	822.73
453.497	834.26
453.871	801.72
454.244	838.33
454.618	851.21
454.992	854.37
455.365	866.35
455.739	862.05
456.112	876.06
456.486	879.91
456.859	857.99
457.232	893.24
457.606	906.35
457.979	922.39
458.352	916.52
458.725	911.09
459.099	942.05
459.472	960.13
459.845	975.5
460.218	990.86
460.591	991.32
460.964	977.53
461.337	1005.55
461.71	1014.82
462.083	1018.89
462.456	1070.86
462.829	1051.88
463.201	1064.08
463.574	1072.44
463.947	1076.06
464.32	1118.54
464.692	1111.31
465.065	1109.5
465.438	1154.7
465.81	1183.4
466.183	1166.23
466.555	1191.54
466.928	1193.8
467.3	1191.08
467.672	1205.55
468.045	1265.66
468.417	1269.5
468.789	1276.73
469.161	1307.24
469.534	1318.99
469.906	1379.33
470.278	1370.51
470.65	1369.61
471.022	1428.14
471.394	1456.16
471.766	1454.13
472.138	1478.99
472.51	1556.27
472.882	1573.22
473.253	1569.61
473.625	1645.54
473.997	1647.57
474.369	1668.36
474.74	1694.57
475.112	1751.3
475.484	1824.97
475.855	1858.86
476.227	1882.82
476.598	1936.83
476.97	1985.64
477.341	2036.03
477.713	2104.51
478.084	2129.14
478.455	2189.7
478.827	2252.07
479.198	2338.85
479.569	2344.05
479.94	2468.57
480.311	2488.23
480.682	2568.22
481.053	2669.01
481.424	2750.37
481.795	2801.44
482.166	2856.58
482.537	2985.39
482.908	3064.48
483.279	3136.34
483.65	3213.63
484.021	3307.64
484.391	3442.1
484.762	3499.72
485.133	3577.91
485.503	3715.54
485.874	3809.09
486.244	3927.74
486.615	4059.94
486.985	4119.82
487.356	4227.16
487.726	4391
488.097	4520.04
488.467	4560.04
488.837	4739.69
489.207	4838.9
489.578	5042.96
489.948	5126.12
490.318	5235.95
490.688	5353.01
491.058	5447.02
491.428	5640.46
491.798	5779.21
492.168	5934.69
492.538	6079.09
492.908	6175.59
493.278	6345.07
493.648	6431.85
494.017	6520.66
494.387	6733.31
494.757	6859.41
495.126	6968.56
495.496	7071.16
495.866	7245.16
496.235	7344.14
496.605	7543.01
496.974	7620.29
497.344	7770.35
497.713	7912.72
498.082	8064.35
498.452	8238.13
498.821	8335.53
499.19	8434.06
499.559	8594.51
499.928	8726.03
500.298	8854.84
500.667	9007.83
501.036	8997.21
501.405	9244.43
501.774	9258.22
502.143	9392.45
502.512	9556.29
502.88	9661.14
503.249	9735.27
503.618	9834.47
503.987	10010.74
504.356	10064.3
504.724	10297.06
505.093	10338.64
505.462	10442.14
505.83	10537.05
506.199	10664.73
506.567	10855.69
506.936	10859.08
507.304	11079.41
507.672	11163.25
508.041	11274.21
508.409	11410.25
508.777	11568.21
509.145	11662.9
509.514	11623.13
509.882	11780.41
510.25	11925.27
510.618	11992.83
510.986	12066.28
511.354	12210
511.722	12399.83
512.09	12528.64
512.458	12483.22
512.826	12642.53
513.193	12671.91
513.561	12725.02
513.929	12899.48
514.297	12998.68
514.664	13181.5
515.032	13208.4
515.4	13273.93
515.767	13451.55
516.135	13527.94
516.502	13411.55
516.869	13642.06
517.237	13726.57
517.604	13755.5
517.972	13944.2
518.339	14009.73
518.706	14080.46
519.073	14108.26
519.44	14248.14
519.808	14364.07
520.175	14369.72
520.542	14528.59
520.909	14610.17
521.276	14635.48
521.643	14825.75
522.009	14952.98
522.376	14982.59
522.743	15049.48
523.11	15128.8
523.477	15238.4
523.843	15403.59
524.21	15469.35
524.577	15541.44
524.943	15758.39
525.31	15705.96
525.676	15822.79
526.043	15889
526.409	15969
526.776	16153.63
527.142	16203.8
527.508	16325.6
527.874	16367.18
528.241	16485.6
528.607	16477.91
528.973	16679.49
529.339	16512.49
529.705	16744.12
530.071	16854.4
530.437	16922.87
530.803	17013.72
531.169	16978.47
531.535	16900.73
531.901	17092.14
532.267	17154.51
532.632	17243.54
532.998	17270.89
533.364	17416.19
533.73	17271.11
534.095	17476.53
534.461	17466.14
534.826	17455.74
535.192	17444.22
535.557	17714.27
535.923	17639.01
536.288	17638.56
536.653	17741.38
537.019	17676.75
537.384	17731.21
537.749	17811.44
538.114	17876.52
538.479	17844.43
538.845	17848.73
539.21	17783.19
539.575	17905.45
539.94	17929.63
540.305	18017.31
540.67	17940.93
541.034	18026.35
541.399	17975.95
541.764	18084.88
542.129	18074.48
542.494	18146.12
542.858	18102.28
543.223	18146.57
543.587	18228.6
543.952	18113.13
544.316	18184.76
544.681	18250.3
545.045	18295.72
545.41	18328.94
545.774	18312.22
546.138	18298.21
546.503	18293.01
546.867	18234.25
547.231	18484.64
547.595	18427.92
547.959	18459.11
548.324	18460.91
548.688	18519.89
549.052	18454.13
549.416	18484.64
549.779	18559.22
550.143	18538.88
550.507	18669.04
550.871	18620.68
551.235	18660.46
551.599	18643.28
551.962	18658.42
552.326	18716.5
552.689	18764.63
553.053	18695.93
553.417	18801.24
553.78	18915.14
554.143	18898.64
554.507	18908.58
554.87	18962.82
555.234	18974.57
555.597	18975.02
555.96	19001.69
556.323	19028.81
556.686	19078.98
557.05	19070.16
557.413	19151.74
557.776	19236.94
558.139	19204.62
558.502	19314.68
558.865	19323.72
559.228	19400.55
559.59	19453.43
559.953	19387.67
560.316	19607.55
560.679	19652.52
561.041	19676.7
561.404	19718.96
561.767	19794.66
562.129	19662.46
562.492	19916.02
562.854	19873.98
563.217	19990.82
563.579	19979.07
563.941	20050.48
564.304	20171.6
564.666	20233.52
565.028	20330.02
565.39	20271.49
565.753	20363.46
566.115	20532.04
566.477	20470.13
566.839	20593.74
567.201	20620.63
567.563	20591.93
567.925	20795.09
568.287	20739.27
568.648	20730.01
569.01	20846.16
569.372	21010.22
569.734	20977.23
570.095	21103.33
570.457	21033.5
570.819	21079.38
571.18	21097
571.542	21230.33
571.903	21191.01
572.265	21365.7
572.626	21331.35
572.987	21334.74
573.349	21403.21
573.71	21581.51
574.071	21513.04
574.432	21602.3
574.794	21697.66
575.155	21644.11
575.516	21648.4
575.877	21726.59
576.238	21666.03
576.599	21830.54
576.96	21809.53
577.32	21838.23
577.681	21897.21
578.042	21882.74
578.403	21791.22
578.763	21974.94
579.124	21965
579.485	22041.61
579.845	22168.84
580.206	21995.06
580.566	22022.18
580.927	22054.04
581.287	22110.53
581.648	21979.24
582.008	22187.59
582.368	22080.93
582.728	22293.58
583.089	22209.06
583.449	22124.09
583.809	22148.5
584.169	22127.94
584.529	22131.78
584.889	22225.56
585.249	22117.31
585.609	22063.76
585.969	22252.9
586.329	22073.02
586.688	22200.02
587.048	22129.07
587.408	22204.54
587.768	22095.62
588.127	22094.04
588.487	22093.81
588.846	22280.02
589.206	22065.11
589.565	22073.47
589.925	22126.58
590.284	22137.88
590.643	22151.44
591.003	22223.75
591.362	22272.11
591.721	22164.77
592.08	22172.68
592.44	22111.44
592.799	22231.44
593.158	22231.44
593.517	22139.69
593.876	22299.68
594.235	22202.74
594.593	22121.61
594.952	22167.48
595.311	22263.75
595.67	22255.62
596.029	22340.36
596.387	22378.55
596.746	22322.51
597.104	22179.69
597.463	22242.96
597.822	22372
598.18	22135.84
598.538	22240.02
598.897	22308.5
599.255	22064.43
599.613	22549.17
599.972	22294.94
600.33	22371.54
600.688	22330.42
601.046	22416.06
601.404	22402.73
601.762	22368.61
602.12	22488.6
602.478	22535.38
602.836	22466.91
603.194	22510.52
603.552	22426.68
603.91	22412.22
604.268	22620.35
604.625	22498.77
604.983	22507.59
605.341	22441.37
605.698	22548.72
606.056	22623.06
606.413	22537.87
606.771	22670.75
607.128	22761.36
607.485	22553.01
607.843	22582.39
608.2	22739.9
608.557	22749.16
608.914	22830.97
609.272	22867.12
609.629	22934.24
609.986	22855.6
610.343	22878.2
610.7	23012.88
611.057	22983.51
611.414	22978.99
611.771	22940.34
612.127	23070.06
612.484	23079.77
612.841	23178.53
613.198	22999.1
613.554	23177.4
613.911	23258.3
614.267	23236.15
614.624	23256.72
614.98	23299.2
615.337	23327.45
615.693	23395.7
616.05	23312.08
616.406	23420.78
616.762	23363.38
617.118	23444.96
617.475	23365.87
617.831	23533.1
618.187	23536.26
618.543	23480.89
618.899	23684.73
619.255	23606.54
619.611	23605.86
619.967	23664.62
620.323	23669.36
620.678	23559.99
621.034	23630.04
621.39	23716.82
621.746	23594.11
622.101	23763.15
622.457	23746.42
622.812	23748.23
623.168	23830.26
623.523	23862.58
623.879	23844.05
624.234	23679.98
624.589	23838.17
624.945	23820.77
625.3	23853.09
625.655	23839.53
626.01	23815.8
626.365	23923.59
626.72	23676.82
627.075	23819.64
627.43	23796.14
627.785	23693.09
628.14	23848.79
628.495	23759.08
628.85	23773.09
629.205	23777.38
629.559	23844.95
629.914	23748.23
630.269	23842.69
630.623	23742.13
630.978	23657.39
631.332	23809.02
631.687	23832.52
632.041	23844.05
632.396	23822.58
632.75	23630.27
633.104	23697.39
633.459	23609.7
633.813	23675.24
634.167	23568.12
634.521	23520.67
634.875	23580.55
635.229	23536.94
635.583	23453.78
635.937	23533.1
636.291	23467.33
636.645	23381.46
636.999	23539.65
637.352	23457.84
637.706	23323.61
638.06	23458.97
638.413	23331.97
638.767	23376.49
639.121	23393.89
639.474	23198.87
639.828	23212.88
640.181	23218.3
640.534	23205.87
640.888	23214.46
641.241	23157.29
641.594	23130.85
641.947	23216.95
642.301	23170.39
642.654	23136.72
643.007	23174.91
643.36	23077.74
643.713	23073.67
644.066	23203.39
644.419	23089.94
644.771	22847.46
645.124	22728.82
645.477	22663.74
645.83	22574.03
646.182	22394.59
646.535	22256.52
646.888	22307.59
647.24	22418.55
647.593	22336.07
647.945	22400.92
648.298	22279.8
648.65	22162.74
649.002	22092.91
649.355	22286.8
649.707	22211.55
650.059	22338.78
650.411	22602.27
650.763	22680.01
651.115	22767.24
651.467	22810.4
651.819	22814.24
652.171	22860.35
652.523	22672.55
652.875	22665.55
653.227	22561.6
653.578	22866.67
653.93	22745.77
654.282	22523.18
654.633	22530.18
654.985	22672.33
655.337	22590.52
655.688	22688.82
656.039	22748.26
656.391	22539.22
656.742	22564.08
657.094	22590.3
657.445	22698.99
657.796	22603.63
658.147	22669.62
658.498	22564.08
658.849	22643.4
659.2	22676.62
659.551	22585.1
659.902	22676.85
660.253	22636.17
660.604	22728.37
660.955	22567.92
661.306	22624.19
661.656	22557.75
662.007	22639.33
662.358	22610.18
662.708	22544.2
663.059	22690.86
663.409	22546.68
663.76	22617.64
664.11	22639.11
664.461	22632.1
664.811	22546
665.161	22607.47
665.511	22518.89
665.862	22581.26
666.212	22678.43
666.562	22663.74
666.912	22525.66
667.262	22627.36
667.612	22652.89
667.962	22639.56
668.312	22521.82
668.662	22587.81
669.011	22563.18
669.361	22614.7
669.711	22552.56
670.06	22490.64
670.41	22451.77
670.76	22543.07
671.109	22604.76
671.459	22477.76
671.808	22452.9
672.157	22522.73
672.507	22392.79
672.856	22392.56
673.205	22361.15
673.554	22526.34
673.904	22408.83
674.253	22523.4
674.602	22446.34
674.951	22035.06
675.3	22039.58
675.649	22289.96
675.998	22217.88
676.346	22336.07
676.695	22386.69
677.044	22125.22
677.393	22293.58
677.741	22276.18
678.09	22282.06
678.438	22181.95
678.787	22232.79
679.135	22163.19
679.484	22063.76
679.832	22112.12
680.181	22033.25
680.529	22061.04
680.877	22013.59
681.225	22016.75
681.573	21986.24
681.922	22004.77
682.27	21830.77
682.618	21826.7
682.966	21755.06
683.314	21879.58
683.661	21728.4
684.009	21618.8
684.357	21596.2
684.705	21611.11
685.053	21628.29
685.4	21572.02
685.748	21517.56
686.095	21421.74
686.443	21327.28
686.79	21307.39
687.138	21372.7
687.485	21380.61
687.832	21218.58
688.18	21174.06
688.527	21188.52
688.874	21127.74
689.221	21073.05
689.568	21017
689.915	20937.46
690.262	21014.52
690.609	20974.97
690.956	20807.07
691.303	20912.15
691.65	20729.1
691.997	20784.47
692.344	20540.18
692.69	20536.79
693.037	20551.48
693.383	20353.74
693.73	20441.43
694.077	20378.38
694.423	20321.65
694.769	20246.4
695.116	20206.4
695.462	20099.97
695.808	19983.81
696.155	20048.22
696.501	20027.88
696.847	19984.71
697.193	19807.54
697.539	19835.79
697.885	19719.41
698.231	19633.76
698.577	19571.62
698.923	19564.39
699.269	19443.49
699.614	19363.04
699.96	19292.53
700.306	19316.71
700.651	19264.28
700.997	19167.11
701.342	19165.53
701.688	18993.78
702.033	18968.92
702.379	18953.33
702.724	18889.15
703.069	18828.59
703.415	18713.11
703.76	18677.4
704.105	18719.66
704.45	18665.65
704.795	18528.03
705.14	18514.7
705.485	18446.45
705.83	18355.38
706.175	18348.15
706.52	18444.19
706.865	18233.57
707.209	18094.14
707.554	18154.71
707.899	18250.07
708.243	18102.73
708.588	18147.47
708.932	17930.98
709.277	17928.72
709.621	17948.61
709.966	17852.34
710.31	17852.79
710.654	17692.8
710.998	17747.49
711.342	17729.86
711.687	17644.21
712.031	17545.68
712.375	17556.3
712.719	17489.86
713.063	17501.39
713.407	17586.36
713.75	17451
714.094	17360.83
714.438	17411.22
714.782	17349.98
715.125	17321.28
715.469	17292.81
715.812	17148.41
716.156	17150.66
716.499	17138.01
716.843	17166.94
717.186	17030.44
717.53	17082.87
717.873	17109.99
718.216	17138.01
718.559	16965.81
718.902	16841.52
719.246	16917.22
719.589	16770.79
719.932	16901.63
720.275	16836.77
720.617	16728.08
720.96	16739.15
721.303	16778.7
721.646	16809.88
721.989	16686.27
722.331	16676.33
722.674	16665.93
723.016	16767.4
723.359	16603.79
723.701	16590
724.044	16488.76
724.386	16427.07
724.729	16504.81
725.071	16478.14
725.413	16433.85
725.755	16518.82
726.097	16401.31
726.439	16225.94
726.782	16358.14
727.124	16424.13
727.465	16329.9
727.807	16305.04
728.149	16356.34
728.491	16305.72
728.833	16222.55
729.175	16152.73
729.516	16201.54
729.858	16096.46
730.199	16273.63
730.541	16208.54
730.882	16151.6
731.224	16270.69
731.565	16163.35
731.906	16153.18
732.248	16129
732.589	15959.51
732.93	16004.48
733.271	16024.82
733.612	16073.63
733.953	16067.76
734.294	16030.47
734.635	15980.75
734.976	16086.74
735.317	16004.25
735.658	15949.34
735.999	15973.97
736.339	15950.92
736.68	15988.44
737.021	15921.09
737.361	15863.47
737.702	16056.68
738.042	15974.42
738.383	15859.4
738.723	15964.93
739.063	15863.92
739.404	15935.56
739.744	15924.71
740.084	15822.34
740.424	15843.13
740.764	15866.86
741.104	15929.68
741.444	15856.24
741.784	15743.02
742.124	15871.83
742.464	15895.1
742.804	15833.64
743.143	15790.47
743.483	15870.47
743.823	15792.51
744.162	15818.04
744.502	15898.27
744.841	15837.93
745.181	15831.38
745.52	15894.65
745.86	15921.77
746.199	15952.96
746.538	15980.3
746.877	15991.6
747.216	16034.31
747.556	15986.4
747.895	16054.42
748.234	16075.44
748.573	16052.61
748.911	16120.64
749.25	16148.66
749.589	16133.29
749.928	16279.28
750.267	16293.06
750.605	16277.92
750.944	16312.49
751.283	16322.66
751.621	16426.62
751.96	16443.11
752.298	16357.69
752.636	16559.27
752.975	16464.13
753.313	16656.44
753.651	16770.56
753.989	16806.04
754.327	16836.77
754.666	16893.95
755.004	16908.64
755.342	17020.05
755.679	17113.6
756.017	17150.89
756.355	17164.45
756.693	17241.96
757.031	17333.03
757.368	17311.11
757.706	17407.16
758.044	17416.42
758.381	17539.58
758.719	17590.2
759.056	17650.54
759.394	17740.48
759.731	17683.31
760.068	17848.73
760.405	17824.32
760.743	17781.16
761.08	17986.58
761.417	17922.4
761.754	18046.01
762.091	18010.76
762.428	18133.24
762.765	18120.81
763.102	18242.61
763.438	18206.91
763.775	18266.34
764.112	18228.15
764.449	18357.41
764.785	18385.21
765.122	18305.21
765.458	18340.92
765.795	18327.81
766.131	18427.92
766.467	18393.12
766.804	18474.25
767.14	18424.3
767.476	18511.76
767.812	18550.18
768.148	18573.68
768.485	18549.95
768.821	18472.21
769.157	18531.87
769.492	18563.28
769.828	18522.61
770.164	18371.65
770.5	18457.3
770.836	18481.25
771.171	18464.08
771.507	18431.99
771.842	18377.3
772.178	18420.69
772.513	18360.8
772.849	18415.04
773.184	18328.94
773.519	18315.15
773.855	18383.4
774.19	18220.92
774.525	18211.88
774.86	18243.74
775.195	18307.7
775.53	18173.69
775.865	18081.49
776.2	17982.96
776.535	17897.09
776.87	17995.16
777.205	18025.9
777.539	17935.05
777.874	17959.01
778.209	17775.96
778.543	17835.62
778.878	17693.02
779.212	17746.36
779.547	17699.35
779.881	17688.73
780.215	17602.86
780.55	17635.17
780.884	17457.1
781.218	17484.67
781.552	17482.41
781.886	17368.29
782.22	17383.88
782.554	17190.89
782.888	17066.83
783.222	17083.77
783.556	17035.19
783.889	17048.97
784.223	16944.57
784.557	16924.23
784.89	16945.47
785.224	16808.98
785.557	16749.32
785.891	16674.29
786.224	16780.73
786.558	16667.74
786.891	16632.03
787.224	16528.99
787.557	16470.68
787.891	16555.88
788.224	16399.27
788.557	16440.85
788.89	16335.77
789.223	16345.04
789.556	16226.4
789.888	16143.69
790.221	16166.74
790.554	16009.45
790.887	16049.45
791.219	16053.52
791.552	15918.15
791.884	15840.64
792.217	15925.84
792.549	15783.02
792.882	15710.7
793.214	15635.68
793.546	15714.54
793.879	15540.54
794.211	15504.38
794.543	15499.18
794.875	15499.63
795.207	15474.1
795.539	15397.94
795.871	15337.38
796.203	15230.72
796.535	15193.2
796.867	15149.59
797.198	15176.93
797.53	15145.52
797.862	15017.84
798.193	15010.38
798.525	14942.14
798.856	14907.11
799.188	14783.72
799.519	14789.82
799.85	14666.21
800.182	14635.25
800.513	14667.57
800.844	14496.5
801.175	14675.48
801.506	14565.65
801.837	14585.53
802.168	14479.32
802.499	14415.37
802.83	14352.55
803.161	14272.55
803.491	14294.92
803.822	14332.66
804.153	14224.87
804.483	14144.64
804.814	14074.36
805.145	14052.67
805.475	14126.79
805.805	14012.67
806.136	14043.4
806.466	13975.83
806.796	13975.16
807.126	13867.14
807.457	13778.32
807.787	13835.27
808.117	13828.94
808.447	13773.13
808.777	13738.1
809.107	13693.13
809.436	13667.37
809.766	13719.57
810.096	13629.63
810.426	13496.3
810.755	13534.71
811.085	13460.82
811.414	13533.81
811.744	13339.47
812.073	13388.73
812.403	13296.3
812.732	13254.5
813.061	13277.55
813.39	13148.74
813.719	13165.23
814.049	13234.84
814.378	13170.66
814.707	13132.24
815.036	13108.51
815.365	13028.06
815.693	12934.5
816.022	13017.44
816.351	12876.65
816.68	12878.69
817.008	12921.17
817.337	12752.36
817.665	12699.48
817.994	12823.1
818.322	12748.75
818.651	12719.59
818.979	12610.22
819.307	12710.33
819.636	12569.77
819.964	12604.34
820.292	12641.86
820.62	12544.01
820.948	12528.64
821.276	12558.47
821.604	12562.99
821.932	12483.22
822.259	12512.82
822.587	12509.2
822.915	12554.4
823.243	12520.05
823.57	12485.02
823.898	12455.42
824.225	12444.8
824.553	12448.87
824.88	12515.53
825.207	12504.46
825.535	12473.73
825.862	12445.03
826.189	12382.43
826.516	12531.58
826.843	12545.81
827.17	12549.2
827.497	12503.33
827.824	12442.99
828.151	12520.5
828.478	12450
828.805	12442.54
829.131	12468.08
829.458	12483.67
829.785	12395.08
830.111	12382.2
830.438	12485.93
830.764	12468.08
831.09	12512.14
831.417	12413.39
831.743	12510.79
832.069	12422.2
832.395	12340.4
832.722	12388.3
833.048	12352.6
833.374	12362.54
833.7	12240.96
834.026	12324.13
834.351	12379.72
834.677	12275.09
835.003	12283.67
835.329	12343.33
835.654	12325.93
835.98	12276.67
836.306	12301.07
836.631	12203.68
836.956	12241.87
837.282	12217.91
837.607	12197.57
837.932	12138.59
838.258	12255.65
838.583	12084.81
838.908	12009.33
839.233	12096.33
839.558	12008.88
839.883	12017.24
840.208	11944.02
840.533	12022.66
840.858	11948.99
841.182	12008.65
841.507	11876.23
841.832	11858.83
842.156	11796.46
842.481	11835.78
842.805	11777.92
843.13	11759.39
843.454	11734.08
843.778	11694.76
844.103	11755.1
844.427	11717.59
844.751	11645.5
845.075	11645.05
845.399	11649.57
845.723	11577.25
846.047	11528.67
846.371	11496.35
846.695	11534.09
847.019	11396.01
847.343	11339.74
847.666	11329.57
847.99	11199.18
848.313	11215.91
848.637	11181.56
848.96	11156.92
849.284	11128
849.607	11005.52
849.931	11007.1
850.254	10961.45
850.577	10858.4
850.9	10758.06
851.223	10837.84
851.546	10751.51
851.869	10666.32
852.192	10713.09
852.515	10567.56
852.838	10629.25
853.161	10634.9
853.483	10572.76
853.806	10494.79
854.129	10468.58
854.451	10441.46
854.774	10371.86
855.096	10323.5
855.419	10341.35
855.741	10290.96
856.063	10227.23
856.385	10197.85
856.708	10177.97
857.03	10104.3
857.352	10177.97
857.674	10125.54
857.996	10125.31
858.318	10016.16
858.64	9990.85
858.961	9994.69
859.283	9964.87
859.605	9917.41
859.926	9934.13
860.248	9820.24
860.57	9802.84
860.891	9807.81
861.212	9752.89
861.534	9759.45
861.855	9734.36
862.176	9761.93
862.498	9713.8
862.819	9767.36
863.14	9702.73
863.461	9612.56
863.782	9585.67
864.103	9566.68
864.424	9616.4
864.745	9620.47
865.065	9617.53
865.386	9503.41
865.707	9510.19
866.027	9513.8
866.348	9531.66
866.668	9567.36
866.989	9429.29
867.309	9379.57
867.63	9440.36
867.95	9407.82
868.27	9325.79
868.59	9354.71
868.91	9388.84
869.23	9339.34
869.55	9301.38
869.87	9334.37
870.19	9325.79
870.51	9311.32
870.83	9342.51
871.15	9234.04
871.469	9226.13
871.789	9236.75
872.109	9234.71
872.428	9192.91
872.748	9164.43
873.067	9180.03
873.386	9203.53
873.706	9230.65
874.025	9081.72
874.344	9107.71
874.663	9122.85
874.982	9077.43
875.301	9081.72
875.62	9037.21
875.939	8973.25
876.258	9051.89
876.577	8991.78
876.896	8977.55
877.214	8906.81
877.533	8981.84
877.852	9032.46
878.17	8978.68
878.489	8901.62
878.807	8964.21
879.125	8952.24
879.444	8854.61
879.762	8839.92
880.08	8881.05
880.398	8772.35
880.716	8806.25
881.034	8794.5
881.352	8784.33
881.67	8752.02
881.988	8769.64
882.306	8741.62
882.624	8705.92
882.941	8663.88
883.259	8611.23
883.577	8577.56
883.894	8564.45
884.212	8632.47
884.529	8642.41
884.846	8556.77
885.164	8476.54
885.481	8478.12
885.798	8489.2
886.115	8488.52
886.432	8456.66
886.75	8427.28
887.067	8413.95
887.383	8371.69
887.7	8429.31
888.017	8335.76
888.334	8369.2
888.651	8321.97
888.967	8269.99
889.284	8321.74
889.6	8251.92
889.917	8180.51
890.233	8178.92
890.55	8224.35
890.866	8148.87
891.182	8153.84
891.498	8116.1
891.815	8081.98
892.131	8043.56
892.447	8046.95
892.763	8018.93
893.079	7957.46
893.395	7943.9
893.71	7955.88
894.026	7923.34
894.342	7950
894.657	7878.82
894.973	7818.03
895.289	7831.36
895.604	7807.41
895.92	7745.94
896.235	7726.28
896.55	7653.97
896.865	7723.57
897.181	7650.8
897.496	7688.77
897.811	7595.66
898.126	7588.66
898.441	7573.74
898.756	7579.84
899.071	7515.66
899.386	7544.14
899.7	7488.32
900.015	7411.03
900.33	7355.22
900.644	7359.96
900.959	7341.88
901.273	7317.03
901.588	7256.46
901.902	7230.02
902.216	7214.88
902.531	7151.83
902.845	7187.76
903.159	7206.75
903.473	7098.27
903.787	7114.09
904.101	7099.4
904.415	7058.73
904.729	7070.48
905.042	6967.2
905.356	6978.95
905.67	6948
905.984	6940.99
906.297	6901.67
906.611	6855.12
906.924	6860.54
907.237	6842.24
907.551	6824.61
907.864	6779.86
908.177	6733.09
908.491	6716.14
908.804	6692.86
909.117	6623.03
909.43	6619.19
909.743	6612.86
910.056	6617.61
910.368	6541.9
910.681	6539.42
910.994	6459.65
911.307	6511.62
911.619	6419.42
911.932	6412.64
912.244	6356.15
912.557	6374.9
912.869	6378.52
913.181	6314.34
913.494	6301.46
913.806	6246.54
914.118	6298.29
914.43	6183.95
914.742	6154.12
915.054	6166.77
915.366	6154.8
915.678	6127.45
915.99	6064.63
916.302	6051.07
916.613	6015.14
916.925	6004.29
917.236	5968.59
917.548	5989.6
917.859	5969.26
918.171	5910.28
918.482	5841.81
918.794	5836.16
919.105	5837.52
919.416	5848.59
919.727	5788.48
920.038	5766.33
920.349	5722.94
920.66	5740.8
920.971	5708.93
921.282	5698.76
921.593	5630.74
921.903	5645.43
922.214	5611.76
922.525	5618.76
922.835	5522.5
923.146	5555.26
923.456	5538.09
923.767	5541.25
924.077	5529.05
924.387	5470.75
924.697	5435.49
925.008	5434.36
925.318	5337.19
925.628	5445.89
925.938	5362.5
926.248	5282.5
926.558	5290.41
926.867	5303.07
927.177	5233.24
927.487	5222.62
927.796	5198.44
928.106	5181.49
928.416	5176.06
928.725	5199.11
929.034	5109.63
929.344	5117.76
929.653	5108.04
929.962	5009.52
930.271	5035.5
930.581	5018.33
930.89	4986.92
931.199	4982.85
931.508	4957.09
931.817	4943.3
932.125	4964.54
932.434	4936.75
932.743	4816.07
933.051	4838.22
933.36	4866.69
933.669	4825.79
933.977	4823.31
934.286	4775.4
934.594	4756.64
934.902	4645.46
935.21	4743.76
935.519	4698.34
935.827	4680.48
936.135	4654.27
936.443	4640.03
936.751	4624.67
937.059	4636.64
937.367	4602.97
937.674	4591
937.982	4578.57
938.29	4526.59
938.597	4521.62
938.905	4484.56
939.213	4479.81
939.52	4467.83
939.827	4443.88
940.135	4396.2
940.442	4394.62
940.749	4381.74
941.056	4356.43
941.363	4285.01
941.67	4310.55
941.977	4277.78
942.284	4275.07
942.591	4282.98
942.898	4251.57
943.205	4247.05
943.511	4188.97
943.818	4163.89
944.125	4139.93
944.431	4122.08
944.738	4179.03
945.044	4106.49
945.35	4087.28
945.657	4104.68
945.963	4086.38
946.269	4045.92
946.575	4033.72
946.881	4035.08
947.187	3962.31
947.493	3984.68
947.799	3953.27
948.105	3932.71
948.41	3875.31
948.716	3915.76
949.022	3919.83
949.327	3944.23
949.633	3883.67
949.938	3840.28
950.244	3810
950.549	3825.82
950.854	3759.83
951.16	3778.36
951.465	3768.19
951.77	3747.63
952.075	3707.4
952.38	3743.79
952.685	3762.77
952.99	3667.86
953.294	3658.14
953.599	3615.88
953.904	3628.76
954.209	3584.24
954.513	3607.07
954.818	3591.02
955.122	3549.67
955.426	3563.23
955.731	3541.31
956.035	3502.44
956.339	3519.38
956.643	3515.77
956.948	3468.76
957.252	3462.89
957.556	3462.89
957.86	3461.99
958.163	3422.44
958.467	3425.38
958.771	3378.37
959.075	3375.66
959.378	3360.07
959.682	3323.91
959.985	3364.59
960.289	3331.37
960.592	3341.54
960.896	3345.15
961.199	3247.98
961.502	3282.33
961.805	3308.09
962.108	3247.3
962.411	3240.07
962.714	3212.27
963.017	3196.68
963.32	3210.92
963.623	3168.89
963.926	3195.78
964.228	3165.5
964.531	3127.53
964.833	3094.31
965.136	3068.78
965.438	3085.95
965.741	3068.55
966.043	3048.21
966.345	3049.11
966.648	3069.45
966.95	3032.84
967.252	3005.05
967.554	3014.09
967.856	2969.12
968.158	2982.9
968.46	2994.2
968.761	2965.95
969.063	2939.29
969.365	2898.38
969.666	2920.98
969.968	2903.58
970.269	2893.86
970.571	2861.32
970.872	2860.19
971.174	2842.11
971.475	2876.01
971.776	2846.41
972.077	2801.66
972.378	2801.66
972.679	2789.69
972.98	2791.49
973.281	2773.19
973.582	2760.53
973.883	2764.83
974.183	2744.04
974.484	2716.24
974.785	2703.14
975.085	2703.14
975.386	2713.53
975.686	2646.87
975.986	2646.64
976.287	2627.43
976.587	2624.49
976.887	2624.49
977.187	2599.64
977.487	2587.88
977.787	2598.05
978.087	2570.03
978.387	2603.48
978.687	2568.68
978.987	2502.69
979.286	2518.51
979.586	2541.56
979.885	2515.12
980.185	2472.86
980.484	2498.39
980.784	2508.11
981.083	2476.7
981.382	2453.88
981.682	2447.55
981.981	2411.62
982.28	2415.01
982.579	2399.41
982.878	2445.29
983.177	2400.09
983.475	2373.2
983.774	2384.27
984.073	2404.39
984.372	2336.37
984.67	2366.19
984.969	2322.81
985.267	2321.68
985.566	2309.47
985.864	2298.17
986.162	2295.46
986.461	2289.81
986.759	2266.99
987.057	2257.27
987.355	2243.26
987.653	2233.32
987.951	2250.04
988.249	2250.27
988.547	2247.55
988.844	2217.72
989.142	2190.38
989.44	2175.01
989.737	2185.63
990.035	2205.07
990.332	2174.34
990.63	2148.8
990.927	2145.64
991.224	2130.04
991.521	2095.92
991.819	2106.31
992.116	2111.74
992.413	2099.08
992.71	2083.04
993.006	2055.69
993.303	2050.5
993.6	2086.88
993.897	2024.73
994.193	2028.12
994.49	2026.09
994.787	1998.75
995.083	2018.18
995.379	2008.24
995.676	1987.9
995.972	1976.15
996.268	1989.48
996.565	1974.79
996.861	1964.4
997.157	1935.47
997.453	1907
997.749	1974.57
998.044	1919.88
998.34	1924.85
998.636	1887.56
998.932	1881.01
999.227	1859.09
999.523	1878.3
999.818	1875.36
1000.114	1854.57
1000.409	1845.53
1000.704	1827.45
1001	1801.24
1001.295	1807.57
1001.59	1821.35
1001.885	1790.84
1002.18	1779.77
1002.475	1799.2
1002.77	1761.46
1003.065	1756.27
1003.359	1719.66
1003.654	1735.25
1003.949	1760.79
1004.243	1728.02
1004.538	1722.6
1004.832	1707.23
1005.127	1712.65
1005.421	1660.9
1005.715	1694.57
1006.009	1652.09
1006.304	1665.65
1006.598	1641.02
1006.892	1629.49
1007.186	1609.83
1007.48	1623.39
1007.773	1610.28
1008.067	1608.25
1008.361	1588.14
1008.655	1552.2
1008.948	1579.55
1009.242	1565.09
1009.535	1555.59
1009.829	1543.39
1010.122	1530.28
1010.415	1536.61
1010.708	1530.06
1011.001	1524.86
1011.295	1478.99
1011.588	1503.62
1011.881	1475.37
1012.173	1486.9
1012.466	1485.54
1012.759	1455.03
1013.052	1478.99
1013.344	1448.48
1013.637	1445.99
1013.93	1438.08
1014.222	1401.25
1014.514	1438.76
1014.807	1405.09
1015.099	1414.36
1015.391	1410.74
1015.683	1408.71
1015.976	1346.56
1016.268	1413.68
1016.56	1362.61
1016.851	1345.88
1017.143	1360.57
1017.435	1345.43
1017.727	1350.18
1018.018	1344.75
1018.31	1337.97
1018.602	1295.49
1018.893	1313.79
1019.185	1317.41
1019.476	1281.48
1019.767	1288.94
1020.058	1281.7
1020.35	1277.86
1020.641	1264.3
1020.932	1239.67
1021.223	1244.64
1021.514	1204.87
1021.804	1245.09
1022.095	1207.58
1022.386	1227.02
1022.677	1201.93
1022.967	1184.08
1023.258	1192.89
1023.548	1174.81
1023.839	1174.14
1024.129	1168.94
1024.419	1149.73
1024.709	1124.65
1025	1140.24
1025.29	1122.39
1025.58	1131.43
1025.87	1139.79
1026.16	1102.73
1026.449	1115.38
1026.739	1091.43
1027.029	1096.17
1027.319	1076.51
1027.608	1078.55
1027.898	1065.44
1028.187	1064.76
1028.477	1050.3
1028.766	1048.94
1029.055	1042.39
1029.344	1043.07
1029.634	1079.45
1029.923	1039.45
1030.212	1019.56
1030.501	1001.48
1030.79	1014.82
1031.078	1018.43
1031.367	1024.31
1031.656	983.63
1031.945	963.97
1032.233	990.19
1032.522	977.76
1032.81	948.38
1033.099	962.62
1033.387	958.32
1033.675	965.33
1033.963	947.48
1034.251	945.89
1034.54	971.66
1034.828	911.77
1035.116	909.96
1035.403	895.95
1035.691	910.64
1035.979	910.41
1036.267	900.02
1036.554	901.15
1036.842	866.12
1037.129	881.94
1037.417	890.08
1037.704	852.11
1037.992	865.9
1038.279	863.86
1038.566	862.96
1038.853	862.96
1039.14	862.96
