Data from hue_38_FLMS001491_00080.txt Node
Date: Tue Feb 07 17:31:58 GMT 2017
User: dcchb
Spectrometer: FLMS00149
Trigger mode: 0
Integration Time (sec): 2.000000E-2
Scans to average: 10
Electric dark correction enabled: true
Nonlinearity correction enabled: false
Boxcar width: 0
XAxis mode: Wavelengths
Number of Pixels in Spectrum: 2048
>>>>>Begin Spectral Data<<<<<
341.393	-11.29
341.776	-11.29
342.16	-11.29
342.543	-44.05
342.927	-54.67
343.31	-88.57
343.693	-64.39
344.077	-70.49
344.46	-68.23
344.843	-58.74
345.226	-26.88
345.61	-33.21
345.993	-16.71
346.376	-14.9
346.759	2.73
347.142	37.98
347.525	48.83
347.908	38.43
348.291	86.11
348.674	96.06
349.057	131.99
349.44	131.08
349.823	137.86
350.206	170.41
350.588	217.86
350.971	213.57
351.354	225.32
351.737	251.53
352.119	260.35
352.502	263.51
352.884	277.07
353.267	294.47
353.65	315.71
354.032	303.51
354.414	303.73
354.797	312.1
355.179	323.85
355.562	325.88
355.944	318.2
356.326	344.86
356.709	332.89
357.091	344.64
357.473	336.73
357.855	369.04
358.238	338.76
358.62	335.82
359.002	340.8
359.384	341.02
359.766	362.72
360.148	345.54
360.53	340.12
360.912	365.43
361.294	326.56
361.676	321.59
362.057	325.2
362.439	330.63
362.821	324.75
363.203	328.14
363.584	328.14
363.966	329.5
364.348	323.4
364.729	336.95
365.111	300.8
365.493	318.42
365.874	310.97
366.256	315.49
366.637	341.25
367.019	307.8
367.4	313.45
367.781	320.91
368.163	309.38
368.544	322.94
368.925	320.46
369.306	334.47
369.688	318.65
370.069	342.15
370.45	303.73
370.831	320.46
371.212	310.06
371.593	318.88
371.974	303.06
372.355	342.83
372.736	319.33
373.117	299.44
373.498	318.42
373.879	338.54
374.26	304.41
374.641	306.67
375.021	328.82
375.402	327.69
375.783	362.26
376.163	336.28
376.544	335.6
376.925	320.01
377.305	324.53
377.686	333.34
378.066	318.88
378.447	345.77
378.827	335.37
379.208	331.76
379.588	342.6
379.968	316.16
380.349	332.89
380.729	340.57
381.109	327.69
381.489	323.17
381.87	323.62
382.25	335.15
382.63	354.36
383.01	348.48
383.39	347.8
383.77	344.64
384.15	356.16
384.53	345.09
384.91	328.82
385.29	354.13
385.67	343.06
386.049	370.63
386.429	339.21
386.809	336.28
387.189	358.2
387.568	370.4
387.948	344.86
388.328	383.96
388.707	364.07
389.087	357.74
389.466	378.54
389.846	360.91
390.225	363.17
390.605	376.28
390.984	369.27
391.363	344.41
391.743	367.91
392.122	369.95
392.501	347.58
392.881	373.79
393.26	366.11
393.639	370.4
394.018	380.34
394.397	387.57
394.776	368.82
395.155	380.57
395.534	366.78
395.913	371.08
396.292	374.69
396.671	385.54
397.05	379.21
397.429	383.51
397.808	397.74
398.186	387.35
398.565	395.94
398.944	381.47
399.323	399.33
399.701	393.9
400.08	411.08
400.458	427.35
400.837	385.09
401.215	393.22
401.594	400.68
401.972	428.7
402.351	418.76
402.729	403.85
403.107	404.75
403.486	403.39
403.864	423.51
404.242	419.89
404.62	427.12
404.999	416.95
405.377	434.35
405.755	429.61
406.133	425.31
406.511	417.63
406.889	445.88
407.267	428.93
407.645	430.06
408.023	456.73
408.401	442.26
408.779	430.74
409.156	431.42
409.534	440
409.912	434.35
410.29	462.6
410.667	473.9
411.045	456.05
411.422	485.43
411.8	485.43
412.178	460.34
412.555	450.4
412.933	491.98
413.31	493.33
413.687	483.62
414.065	490.17
414.442	475.71
414.819	469.61
415.197	487.68
415.574	492.2
415.951	485.2
416.328	501.24
416.705	502.83
417.082	493.79
417.46	501.7
417.837	487.23
418.214	522.03
418.591	525.65
418.967	525.65
419.344	554.12
419.721	520
420.098	527.23
420.475	508.25
420.852	547.12
421.228	568.81
421.605	545.54
421.982	534.01
422.358	542.37
422.735	547.8
423.111	554.12
423.488	577.4
423.864	555.25
424.241	584.18
424.617	580.34
424.994	567
425.37	573.56
425.746	570.39
426.123	578.3
426.499	580.56
426.875	569.49
427.251	602.03
427.627	617.85
428.003	614.46
428.379	613.11
428.756	614.46
429.132	611.98
429.507	621.01
429.883	621.24
430.259	634.57
430.635	626.66
431.011	639.55
431.387	626.21
431.763	670.5
432.138	664.63
432.514	675.48
432.89	664.18
433.265	678.41
433.641	693.56
434.016	685.65
434.392	691.07
434.767	706.21
435.143	703.72
435.518	709.37
435.894	704.85
436.269	725.19
436.644	719.32
437.02	734.23
437.395	728.36
437.77	729.71
438.145	731.75
438.52	738.07
438.895	727
439.271	758.64
439.646	772.65
440.021	754.8
440.395	789.82
440.77	748.47
441.145	743.95
441.52	771.29
441.895	788.69
442.27	778.52
442.645	789.15
443.019	817.17
443.394	814.46
443.769	820.11
444.143	804.96
444.518	808.35
444.892	835.7
445.267	820.78
445.641	825.76
446.016	821.69
446.39	842.7
446.764	840.44
447.139	841.12
447.513	856.71
447.887	849.03
448.262	843.61
448.636	852.42
449.01	857.62
449.384	865.98
449.758	894.91
450.132	896.26
450.506	887
450.88	896.04
451.254	880.89
451.628	882.93
452.002	899.2
452.376	927.9
452.75	916.83
453.123	938.07
453.497	954.57
453.871	954.34
454.244	958.63
454.618	976.94
454.992	981.46
455.365	970.38
455.739	984.85
456.112	1020.1
456.486	1018.52
456.859	1046.09
457.232	1055.81
457.606	1075.01
457.979	1042.25
458.352	1056.03
458.725	1058.29
459.099	1096.71
459.472	1118.18
459.845	1106.43
460.218	1108.69
460.591	1156.59
460.964	1122.24
461.337	1157.5
461.71	1192.75
462.083	1180.1
462.456	1202.47
462.829	1197.95
463.201	1225.74
463.574	1239.3
463.947	1252.64
464.32	1272.52
464.692	1287.89
465.065	1302.35
465.438	1293.99
465.81	1351.39
466.183	1367.44
466.555	1401.79
466.928	1392.97
467.3	1421.67
467.672	1432.52
468.045	1455.57
468.417	1477.72
468.789	1474.78
469.161	1482.01
469.534	1529.47
469.906	1533.08
470.278	1561.55
470.65	1571.72
471.022	1596.13
471.394	1635.68
471.766	1646.75
472.138	1703.92
472.51	1750.7
472.882	1812.62
473.253	1788.89
473.625	1818.5
473.997	1894.43
474.369	1903.24
474.74	1909.34
475.112	1984.59
475.484	2017.14
475.855	2092.16
476.227	2104.59
476.598	2194.31
476.97	2207.19
477.341	2236.11
477.713	2308.88
478.084	2321.31
478.455	2432.04
478.827	2451.25
479.198	2516.33
479.569	2550.91
479.94	2646.27
480.311	2640.17
480.682	2771.69
481.053	2861.41
481.424	2904.8
481.795	2994.74
482.166	3028.64
482.537	3103.66
482.908	3203.09
483.279	3283.77
483.65	3360.38
484.021	3427.49
484.391	3535.97
484.762	3592.69
485.133	3609.64
485.503	3757.2
485.874	3870.42
486.244	3971.66
486.615	4049.85
486.985	4119.68
487.356	4272.67
487.726	4309.96
488.097	4434.93
488.467	4510.18
488.837	4664.07
489.207	4732.09
489.578	4821.81
489.948	4932.99
490.318	5036.27
490.688	5115.81
491.058	5224.28
491.428	5346.54
491.798	5476.93
492.168	5600.09
492.538	5655.01
492.908	5800.54
493.278	5909.46
493.648	5991.95
494.017	6095.45
494.387	6185.16
494.757	6294.76
495.126	6412.27
495.496	6494.31
495.866	6553.29
496.235	6647.3
496.605	6785.15
496.974	6908.08
497.344	6970.9
497.713	7064.91
498.082	7182.65
498.452	7286.6
498.821	7336.54
499.19	7448.63
499.559	7526.82
499.928	7650.43
500.298	7668.74
500.667	7841.84
501.036	7831.67
501.405	7972.91
501.774	8066.02
502.143	8176.3
502.512	8238.44
502.88	8333.35
503.249	8318.44
503.618	8429.62
503.987	8474.37
504.356	8636.62
504.724	8701.93
505.093	8822.38
505.462	8851.31
505.83	8935.37
506.199	9061.24
506.567	9157.06
506.936	9192.99
507.304	9291.75
507.672	9378.07
508.041	9403.83
508.409	9569.03
508.777	9600.21
509.145	9712.3
509.514	9696.48
509.882	9832.52
510.25	9872.97
510.618	9904.61
510.986	10009.47
511.354	10143.7
511.722	10194.1
512.09	10308.44
512.458	10293.08
512.826	10448.78
513.193	10421.89
513.561	10530.36
513.929	10550.92
514.297	10742.56
514.664	10776
515.032	10906.39
515.4	10955.66
515.767	11035.2
516.135	11032.72
516.502	11028.65
516.869	11245.59
517.237	11214.86
517.604	11161.75
517.972	11441.07
518.339	11374.86
518.706	11490.11
519.073	11580.05
519.44	11598.35
519.808	11742.3
520.175	11699.82
520.542	11951.11
520.909	11977.78
521.276	11919.7
521.643	12003.77
522.009	12177.32
522.376	12215.51
522.743	12347.94
523.11	12383.19
523.477	12572.11
523.843	12535.5
524.21	12772.33
524.577	12815.27
524.943	12814.37
525.31	12959.22
525.676	13035.38
526.043	13083.74
526.409	13163.96
526.776	13274.92
527.142	13348.59
527.508	13338.19
527.874	13601.46
528.241	13540
528.607	13602.14
528.973	13726.21
529.339	13732.76
529.705	13923.94
530.071	13948.35
530.437	14064.05
530.803	14170.26
531.169	14239.87
531.535	14242.8
531.901	14317.38
532.267	14314.67
532.632	14421.33
532.998	14504.04
533.364	14594.66
533.73	14670.36
534.095	14753.98
534.461	14764.82
534.826	14829
535.192	14967.3
535.557	14976.12
535.923	15010.01
536.288	15102.22
536.653	15107.41
537.019	15104.25
537.384	15191.71
537.749	15339.72
538.114	15351.25
538.479	15320.74
538.845	15506.05
539.21	15372.72
539.575	15610.23
539.94	15630.56
540.305	15682.09
540.67	15722.09
541.034	15735.19
541.399	15902.19
541.764	15855.42
542.129	16073.26
542.494	16093.38
542.858	16118.46
543.223	16154.17
543.587	16291.79
543.952	16294.5
544.316	16365.46
544.681	16362.3
545.045	16544.89
545.41	16621.95
545.774	16546.47
546.138	16594.61
546.503	16727.03
546.867	16673.02
547.231	16863.07
547.595	16805.67
547.959	16972.45
548.324	17002.73
548.688	17078.66
549.052	17098.55
549.416	17153.46
549.779	17179.68
550.143	17328.37
550.507	17403.85
550.871	17401.14
551.235	17445.88
551.599	17534.02
551.962	17610.17
552.326	17567.24
552.689	17698.08
553.053	17672.32
553.417	17770.17
553.78	17903.5
554.143	17956.15
554.507	17978.07
554.87	18048.35
555.234	18230.5
555.597	18119.31
555.96	18160.21
556.323	18250.38
556.686	18352.53
557.05	18475.01
557.413	18542.58
557.776	18472.97
558.139	18669.58
558.502	18712.74
558.865	18691.5
559.228	18912.96
559.59	19014.66
559.953	18916.35
560.316	19074.54
560.679	19106.86
561.041	19183.92
561.404	19264.59
561.767	19376.45
562.129	19361.31
562.492	19490.12
562.854	19498.03
563.217	19542.1
563.579	19633.17
563.941	19705.94
564.304	19807.85
564.666	19944.8
565.028	19925.14
565.39	19963.11
565.753	20115.87
566.115	20206.26
566.477	20368.07
566.839	20364.9
567.201	20410.1
567.563	20529.19
567.925	20684.89
568.287	20697.1
568.648	20680.6
569.01	20816.19
569.372	21047.37
569.734	20889.63
570.095	21130.53
570.457	21195.39
570.819	21246.01
571.18	21257.76
571.542	21368.27
571.903	21373.92
572.265	21494.14
572.626	21624.53
572.987	21648.71
573.349	21779.1
573.71	21974.35
574.071	21989.04
574.432	22043.73
574.794	22250.73
575.155	22305.87
575.516	22388.35
575.877	22526.88
576.238	22545.86
576.599	22663.82
576.96	22822.69
577.32	22996.47
577.681	23083.93
578.042	23249.8
578.403	23301.77
578.763	23456.35
579.124	23617.7
579.485	23716.68
579.845	23890.91
580.206	23972.27
580.566	24112.83
580.927	24244.8
581.287	24466.94
581.648	24519.6
582.008	24820.15
582.368	24916.65
582.728	25168.84
583.089	25138.34
583.449	25275.06
583.809	25502.17
584.169	25698.32
584.529	25823.74
584.889	26212.43
585.249	26318.87
585.609	26330.4
585.969	26775.81
586.329	26755.69
586.688	27036.59
587.048	27291.05
587.408	27378.28
587.768	27719.74
588.127	27796.57
588.487	28105.26
588.846	28400.17
589.206	28334.41
589.565	28626.15
589.925	29001.74
590.284	28906.82
590.643	29265.01
591.003	29521.05
591.362	29883.97
591.721	30019.79
592.08	30053.01
592.44	30405.99
592.799	30633.56
593.158	30816.38
593.517	31014.34
593.876	31199.87
594.235	31223.37
594.593	31580.88
594.952	31805.28
595.311	31968.21
595.67	32181.54
596.029	32524.58
596.387	32717.57
596.746	32910.11
597.104	32910.79
597.463	33172.7
597.822	33471.68
598.18	33556.87
598.538	33718.68
598.897	33945.79
599.255	33988.27
599.613	34423.52
599.972	34531.99
600.33	34802.71
600.688	34831.19
601.046	35160.67
601.404	35319.76
601.762	35420.1
602.12	35735.8
602.478	35865.96
602.836	36095.56
603.194	35907.77
603.552	36298.72
603.91	36276.35
604.268	36654.42
604.625	36610.12
604.983	36852.6
605.341	36826.62
605.698	37120.17
606.056	37309.09
606.413	37307.96
606.771	37484.23
607.128	37721.73
607.485	37599.7
607.843	37877.44
608.2	38027.49
608.557	38382.73
608.914	38327.14
609.272	38657.08
609.629	38779.11
609.986	38867.92
610.343	38947.46
610.7	39178.87
611.057	39240.79
611.414	39323.95
611.771	39401.92
612.127	39675.36
612.484	39759.42
612.841	40058.62
613.198	40013.43
613.554	40071.95
613.911	40269.24
614.267	40282.34
614.624	40278.5
614.98	40394.43
615.337	40647.31
615.693	40656.12
616.05	40666.29
616.406	41132.72
616.762	41009.56
617.118	40935.43
617.475	41113.06
617.831	41224.01
618.187	41315.31
618.543	41302.2
618.899	41702.87
619.255	41696.09
619.611	41623.1
619.967	41943.54
620.323	41931.34
620.678	41842.98
621.034	41816.77
621.39	41960.72
621.746	41930.21
622.101	42475.73
622.457	42168.4
622.812	42260.15
623.168	42340.37
623.523	42372.01
623.879	42543.3
624.234	42331.56
624.589	42687.71
624.945	42626.46
625.3	42689.74
625.655	42664.88
626.01	42724.09
626.365	42759.79
626.72	42724.99
627.075	42811.32
627.43	42932.67
627.785	42785.1
628.14	42795.95
628.495	43009.28
628.85	42857.42
629.205	42832.79
629.559	42972.9
629.914	42910.52
630.269	42987.58
630.623	42849.96
630.978	42817.19
631.332	42981.71
631.687	43128.15
632.041	42880.92
632.396	43115.94
632.75	42854.03
633.104	42976.74
633.459	42807.25
633.813	42781.71
634.167	42845.89
634.521	42811.54
634.875	42868.94
635.229	42926.57
635.583	42666.91
635.937	42928.6
636.291	42755.27
636.645	42739.68
636.999	42783.75
637.352	42904.87
637.706	42580.82
638.06	42804.54
638.413	42607.71
638.767	42532.46
639.121	42710.76
639.474	42506.69
639.828	42454.04
640.181	42574.26
640.534	42505.79
640.888	42379.46
641.241	42279.58
641.594	42352.35
641.947	42475.96
642.301	42372.46
642.654	42432.8
643.007	42277.55
643.36	42440.03
643.713	42399.8
644.066	42546.24
644.419	42110.55
644.771	41969.31
645.124	41590.78
645.477	41668.3
645.83	41359.83
646.182	41204.13
646.535	41133.4
646.888	41162.1
647.24	40927.07
647.593	41264.69
647.945	41183.56
648.298	41018.14
648.65	40924.14
649.002	40829.68
649.355	40975.43
649.707	40860.63
650.059	41037.35
650.411	41580.84
650.763	41486.38
651.115	42037.55
651.467	41875.52
651.819	41925.47
652.171	41772.93
652.523	41707.17
652.875	41588.07
653.227	41581.07
653.578	41881.17
653.93	41698.58
654.282	41511.92
654.633	41527.74
654.985	41474.63
655.337	41614.06
655.688	41642.99
656.039	41671.46
656.391	41464.91
656.742	41402.32
657.094	41465.82
657.445	41650.67
657.796	41492.93
658.147	41581.07
658.498	41365.93
658.849	41475.08
659.2	41396.89
659.551	41196.9
659.902	41553.05
660.253	41418.81
660.604	41358.25
660.955	41227.18
661.306	41532.03
661.656	41135.43
662.007	41387.85
662.358	41206.61
662.708	41137.69
663.059	41140.63
663.409	41033.51
663.76	41332.03
664.11	41423.56
664.461	41278.7
664.811	41203
665.161	41198.03
665.511	41134.07
665.862	41177.69
666.212	41294.3
666.562	41278.25
666.912	41298.14
667.262	41137.01
667.612	41192.83
667.962	41205.03
668.312	41266.27
668.662	41343.11
669.011	41255.65
669.361	41129.78
669.711	41050.91
670.06	41147.41
670.41	40879.84
670.76	40944.93
671.109	41053.85
671.459	40839.17
671.808	41078.71
672.157	41083
672.507	40835.78
672.856	40778.6
673.205	40926.4
673.554	40966.62
673.904	40781.77
674.253	41100.4
674.602	40944.7
674.951	40426.07
675.3	40266.07
675.649	40772.28
675.998	40782.67
676.346	40894.08
676.695	40870.35
677.044	40657.93
677.393	40666.29
677.741	40909.9
678.09	40558.95
678.438	40488.67
678.787	40736.12
679.135	40642.56
679.484	40317.15
679.832	40547.42
680.181	40242.8
680.529	40452.74
680.877	40253.64
681.225	40365.28
681.573	40506.97
681.922	40172.97
682.27	40139.75
682.618	40128.68
682.966	39915.8
683.314	40113.54
683.661	39879.64
684.009	39759.65
684.357	39844.84
684.705	39786.99
685.053	39706.09
685.4	39788.57
685.748	39514
686.095	39479.65
686.443	39334.35
686.79	39304.29
687.138	39359.21
687.485	39382.26
687.832	39182.03
688.18	39233.78
688.527	38948.14
688.874	39040.8
689.221	38921.93
689.568	38838.09
689.915	38771.88
690.262	38709.96
690.609	38552.22
690.956	38564.42
691.303	38575.72
691.65	38344.99
691.997	38161.5
692.344	38139.12
692.69	38133.47
693.037	38144.77
693.383	37832.69
693.73	37949.75
694.077	37806.48
694.423	37719.7
694.769	37708.18
695.116	37489.2
695.462	37435.19
695.808	37406.26
696.155	37337.11
696.501	37060.96
696.847	37182.77
697.193	36919.95
697.539	37058.93
697.885	36746.62
698.231	36505.95
698.577	36598.37
698.923	36574.87
699.269	36390.7
699.614	36115.45
699.96	36228.67
700.306	36226.86
700.651	35999.97
700.997	35881.1
701.342	35918.39
701.688	35766.98
702.033	35780.77
702.379	35739.41
702.724	35649.25
703.069	35770.6
703.415	35238.86
703.76	35275.24
704.105	35429.59
704.45	35045.65
704.795	35112.76
705.14	34981.02
705.485	34996.61
705.83	34807.23
706.175	34777.86
706.52	34718.65
706.865	34616.51
707.209	34529.05
707.554	34263.07
707.899	34487.92
708.243	34282.73
708.588	34160.47
708.932	33934.26
709.277	33984.88
709.621	33998.67
709.966	33781.72
710.31	33846.13
710.654	33606.59
710.998	33577.21
711.342	33506.25
711.687	33479.13
712.031	33547.83
712.375	33362.53
712.719	33222.87
713.063	33255.41
713.407	33407.05
713.75	33223.77
714.094	33096.09
714.438	32963.67
714.782	33047.96
715.125	32868.3
715.469	32778.59
715.812	32655.88
716.156	32607.07
716.499	32685.71
716.843	32630.57
717.186	32447.52
717.53	32564.81
717.873	32548.76
718.216	32670.57
718.559	32227.64
718.902	32142.9
719.246	32146.97
719.589	32127.08
719.932	31933.19
720.275	31982
720.617	31926.86
720.96	31960.98
721.303	31940.87
721.646	31881.44
721.989	31685.06
722.331	31678.28
722.674	31791.72
723.016	31653.65
723.359	31561.9
723.701	31690.03
724.044	31495.46
724.386	31304.5
724.729	31332.52
725.071	31255.92
725.413	31243.03
725.755	31181.79
726.097	31111.96
726.439	31055.92
726.782	30935.92
727.124	31062.47
727.465	30948.8
727.807	30795.14
728.149	30862.03
728.491	30783.16
728.833	30836.27
729.175	30785.42
729.516	30653.9
729.858	30486.9
730.199	30574.8
730.541	30530.06
730.882	30494.35
731.224	30588.14
731.565	30311.99
731.906	30325.32
732.248	30403.28
732.589	30245.09
732.93	30068.38
733.271	30112.89
733.612	30204.64
733.953	30184.98
734.294	29954.48
734.635	29960.13
734.976	30069.28
735.317	29823.18
735.658	29942.5
735.999	29871.09
736.339	29667.93
736.68	29911.32
737.021	29665.22
737.361	29579.8
737.702	29776.41
738.042	29638.1
738.383	29625.68
738.723	29725.56
739.063	29527.15
739.404	29656.64
739.744	29494.83
740.084	29317.21
740.424	29476.98
740.764	29273.14
741.104	29394.72
741.444	29220.49
741.784	29255.97
742.124	29170.77
742.464	29169.87
742.804	29157.89
743.143	28954.28
743.483	29036.76
743.823	28812.59
744.162	28825.92
744.502	28959.93
744.841	28699.37
745.181	28881.74
745.52	28689.43
745.86	28800.84
746.199	28700.5
746.538	28700.05
746.877	28643.55
747.216	28591.13
747.556	28443.33
747.895	28449.66
748.234	28398.14
748.573	28290.57
748.911	28360.17
749.25	28257.8
749.589	28212.83
749.928	28137.13
750.267	28230.23
750.605	28143.91
750.944	28009.9
751.283	28022.33
751.621	27974.87
751.96	27815.78
752.298	27780.3
752.636	27924.48
752.975	27669.12
753.313	27583.7
753.651	27759.28
753.989	27511.83
754.327	27507.99
754.666	27461.89
755.004	27474.55
755.342	27396.81
755.679	27435.22
756.017	27211.05
756.355	27285.17
756.693	27152.97
757.031	27278.84
757.368	27060.32
757.706	26977.84
758.044	26810.38
758.381	27024.61
758.719	26933.09
759.056	26745.53
759.394	26633.21
759.731	26597.96
760.068	26553.21
760.405	26409.49
760.743	26386.21
761.08	26303.28
761.417	26210.4
761.754	26166.33
762.091	26187.8
762.428	25972.44
762.765	25877.3
763.102	25872.33
763.438	25866
763.775	25693.8
764.112	25606.35
764.449	25706
764.785	25565.67
765.122	25432.34
765.458	25253.81
765.795	25312.34
766.131	25293.81
766.467	25125.46
766.804	24934.05
767.14	24900.83
767.476	24922.07
767.812	24789.42
768.148	24748.97
768.485	24687.73
768.821	24537.45
769.157	24487.28
769.492	24420.39
769.828	24422.2
770.164	24172.26
770.5	24080.28
770.836	24068.76
771.171	24018.37
771.507	23864.47
771.842	23679.39
772.178	23643.46
772.513	23640.07
772.849	23615.89
773.184	23433.3
773.519	23516.91
773.855	23277.14
774.19	23354.43
774.525	23153.08
774.86	23168.67
775.195	23146.52
775.53	23031.72
775.865	22811.39
776.2	22745.4
776.535	22615.92
776.87	22661.34
777.205	22612.75
777.539	22425.19
777.874	22471.97
778.209	22203.72
778.543	22242.37
778.878	22153.33
779.212	22085.54
779.547	21911.98
779.881	22052.99
780.215	21719.44
780.55	21839.89
780.884	21714.92
781.218	21643.51
781.552	21644.42
781.886	21451.65
782.22	21428.6
782.554	21319.68
782.888	21138.22
783.222	21020.25
783.556	20982.29
783.889	20883.98
784.223	20803.99
784.557	20853.93
784.89	20789.52
785.224	20626.82
785.557	20495.75
785.891	20486.48
786.224	20479.93
786.558	20557.89
786.891	20233.15
787.224	20228.18
787.557	20077.68
787.891	20121.74
788.224	19961.98
788.557	20030.22
788.89	20038.13
789.223	19989.77
789.556	19738.48
789.888	19639.05
790.221	19677.01
790.554	19528.31
790.887	19422.55
791.219	19468.65
791.552	19385.49
791.884	19287.19
792.217	19250.58
792.549	19087.87
792.882	19032.06
793.214	18856.24
793.546	18955.45
793.879	18778.5
794.211	18646.98
794.543	18818.05
794.875	18651.5
795.207	18711.16
795.539	18544.16
795.871	18517.49
796.203	18329.48
796.535	18369.47
796.867	18368.57
797.198	18205.64
797.53	18262.13
797.862	18048.81
798.193	18101.23
798.525	17915.93
798.856	18069.14
799.188	17821.69
799.519	17846.55
799.85	17699.66
800.182	17738.98
800.513	17696.95
800.844	17590.06
801.175	17692.66
801.506	17548.93
801.837	17500.12
802.168	17471.19
802.499	17369.5
802.83	17325.66
803.161	17262.61
803.491	17305.1
803.822	17274.36
804.153	17177.19
804.483	16913.92
804.814	16959.79
805.145	16939.91
805.475	16875.05
805.805	16865.56
806.136	16879.57
806.466	16887.48
806.796	16799.8
807.126	16699.46
807.457	16668.05
807.787	16685.68
808.117	16472.58
808.447	16472.58
808.777	16595.51
809.107	16345.35
809.436	16372.46
809.766	16304.67
810.096	16267.16
810.426	16210.44
810.755	16182.87
811.085	16084.79
811.414	16138.35
811.744	16001.18
812.073	15969.31
812.403	15968.86
812.732	15851.8
813.061	15889.09
813.39	15836.66
813.719	15734.06
814.049	15792.37
814.378	15750.33
814.707	15678.92
815.036	15623.78
815.365	15619.94
815.693	15464.69
816.022	15430.34
816.351	15376.11
816.68	15361.64
817.008	15404.13
817.337	15233.96
817.665	15146.96
817.994	15241.87
818.322	15207.52
818.651	15048.43
818.979	15073.52
819.307	15076
819.636	15030.13
819.964	14987.42
820.292	15076
820.62	14952.16
820.948	15045.27
821.276	15016.57
821.604	14946.97
821.932	14965.04
822.259	14982.67
822.587	14933.18
822.915	14871.49
823.243	14900.87
823.57	14931.82
823.898	14822.68
824.225	14835.33
824.553	14851.83
824.88	14849.79
825.207	14906.74
825.535	14857.25
825.862	14894.54
826.189	14845.95
826.516	14849.34
826.843	14937.25
827.17	14867.19
827.497	14933.86
827.824	14929.11
828.151	14939.28
828.478	14905.16
828.805	15038.49
829.131	14816.57
829.458	14854.31
829.785	14846.4
830.111	14856.12
830.438	14839.85
830.764	14762.56
831.09	14879.62
831.417	14812.73
831.743	14899.06
832.069	14839.85
832.395	14727.31
832.722	14727.31
833.048	14737.25
833.374	14742.9
833.7	14654.32
834.026	14664.71
834.351	14678.05
834.677	14702.45
835.003	14662.68
835.329	14640.31
835.654	14628.56
835.98	14595.79
836.306	14460.88
836.631	14517.37
836.956	14479.18
837.282	14590.14
837.607	14510.82
837.932	14457.71
838.258	14434.89
838.583	14403.7
838.908	14394.66
839.233	14349.02
839.558	14299.75
839.883	14270.83
840.208	14241
840.533	14162.13
840.858	14265.63
841.182	14200.54
841.507	14201.9
841.832	14178.4
842.156	14110.15
842.481	14087.1
842.805	14056.82
843.13	14005.52
843.454	14050.27
843.778	13934.11
844.103	13922.36
844.427	13878.52
844.751	13844.85
845.075	13806.43
845.399	13853.89
845.723	13718.98
846.047	13699.77
846.371	13657.06
846.695	13540
847.019	13493.9
847.343	13472.65
847.666	13461.13
847.99	13299.78
848.313	13237.86
848.637	13258.42
848.96	13237.18
849.284	13169.39
849.607	13126.9
849.931	13050.07
850.254	13027.24
850.577	12912.44
850.9	12807.14
851.223	12830.86
851.546	12739.11
851.869	12659.79
852.192	12734.82
852.515	12574.82
852.838	12543.19
853.161	12528.95
853.483	12556.29
853.806	12463.42
854.129	12388.16
854.451	12326.47
854.774	12275.62
855.096	12274.27
855.419	12224.55
855.741	12195.63
856.063	12096.19
856.385	12163.54
856.708	12047.15
857.03	12050.77
857.352	11998.57
857.674	11926.25
857.996	11904.56
858.318	11884.67
858.64	11843.54
858.961	11759.25
859.283	11797.9
859.605	11700.72
859.926	11708.63
860.248	11672.25
860.57	11598.81
860.891	11665.02
861.212	11613.95
861.534	11664.57
861.855	11531.69
862.176	11539.6
862.498	11532.59
862.819	11499.82
863.14	11467.74
863.461	11448.3
863.782	11375.76
864.103	11395.65
864.424	11390.45
864.745	11380.28
865.065	11288.08
865.386	11281.53
865.707	11342.54
866.027	11330.11
866.348	11268.42
866.668	11233.17
866.989	11153.62
867.309	11154.98
867.63	11162.43
867.95	11185.48
868.27	11081.3
868.59	11140.29
868.91	11105.71
869.23	11020.06
869.55	10943
869.87	11074.3
870.19	11013.51
870.51	11062.1
870.83	11037.24
871.15	10991.59
871.469	10970.12
871.789	10919.5
872.109	10965.15
872.428	10885.6
872.748	10841.54
873.067	10860.29
873.386	10900.52
873.706	10868.43
874.025	10771.48
874.344	10814.65
874.663	10806.28
874.982	10792.72
875.301	10737.36
875.62	10663.69
875.939	10634.54
876.258	10660.3
876.577	10632.73
876.896	10658.94
877.214	10583.46
877.533	10560.41
877.852	10567.42
878.17	10520.64
878.489	10602.45
878.807	10557.7
879.125	10547.76
879.444	10465.73
879.762	10520.19
880.08	10492.39
880.398	10386.63
880.716	10482.68
881.034	10385.5
881.352	10404.71
881.67	10262.12
881.988	10332.85
882.306	10311.16
882.624	10294.66
882.941	10266.86
883.259	10273.87
883.577	10199.75
883.894	10202.23
884.212	10141.67
884.529	10190.03
884.846	10178.05
885.164	10099.18
885.481	10095.57
885.798	10091.73
886.115	10045.85
886.432	10007.21
886.75	9915.69
887.067	9994.55
887.383	9939.19
887.7	9989.81
888.017	9902.35
888.334	9901.22
888.651	9890.38
888.967	9819.19
889.284	9835.24
889.6	9757.05
889.917	9675.24
890.233	9741.9
890.55	9627.33
890.866	9642.25
891.182	9623.94
891.498	9589.59
891.815	9594.56
892.131	9621.46
892.447	9510.27
892.763	9518.86
893.079	9475.92
893.395	9465.75
893.71	9443.16
894.026	9365.42
894.342	9332.88
894.657	9269.83
894.973	9277.06
895.289	9237.29
895.604	9240
895.92	9183.5
896.235	9185.31
896.55	9119.77
896.865	9134.92
897.181	9048.59
897.496	9083.62
897.811	9010.85
898.126	8964.3
898.441	8899.89
898.756	8964.52
899.071	8837.07
899.386	8842.04
899.7	8768.37
900.015	8809.27
900.33	8714.59
900.644	8687.92
900.959	8786.9
901.273	8621.71
901.588	8627.36
901.902	8583.97
902.216	8552.33
902.531	8465.78
902.845	8469.85
903.159	8450.87
903.473	8433.24
903.787	8368.38
904.101	8364.31
904.415	8367.7
904.729	8266.24
905.042	8306.01
905.356	8256.75
905.67	8258.55
905.984	8167.71
906.297	8193.7
906.611	8090.2
906.924	8202.96
907.237	8142.62
907.551	8075.28
907.864	8027.6
908.177	8042.97
908.491	7948.28
908.804	7914.38
909.117	7934.95
909.43	7880.71
909.743	7842.75
910.056	7798.91
910.368	7725.91
910.681	7684.56
910.994	7700.38
911.307	7670.77
911.619	7616.99
911.932	7593.49
912.244	7547.16
912.557	7497.67
912.869	7500.83
913.181	7471.68
913.494	7488.86
913.806	7363.44
914.118	7448.41
914.43	7358.01
914.742	7365.7
915.054	7310.33
915.366	7315.08
915.678	7242.08
915.99	7194.4
916.302	7148.07
916.613	7098.81
916.925	7076.89
917.236	7068.53
917.548	7069.21
917.859	7033.5
918.171	6989.66
918.482	6957.8
918.794	6911.24
919.105	6897.69
919.416	6892.94
919.727	6863.11
920.038	6812.94
920.349	6773.85
920.66	6744.24
920.971	6760.29
921.282	6739.5
921.593	6638.94
921.903	6602.55
922.214	6650.23
922.525	6556.9
922.835	6588.09
923.146	6471.48
923.456	6525.04
923.767	6474.87
924.077	6512.39
924.387	6436.23
924.697	6454.08
925.008	6367.08
925.318	6328.21
925.628	6339.06
925.938	6287.08
926.248	6259.96
926.558	6264.48
926.867	6218.83
927.177	6177.7
927.487	6160.76
927.796	6157.82
928.106	6158.95
928.416	6074.88
928.725	6077.59
929.034	6060.65
929.344	5992.85
929.653	6018.39
929.962	5901.55
930.271	5881.67
930.581	5855
930.89	5834.66
931.199	5873.08
931.508	5817.26
931.817	5775
932.125	5749.92
932.434	5754.67
932.743	5762.12
933.051	5658.62
933.36	5675.35
933.669	5629.24
933.977	5698.85
934.286	5607.78
934.594	5552.41
934.902	5558.96
935.21	5536.14
935.519	5550.38
935.827	5465.41
936.135	5449.14
936.443	5400.55
936.751	5420.44
937.059	5416.82
937.367	5383.6
937.674	5351.74
937.982	5348.12
938.29	5290.5
938.597	5302.93
938.905	5237.62
939.213	5230.39
939.52	5240.78
939.827	5237.84
940.135	5177.05
940.442	5179.99
940.749	5103.61
941.056	5091.63
941.363	5078.75
941.67	5027
941.977	4997.17
942.284	5024.74
942.591	4994.23
942.898	4946.55
943.205	4973.22
943.511	4959.21
943.818	4891.86
944.125	4867.91
944.431	4850.51
944.738	4881.69
945.044	4825.2
945.35	4857.29
945.657	4757.18
945.963	4747.01
946.269	4812.77
946.575	4744.97
946.881	4690.96
947.187	4689.38
947.493	4656.61
947.799	4663.85
948.105	4636.73
948.41	4591.31
948.716	4584.75
949.022	4568.71
949.327	4538.88
949.633	4504.75
949.938	4508.37
950.244	4521.7
950.549	4467.69
950.854	4409.84
951.16	4417.75
951.465	4409.62
951.77	4344.98
952.075	4343.85
952.38	4359
952.685	4356.51
952.99	4291.2
953.294	4287.81
953.599	4289.62
953.904	4234.93
954.209	4244.2
954.513	4216.4
954.818	4172.79
955.122	4223.86
955.426	4146.8
955.731	4137.53
956.035	4092.56
956.339	4148.61
956.643	4133.01
956.948	4079.91
957.252	4048.27
957.556	4002.62
957.86	4011.21
958.163	4031.32
958.467	3988.84
958.771	3928.72
959.075	3966.92
959.378	3960.81
959.682	3890.76
959.985	3895.28
960.289	3895.05
960.592	3874.94
960.896	3845.11
961.199	3875.17
961.502	3799.46
961.805	3839.91
962.108	3757.66
962.411	3758.11
962.714	3743.42
963.017	3756.3
963.32	3742.74
963.623	3684.89
963.926	3698.45
964.228	3679.69
964.531	3656.42
964.833	3613.7
965.136	3594.72
965.438	3625.46
965.741	3579.81
966.043	3567.38
966.345	3536.19
966.648	3517.89
966.95	3551.79
967.252	3499.13
967.554	3526.25
967.856	3456.65
968.158	3469.75
968.46	3476.31
968.761	3477.44
969.063	3405.8
969.365	3385.91
969.666	3408.74
969.968	3343.2
970.269	3313.6
970.571	3330.1
970.872	3340.72
971.174	3320.15
971.475	3290.1
971.776	3293.03
972.077	3287.39
972.378	3260.04
972.679	3254.39
972.98	3220.04
973.281	3226.6
973.582	3213.26
973.883	3208.97
974.183	3203.32
974.484	3189.76
974.785	3127.16
975.085	3115.19
975.386	3109.54
975.686	3147.73
975.986	3097.33
976.287	3091.91
976.587	3017.56
976.887	3039.48
977.187	3017.34
977.487	3008.97
977.787	2991.8
978.087	3031.12
978.387	3046.49
978.687	2985.02
978.987	2954.29
979.286	2942.99
979.586	2954.96
979.885	2945.47
980.185	2908.41
980.484	2860.28
980.784	2870.22
981.083	2864.12
981.382	2858.7
981.682	2839.26
981.981	2863.44
982.28	2799.71
982.579	2788.42
982.878	2802.65
983.177	2783.67
983.475	2820.73
983.774	2761.98
984.073	2740.28
984.372	2731.92
984.67	2761.3
984.969	2723.56
985.267	2727.63
985.566	2696.44
985.864	2673.39
986.162	2651.47
986.461	2643.79
986.759	2665.48
987.057	2593.62
987.355	2610.79
987.653	2618.7
987.951	2585.48
988.249	2589.55
988.547	2580.51
988.844	2576.44
989.142	2557.91
989.44	2500.97
989.737	2527.18
990.035	2512.26
990.332	2496.67
990.63	2482.66
990.927	2470.68
991.224	2441.31
991.521	2456.45
991.819	2418.26
992.116	2411.93
992.413	2419.39
992.71	2395.66
993.006	2383
993.303	2354.53
993.6	2378.71
993.897	2381.87
994.193	2383
994.49	2359.73
994.787	2352.04
995.083	2313.85
995.379	2317.24
995.676	2339.39
995.972	2274.76
996.268	2278.37
996.565	2242.67
996.861	2244.25
997.157	2238.83
997.453	2248.09
997.749	2192.27
998.044	2205.15
998.34	2167.64
998.636	2208.77
998.932	2195.21
999.227	2153.63
999.523	2133.29
999.818	2132.61
1000.114	2161.54
1000.409	2124.93
1000.704	2117.92
1001	2101.2
1001.295	2079.51
1001.59	2071.37
1001.885	2053.29
1002.18	2097.59
1002.475	2030.92
1002.77	2065.04
1003.065	2023.92
1003.359	2030.47
1003.654	1984.37
1003.949	1987.76
1004.243	1990.02
1004.538	1985.72
1004.832	1973.3
1005.127	1945.95
1005.421	1924.03
1005.715	1920.42
1006.009	1952.05
1006.304	1885.84
1006.598	1873.64
1006.892	1874.09
1007.186	1873.19
1007.48	1846.52
1007.773	1851.94
1008.067	1844.94
1008.361	1806.07
1008.655	1816.92
1008.948	1785.96
1009.242	1797.48
1009.535	1777.59
1009.829	1745.96
1010.122	1766.07
1010.415	1755
1010.708	1767.43
1011.001	1768.1
1011.295	1722.91
1011.588	1717.71
1011.881	1721.32
1012.173	1694.88
1012.466	1674.32
1012.759	1682
1013.052	1685.62
1013.344	1640.42
1013.637	1646.07
1013.93	1641.55
1014.222	1634.32
1014.514	1624.6
1014.807	1619.63
1015.099	1602.91
1015.391	1570.37
1015.683	1566.98
1015.976	1564.27
1016.268	1556.81
1016.56	1560.88
1016.851	1519.97
1017.143	1517.49
1017.435	1524.27
1017.727	1529.01
1018.018	1522.69
1018.31	1502.12
1018.602	1472.97
1018.893	1480.2
1019.185	1454.89
1019.476	1455.12
1019.767	1444.5
1020.058	1421.22
1020.35	1469.13
1020.641	1438.85
1020.932	1388.23
1021.223	1400.88
1021.514	1398.62
1021.804	1393.42
1022.095	1394.55
1022.386	1371.05
1022.677	1371.73
1022.967	1338.96
1023.258	1309.36
1023.548	1321.11
1023.839	1331.05
1024.129	1312.97
1024.419	1325.4
1024.709	1287.21
1025	1295.8
1025.29	1289.02
1025.58	1247.66
1025.87	1259.42
1026.16	1275.91
1026.449	1244.5
1026.739	1228
1027.029	1235.91
1027.319	1216.25
1027.608	1218.51
1027.898	1202.69
1028.187	1217.84
1028.477	1177.38
1028.766	1169.7
1029.055	1201.34
1029.344	1152.07
1029.634	1173.09
1029.923	1159.31
1030.212	1156.82
1030.501	1145.75
1030.79	1161.79
1031.078	1134
1031.367	1131.74
1031.656	1131.96
1031.945	1123.83
1032.233	1089.48
1032.522	1091.96
1032.81	1094.67
1033.099	1094
1033.387	1089.03
1033.675	1065.52
1033.963	1072.98
1034.251	1031.63
1034.54	1069.59
1034.828	1035.47
1035.116	1025.52
1035.403	1026.65
1035.691	1023.26
1035.979	1021.68
1036.267	1014.22
1036.554	1011.29
1036.842	995.92
1037.129	979.65
1037.417	954.34
1037.704	986.65
1037.992	971.74
1038.279	971.51
1038.566	956.6
1038.853	956.6
1039.14	956.6
