Data from hue_00_FLMS001491_23.txt Node
Date: Mon Feb 06 15:29:28 GMT 2017
User: dcchb
Spectrometer: FLMS00149
Trigger mode: 0
Integration Time (sec): 2.000000E-2
Scans to average: 10
Electric dark correction enabled: true
Nonlinearity correction enabled: false
Boxcar width: 0
XAxis mode: Wavelengths
Number of Pixels in Spectrum: 2048
>>>>>Begin Spectral Data<<<<<
341.393	-19.75
341.776	-19.75
342.16	-19.75
342.543	-51.83
342.927	-55.45
343.31	-64.26
343.693	-66.75
344.077	-72.4
344.46	-57.48
344.843	-62.68
345.226	-52.29
345.61	-24.94
345.993	-21.78
346.376	0.37
346.759	7.82
347.142	53.25
347.525	41.5
347.908	64.32
348.291	70.2
348.674	81.72
349.057	103.42
349.44	114.04
349.823	150.42
350.206	167.14
350.588	203.07
350.971	200.59
351.354	205.79
351.737	232.45
352.119	245.33
352.502	271.32
352.884	262.96
353.267	274.71
353.65	287.14
354.032	290.98
354.414	329.62
354.797	305.67
355.179	313.35
355.562	320.81
355.944	328.95
356.326	330.75
356.709	306.12
357.091	330.75
357.473	346.35
357.855	340.7
358.238	342.96
358.62	346.12
359.002	348.83
359.384	325.78
359.766	342.28
360.148	356.52
360.53	331.21
360.912	338.44
361.294	340.47
361.676	348.38
362.057	324.88
362.439	319
362.821	330.98
363.203	323.52
363.584	335.05
363.966	319.23
364.348	311.09
364.729	333.24
365.111	312.9
365.493	321.71
365.874	320.58
366.256	318.32
366.637	317.65
367.019	306.12
367.4	314.03
367.781	302.73
368.163	307.48
368.544	310.42
368.925	331.21
369.306	307.03
369.688	299.34
370.069	324.88
370.45	309.51
370.831	316.52
371.212	303.86
371.593	297.76
371.974	290.3
372.355	305.44
372.736	312.45
373.117	323.07
373.498	337.99
373.879	298.89
374.26	304.09
374.641	306.35
375.021	304.54
375.402	309.06
375.783	314.71
376.163	325.33
376.544	316.29
376.925	318.55
377.305	317.65
377.686	321.71
378.066	328.27
378.447	326.69
378.827	321.04
379.208	344.31
379.588	313.35
379.968	337.53
380.349	348.38
380.729	328.27
381.109	333.69
381.489	333.69
381.87	326.23
382.25	349.28
382.63	337.08
383.01	345.67
383.39	340.47
383.77	336.63
384.15	340.92
384.53	342.05
384.91	331.21
385.29	346.8
385.67	338.89
386.049	350.64
386.429	355.39
386.809	361.49
387.189	327.36
387.568	359.91
387.948	339.57
388.328	357.19
388.707	359.23
389.087	349.28
389.466	349.51
389.846	358.55
390.225	339.12
390.605	353.13
390.984	342.73
391.363	376.85
391.743	374.82
392.122	364.2
392.501	367.59
392.881	378.89
393.26	358.32
393.639	361.49
394.018	382.28
394.397	380.92
394.776	361.49
395.155	360.58
395.534	397.87
395.913	364.65
396.292	381.15
396.671	387.25
397.05	402.84
397.429	397.42
397.808	368.27
398.186	355.39
398.565	400.58
398.944	385.89
399.323	379.11
399.701	403.29
400.08	408.04
400.458	382.5
400.837	395.16
401.215	387.25
401.594	390.41
401.972	402.39
402.351	382.96
402.729	407.14
403.107	398.55
403.486	389.51
403.864	414.59
404.242	413.92
404.62	409.17
404.999	414.14
405.377	429.96
405.755	429.28
406.133	420.7
406.511	412.56
406.889	438.77
407.267	431.09
407.645	432.22
408.023	430.64
408.401	415.27
408.779	434.03
409.156	440.13
409.534	440.58
409.912	449.85
410.29	448.72
410.667	445.33
411.045	446.01
411.422	453.91
411.8	438.1
412.178	452.56
412.555	457.3
412.933	448.49
413.31	482.16
413.687	483.74
414.065	491.43
414.442	484.65
414.819	475.61
415.197	468.6
415.574	489.85
415.951	509.51
416.328	479.9
416.705	499.79
417.082	507.92
417.46	483.07
417.837	499.79
418.214	497.98
418.591	518.32
418.967	491.88
419.344	527.13
419.721	528.04
420.098	506.57
420.475	523.07
420.852	520.35
421.228	521.48
421.605	519.9
421.982	535.72
422.358	532.33
422.735	528.04
423.111	535.04
423.488	536.62
423.864	552.9
424.241	562.16
424.617	555.83
424.994	568.94
425.37	570.52
425.746	579.34
426.123	573.46
426.499	563.52
426.875	596.96
427.251	590.41
427.627	586.34
428.003	613.46
428.379	572.78
428.756	583.4
429.132	612.78
429.507	599.22
429.883	615.49
430.259	614.14
430.635	599.22
431.011	614.14
431.387	643.74
431.763	643.29
432.138	651.2
432.514	644.42
432.89	639.67
433.265	662.27
433.641	683.06
434.016	678.32
434.392	678.77
434.767	672.21
435.143	655.72
435.518	683.97
435.894	692.55
436.269	690.74
436.644	706.79
437.02	707.92
437.395	723.29
437.77	712.89
438.145	707.24
438.52	733.91
438.895	737.52
439.271	728.48
439.646	753.12
440.021	754.92
440.395	758.31
440.77	754.47
441.145	759.67
441.52	784.75
441.895	779.33
442.27	752.66
442.645	769.84
443.019	770.06
443.394	784.53
443.769	797.86
444.143	800.8
444.518	800.57
444.892	769.84
445.267	791.76
445.641	829.72
446.016	810.97
446.39	833.11
446.764	843.51
447.139	806.45
447.513	836.96
447.887	834.47
448.262	806.9
448.636	836.5
449.01	849.61
449.384	849.84
449.758	862.04
450.132	853.23
450.506	858.88
450.88	850.06
451.254	870.17
451.628	879.21
452.002	879.44
452.376	871.76
452.75	882.38
453.123	893
453.497	907.46
453.871	938.42
454.244	941.81
454.618	928.93
454.992	937.52
455.365	954.01
455.739	955.14
456.112	958.08
456.486	965.31
456.859	967.12
457.232	990.85
457.606	962.6
457.979	995.82
458.352	1034.01
458.725	1035.37
459.099	1041.92
459.472	1036.05
459.845	1055.71
460.218	1052.09
460.591	1077.63
460.964	1072.88
461.337	1086.89
461.71	1116.72
462.083	1117.63
462.456	1118.08
462.829	1107.91
463.201	1121.24
463.574	1134.8
463.947	1157.85
464.32	1189.26
464.692	1188.58
465.065	1196.04
465.438	1195.14
465.81	1193.56
466.183	1215.48
466.555	1265.64
466.928	1257.28
467.3	1271.29
467.672	1234.91
468.045	1317.85
468.417	1322.14
468.789	1367.56
469.161	1340.44
469.534	1371.63
469.906	1391.74
470.278	1415.47
470.65	1388.81
471.022	1410.27
471.394	1457.96
471.766	1465.19
472.138	1481.68
472.51	1495.24
472.882	1536.6
473.253	1549.48
473.625	1569.14
473.997	1609.36
474.369	1621.12
474.74	1622.47
475.112	1634.67
475.484	1681.9
475.855	1737.27
476.227	1732.3
476.598	1780.43
476.97	1778.63
477.341	1828.12
477.713	1838.28
478.084	1870.83
478.455	1921.67
478.827	1949.24
479.198	2026.53
479.569	1977.26
479.94	2049.13
480.311	2073.53
480.682	2104.49
481.053	2172.06
481.424	2212.29
481.795	2257.26
482.166	2236.24
482.537	2309.69
482.908	2315.33
483.279	2364.6
483.65	2424.94
484.021	2471.71
484.391	2498.83
484.762	2511.49
485.133	2539.28
485.503	2589.23
485.874	2614.99
486.244	2686.85
486.615	2710.35
486.985	2734.08
487.356	2777.47
487.726	2840.52
488.097	2891.14
488.467	2931.36
488.837	2946.05
489.207	3014.07
489.578	3027.18
489.948	3052.04
490.318	3106.73
490.688	3188.76
491.058	3176.55
491.428	3234.18
491.798	3270.79
492.168	3316.89
492.538	3300.17
492.908	3388.53
493.278	3447.73
493.648	3403.22
494.017	3463.33
494.387	3478.92
494.757	3559.14
495.126	3561.18
495.496	3577.45
495.866	3633.72
496.235	3690.44
496.605	3710.33
496.974	3723.43
497.344	3776.54
497.713	3786.03
498.082	3809.31
498.452	3875.52
498.821	3915.97
499.19	3869.87
499.559	3972.24
499.928	3980.6
500.298	3958.46
500.667	3984.9
501.036	3987.38
501.405	4067.38
501.774	4054.05
502.143	4109.41
502.512	4102.86
502.88	4193.7
503.249	4160.48
503.618	4189.64
503.987	4209.52
504.356	4253.81
504.724	4215.4
505.093	4263.08
505.462	4252.68
505.83	4332.68
506.199	4323.87
506.567	4412.45
506.936	4321.84
507.304	4459.01
507.672	4433.25
508.041	4485.22
508.409	4456.3
508.777	4511.89
509.145	4518.67
509.514	4501.49
509.882	4530.87
510.25	4538.1
510.618	4592.56
510.986	4620.36
511.354	4668.72
511.722	4676.4
512.09	4711.2
512.458	4706.01
512.826	4721.6
513.193	4765.67
513.561	4786.46
513.929	4767.47
514.297	4843.86
514.664	4816.29
515.032	4853.12
515.4	4833.23
515.767	4917.75
516.135	4890.41
516.502	4890.63
516.869	4948.94
517.237	4968.37
517.604	4940.35
517.972	5014.47
518.339	5000.91
518.706	5013.34
519.073	5003.63
519.44	5067.35
519.808	5094.24
520.175	5070.52
520.542	5143.06
520.909	5188.93
521.276	5167.91
521.643	5219.21
522.009	5247.91
522.376	5198.42
522.743	5303.73
523.11	5311.64
523.477	5365.88
523.843	5342.37
524.21	5398.87
524.577	5402.71
524.943	5432.09
525.31	5496.04
525.676	5583.5
526.043	5604.29
526.409	5545.98
526.776	5665.98
527.142	5611.07
527.508	5662.59
527.874	5672.99
528.241	5754.34
528.607	5681.35
528.973	5794.34
529.339	5783.49
529.705	5790.72
530.071	5821.01
530.437	5900.55
530.803	5866.88
531.169	5945.07
531.535	5919.99
531.901	5935.35
532.267	5970.38
532.632	5968.8
532.998	6065.52
533.364	6082.92
533.73	6068.46
534.095	6180.54
534.461	6133.77
534.826	6204.72
535.192	6230.26
535.557	6288.56
535.923	6261.67
536.288	6350.93
536.653	6301.44
537.019	6300.54
537.384	6378.73
537.749	6349.58
538.114	6461.67
538.479	6432.29
538.845	6468.22
539.21	6446.53
539.575	6488.33
539.94	6554.09
540.305	6525.85
540.67	6502.8
541.034	6581.89
541.399	6620.76
541.764	6662.11
542.129	6661.21
542.494	6658.5
542.858	6735.78
543.223	6720.19
543.587	6771.94
543.952	6793.86
544.316	6824.14
544.681	6845.61
545.045	6865.27
545.41	6940.98
545.774	6894.88
546.138	6951.37
546.503	7016.91
546.867	6984.36
547.231	7045.83
547.595	7013.06
547.959	7055.55
548.324	7096.9
548.688	7078.6
549.052	7126.28
549.416	7173.06
549.779	7184.59
550.143	7183.68
550.507	7233.85
550.871	7307.75
551.235	7194.98
551.599	7375.09
551.962	7297.58
552.326	7364.69
552.689	7413.05
553.053	7415.77
553.417	7405.6
553.78	7508.87
554.143	7441.75
554.507	7522.43
554.87	7470
555.234	7639.49
555.597	7546.61
555.96	7673.16
556.323	7727.62
556.686	7648.98
557.05	7736.43
557.413	7746.83
557.776	7746.38
558.139	7778.69
558.502	7767.62
558.865	7837.22
559.228	7878.13
559.59	7852.59
559.953	7870.22
560.316	7951.12
560.679	7937.33
561.041	8074.51
561.404	7998.12
561.767	8091.45
562.129	8055.97
562.492	8137.78
562.854	8088.74
563.217	8091.68
563.579	8182.98
563.941	8175.29
564.304	8255.52
564.666	8285.57
565.028	8264.56
565.39	8289.64
565.753	8389.98
566.115	8395.4
566.477	8469.75
566.839	8466.59
567.201	8538
567.563	8502.74
567.925	8591.33
568.287	8585.23
568.648	8634.04
569.01	8663.64
569.372	8702.96
569.734	8638.33
570.095	8694.83
570.457	8806.01
570.819	8818.67
571.18	8820.93
571.542	8859.34
571.903	8959.91
572.265	9015.05
572.626	8955.16
572.987	9081.03
573.349	9076.51
573.71	9119.22
574.071	9206.23
574.432	9290.74
574.794	9294.81
575.155	9391.53
575.516	9359.67
575.877	9433.34
576.238	9509.5
576.599	9595.37
576.96	9717.63
577.32	9771.18
577.681	9802.37
578.042	9894.34
578.403	9951.29
578.763	9970.73
579.124	10153.77
579.485	10276.26
579.845	10439.19
580.206	10473.99
580.566	10481.45
580.927	10664.49
581.287	10809.12
581.648	10876.92
582.008	11057.25
582.368	11121.43
582.728	11261.31
583.089	11389.9
583.449	11570.91
583.809	11650
584.169	11888.87
584.529	11987.62
584.889	12231.46
585.249	12358.91
585.609	12547.38
585.969	12757.09
586.329	12987.82
586.688	13179
587.048	13370.41
587.408	13580.58
587.768	13762.94
588.127	13933.33
588.487	14147.34
588.846	14501.45
589.206	14665.52
589.565	14830.26
589.925	15186.41
590.284	15373.07
590.643	15634.53
591.003	15942.55
591.362	16245.14
591.721	16458.69
592.08	16674.73
592.44	16985.68
592.799	17230.42
593.158	17646.91
593.517	17869.95
593.876	18131.87
594.235	18350.39
594.593	18613.44
594.952	18936.82
595.311	19230.82
595.67	19569.57
596.029	19879.84
596.387	20204.13
596.746	20535.42
597.104	20750.1
597.463	20934.96
597.822	21379.92
598.18	21522.74
598.538	21839.57
598.897	22144.42
599.255	22420.34
599.613	22928.35
599.972	23154.56
600.33	23392.52
600.688	23619.86
601.046	24023.69
601.404	24384.13
601.762	24477.24
602.12	24892.59
602.478	25158.58
602.836	25327.16
603.194	25564.44
603.552	25928.5
603.91	26146.35
604.268	26461.82
604.625	26642.38
604.983	26982.48
605.341	27140.44
605.698	27598.06
606.056	27759.86
606.413	27979.52
606.771	28106.52
607.128	28527.07
607.485	28588.09
607.843	28845.26
608.2	29219.94
608.557	29340.16
608.914	29595.07
609.272	29901.5
609.629	30223.3
609.986	30435.05
610.343	30594.59
610.7	30956.62
611.057	31042.04
611.414	31293.33
611.771	31447
612.127	31741.68
612.484	31809.93
612.841	32175.34
613.198	32100.54
613.554	32395.67
613.911	32599.74
614.267	32713.41
614.624	32972.61
614.98	33198.36
615.337	33246.72
615.693	33512.48
616.05	33596.77
616.406	34005.35
616.762	33848.97
617.118	34184.33
617.475	34143.65
617.831	34508.16
618.187	34574.15
618.543	34638.33
618.899	35046.68
619.255	34982.95
619.611	35029.5
619.967	35474.69
620.323	35615.25
620.678	35423.84
621.034	35527.12
621.39	35698.41
621.746	35815.47
622.101	36235.35
622.457	35914.23
622.812	36212.52
623.168	36364.16
623.523	36406.42
623.879	36625.17
624.234	36322.8
624.589	36835.78
624.945	36655.22
625.3	36847.31
625.655	36897.25
626.01	36919.85
626.365	37084.36
626.72	37166.62
627.075	37348.76
627.43	37194.19
627.785	37327.75
628.14	37331.36
628.495	37489.32
628.85	37507.18
629.205	37371.14
629.559	37584.69
629.914	37549.21
630.269	37668.76
630.623	37597.34
630.978	37647.74
631.332	37709.21
631.687	37843.44
632.041	37823.78
632.396	37827.62
632.75	37812.93
633.104	37727.96
633.459	37655.42
633.813	37752.82
634.167	37797.11
634.521	37788.75
634.875	37910.78
635.229	37922.53
635.583	37696.33
635.937	37856.77
636.291	37754.4
636.645	37791.01
636.999	37837.11
637.352	37930.67
637.706	37694.29
638.06	37924.57
638.413	37800.05
638.767	37760.28
639.121	37875.3
639.474	37597.8
639.828	37656.55
640.181	37738.58
640.534	37769.54
640.888	37617.46
641.241	37491.81
641.594	37673.95
641.947	37735.42
642.301	37577.23
642.654	37693.16
643.007	37773.16
643.36	37605.48
643.713	37585.14
644.066	37884.57
644.419	37522.32
644.771	37375.43
645.124	37048.43
645.477	36948.55
645.83	36706.07
646.182	36609.12
646.535	36556.24
646.888	36746.07
647.24	36434.89
647.593	36736.35
647.945	36562.8
648.298	36502.46
648.65	36409.13
649.002	36273.31
649.355	36627.43
649.707	36430.6
650.059	36506.07
650.411	37040.52
650.763	37165.72
651.115	37284.58
651.467	37176.79
651.819	37352.38
652.171	37207.98
652.523	37250.46
652.875	37101.76
653.227	36979.06
653.578	37279.84
653.93	37304.25
654.282	36992.84
654.633	36807.76
654.985	37063.57
655.337	36945.61
655.688	37058.15
656.039	37137.24
656.391	36900.64
656.742	36936.57
657.094	36977.7
657.445	37078.94
657.796	36919.17
658.147	36877.14
658.498	37026.06
658.849	36921.2
659.2	37084.82
659.551	36818.83
659.902	37039.17
660.253	36962.11
660.604	37034.65
660.955	36819.51
661.306	36991.03
661.656	36827.87
662.007	36814.99
662.358	36774.77
662.708	36856.12
663.059	36961.88
663.409	36575.68
663.76	36941.32
664.11	36770.7
664.461	36907.87
664.811	36905.16
665.161	36814.09
665.511	36704.26
665.862	36782.45
666.212	36893.86
666.562	36883.24
666.912	36819.06
667.262	36813.64
667.612	36728.44
667.962	36837.59
668.312	36695.22
668.662	37045.27
669.011	36792.17
669.361	36785.61
669.711	36619.07
670.06	36761.21
670.41	36654.54
670.76	36548.56
671.109	36698.39
671.459	36691.61
671.808	36655.67
672.157	36641.66
672.507	36526.41
672.856	36482.12
673.205	36541.55
673.554	36660.42
673.904	36451.16
674.253	36680.53
674.602	36641.21
674.951	35962.13
675.3	35941.34
675.649	36439.18
675.998	36379.07
676.346	36311.28
676.695	36535.68
677.044	36262.46
677.393	36313.99
677.741	36318.28
678.09	36393.53
678.438	36185.18
678.787	36273.31
679.135	36321.67
679.484	36067.67
679.832	36194.44
680.181	35896.15
680.529	36109.25
680.877	36019.99
681.225	35973.88
681.573	36196.25
681.922	35997.84
682.27	35713.1
682.618	35849.82
682.966	35748.81
683.314	35777.96
683.661	35712.2
684.009	35511.52
684.357	35436.5
684.705	35368.02
685.053	35462.49
685.4	35401.92
685.748	35265.88
686.095	35250.97
686.443	35104.75
686.79	34994.7
687.138	35178.65
687.485	35143.62
687.832	35021.14
688.18	34958.09
688.527	34870.41
688.874	34910.64
689.221	34847.59
689.568	34561.72
689.915	34438.33
690.262	34640.13
690.609	34461.38
690.956	34377.54
691.303	34374.83
691.65	34174.84
691.997	34042.64
692.344	33908.4
692.69	33884.9
693.037	33958.12
693.383	33644.23
693.73	33684.91
694.077	33451.47
694.423	33610.78
694.769	33571.01
695.116	33458.02
695.462	33192.94
695.808	33204.01
696.155	33266.61
696.501	33073.62
696.847	33123.34
697.193	32827.53
697.539	32982.55
697.885	32789.11
698.231	32653.97
698.577	32723.8
698.923	32628.66
699.269	32559.96
699.614	32370.59
699.96	32319.52
700.306	32326.97
700.651	32217.83
700.997	32070.71
701.342	31978.51
701.688	31909.58
702.033	31850.83
702.379	31897.83
702.724	31840.21
703.069	31709.14
703.415	31527.22
703.76	31515.24
704.105	31523.15
704.45	31317.28
704.795	31154.12
705.14	31083.62
705.485	31141.92
705.83	30993.45
706.175	30944.41
706.52	30897.63
706.865	30809.05
707.209	30710.29
707.554	30612.9
707.899	30704.87
708.243	30478.66
708.588	30598.21
708.932	30250.87
709.277	30309.17
709.621	30412.9
709.966	30154.83
710.31	30153.92
710.654	29962.74
710.998	29943.08
711.342	29899.24
711.687	29903.54
712.031	29767.04
712.375	29742.86
712.719	29714.61
713.063	29664.22
713.407	29698.34
713.75	29482.08
714.094	29410.44
714.438	29368.18
714.782	29369.54
715.125	29248.86
715.469	29270.33
715.812	29100.39
716.156	28989.21
716.499	29002.32
716.843	29011.58
717.186	28831.25
717.53	29039.83
717.873	28968.87
718.216	28872.83
718.559	28777.69
718.902	28596
719.246	28559.62
719.589	28574.31
719.932	28495.89
720.275	28501.31
720.617	28538.6
720.96	28474.42
721.303	28418.38
721.646	28488.88
721.989	28173.41
722.331	28228.33
722.674	28185.16
723.016	28279.17
723.359	28004.83
723.701	28059.06
724.044	27921.89
724.386	27776.59
724.729	27971.84
725.071	27873.98
725.413	27839.41
725.755	27878.5
726.097	27689.13
726.439	27539.98
726.782	27484.84
727.124	27666.98
727.465	27529.36
727.807	27466.76
728.149	27431.51
728.491	27411.85
728.833	27469.25
729.175	27436.03
729.516	27305.86
729.858	27200.33
730.199	27244.4
730.541	27156.72
730.882	27248.24
731.224	27080.79
731.565	27030.39
731.906	26908.13
732.248	27048.24
732.589	26953.78
732.93	26860.23
733.271	26775.93
733.612	26831.3
733.953	26875.37
734.294	26734.58
734.635	26670.4
734.976	26738.87
735.317	26500.91
735.658	26618.42
735.999	26586.79
736.339	26448.26
736.68	26550.63
737.021	26502.5
737.361	26374.36
737.702	26556.96
738.042	26402.84
738.383	26372.56
738.723	26403.29
739.063	26197.42
739.404	26281.94
739.744	26098.66
740.084	26010.76
740.424	26222.95
740.764	25984.99
741.104	26155.61
741.444	25912.68
741.784	25904.54
742.124	25965.33
742.464	25882.17
742.804	25750.65
743.143	25776.41
743.483	25734.61
743.823	25599.92
744.162	25629.98
744.502	25670.43
744.841	25517.21
745.181	25552.69
745.52	25536.19
745.86	25474.05
746.199	25365.58
746.538	25466.59
746.877	25501.84
747.216	25441.51
747.556	25385.46
747.895	25377.55
748.234	25201.29
748.573	25183.66
748.911	25226.14
749.25	25263.43
749.589	25118.35
749.928	25102.31
750.267	25154.73
750.605	24984.57
750.944	25081.52
751.283	24931.92
751.621	24957.45
751.96	24814.63
752.298	24831.35
752.636	24882.42
752.975	24565.15
753.313	24624.58
753.651	24695.31
753.989	24565.6
754.327	24483.11
754.666	24415.54
755.004	24460.06
755.342	24503.68
755.679	24322.21
756.017	24300.07
756.355	24245.61
756.693	24155.89
757.031	24273.85
757.368	24094.2
757.706	23994.54
758.044	23933.75
758.381	23995.67
758.719	23873.64
759.056	23857.37
759.394	23827.76
759.731	23590.93
760.068	23656.69
760.405	23438.85
760.743	23412.86
761.08	23564.04
761.417	23392.75
761.754	23250.83
762.091	23376.93
762.428	23206.31
762.765	23041.34
763.102	23142.58
763.438	22965.64
763.775	22879.77
764.112	22967.9
764.449	22900.56
764.785	22866.21
765.122	22706.66
765.458	22643.16
765.795	22527.68
766.131	22456.05
766.467	22514.13
766.804	22404.52
767.14	22296.5
767.476	22233
767.812	22160.91
768.148	22232.1
768.485	22001.6
768.821	22009.28
769.157	21882.5
769.492	21820.81
769.828	21772.68
770.164	21654.26
770.5	21563.87
770.836	21501.04
771.171	21501.04
771.507	21387.15
771.842	21287.49
772.178	21206.59
772.513	21168.62
772.849	21080.72
773.184	20941.29
773.519	21038.23
773.855	20911.68
774.19	20850.21
774.525	20774.96
774.86	20815.19
775.195	20659.71
775.53	20539.26
775.865	20381.3
776.2	20294.75
776.535	20195.32
776.87	20140.4
777.205	20092.27
777.539	20073.96
777.874	20067.86
778.209	19894.08
778.543	19941.54
778.878	19771.6
779.212	19732.5
779.547	19629
779.881	19621.32
780.215	19529.57
780.55	19549.23
780.884	19357.37
781.218	19314.21
781.552	19371.38
781.886	19300.42
782.22	19052.3
782.554	19155.8
782.888	18866.99
783.222	18773.21
783.556	18772.53
783.889	18665.19
784.223	18607.79
784.557	18539.09
784.89	18535.25
785.224	18388.36
785.557	18410.5
785.891	18231.75
786.224	18303.39
786.558	18225.2
786.891	18101.36
787.224	18041.25
787.557	17932.55
787.891	17952.66
788.224	18002.15
788.557	17860.46
788.89	17791.31
789.223	17729.62
789.556	17637.19
789.888	17523.97
790.221	17514.03
790.554	17419.34
790.887	17383.41
791.219	17418.89
791.552	17276.3
791.884	17208.28
792.217	17109.75
792.549	17142.29
792.882	17042.4
793.214	16958.79
793.546	16945.01
793.879	16816.65
794.211	16695.75
794.543	16735.29
794.875	16662.3
795.207	16647.61
795.539	16686.26
795.871	16575.52
796.203	16486.26
796.535	16432.48
796.867	16300.96
797.198	16350.9
797.53	16251.24
797.862	16178.47
798.193	16247.17
798.525	16016.44
798.856	16133.5
799.188	15987.97
799.519	15980.06
799.85	15850.57
800.182	15844.92
800.513	15856.22
800.844	15732.61
801.175	15780.52
801.506	15719.73
801.837	15627.07
802.168	15596.12
802.499	15502.56
802.83	15460.98
803.161	15497.36
803.491	15434.09
803.822	15470.02
804.153	15292.39
804.483	15211.04
804.814	15181.44
805.145	15141.21
805.475	15123.81
805.805	15066.41
806.136	15063.25
806.466	15042.01
806.796	14999.97
807.126	14762.92
807.457	14815.57
807.787	14775.12
808.117	14733.54
808.447	14750.94
808.777	14770.15
809.107	14640.66
809.436	14631.39
809.766	14579.19
810.096	14609.47
810.426	14466.65
810.755	14453.09
811.085	14474.56
811.414	14390.27
811.744	14360.44
812.073	14351.85
812.403	14279.09
812.732	14197.51
813.061	14186.89
813.39	14134.46
813.719	14146.44
814.049	14078.19
814.378	14055.36
814.707	14018.53
815.036	13988.47
815.365	13944.41
815.693	13851.3
816.022	13785.77
816.351	13840.23
816.68	13666.22
817.008	13798.65
817.337	13623.51
817.665	13599.78
817.994	13579.22
818.322	13663.51
818.651	13507.36
818.979	13602.27
819.307	13534.7
819.636	13437.75
819.964	13401.37
820.292	13432.78
820.62	13374.93
820.948	13316.63
821.276	13398.21
821.604	13360.02
821.932	13372.67
822.259	13420.81
822.587	13380.13
822.915	13327.02
823.243	13370.19
823.57	13321.82
823.898	13341.71
824.225	13278.44
824.553	13278.44
824.88	13369.06
825.207	13362.5
825.535	13303.29
825.862	13312.79
826.189	13208.16
826.516	13365.89
826.843	13374.93
827.17	13311.88
827.497	13330.86
827.824	13289.96
828.151	13363.41
828.478	13288.38
828.805	13372.67
829.131	13256.97
829.458	13276.85
829.785	13155.5
830.111	13233.47
830.438	13290.87
830.764	13276.4
831.09	13249.06
831.417	13210.87
831.743	13261.04
832.069	13263.97
832.395	13135.39
832.722	13199.57
833.048	13169.06
833.374	13165.9
833.7	13138.33
834.026	13133.81
834.351	13134.26
834.677	13161.83
835.003	13141.26
835.329	13073.47
835.654	13093.36
835.98	13088.84
836.306	13018.56
836.631	12994.15
836.956	13017.65
837.282	12986.69
837.607	12910.76
837.932	12941.27
838.258	12896.98
838.583	12947.37
838.908	12720.94
839.233	12883.64
839.558	12758
839.883	12800.93
840.208	12795.51
840.533	12798.45
840.858	12648.85
841.182	12739.47
841.507	12730.88
841.832	12678
842.156	12569.75
842.481	12629.87
842.805	12559.36
843.13	12608.85
843.454	12543.09
843.778	12528.63
844.103	12540.38
844.427	12426.03
844.751	12429.64
845.075	12395.52
845.399	12417.89
845.723	12244.57
846.047	12294.06
846.371	12199.14
846.695	12179.48
847.019	12042.99
847.343	12088.18
847.666	12022.88
847.99	11912.14
848.313	11864.46
848.637	11818.14
848.96	11797.35
849.284	11810.45
849.607	11715.99
849.931	11644.58
850.254	11653.62
850.577	11515.09
850.9	11476.22
851.223	11522.55
851.546	11358.26
851.869	11341.99
852.192	11406.39
852.515	11251.14
852.838	11208.89
853.161	11224.25
853.483	11143.13
853.806	11167.98
854.129	11058.38
854.451	11073.3
854.774	10923.24
855.096	10962.56
855.419	10916.69
855.741	10899.97
856.063	10904.49
856.385	10839.18
856.708	10825.85
857.03	10792.85
857.352	10728.67
857.674	10781.78
857.996	10642.12
858.318	10632.4
858.64	10723.25
858.961	10590.37
859.283	10608.45
859.605	10465.63
859.926	10505.63
860.248	10527.1
860.57	10461.11
860.891	10469.02
861.212	10420.88
861.534	10351.96
861.855	10375.91
862.176	10370.26
862.498	10326.65
862.819	10324.84
863.14	10316.71
863.461	10255.24
863.782	10229.7
864.103	10234.22
864.424	10200.55
864.745	10247.1
865.065	10147.67
865.386	10126.65
865.707	10115.58
866.027	10111.06
866.348	10133.43
866.668	10062.93
866.989	10071.29
867.309	9946.77
867.63	10017.28
867.95	10076.03
868.27	9883.05
868.59	9986.77
868.91	9877.62
869.23	9940.44
869.55	9902.03
869.87	9892.08
870.19	9847.57
870.51	9824.29
870.83	9892.31
871.15	9818.19
871.469	9822.48
871.789	9795.59
872.109	9756.27
872.428	9746.33
872.748	9780.45
873.067	9740.22
873.386	9730.73
873.706	9712.43
874.025	9699.55
874.344	9661.13
874.663	9666.1
874.982	9575.93
875.301	9670.62
875.62	9593.11
875.939	9502.49
876.258	9578.87
876.577	9522.6
876.896	9519.21
877.214	9495.94
877.533	9508.82
877.852	9451.64
878.17	9492.1
878.489	9409.39
878.807	9463.17
879.125	9427.46
879.444	9375.71
879.762	9377.52
880.08	9383.4
880.398	9353.12
880.716	9325.55
881.034	9341.14
881.352	9323.96
881.67	9315.15
881.988	9366.67
882.306	9259.33
882.624	9215.27
882.941	9199
883.259	9163.52
883.577	9167.58
883.894	9170.3
884.212	9170.07
884.529	9097.3
884.846	9114.93
885.164	9031.32
885.481	8989.51
885.798	9074.25
886.115	8970.53
886.432	8936.86
886.75	8990.19
887.067	8911.55
887.383	8865.22
887.7	8929.4
888.017	8825.22
888.334	8864.09
888.651	8847.14
888.967	8803.07
889.284	8756.75
889.6	8717.88
889.917	8754.94
890.233	8684.43
890.55	8674.72
890.866	8693.7
891.182	8711.78
891.498	8635.39
891.815	8591.55
892.131	8610.76
892.447	8543.65
892.763	8552.46
893.079	8494.38
893.395	8506.58
893.71	8490.09
894.026	8466.36
894.342	8382.75
894.657	8304.56
894.973	8321.96
895.289	8289.64
895.604	8316.98
895.92	8226.14
896.235	8225.01
896.55	8203.09
896.865	8156.76
897.181	8114.96
897.496	8192.47
897.811	8075.41
898.126	8098.01
898.441	8060.72
898.756	8011
899.071	7935.3
899.386	8002.87
899.7	7928.07
900.015	7907.73
900.33	7798.13
900.644	7819.82
900.959	7861.4
901.273	7767.85
901.588	7811.46
901.902	7751.8
902.216	7686.94
902.531	7703.44
902.845	7628.19
903.159	7587.51
903.473	7520.17
903.787	7549.77
904.101	7497.8
904.415	7426.39
904.729	7450.11
905.042	7431.81
905.356	7444.01
905.67	7374.86
905.984	7365.6
906.297	7379.61
906.611	7346.39
906.924	7272.49
907.237	7226.84
907.551	7245.15
907.864	7203.57
908.177	7168.09
908.491	7211.7
908.804	7071.59
909.117	7109.78
909.43	6999.96
909.743	7047.64
910.056	7041.54
910.368	6978.94
910.681	6975.78
910.994	6900.3
911.307	6857.81
911.619	6821.66
911.932	6852.16
912.244	6830.47
912.557	6798.15
912.869	6783.24
913.181	6702.79
913.494	6729.23
913.806	6657.37
914.118	6663.24
914.43	6557.03
914.742	6577.6
915.054	6543.02
915.366	6529.91
915.678	6537.14
915.99	6455.79
916.302	6465.96
916.613	6435.45
916.925	6417.37
917.236	6383.25
917.548	6320.65
917.859	6338.96
918.171	6279.52
918.482	6272.74
918.794	6223.71
919.105	6230.94
919.416	6227.1
919.727	6152.75
920.038	6177.15
920.349	6136.03
920.66	6100.77
920.971	6078.17
921.282	6035.46
921.593	5993.2
921.903	5982.13
922.214	5975.35
922.525	5929.48
922.835	5927.89
923.146	5885.18
923.456	5889.48
923.767	5874.11
924.077	5835.69
924.387	5825.75
924.697	5790.27
925.008	5732.42
925.318	5728.58
925.628	5690.16
925.938	5705.3
926.248	5609.71
926.558	5636.83
926.867	5602.03
927.177	5548.92
927.487	5584.85
927.796	5526.55
928.106	5487.91
928.416	5502.6
928.725	5468.47
929.034	5430.73
929.344	5460.11
929.653	5399.55
929.962	5367.23
930.271	5323.39
930.581	5368.36
930.89	5288.59
931.199	5247.23
931.508	5234.35
931.817	5187.8
932.125	5230.06
932.434	5224.86
932.743	5110.29
933.051	5131.98
933.36	5111.65
933.669	5083.85
933.977	5044.08
934.286	5085.43
934.594	5028.03
934.902	5033.91
935.21	4931.31
935.519	4976.73
935.827	4968.15
936.135	4950.29
936.443	4899.45
936.751	4860.13
937.059	4872.78
937.367	4830.52
937.674	4802.05
937.982	4817.19
938.29	4792.33
938.597	4734.25
938.905	4733.8
939.213	4746.46
939.52	4695.61
939.827	4746.01
940.135	4653.13
940.442	4679.79
940.749	4654.48
941.056	4646.12
941.363	4590.75
941.67	4535.62
941.977	4544.88
942.284	4515.28
942.591	4531.1
942.898	4506.01
943.205	4449.52
943.511	4439.57
943.818	4412.68
944.125	4375.17
944.431	4410.42
944.738	4398.9
945.044	4396.41
945.35	4350.99
945.657	4304.66
945.963	4274.83
946.269	4263.53
946.575	4257.88
946.881	4283.42
947.187	4297.66
947.493	4202.06
947.799	4235.96
948.105	4172.01
948.41	4143.08
948.716	4181.05
949.022	4152.12
949.327	4139.02
949.633	4076.19
949.938	4081.39
950.244	4076.42
950.549	4049.3
950.854	3997.32
951.16	3966.14
951.465	3943.54
951.77	3969.98
952.075	3964.78
952.38	3955.29
952.685	3927.04
952.99	3889.3
953.294	3895.18
953.599	3875.52
953.904	3793.04
954.209	3839.59
954.513	3902.64
954.818	3796.88
955.122	3793.49
955.426	3797.1
955.731	3773.83
956.035	3755.3
956.339	3698.8
956.643	3695.86
956.948	3701.29
957.252	3632.14
957.556	3678.46
957.86	3626.03
958.163	3635.07
958.467	3609.54
958.771	3574.51
959.075	3560.05
959.378	3603.44
959.682	3566.38
959.985	3518.92
960.289	3519.37
960.592	3504.91
960.896	3499.48
961.199	3486.38
961.502	3492.93
961.805	3471.01
962.108	3449.09
962.411	3412.71
962.714	3379.49
963.017	3393.5
963.32	3373.61
963.623	3355.08
963.926	3341.97
964.228	3329.77
964.531	3279.6
964.833	3323.9
965.136	3277.8
965.438	3280.28
965.741	3251.81
966.043	3193.73
966.345	3250.45
966.648	3229.66
966.95	3218.81
967.252	3202.54
967.554	3158.25
967.856	3179.94
968.158	3097.46
968.46	3121.19
968.761	3098.82
969.063	3097.46
969.365	3074.41
969.666	3090.46
969.968	3070.34
970.269	3056.56
970.571	3019.5
970.872	3033.06
971.174	2978.37
971.475	3025.37
971.776	2973.4
972.077	2936.11
972.378	2955.09
972.679	2952.15
972.98	2946.73
973.281	2941.76
973.582	2923
973.883	2905.15
974.183	2904.7
974.484	2887.52
974.785	2865.6
975.085	2838.71
975.386	2851.59
975.686	2798.94
975.986	2805.04
976.287	2796.9
976.587	2803.01
976.887	2767.53
977.187	2783.12
977.487	2732.27
977.787	2767.75
978.087	2751.48
978.387	2713.97
978.687	2714.19
978.987	2669.9
979.286	2690.47
979.586	2668.09
979.885	2657.25
980.185	2663.57
980.484	2635.33
980.784	2620.41
981.083	2606.17
981.382	2624.7
981.682	2585.61
981.981	2573.18
982.28	2558.72
982.579	2564.59
982.878	2537.25
983.177	2539.06
983.475	2499.74
983.774	2514.88
984.073	2510.36
984.372	2470.13
984.67	2487.08
984.969	2452.96
985.267	2487.31
985.566	2452.51
985.864	2435.11
986.162	2425.61
986.461	2423.81
986.759	2403.69
987.057	2375.67
987.355	2369.34
987.653	2352.4
987.951	2335.45
988.249	2323.02
988.547	2351.94
988.844	2327.54
989.142	2355.79
989.44	2298.39
989.737	2302.45
990.035	2286.18
990.332	2308.78
990.63	2265.84
990.927	2305.17
991.224	2266.3
991.521	2212.29
991.819	2243.47
992.116	2207.09
992.413	2219.29
992.71	2203.47
993.006	2200.31
993.303	2197.15
993.6	2187.65
993.897	2150.14
994.193	2170.93
994.49	2112.85
994.787	2127.54
995.083	2115.57
995.379	2101.78
995.676	2114.44
995.972	2090.48
996.268	2084.15
996.565	2072.18
996.861	2081.22
997.157	2086.19
997.453	2033.31
997.749	2022.01
998.044	1995.12
998.34	2000.99
998.636	2026.98
998.932	2005.51
999.227	1969.81
999.523	1960.09
999.818	1966.87
1000.114	1949.24
1000.409	1930.26
1000.704	1913.54
1001	1915.12
1001.295	1890.94
1001.59	1906.08
1001.885	1878.06
1002.18	1863.37
1002.475	1842.8
1002.77	1879.64
1003.065	1837.83
1003.359	1849.13
1003.654	1846.42
1003.949	1826.31
1004.243	1814.56
1004.538	1808.46
1004.832	1756.03
1005.127	1778.4
1005.421	1758.06
1005.715	1759.87
1006.009	1782.02
1006.304	1744.28
1006.598	1742.47
1006.892	1731.4
1007.186	1701.11
1007.48	1716.71
1007.773	1705.18
1008.067	1701.79
1008.361	1664.5
1008.655	1661.34
1008.948	1663.6
1009.242	1667.44
1009.535	1629.93
1009.829	1629.25
1010.122	1613.66
1010.415	1603.71
1010.708	1601.91
1011.001	1584.96
1011.295	1607.33
1011.588	1598.07
1011.881	1565.3
1012.173	1543.15
1012.466	1543.38
1012.759	1562.59
1013.052	1550.38
1013.344	1533.89
1013.637	1508.8
1013.93	1488.69
1014.222	1500.89
1014.514	1498.41
1014.807	1508.8
1015.099	1474.68
1015.391	1441.91
1015.683	1440.56
1015.976	1456.83
1016.268	1453.44
1016.56	1442.59
1016.851	1425.87
1017.143	1426.09
1017.435	1390.84
1017.727	1416.38
1018.018	1406.21
1018.31	1402.59
1018.602	1385.64
1018.893	1394.68
1019.185	1349.94
1019.476	1353.55
1019.767	1325.53
1020.058	1332.31
1020.35	1315.81
1020.641	1319.2
1020.932	1292.54
1021.223	1294.57
1021.514	1297.51
1021.804	1290.28
1022.095	1292.99
1022.386	1281.01
1022.677	1265.19
1022.967	1250.28
1023.258	1257.96
1023.548	1252.99
1023.839	1215.02
1024.129	1226.55
1024.419	1201.69
1024.709	1193.56
1025	1198.53
1025.29	1186.55
1025.58	1173.9
1025.87	1165.99
1026.16	1162.82
1026.449	1164.18
1026.739	1152.2
1027.029	1145.65
1027.319	1145.2
1027.608	1129.83
1027.898	1109.94
1028.187	1120.79
1028.477	1108.36
1028.766	1107
1029.055	1092.09
1029.344	1090.73
1029.634	1083.73
1029.923	1085.54
1030.212	1070.17
1030.501	1076.27
1030.79	1046.44
1031.078	1055.03
1031.367	1050.28
1031.656	1040.57
1031.945	1033.79
1032.233	1016.39
1032.522	987.23
1032.81	1009.83
1033.099	999.44
1033.387	1009.61
1033.675	996.05
1033.963	976.84
1034.251	981.58
1034.54	984.75
1034.828	958.76
1035.116	963.73
1035.403	947.01
1035.691	930.51
1035.979	913.11
1036.267	961.47
1036.554	910.85
1036.842	910.4
1037.129	925.31
1037.417	900
1037.704	904.07
1037.992	892.55
1038.279	883.51
1038.566	897.07
1038.853	897.07
1039.14	897.07
