Data from hue_160_FLMS001491_00094.txt Node
Date: Tue Feb 07 16:51:57 GMT 2017
User: dcchb
Spectrometer: FLMS00149
Trigger mode: 0
Integration Time (sec): 2.000000E-2
Scans to average: 10
Electric dark correction enabled: true
Nonlinearity correction enabled: false
Boxcar width: 0
XAxis mode: Wavelengths
Number of Pixels in Spectrum: 2048
>>>>>Begin Spectral Data<<<<<
341.393	-16.36
341.776	-16.36
342.16	-16.36
342.543	-67.43
342.927	-74.21
343.31	-61.1
343.693	-71.95
344.077	-74.89
344.46	-47.09
344.843	-60.65
345.226	-47.54
345.61	-36.92
345.993	-27.2
346.376	-5.96
346.759	5.11
347.142	47.15
347.525	44.66
347.908	59.57
348.291	72.23
348.674	98.22
349.057	106.35
349.44	123.98
349.823	121.95
350.206	142.74
350.588	203.75
350.971	205.11
351.354	210.98
351.737	225.67
352.119	252.11
352.502	273.13
352.884	268.83
353.267	277.87
353.65	315.16
354.032	302.51
354.414	300.92
354.797	301.83
355.179	308.16
355.562	330.53
355.944	337.08
356.326	326.46
356.709	302.96
357.091	342.73
357.473	368.04
357.855	342.28
358.238	333.24
358.62	337.76
359.002	325.1
359.384	315.39
359.766	326.69
360.148	346.35
360.53	341.6
360.912	340.47
361.294	330.08
361.676	356.52
362.057	338.44
362.439	319.23
362.821	330.75
363.203	330.08
363.584	316.52
363.966	338.21
364.348	325.33
364.729	318.32
365.111	315.84
365.493	322.39
365.874	328.04
366.256	329.4
366.637	319.45
367.019	304.99
367.4	303.18
367.781	312
368.163	315.16
368.544	314.48
368.925	306.35
369.306	337.76
369.688	326.23
370.069	317.65
370.45	308.38
370.831	312.68
371.212	311.77
371.593	313.81
371.974	309.51
372.355	314.71
372.736	325.56
373.117	313.13
373.498	327.82
373.879	343.64
374.26	310.64
374.641	316.29
375.021	316.07
375.402	314.03
375.783	337.53
376.163	356.74
376.544	328.27
376.925	325.78
377.305	335.5
377.686	335.73
378.066	327.59
378.447	325.78
378.827	320.36
379.208	320.81
379.588	327.14
379.968	339.79
380.349	334.82
380.729	341.38
381.109	319.91
381.489	331.21
381.87	340.7
382.25	309.51
382.63	347.25
383.01	345.44
383.39	344.31
383.77	330.08
384.15	343.86
384.53	349.28
384.91	359
385.29	356.97
385.67	344.76
386.049	372.11
386.429	374.59
386.809	329.62
387.189	353.35
387.568	353.8
387.948	356.52
388.328	357.42
388.707	349.74
389.087	355.84
389.466	356.97
389.846	357.42
390.225	395.61
390.605	371.88
390.984	357.65
391.363	368.04
391.743	382.73
392.122	352.9
392.501	356.29
392.881	375.95
393.26	365.1
393.639	378.66
394.018	385.89
394.397	388.15
394.776	393.58
395.155	381.15
395.534	362.62
395.913	363.75
396.292	405.55
396.671	381.37
397.05	384.54
397.429	370.75
397.808	401.71
398.186	405.33
398.565	408.94
398.944	413.46
399.323	398.32
399.701	407.59
400.08	385.89
400.458	376.63
400.837	416.18
401.215	399.45
401.594	406.68
401.972	406.91
402.351	402.62
402.729	394.48
403.107	401.71
403.486	420.02
403.864	406.91
404.242	408.94
404.62	422.05
404.999	432.22
405.377	415.72
405.755	410.75
406.133	420.7
406.511	442.39
406.889	429.06
407.267	430.19
407.645	429.96
408.023	435.16
408.401	444.2
408.779	443.29
409.156	434.25
409.534	446.46
409.912	447.14
410.29	451.65
410.667	454.14
411.045	468.6
411.422	465.67
411.8	462.95
412.178	481.48
412.555	479.9
412.933	490.07
413.31	487.13
413.687	467.7
414.065	484.87
414.442	506.79
414.819	499.79
415.197	491.88
415.574	513.35
415.951	521.71
416.328	486.46
416.705	511.99
417.082	520.81
417.46	506.12
417.837	530.97
418.214	495.95
418.591	512.22
418.967	525.55
419.344	523.52
419.721	552.67
420.098	535.72
420.475	554.25
420.852	546.57
421.228	562.61
421.605	543.86
421.982	557.64
422.358	584.53
422.735	558.77
423.111	582.05
423.488	561.03
423.864	560.13
424.241	578.21
424.617	588.37
424.994	571.2
425.37	595.61
425.746	595.38
426.123	601.93
426.499	596.06
426.875	614.81
427.251	618.2
427.627	636.28
428.003	616.17
428.379	646.45
428.756	634.47
429.132	647.81
429.507	631.99
429.883	633.57
430.259	645.55
430.635	665.89
431.011	665.66
431.387	691.42
431.763	696.85
432.138	697.3
432.514	688.48
432.89	695.72
433.265	723.29
433.641	696.62
434.016	721.03
434.392	718.54
434.767	749.27
435.143	737.97
435.518	740.23
435.894	745.66
436.269	752.44
436.644	767.58
437.02	764.19
437.395	775.49
437.77	772.32
438.145	799.89
438.52	790.85
438.895	791.76
439.271	840.57
439.646	803.74
440.021	824.98
440.395	823.4
440.77	809.61
441.145	848.03
441.52	840.35
441.895	840.57
442.27	865.43
442.645	867.46
443.019	852.1
443.394	862.49
443.769	873.11
444.143	893
444.518	888.93
444.892	869.72
445.267	887.58
445.641	890.29
446.016	913.56
446.39	897.52
446.764	932.32
447.139	907.91
447.513	930.06
447.887	926.22
448.262	949.27
448.636	935.48
449.01	963.05
449.384	952.21
449.758	980.91
450.132	978.65
450.506	1000.79
450.88	1009.61
451.254	1001.24
451.628	1022.04
452.002	1028.81
452.376	1025.2
452.75	1036.05
453.123	1046.89
453.497	1062.49
453.871	1064.75
454.244	1077.85
454.618	1072.88
454.992	1104.97
455.365	1130.96
455.739	1129.38
456.112	1140.9
456.486	1142.71
456.859	1181.81
457.232	1184.29
457.606	1183.84
457.979	1169.83
458.352	1233.56
458.725	1216.83
459.099	1234.91
459.472	1260.45
459.845	1254.12
460.218	1294.12
460.591	1297.96
460.964	1315.59
461.337	1356.26
461.71	1327.56
462.083	1375.47
462.456	1378.18
462.829	1381.12
463.201	1429.93
463.574	1444.62
463.947	1467.45
464.32	1461.35
464.692	1492.31
465.065	1518.97
465.438	1524.85
465.81	1526.2
466.183	1545.86
466.555	1601.68
466.928	1633.77
467.3	1613.43
467.672	1671.51
468.045	1708.12
468.417	1732.75
468.789	1730.04
469.161	1770.26
469.534	1813.43
469.906	1830.6
470.278	1883.93
470.65	1870.37
471.022	1904.27
471.394	1978.39
471.766	2001.67
472.138	2031.05
472.51	2078.73
472.882	2137.49
473.253	2152.63
473.625	2217.03
473.997	2241.66
474.369	2287.09
474.74	2323.47
475.112	2388.1
475.484	2417.25
475.855	2501.77
476.227	2556.46
476.598	2631.71
476.97	2672.61
477.341	2758.49
477.713	2800.52
478.084	2875.55
478.455	2965.94
478.827	3038.93
479.198	3108.08
479.569	3135.65
479.94	3273.73
480.311	3313.05
480.682	3416.77
481.053	3519.14
481.424	3584
481.795	3692.02
482.166	3756.43
482.537	3841.4
482.908	3984.67
483.279	4096.08
483.65	4184.66
484.021	4299.24
484.391	4399.12
484.762	4459.23
485.133	4520.47
485.503	4681.37
485.874	4818.09
486.244	4885.66
486.615	5019.9
486.985	5096.5
487.356	5275.48
487.726	5369.49
488.097	5563.38
488.467	5594.57
488.837	5783.72
489.207	5917.5
489.578	5991.4
489.948	6140.32
490.318	6319.3
490.688	6348
491.058	6522.91
491.428	6701.43
491.798	6755.67
492.168	6947.08
492.538	7105.49
492.908	7128.99
493.278	7337.8
493.648	7383.45
494.017	7614.63
494.387	7670.22
494.757	7772.37
495.126	7879.03
495.496	7998.57
495.866	8121.96
496.235	8185.91
496.605	8374.38
496.974	8424.78
497.344	8519.24
497.713	8598.11
498.082	8784.32
498.452	8899.57
498.821	9018.44
499.19	9007.81
499.559	9140.24
499.928	9239.45
500.298	9292.1
500.667	9507.01
501.036	9456.39
501.405	9721.02
501.774	9633.11
502.143	9753.56
502.512	9817.74
502.88	9932.54
503.249	10060.22
503.618	10101.57
503.987	10154
504.356	10178.18
504.724	10296.82
505.093	10351.28
505.462	10450.49
505.83	10469.7
506.199	10623.59
506.567	10708.11
506.936	10734.55
507.304	10787.2
507.672	10888.44
508.041	10895.9
508.409	11002.11
508.777	11062
509.145	11249.79
509.514	11139.06
509.882	11163.92
510.25	11239.62
510.618	11316.23
510.986	11314.65
511.354	11405.94
511.722	11531.82
512.09	11568.42
512.458	11633.96
512.826	11582.44
513.193	11664.02
513.561	11685.71
513.929	11742.66
514.297	11847.06
514.664	11841.41
515.032	11862.2
515.4	12001.86
515.767	11970.22
516.135	12085.02
516.502	11918.47
516.869	12177.22
517.237	12155.53
517.604	12055.19
517.972	12175.64
518.339	12258.35
518.706	12244.57
519.073	12286.82
519.44	12311.46
519.808	12400.04
520.175	12358.69
520.542	12384.9
520.909	12494.95
521.276	12406.14
521.643	12525.01
522.009	12540.38
522.376	12581.28
522.743	12619.92
523.11	12710.32
523.477	12657.44
523.843	12716.42
524.21	12790.09
524.577	12823.31
524.943	12838
525.31	12893.59
525.676	12937.65
526.043	12877.54
526.409	12951.21
526.776	13021.95
527.142	12937.88
527.508	12979.23
527.874	13032.79
528.241	13055.39
528.607	13042.96
528.973	12992.57
529.339	13101.49
529.705	13088.38
530.071	13151.89
530.437	13179
530.803	13122.28
531.169	13206.35
531.535	13057.88
531.901	13103.07
532.267	13091.77
532.632	13083.41
532.998	13074.37
533.364	13100.14
533.73	13096.97
534.095	13100.36
534.461	13119.34
534.826	13163.64
535.192	13024.43
535.557	13048.61
535.923	13022.85
536.288	13016.52
536.653	13065.79
537.019	12935.62
537.384	12905.79
537.749	12951.67
538.114	12926.81
538.479	12880.71
538.845	12861.95
539.21	12769.97
539.575	12821.27
539.94	12737.89
540.305	12819.69
540.67	12665.57
541.034	12670.54
541.399	12759.58
541.764	12550.09
542.129	12658.79
542.494	12571.11
542.858	12620.37
543.223	12464.67
543.587	12515.52
543.952	12465.35
544.316	12400.72
544.681	12466.48
545.045	12400.49
545.41	12414.05
545.774	12336.99
546.138	12281.85
546.503	12306.71
546.867	12271.01
547.231	12354.84
547.595	12278.69
547.959	12272.81
548.324	12138.35
548.688	12136.77
549.052	12172.7
549.416	12085.02
549.779	12081.63
550.143	12014.06
550.507	12024.01
550.871	12025.14
551.235	11913.95
551.599	11942.2
551.962	11912.37
552.326	11813.16
552.689	11909.43
553.053	11860.62
553.417	11814.97
553.78	11894.97
554.143	11817.23
554.507	11809.55
554.87	11788.98
555.234	11836.67
555.597	11802.54
555.96	11722.09
556.323	11733.39
556.686	11754.63
557.05	11725.03
557.413	11757.8
557.776	11668.76
558.139	11667.41
558.502	11675.54
558.865	11637.12
559.228	11718.7
559.59	11721.19
559.953	11649.55
560.316	11731.58
560.679	11690.23
561.041	11747.63
561.404	11648.87
561.767	11686.84
562.129	11636.67
562.492	11719.83
562.854	11670.34
563.217	11706.27
563.579	11647.74
563.941	11711.25
564.304	11788.76
564.666	11718.93
565.028	11783.79
565.39	11740.62
565.753	11787.63
566.115	11790.11
566.477	11775.88
566.839	11757.8
567.201	11887.29
567.563	11817.01
567.925	11872.37
568.287	11830.79
568.648	11910.34
569.01	11961.63
569.372	11984.23
569.734	11876.89
570.095	11904.01
570.457	11915.99
570.819	11945.14
571.18	11891.13
571.542	11941.97
571.903	11937.91
572.265	11938.81
572.626	11989.43
572.987	11973.16
573.349	11956.89
573.71	12064.68
574.071	12061.07
574.432	12088.64
574.794	12144.68
575.155	12044.34
575.516	12034.4
575.877	12070.78
576.238	12088.64
576.599	12063.1
576.96	12101.97
577.32	12161.18
577.681	12235.53
578.042	12138.58
578.403	12155.53
578.763	12108.98
579.124	12091.57
579.485	12132.25
579.845	12234.17
580.206	12139.03
580.566	12110.78
580.927	12069.2
581.287	12156.88
581.648	12121.86
582.008	12141.74
582.368	12106.94
582.728	12056.1
583.089	12150.1
583.449	12048.86
583.809	12150.78
584.169	12119.82
584.529	12018.81
584.889	12170.44
585.249	12128.18
585.609	11976.32
585.969	12093.16
586.329	12105.13
586.688	12066.04
587.048	11980.17
587.408	12014.74
587.768	12024.46
588.127	11948.98
588.487	11931.58
588.846	12076.43
589.206	11941.52
589.565	11984.91
589.925	12051.35
590.284	11996.21
590.643	11979.49
591.003	11953.73
591.362	12002.54
591.721	12012.03
592.08	11969.77
592.44	11967.28
592.799	11943.33
593.158	11875.08
593.517	11932.71
593.876	11977
594.235	11882.54
594.593	11839.38
594.952	11922.77
595.311	11853.16
595.67	11910.56
596.029	11904.69
596.387	11920.05
596.746	11876.21
597.104	11867.4
597.463	11909.21
597.822	11905.36
598.18	11852.71
598.538	11895.65
598.897	11861.3
599.255	11830.11
599.613	11917.34
599.972	11786.95
600.33	11905.59
600.688	11826.95
601.046	11852.48
601.404	11856.1
601.762	11918.92
602.12	11948.3
602.478	11794.18
602.836	11846.84
603.194	11782.66
603.552	11783.79
603.91	11785.82
604.268	11878.47
604.625	11834.63
604.983	11830.79
605.341	11822.43
605.698	11947.85
606.056	11869.66
606.413	11818.36
606.771	11899.04
607.128	12022.65
607.485	11878.92
607.843	11964.12
608.2	11890.68
608.557	11952.14
608.914	11947.17
609.272	11951.92
609.629	11991.69
609.986	11978.81
610.343	11949.88
610.7	12046.83
611.057	12043.67
611.414	11982.43
611.771	11969.32
612.127	12034.85
612.484	12046.83
612.841	12126.83
613.198	11980.17
613.554	12040.95
613.911	12052.03
614.267	12102.2
614.624	11994.63
614.98	12040.5
615.337	12149.65
615.693	12120.27
616.05	12076.43
616.406	12105.36
616.762	12121.4
617.118	12132.25
617.475	12089.31
617.831	12193.04
618.187	12167.5
618.543	12194.85
618.899	12287.73
619.255	12099.48
619.611	12254.73
619.967	12233.94
620.323	12294.96
620.678	12258.8
621.034	12208.86
621.39	12209.31
621.746	12094.74
622.101	12261.74
622.457	12228.52
622.812	12212.7
623.168	12154.17
623.523	12200.72
623.879	12298.12
624.234	12173.15
624.589	12141.29
624.945	12205.02
625.3	12206.83
625.655	12140.84
626.01	12190.33
626.365	12291.8
626.72	12235.75
627.075	12198.24
627.43	12182.42
627.785	12215.64
628.14	12226.26
628.495	12252.25
628.85	12146.71
629.205	12117.79
629.559	12219.71
629.914	12158.24
630.269	12111.91
630.623	12085.02
630.978	12067.85
631.332	12117.79
631.687	12238.24
632.041	12112.14
632.396	12111.91
632.75	12030.79
633.104	12085.7
633.459	12057.9
633.813	11920.28
634.167	12052.03
634.521	12014.97
634.875	11993.95
635.229	11992.82
635.583	11920.73
635.937	11909.66
636.291	11845.71
636.645	11875.08
636.999	11862.65
637.352	11892.03
637.706	11816.33
638.06	11845.03
638.413	11832.82
638.767	11863.56
639.121	11859.49
639.474	11825.14
639.828	11764.13
640.181	11829.66
640.534	11765.48
640.888	11766.16
641.241	11732.26
641.594	11801.41
641.947	11746.27
642.301	11751.02
642.654	11784.01
643.007	11639.38
643.36	11707.4
643.713	11662.21
644.066	11685.71
644.419	11616.78
644.771	11558.48
645.124	11431.25
645.477	11437.35
645.83	11339.73
646.182	11381.31
646.535	11355.77
646.888	11401.65
647.24	11258.83
647.593	11352.84
647.945	11332.5
648.298	11219.96
648.65	11217.02
649.002	11207.08
649.355	11331.82
649.707	11285.04
650.059	11275.78
650.411	11436.22
650.763	11507.64
651.115	11599.38
651.467	11566.84
651.819	11523.45
652.171	11513.06
652.523	11467.86
652.875	11481.2
653.227	11467.18
653.578	11494.75
653.93	11539.72
654.282	11482.78
654.633	11424.7
654.985	11565.71
655.337	11603
655.688	11487.07
656.039	11533.17
656.391	11448.43
656.742	11474.64
657.094	11429.45
657.445	11603.9
657.796	11542.66
658.147	11583.79
658.498	11479.16
658.849	11515.54
659.2	11490.69
659.551	11483.46
659.902	11586.5
660.253	11474.87
660.604	11574.53
660.955	11486.39
661.306	11512.15
661.656	11560.97
662.007	11581.76
662.358	11559.39
662.708	11552.83
663.059	11546.28
663.409	11459.5
663.76	11590.57
664.11	11520.06
664.461	11550.57
664.811	11603.9
665.161	11570.23
665.511	11458.82
665.862	11544.24
666.212	11567.97
666.562	11594.64
666.912	11597.8
667.262	11499.95
667.612	11540.85
667.962	11586.5
668.312	11502.66
668.662	11593.51
669.011	11494.08
669.361	11543.11
669.711	11564.81
670.06	11534.75
670.41	11519.16
670.76	11523.45
671.109	11635.77
671.459	11479.61
671.808	11477.13
672.157	11489.56
672.507	11470.57
672.856	11453.63
673.205	11450.01
673.554	11412.04
673.904	11445.94
674.253	11466.96
674.602	11469.67
674.951	11320.52
675.3	11234.42
675.649	11359.62
675.998	11452.72
676.346	11344.02
676.695	11392.38
677.044	11295.66
677.393	11295.21
677.741	11399.39
678.09	11329.79
678.438	11297.02
678.787	11306.51
679.135	11346.28
679.484	11232.39
679.832	11240.07
680.181	11218.15
680.529	11231.26
680.877	11171.82
681.225	11213.86
681.573	11204.59
681.922	11178.15
682.27	11128.89
682.618	11150.13
682.966	11041.21
683.314	11108.1
683.661	11074.2
684.009	10999.63
684.357	10993.3
684.705	10980.19
685.053	10954.2
685.4	10948.1
685.748	10886.63
686.095	10874.21
686.443	10883.92
686.79	10910.59
687.138	10913.98
687.485	10835.79
687.832	10762.8
688.18	10732.97
688.527	10668.11
688.874	10783.59
689.221	10764.38
689.568	10627.43
689.915	10664.49
690.262	10602.35
690.609	10503.59
690.956	10504.05
691.303	10537.94
691.65	10413.65
691.997	10422.24
692.344	10363.03
692.69	10329.36
693.037	10338.63
693.383	10289.81
693.73	10305.18
694.077	10239.19
694.423	10212.08
694.769	10249.59
695.116	10146.32
695.462	10149.7
695.808	10073.55
696.155	10113.1
696.501	9989.26
696.847	9967.34
697.193	9903.38
697.539	9957.85
697.885	9909.03
698.231	9873.55
698.577	9801.24
698.923	9816.83
699.269	9779.09
699.614	9661.13
699.96	9651.19
700.306	9641.92
700.651	9559.44
700.997	9604.18
701.342	9520.79
701.688	9491.19
702.033	9454.13
702.379	9466.33
702.724	9434.92
703.069	9442.83
703.415	9330.07
703.76	9332.78
704.105	9270.18
704.45	9335.26
704.795	9206.9
705.14	9229.73
705.485	9174.82
705.83	9194.7
706.175	9202.16
706.52	9114.7
706.865	9072.67
707.209	9067.7
707.554	9107.7
707.899	9071.54
708.243	9032.9
708.588	8966.91
708.932	8957.87
709.277	8975.95
709.621	8883.3
709.966	8803.98
710.31	8889.4
710.654	8796.97
710.998	8793.13
711.342	8793.36
711.687	8747.26
712.031	8710.87
712.375	8661.61
712.719	8669.29
713.063	8692.57
713.407	8666.35
713.75	8632.46
714.094	8612.57
714.438	8606.69
714.782	8534.15
715.125	8590.65
715.469	8579.35
715.812	8515.85
716.156	8501.61
716.499	8528.28
716.843	8540.26
717.186	8491.44
717.53	8482.63
717.873	8512.91
718.216	8493.25
718.559	8406.93
718.902	8327.15
719.246	8388.85
719.589	8396.53
719.932	8370.54
720.275	8323.99
720.617	8313.14
720.96	8304.56
721.303	8313.59
721.646	8296.19
721.989	8285.35
722.331	8303.2
722.674	8264.78
723.016	8290.09
723.359	8225.46
723.701	8262.75
724.044	8214.84
724.386	8174.62
724.729	8201.06
725.071	8282.64
725.413	8196.08
725.755	8216.65
726.097	8188.4
726.439	8186.37
726.782	8166.48
727.124	8167.84
727.465	8207.16
727.807	8192.47
728.149	8118.35
728.491	8127.16
728.833	8196.31
729.175	8107.05
729.516	8111.11
729.858	8070.66
730.199	8216.42
730.541	8106.14
730.882	8170.55
731.224	8161.73
731.565	8126.93
731.906	8133.26
732.248	8074.51
732.589	8101.4
732.93	8029.76
733.271	8087.61
733.612	8092.13
733.953	8087.61
734.294	8086.93
734.635	8075.41
734.976	8090.55
735.317	8072.25
735.658	8074.05
735.999	8108.18
736.339	8098.01
736.68	8120.83
737.021	8098.91
737.361	8051.68
737.702	8146.14
738.042	8105.46
738.383	8131.23
738.723	8138.46
739.063	8145.24
739.404	8180.72
739.744	8171.9
740.084	8153.6
740.424	8167.84
740.764	8157.44
741.104	8202.86
741.444	8151.57
741.784	8167.61
742.124	8238.79
742.464	8185.69
742.804	8258.46
743.143	8200.38
743.483	8321.05
743.823	8271.79
744.162	8322.18
744.502	8349.3
744.841	8392.24
745.181	8395.63
745.52	8422.97
745.86	8469.3
746.199	8519.47
746.538	8471.56
746.877	8545.91
747.216	8651.44
747.556	8698.22
747.895	8663.42
748.234	8742.74
748.573	8730.08
748.911	8791.55
749.25	8817.99
749.589	8881.72
749.928	8978.44
750.267	9044.65
750.605	9027.47
750.944	9185.44
751.283	9170.07
751.621	9277.19
751.96	9354.92
752.298	9448.48
752.636	9595.37
752.975	9605.09
753.313	9696.16
753.651	9803.95
753.989	9920.78
754.327	10044.17
754.666	10086.43
755.004	10196.48
755.342	10371.17
755.679	10433.54
756.017	10611.84
756.355	10713.08
756.693	10794.89
757.031	11025.39
757.368	11080.08
757.706	11199.39
758.044	11281.2
758.381	11448.65
758.719	11589.89
759.056	11787.85
759.394	11890.22
759.731	12011.8
760.068	12203.89
760.405	12360.95
760.743	12443.88
761.08	12719.35
761.417	12740.15
761.754	12939.24
762.091	13053.58
762.428	13210.42
762.765	13345.78
763.102	13598.65
763.438	13636.62
763.775	13784.19
764.112	13969.04
764.449	14167.68
764.785	14207.45
765.122	14287.45
765.458	14537.84
765.795	14646.99
766.131	14783.71
766.467	14900.77
766.804	15076.58
767.14	15155.9
767.476	15305.05
767.812	15444.25
768.148	15580.97
768.485	15691.48
768.821	15726.06
769.157	15945.71
769.492	16046.27
769.828	16118.14
770.164	16135.31
770.5	16263.44
770.836	16442.87
771.171	16474.06
771.507	16536.2
771.842	16601.96
772.178	16759.02
772.513	16871.56
772.849	16915.63
773.184	16981.39
773.519	17133.93
773.855	17123.53
774.19	17237.2
774.525	17373.24
774.86	17355.17
775.195	17408.5
775.53	17529.62
775.865	17482.39
776.2	17531.43
776.535	17506.35
776.87	17629.73
777.205	17665.21
777.539	17674.7
777.874	17746.12
778.209	17664.31
778.543	17727.13
778.878	17642.62
779.212	17695.27
779.547	17792.67
779.881	17862.95
780.215	17710.18
780.55	17872.44
780.884	17682.39
781.218	17792.44
781.552	17889.61
781.886	17839.22
782.22	17928.26
782.554	17844.87
782.888	17730.07
783.222	17735.72
783.556	17754.93
783.889	17776.85
784.223	17636.51
784.557	17634.25
784.89	17690.52
785.224	17740.24
785.557	17646
785.891	17664.54
786.224	17654.14
786.558	17632.22
786.891	17504.09
787.224	17541.83
787.557	17529.4
787.891	17568.94
788.224	17502.51
788.557	17533.92
788.89	17568.27
789.223	17566.46
789.556	17416.63
789.888	17538.89
790.221	17405.79
790.554	17299.8
790.887	17402.85
791.219	17281.95
791.552	17325.79
791.884	17193.59
792.217	17189.52
792.549	17142.74
792.882	17083.76
793.214	17042.86
793.546	17153.59
793.879	17046.02
794.211	16954.05
794.543	17053.25
794.875	16991.78
795.207	16958.79
795.539	16805.35
795.871	16846.48
796.203	16761.73
796.535	16740.49
796.867	16701.62
797.198	16659.36
797.53	16721.51
797.862	16626.6
798.193	16606.48
798.525	16526.49
798.856	16653.26
799.188	16404
799.519	16372.14
799.85	16264.35
800.182	16303.67
800.513	16267.74
800.844	16263.44
801.175	16271.35
801.506	16248.3
801.837	16263.44
802.168	16137.8
802.499	16119.49
802.83	16011.02
803.161	15957.24
803.491	16037.46
803.822	16004.69
804.153	15970.34
804.483	15859.16
804.814	15780.29
805.145	15804.25
805.475	15773.06
805.805	15761.99
806.136	15746.39
806.466	15777.58
806.796	15622.33
807.126	15611.93
807.457	15574.2
807.787	15619.84
808.117	15439.96
808.447	15459.17
808.777	15375.78
809.107	15410.58
809.436	15324.48
809.766	15311.6
810.096	15263.47
810.426	15197.03
810.755	15247.65
811.085	15175.11
811.414	15146.18
811.744	14929.47
812.073	15029.8
812.403	15050.59
812.732	15021.22
813.061	15069.12
813.39	14969.92
813.719	14924.27
814.049	14930.6
814.378	14896.47
814.707	14840.2
815.036	14842.24
815.365	14721.11
815.693	14601.79
816.022	14652.19
816.351	14615.12
816.68	14648.12
817.008	14692.86
817.337	14549.82
817.665	14437.5
817.994	14548.01
818.322	14617.16
818.651	14464.85
818.979	14362.93
819.307	14494.22
819.636	14450.83
819.964	14376.94
820.292	14427.11
820.62	14302.59
820.948	14274.57
821.276	14320.22
821.604	14341.46
821.932	14424.85
822.259	14414.23
822.587	14376.03
822.915	14279.54
823.243	14295.36
823.57	14303.95
823.898	14376.71
824.225	14313.21
824.553	14350.5
824.88	14341.23
825.207	14249.71
825.535	14257.62
825.862	14290.39
826.189	14333.32
826.516	14345.75
826.843	14324.06
827.17	14381.01
827.497	14332.87
827.824	14369.71
828.151	14454
828.478	14274.57
828.805	14379.65
829.131	14279.99
829.458	14294.23
829.785	14230.28
830.111	14276.83
830.438	14363.83
830.764	14372.64
831.09	14359.31
831.417	14228.47
831.743	14353.89
832.069	14307.11
832.395	14309.37
832.722	14285.87
833.048	14274.57
833.374	14279.31
833.7	14211.52
834.026	14165.19
834.351	14204.97
834.677	14189.6
835.003	14227.34
835.329	14180.11
835.654	14166.77
835.98	14155.02
836.306	14112.09
836.631	14100.56
836.956	14216.26
837.282	14081.35
837.607	14096.27
837.932	14097.62
838.258	14057.62
838.583	13973.56
838.908	13955.03
839.233	14002.03
839.558	13887.91
839.883	13835.26
840.208	13855.37
840.533	13847.01
840.858	13874.13
841.182	13853.56
841.507	13828.48
841.832	13720.01
842.156	13741.25
842.481	13710.74
842.805	13676.17
843.13	13637.52
843.454	13683.85
843.778	13591.65
844.103	13572.21
844.427	13515.04
844.751	13530.63
845.075	13435.27
845.399	13396.85
845.723	13323.18
846.047	13395.5
846.371	13239.34
846.695	13342.16
847.019	13154.82
847.343	13176.29
847.666	13114.37
847.99	13017.43
848.313	12964.55
848.637	12885
848.96	12861.5
849.284	12806.58
849.607	12834.15
849.931	12746.25
850.254	12623.54
850.577	12547.61
850.9	12501.73
851.223	12518.23
851.546	12459.93
851.869	12406.37
852.192	12418.57
852.515	12281.85
852.838	12266.71
853.161	12262.64
853.483	12230.78
853.806	12155.08
854.129	12109.65
854.451	12057.23
854.774	12029.88
855.096	12052.93
855.419	11976.78
855.741	12015.64
856.063	11861.3
856.385	11864.24
856.708	11786.05
857.03	11718.03
857.352	11710.79
857.674	11666.05
857.996	11675.99
858.318	11623.56
858.64	11590.57
858.961	11523.23
859.283	11566.39
859.605	11430.12
859.926	11473.06
860.248	11396.68
860.57	11331.14
860.891	11369.11
861.212	11324.14
861.534	11389.9
861.855	11337.02
862.176	11292.05
862.498	11298.15
862.819	11259.51
863.14	11206.85
863.461	11119.62
863.782	11204.14
864.103	11212.73
864.424	11186.29
864.745	11212.95
865.065	11080.75
865.386	11093.41
865.707	11070.36
866.027	11044.6
866.348	11015.9
866.668	11003.92
866.989	11010.25
867.309	11014.09
867.63	10969.12
867.95	11031.49
868.27	10841.44
868.59	10918.05
868.91	10862.91
869.23	10857.03
869.55	10787.88
869.87	10838.73
870.19	10765.06
870.51	10799.18
870.83	10815.22
871.15	10730.03
871.469	10738.84
871.789	10725.28
872.109	10730.03
872.428	10647.54
872.748	10701.33
873.067	10633.76
873.386	10693.19
873.706	10605.29
874.025	10542.01
874.344	10538.4
874.663	10558.73
874.982	10501.33
875.301	10558.28
875.62	10524.38
875.939	10511.73
876.258	10482.13
876.577	10429.92
876.896	10434.22
877.214	10389.47
877.533	10408.23
877.852	10390.6
878.17	10390.83
878.489	10425.18
878.807	10306.54
879.125	10295.24
879.444	10276.26
879.762	10249.59
880.08	10322.36
880.398	10256.82
880.716	10266.09
881.034	10197.61
881.352	10224.51
881.67	10205.3
881.988	10161.91
882.306	10100.44
882.624	10076.94
882.941	10021.35
883.259	10041.01
883.577	10070.61
883.894	9972.31
884.212	9983.83
884.529	9973.89
884.846	9927.11
885.164	9907
885.481	9934.8
885.798	9897.96
886.115	9752.2
886.432	9830.84
886.75	9823.84
887.067	9837.4
887.383	9710.39
887.7	9817.28
888.017	9735.7
888.334	9757.62
888.651	9660.45
888.967	9618.19
889.284	9632.88
889.6	9603.73
889.917	9484.86
890.233	9586.78
890.55	9455.49
890.866	9533.45
891.182	9459.33
891.498	9402.61
891.815	9360.57
892.131	9281.48
892.447	9329.16
892.763	9271.76
893.079	9253.68
893.395	9281.03
893.71	9216.4
894.026	9145.66
894.342	9211.65
894.657	9106.79
894.973	9078.55
895.289	9125.78
895.604	9109.28
895.92	8971.43
896.235	8905.44
896.55	8937.31
896.865	8998.55
897.181	8858.89
897.496	8913.13
897.811	8836.97
898.126	8784.32
898.441	8749.52
898.756	8705.9
899.071	8719.91
899.386	8720.82
899.7	8615.06
900.015	8577.99
900.33	8553.14
900.644	8518.79
900.959	8513.59
901.273	8547.26
901.588	8441.95
901.902	8434.72
902.216	8355.4
902.531	8371.9
902.845	8331.9
903.159	8292.35
903.473	8277.89
903.787	8237.89
904.101	8174.62
904.415	8214.61
904.729	8151.79
905.042	8143.43
905.356	8067.05
905.67	8045.81
905.984	8044.22
906.297	7964.68
906.611	7943.21
906.924	7906.15
907.237	7900.72
907.551	7944.11
907.864	7842.65
908.177	7861.4
908.491	7793.61
908.804	7746.83
909.117	7717.45
909.43	7648.98
909.743	7656.89
910.056	7575.54
910.368	7541.41
910.681	7578.93
910.994	7529.89
911.307	7525.59
911.619	7483.33
911.932	7415.77
912.244	7363.11
912.557	7360.85
912.869	7315.2
913.181	7291.25
913.494	7310.91
913.806	7213.06
914.118	7216.22
914.43	7188.43
914.742	7178.26
915.054	7151.37
915.366	7125.15
915.678	7052.39
915.99	7039.05
916.302	6963.35
916.613	6974.65
916.925	6904.59
917.236	6921.32
917.548	6841.09
917.859	6844.03
918.171	6774.88
918.482	6806.74
918.794	6761.09
919.105	6723.13
919.416	6729.23
919.727	6674.77
920.038	6690.81
920.349	6630.02
920.66	6603.58
920.971	6592.28
921.282	6574.21
921.593	6507.77
921.903	6479.07
922.214	6491.5
922.525	6449.24
922.835	6410.37
923.146	6390.26
923.456	6346.87
923.767	6363.36
924.077	6366.75
924.387	6258.06
924.697	6267.32
925.008	6208.11
925.318	6233.88
925.628	6225.51
925.938	6226.42
926.248	6130.6
926.558	6099.64
926.867	6135.57
927.177	6035.69
927.487	6054.67
927.796	6049.02
928.106	5990.94
928.416	5944.62
928.725	5988.68
929.034	5896.26
929.344	5901.45
929.653	5898.07
929.962	5870.5
930.271	5829.59
930.581	5837.5
930.89	5743.04
931.199	5730.61
931.508	5748.24
931.817	5741.69
932.125	5696.71
932.434	5727.9
932.743	5656.04
933.051	5628.92
933.36	5590.05
933.669	5550.96
933.977	5568.58
934.286	5567
934.594	5569.71
934.902	5487.68
935.21	5439.55
935.519	5455.82
935.827	5392.09
936.135	5392.54
936.443	5383.05
936.751	5361.58
937.059	5319.1
937.367	5327.68
937.674	5317.29
937.982	5265.77
938.29	5223.51
938.597	5239.1
938.905	5216.5
939.213	5179.89
939.52	5144.41
939.827	5145.54
940.135	5109.84
940.442	5099.22
940.749	5081.59
941.056	5056.96
941.363	4985.77
941.67	4988.71
941.977	4967.47
942.284	4952.55
942.591	4954.14
942.898	4920.01
943.205	4923.63
943.511	4849.73
943.818	4874.59
944.125	4826.68
944.431	4773.58
944.738	4768.15
945.044	4761.15
945.35	4742.39
945.657	4697.19
945.963	4667.14
946.269	4689.74
946.575	4658.78
946.881	4644.31
947.187	4652.9
947.493	4600.25
947.799	4580.13
948.105	4580.59
948.41	4567.7
948.716	4568.38
949.022	4514.37
949.327	4483.64
949.633	4463.07
949.938	4465.79
950.244	4452.68
950.549	4416.3
950.854	4361.61
951.16	4374.26
951.465	4387.82
951.77	4346.92
952.075	4317.54
952.38	4280.48
952.685	4267.83
952.99	4240.48
953.294	4288.16
953.599	4277.54
953.904	4235.96
954.209	4165.91
954.513	4199.13
954.818	4153.48
955.122	4143.99
955.426	4126.36
955.731	4104.44
956.035	4098.34
956.339	4053.59
956.643	4039.81
956.948	4029.41
957.252	4002.3
957.556	4043.88
957.86	3969.3
958.163	3964.56
958.467	3956.2
958.771	3933.15
959.075	3955.29
959.378	3926.59
959.682	3897.89
959.985	3876.42
960.289	3834.62
960.592	3835.75
960.896	3826.48
961.199	3820.61
961.502	3812.92
961.805	3790.78
962.108	3735.41
962.411	3720.27
962.714	3722.76
963.017	3657.67
963.32	3711.46
963.623	3669.2
963.926	3650.67
964.228	3626.94
964.531	3685.69
964.833	3618.58
965.136	3594.85
965.438	3597.11
965.741	3540.84
966.043	3548.07
966.345	3560.5
966.648	3542.65
966.95	3498.81
967.252	3436.44
967.554	3448.19
967.856	3471.01
968.158	3445.93
968.46	3445.7
968.761	3434.18
969.063	3411.8
969.365	3400.73
969.666	3335.42
969.968	3340.17
970.269	3379.49
970.571	3310.34
970.872	3356.21
971.174	3263.33
971.475	3261.75
971.776	3272.15
972.077	3256.78
972.378	3225.59
972.679	3244.8
972.98	3202.54
973.281	3208.87
973.582	3192.15
973.883	3205.03
974.183	3157.8
974.484	3125.93
974.785	3155.99
975.085	3126.84
975.386	3121.42
975.686	3092.94
975.986	3073.05
976.287	3066.73
976.587	3062.21
976.887	3041.64
977.187	3040.97
977.487	2999.84
977.787	2967.97
978.087	2985.37
978.387	2972.49
978.687	2951.48
978.987	2897.47
979.286	2917.58
979.586	2908.77
979.885	2898.82
980.185	2866.51
980.484	2854.76
980.784	2830.12
981.083	2844.36
981.382	2839.84
981.682	2839.84
981.981	2812.5
982.28	2768.43
982.579	2763.68
982.878	2786.73
983.177	2735.66
983.475	2722.33
983.774	2716.23
984.073	2719.84
984.372	2702.67
984.67	2672.84
984.969	2664.48
985.267	2702.9
985.566	2668.09
985.864	2650.02
986.162	2647.76
986.461	2609.56
986.759	2610.02
987.057	2603.46
987.355	2620.41
987.653	2574.76
987.951	2562.11
988.249	2582.22
988.547	2555.1
988.844	2525.95
989.142	2524.82
989.44	2534.54
989.737	2505.39
990.035	2494.99
990.332	2465.39
990.63	2469
990.927	2457.48
991.224	2469.45
991.521	2433.07
991.819	2438.5
992.116	2397.82
992.413	2417.93
992.71	2354.2
993.006	2408.21
993.303	2390.13
993.6	2354.2
993.897	2336.13
994.193	2353.75
994.49	2316.01
994.787	2291.61
995.083	2291.15
995.379	2287.31
995.676	2273.75
995.972	2275.34
996.268	2240.53
996.565	2262.91
996.861	2251.16
997.157	2212.96
997.453	2213.64
997.749	2239.86
998.044	2200.31
998.34	2193.3
998.636	2154.66
998.932	2118.96
999.227	2099.97
999.523	2146.75
999.818	2118.05
1000.114	2135.9
1000.409	2099.52
1000.704	2079.63
1001	2098.17
1001.295	2079.18
1001.59	2072.86
1001.885	2066.08
1002.18	2057.04
1002.475	2019.75
1002.77	1991.5
1003.065	1979.07
1003.359	1980.65
1003.654	1992.63
1003.949	1976.81
1004.243	1956.02
1004.538	1950.15
1004.832	1941.11
1005.127	1941.79
1005.421	1904.5
1005.715	1892.97
1006.009	1914.67
1006.304	1875.57
1006.598	1873.99
1006.892	1840.09
1007.186	1848.45
1007.48	1849.13
1007.773	1809.59
1008.067	1837.16
1008.361	1812.75
1008.655	1829.92
1008.948	1790.38
1009.242	1800.09
1009.535	1782.24
1009.829	1794.44
1010.122	1771.39
1010.415	1747.67
1010.708	1728.01
1011.001	1733.65
1011.295	1729.59
1011.588	1683.71
1011.881	1715.12
1012.173	1706.31
1012.466	1662.7
1012.759	1641
1013.052	1681.23
1013.344	1630.15
1013.637	1625.18
1013.93	1655.46
1014.222	1605.52
1014.514	1595.81
1014.807	1625.86
1015.099	1597.61
1015.391	1593.77
1015.683	1585.86
1015.976	1577.5
1016.268	1573.66
1016.56	1500.67
1016.851	1527.33
1017.143	1514.45
1017.435	1538.63
1017.727	1492.31
1018.018	1485.98
1018.31	1470.61
1018.602	1477.62
1018.893	1482.59
1019.185	1448.46
1019.476	1483.94
1019.767	1438.07
1020.058	1441.23
1020.35	1430.84
1020.641	1391.29
1020.932	1416.83
1021.223	1385.42
1021.514	1366.88
1021.804	1365.53
1022.095	1401.23
1022.386	1345.64
1022.677	1358.75
1022.967	1340.67
1023.258	1333.67
1023.548	1319.2
1023.839	1334.57
1024.129	1308.13
1024.419	1303.84
1024.709	1286.44
1025	1260.67
1025.29	1277.4
1025.58	1278.53
1025.87	1274.01
1026.16	1232.2
1026.449	1250.05
1026.739	1259.77
1027.029	1211.86
1027.319	1204.4
1027.608	1210.05
1027.898	1219.32
1028.187	1197.85
1028.477	1184.06
1028.766	1198.53
1029.055	1165.53
1029.344	1146.1
1029.634	1158.53
1029.923	1135.03
1030.212	1146.33
1030.501	1146.33
1030.79	1138.87
1031.078	1128.25
1031.367	1153.78
1031.656	1125.99
1031.945	1078.98
1032.233	1084.41
1032.522	1086.89
1032.81	1079.21
1033.099	1070.4
1033.387	1070.17
1033.675	1050.74
1033.963	1052.09
1034.251	1029.27
1034.54	1043.73
1034.828	1027.46
1035.116	1031.75
1035.403	998.53
1035.691	1024.97
1035.979	1006.22
1036.267	995.37
1036.554	1008.02
1036.842	981.58
1037.129	954.69
1037.417	958.99
1037.704	978.65
1037.992	979.1
1038.279	969.83
1038.566	957.4
1038.853	957.4
1039.14	957.4
