Data from hue_70_FLMS001491_73.txt Node
Date: Mon Feb 06 15:21:24 GMT 2017
User: dcchb
Spectrometer: FLMS00149
Trigger mode: 0
Integration Time (sec): 2.000000E-2
Scans to average: 10
Electric dark correction enabled: true
Nonlinearity correction enabled: false
Boxcar width: 0
XAxis mode: Wavelengths
Number of Pixels in Spectrum: 2048
>>>>>Begin Spectral Data<<<<<
341.393	-37.39
341.776	-37.39
342.16	-37.39
342.543	-45.75
342.927	-88.91
343.31	-68.35
343.693	-95.24
344.077	-52.75
344.46	-64.05
344.843	-56.59
345.226	-40.78
345.61	-24.73
345.993	-20.89
346.376	-1.91
346.759	16.17
347.142	8.04
347.525	51.88
347.908	62.95
348.291	83.74
348.674	94.81
349.057	107.69
349.44	102.95
349.823	108.82
350.206	153.12
350.588	179.33
350.971	197.64
351.354	223.85
351.737	230.63
352.119	260.91
352.502	248.93
352.884	253.68
353.267	276.28
353.65	278.54
354.032	316.73
354.414	301.81
354.797	304.07
355.179	301.59
355.562	307.24
355.944	331.64
356.326	314.7
356.709	340.91
357.091	320.34
357.473	349.27
357.855	321.47
358.238	337.07
358.62	347.69
359.002	341.14
359.384	347.69
359.766	312.44
360.148	334.58
360.53	329.38
360.912	336.84
361.294	311.76
361.676	306.79
362.057	339.55
362.439	335.94
362.821	319.21
363.203	307.01
363.584	317.86
363.966	328.48
364.348	318.08
364.729	317.18
365.111	327.35
365.493	308.59
365.874	316.05
366.256	304.07
366.637	323.51
367.019	286.67
367.4	308.82
367.781	319.21
368.163	318.99
368.544	301.14
368.925	286.67
369.306	337.07
369.688	305.2
370.069	286
370.45	286
370.831	306.11
371.212	301.59
371.593	314.02
371.974	310.85
372.355	297.52
372.736	292.55
373.117	328.71
373.498	295.26
373.879	302.27
374.26	304.3
374.641	322.83
375.021	300.01
375.402	304.07
375.783	329.16
376.163	307.92
376.544	325.99
376.925	308.59
377.305	323.96
377.686	315.83
378.066	308.14
378.447	307.01
378.827	304.07
379.208	325.77
379.588	324.64
379.968	326.67
380.349	330.97
380.729	339.78
381.109	310.63
381.489	321.93
381.87	327.12
382.25	310.63
382.63	341.14
383.01	321.25
383.39	329.38
383.77	305.66
384.15	349.72
384.53	323.73
384.91	345.43
385.29	337.29
385.67	363.06
386.049	353.11
386.429	323.51
386.809	353.56
387.189	340.23
387.568	337.07
387.948	327.58
388.328	338.88
388.707	345.43
389.087	354.92
389.466	358.54
389.846	348.82
390.225	358.76
390.605	361.02
390.984	337.75
391.363	366.45
391.743	359.89
392.122	354.92
392.501	378.2
392.881	364.41
393.26	360.57
393.639	350.85
394.018	360.57
394.397	370.51
394.776	373
395.155	365.09
395.534	371.19
395.913	394.92
396.292	387.46
396.671	358.76
397.05	354.47
397.429	368.48
397.808	369.38
398.186	363.51
398.565	386.56
398.944	367.12
399.323	361.25
399.701	391.76
400.08	377.97
400.458	376.39
400.837	375.03
401.215	386.33
401.594	385.2
401.972	381.13
402.351	400.57
402.729	377.29
403.107	390.85
403.486	403.96
403.864	375.71
404.242	401.02
404.62	390.63
404.999	396.05
405.377	392.43
405.755	394.02
406.133	407.35
406.511	401.7
406.889	418.42
407.267	417.97
407.645	427.01
408.023	427.69
408.401	438.31
408.779	410.06
409.156	416.16
409.534	433.56
409.912	421.36
410.29	410.96
410.667	433.56
411.045	433.11
411.422	411.87
411.8	435.37
412.178	436.27
412.555	450.74
412.933	454.8
413.31	460.91
413.687	450.96
414.065	437.63
414.442	453.22
414.819	468.82
415.197	455.48
415.574	462.49
415.951	464.52
416.328	467.01
416.705	451.41
417.082	483.28
417.46	454.35
417.837	476.95
418.214	466.33
418.591	492.77
418.967	501.13
419.344	485.76
419.721	493.45
420.098	473.56
420.475	492.09
420.852	506.55
421.228	500.23
421.605	509.49
421.982	534.35
422.358	514.24
422.735	508.81
423.111	518.53
423.488	524.41
423.864	519.89
424.241	523.05
424.617	539.32
424.994	523.5
425.37	521.7
425.746	521.02
426.123	516.72
426.499	552.88
426.875	530.51
427.251	538.42
427.627	554.46
428.003	551.07
428.379	540.45
428.756	568.02
429.132	594.24
429.507	580.22
429.883	575.03
430.259	597.17
430.635	587.91
431.011	581.81
431.387	594.69
431.763	619.32
432.138	586.33
432.514	591.98
432.89	597.4
433.265	632.2
433.641	638.08
434.016	597.17
434.392	626.78
434.767	630.84
435.143	651.64
435.518	641.69
435.894	627.46
436.269	621.13
436.644	634.69
437.02	661.13
437.395	630.62
437.77	683.27
438.145	664.06
438.52	666.32
438.895	677.85
439.271	675.14
439.646	685.31
440.021	672.65
440.395	725.31
440.77	700
441.145	683.05
441.52	701.58
441.895	751.97
442.27	705.19
442.645	721.69
443.019	729.83
443.394	721.01
443.769	708.13
444.143	746.77
444.518	743.61
444.892	714.23
445.267	754.46
445.641	765.98
446.016	765.76
446.39	775.25
446.764	731.63
447.139	757.85
447.513	766.66
447.887	761.91
448.262	760.79
448.636	805.3
449.01	772.08
449.384	794
449.758	791.52
450.132	808.47
450.506	814.79
450.88	793.78
451.254	851.86
451.628	847.34
452.002	818.41
452.376	815.92
452.75	863.16
453.123	847.56
453.497	848.69
453.871	849.82
454.244	853.66
454.618	909.71
454.992	878.97
455.365	882.36
455.739	901.12
456.112	901.57
456.486	907.67
456.859	945.64
457.232	926.66
457.606	935.7
457.979	965.98
458.352	956.03
458.725	962.14
459.099	993.32
459.472	1001.91
459.845	994.23
460.218	1009.82
460.591	1022.02
460.964	1066.09
461.337	1039.2
461.71	1072.19
462.083	1087.1
462.456	1091.17
462.829	1102.25
463.201	1109.7
463.574	1105.63
463.947	1136.59
464.32	1149.7
464.692	1168.23
465.065	1172.07
465.438	1173.43
465.81	1181.79
466.183	1198.51
466.555	1220.21
466.928	1260.21
467.3	1265.18
467.672	1285.97
468.045	1330.04
468.417	1345.63
468.789	1341.56
469.161	1347.66
469.534	1395.57
469.906	1427.66
470.278	1441.45
470.65	1459.3
471.022	1494.33
471.394	1527.09
471.766	1553.31
472.138	1568.22
472.51	1583.81
472.882	1626.3
473.253	1648.9
473.625	1683.25
473.997	1752.62
474.369	1777.26
474.74	1789.01
475.112	1846.86
475.484	1881.66
475.855	1945.84
476.227	1951.71
476.598	2042.79
476.97	2072.61
477.341	2103.35
477.713	2179.96
478.084	2224.25
478.455	2308.77
478.827	2323.91
479.198	2463.79
479.569	2466.5
479.94	2582.43
480.311	2607.97
480.682	2713.28
481.053	2756.21
481.424	2862.88
481.795	2946.26
482.166	3012.48
482.537	3080.5
482.908	3222.87
483.279	3305.8
483.65	3364.78
484.021	3455.18
484.391	3568.17
484.762	3646.13
485.133	3733.36
485.503	3854.49
485.874	3959.35
486.244	4010.87
486.615	4175.84
486.985	4301.93
487.356	4399.79
487.726	4472.1
488.097	4664.64
488.467	4790.74
488.837	4907.79
489.207	5035.02
489.578	5129.71
489.948	5262.81
490.318	5418.97
490.688	5569.25
491.058	5669.81
491.428	5782.8
491.798	5958.16
492.168	6093.3
492.538	6239.96
492.908	6311.83
493.278	6550.92
493.648	6643.12
494.017	6744.13
494.387	6884.69
494.757	7080.39
495.126	7217.34
495.496	7321.52
495.866	7451.68
496.235	7580.94
496.605	7742.07
496.974	7841.95
497.344	7964.66
497.713	8128.05
498.082	8244.88
498.452	8420.7
498.821	8536.4
499.19	8612.33
499.559	8791.53
499.928	8852.32
500.298	9031.53
500.667	9202.15
501.036	9175.93
501.405	9396.04
501.774	9500.22
502.143	9603.04
502.512	9742.24
502.88	9801
503.249	10024.95
503.618	10157.15
503.987	10224.49
504.356	10305.39
504.724	10399.85
505.093	10597.36
505.462	10673.07
505.83	10815.44
506.199	10949.44
506.567	11049.55
506.936	11130.68
507.304	11327.96
507.672	11418.58
508.041	11515.98
508.409	11607.96
508.777	11758.91
509.145	11825.13
509.514	11894.05
509.882	12017.89
510.25	12124.78
510.618	12288.84
510.986	12341.5
511.354	12501.95
511.722	12543.3
512.09	12669.4
512.458	12726.12
512.826	12889.05
513.193	12908.49
513.561	13047.02
513.929	13122.49
514.297	13242.49
514.664	13364.07
515.032	13431.19
515.4	13562.26
515.767	13643.61
516.135	13732.65
516.502	13705.53
516.869	13957.95
517.237	13994.56
517.604	13943.94
517.972	14152.3
518.339	14198.4
518.706	14307.55
519.073	14287.44
519.44	14471.61
519.808	14593.42
520.175	14590.03
520.542	14789.57
520.909	14862.79
521.276	14849.68
521.643	15051.71
522.009	15145.04
522.376	15220.74
522.743	15369.67
523.11	15495.09
523.477	15548.19
523.843	15630.9
524.21	15813.27
524.577	15872.03
524.943	15900.73
525.31	16005.58
525.676	16098.69
526.043	16245.8
526.409	16285.57
526.776	16444.44
527.142	16488.51
527.508	16599.46
527.874	16680.82
528.241	16668.16
528.607	16794.71
528.973	16901.6
529.339	16904.54
529.705	17105.89
530.071	17121.48
530.437	17196.74
530.803	17287.36
531.169	17428.37
531.535	17369.16
531.901	17359.44
532.267	17399.22
532.632	17507.46
532.998	17549.72
533.364	17549.04
533.73	17584.3
534.095	17790.39
534.461	17763.28
534.826	17904.52
535.192	17929.37
535.557	18046.21
535.923	17861.58
536.288	17943.61
536.653	18165.75
537.019	17983.38
537.384	18118.29
537.749	18061.57
538.114	18131.63
538.479	18247.78
538.845	18243.72
539.21	18117.84
539.575	18223.38
539.94	18243.72
540.305	18318.29
540.67	18306.31
541.034	18399.42
541.399	18498.17
541.764	18425.63
542.129	18417.27
542.494	18443.26
542.858	18481.45
543.223	18467.89
543.587	18516.93
543.952	18512.41
544.316	18516.7
544.681	18528.91
545.045	18562.35
545.41	18629.24
545.774	18688.9
546.138	18646.19
546.503	18821.33
546.867	18655.68
547.231	18874.66
547.595	18793.08
547.959	18846.41
548.324	18866.52
548.688	18823.59
549.052	18832.63
549.416	18865.39
549.779	18866.75
550.143	18871.5
550.507	18942.91
550.871	18979.06
551.235	19001.89
551.599	19043.02
551.962	19029.23
552.326	19147.87
552.689	19191.94
553.053	19097.03
553.417	19089.57
553.78	19381.54
554.143	19165.72
554.507	19183.13
554.87	19237.59
555.234	19420.63
555.597	19201.43
555.96	19423.12
556.323	19427.19
556.686	19320.3
557.05	19498.37
557.413	19558.48
557.776	19521.42
558.139	19723.68
558.502	19712.6
558.865	19727.52
559.228	19886.61
559.59	19805.71
559.953	19842.54
560.316	20015.19
560.679	19982.43
561.041	20080.73
561.404	20058.58
561.767	20256.77
562.129	20074.4
562.492	20360.95
562.854	20314.17
563.217	20319.37
563.579	20368.86
563.941	20412.7
564.304	20508.51
564.666	20584.67
565.028	20657.21
565.39	20631.9
565.753	20678.68
566.115	20786.47
566.477	20755.51
566.839	20858.56
567.201	20954.6
567.563	20926.81
567.925	21090.19
568.287	21069.4
568.648	21208.83
569.01	21342.16
569.372	21361.6
569.734	21215.61
570.095	21397.76
570.457	21401.37
570.819	21455.16
571.18	21417.19
571.542	21577.86
571.903	21620.12
572.265	21708.03
572.626	21723.85
572.987	21745.77
573.349	21728.14
573.71	21883.17
574.071	21914.35
574.432	21942.6
574.794	22060.34
575.155	22132.65
575.516	21966.78
575.877	22046.1
576.238	22014.24
576.599	22165.65
576.96	22214.23
577.32	22107.12
577.681	22237.51
578.042	22258.3
578.403	22310.27
578.763	22326.09
579.124	22311.18
579.485	22423.49
579.845	22446.32
580.206	22442.47
580.566	22386.66
580.927	22397.05
581.287	22573.54
581.648	22403.61
582.008	22619.87
582.368	22457.84
582.728	22532.19
583.089	22486.54
583.449	22545.52
583.809	22587.56
584.169	22526.77
584.529	22571.51
584.889	22546.65
585.249	22515.24
585.609	22461.68
585.969	22594.79
586.329	22400.44
586.688	22581.91
587.048	22497.84
587.408	22482.7
587.768	22621.23
588.127	22499.87
588.487	22416.26
588.846	22679.53
589.206	22443.15
589.565	22496.71
589.925	22670.49
590.284	22538.97
590.643	22563.6
591.003	22521.79
591.362	22584.62
591.721	22646.31
592.08	22576.93
592.44	22505.3
592.799	22556.37
593.158	22569.03
593.517	22630.72
593.876	22591.62
594.235	22579.65
594.593	22564.28
594.952	22699.19
595.311	22656.48
595.67	22579.19
596.029	22746.65
596.387	22685.41
596.746	22677.72
597.104	22642.24
597.463	22642.92
597.822	22657.38
598.18	22609.93
598.538	22576.03
598.897	22729.25
599.255	22450.38
599.613	22823.71
599.972	22768.57
600.33	22835.68
600.688	22646.99
601.046	22778.74
601.404	22854.22
601.762	22891.05
602.12	22992.06
602.478	22876.59
602.836	22903.25
603.194	22791.62
603.552	22869.81
603.91	22692.19
604.268	22907.77
604.625	22829.13
604.983	22942.12
605.341	22836.36
605.698	22960.2
606.056	22900.77
606.413	23024.83
606.771	22990.03
607.128	23077.26
607.485	23039.75
607.843	22994.1
608.2	23113.19
608.557	23131.04
608.914	23082.91
609.272	23196.13
609.629	23305.95
609.986	23299.18
610.343	23217.6
610.7	23392.28
611.057	23326.52
611.414	23324.49
611.771	23329.46
612.127	23431.15
612.484	23339.85
612.841	23527.87
613.198	23516.57
613.554	23449.23
613.911	23598.6
614.267	23612.84
614.624	23596.12
614.98	23669.56
615.337	23821.65
615.693	23644.03
616.05	23609
616.406	23709.56
616.762	23749.11
617.118	23748.2
617.475	23814.42
617.831	23894.19
618.187	23851.7
618.543	23862.78
618.899	23941.64
619.255	23914.07
619.611	23871.82
619.967	24065.48
620.323	24056.22
620.678	23970.34
621.034	23939.16
621.39	23991.59
621.746	23931.25
622.101	24316.55
622.457	23992.04
622.812	24103.22
623.168	24143.9
623.523	24161.98
623.879	24257.34
624.234	24151.58
624.589	24324.46
624.945	24177.8
625.3	24275.42
625.655	24197.23
626.01	24192.71
626.365	24217.57
626.72	24252.82
627.075	24257.79
627.43	24176.44
627.785	24149.32
628.14	24203.33
628.495	24207.17
628.85	24196.1
629.205	24012.38
629.559	24168.08
629.914	24114.07
630.269	24040.85
630.623	24093.05
630.978	24049.89
631.332	24128.08
631.687	24221.19
632.041	24042.21
632.396	24038.37
632.75	23977.12
633.104	24124.46
633.459	23859.84
633.813	23985.71
634.167	23983.45
634.521	23913.4
634.875	23940.97
635.229	23889.44
635.583	23867.3
635.937	23849.44
636.291	23709.56
636.645	23781.65
636.999	23795.66
637.352	23780.74
637.706	23645.61
638.06	23915.66
638.413	23709.56
638.767	23643.57
639.121	23693.74
639.474	23454.88
639.828	23613.74
640.181	23617.59
640.534	23611.03
640.888	23521.54
641.241	23479.51
641.594	23454.65
641.947	23539.17
642.301	23497.36
642.654	23415.33
643.007	23528.32
643.36	23510.7
643.713	23414.2
644.066	23536.91
644.419	23430.92
644.771	23114.77
645.124	23027.32
645.477	23053.76
645.83	22866.87
646.182	22754.78
646.535	22693.77
646.888	22795.69
647.24	22610.61
647.593	22703.03
647.945	22682.92
648.298	22591.62
648.65	22494.22
649.002	22547.33
649.355	22573.77
649.707	22615.8
650.059	22649.02
650.411	22935.34
650.763	23071.84
651.115	23211.27
651.467	23165.62
651.819	23103.47
652.171	23170.14
652.523	23133.08
652.875	23021.89
653.227	22937.38
653.578	23092.85
653.93	23074.55
654.282	22998.84
654.633	22979.41
654.985	23017.6
655.337	22983.03
655.688	23082.46
656.039	23197.03
656.391	23016.7
656.742	22985.96
657.094	23030.48
657.445	23064.15
657.796	23004.49
658.147	22859.87
658.498	22877.49
658.849	22982.8
659.2	23005.62
659.551	22955.23
659.902	22999.07
660.253	22952.07
660.604	22901.22
660.955	22944.83
661.306	23081.33
661.656	22826.65
662.007	22939.86
662.358	22966.98
662.708	23007.66
663.059	22978.28
663.409	22778.06
663.76	22964.27
664.11	22927.43
664.461	22964.04
664.811	22991.16
665.161	22939.41
665.511	22938.96
665.862	23011.5
666.212	23014.44
666.562	23018.05
666.912	22896.7
667.262	22952.97
667.612	23028.9
667.962	23046.75
668.312	22886.76
668.662	23075
669.011	22990.48
669.361	22968.34
669.711	22936.25
670.06	22877.49
670.41	22843.37
670.76	22837.27
671.109	23007.66
671.459	22814.22
671.808	22746.65
672.157	22851.05
672.507	22661.23
672.856	22734.44
673.205	22755.69
673.554	22859.41
673.904	22739.19
674.253	22840.88
674.602	22770.83
674.951	22492.42
675.3	22422.36
675.649	22776.25
675.998	22592.53
676.346	22688.12
676.695	22834.33
677.044	22671.17
677.393	22637.5
677.741	22666.88
678.09	22697.84
678.438	22547.1
678.787	22633.43
679.135	22641.34
679.484	22440.67
679.832	22505.3
680.181	22350.27
680.529	22434.11
680.877	22320.22
681.225	22357.05
681.573	22456.94
681.922	22249.49
682.27	22144.86
682.618	22239.32
682.966	22136.27
683.314	22289.48
683.661	22183.5
684.009	21969.94
684.357	21976.05
684.705	21929.72
685.053	21909.38
685.4	21882.94
685.748	21863.28
686.095	21709.16
686.443	21673.91
686.79	21653.57
687.138	21678.2
687.485	21689.95
687.832	21557.75
688.18	21578.32
688.527	21512.78
688.874	21485.89
689.221	21402.05
689.568	21379
689.915	21280.47
690.262	21310.3
690.609	21185.56
690.956	21108.95
691.303	21133.58
691.65	21056.52
691.997	20987.15
692.344	20882.74
692.69	20856.3
693.037	20841.84
693.383	20685.01
693.73	20791.67
694.077	20573.6
694.423	20600.49
694.769	20585.35
695.116	20488.63
695.462	20436.88
695.808	20408.86
696.155	20436.88
696.501	20245.7
696.847	20276.88
697.193	20042.76
697.539	20108.52
697.885	19909.43
698.231	19923.45
698.577	19957.57
698.923	19911.24
699.269	19777.69
699.614	19699.04
699.96	19668.08
700.306	19631.48
700.651	19453.63
700.997	19465.38
701.342	19460.18
701.688	19341.99
702.033	19301.99
702.379	19235.78
702.724	19275.78
703.069	19254.99
703.415	18939.29
703.76	19096.12
704.105	18957.14
704.45	18973.87
704.795	18784.49
705.14	18712.4
705.485	18717.6
705.83	18737.94
706.175	18728
706.52	18514.22
706.865	18572.75
707.209	18507.89
707.554	18328.01
707.899	18435.35
708.243	18410.72
708.588	18335.92
708.932	18243.94
709.277	18151.74
709.621	18124.85
709.966	18091.85
710.31	18114
710.654	17932.08
710.998	17905.87
711.342	17907.9
711.687	17835.36
712.031	17838.75
712.375	17777.29
712.719	17782.26
713.063	17731.41
713.407	17768.47
713.75	17685.54
714.094	17631.53
714.438	17617.29
714.782	17672.2
715.125	17473.79
715.469	17523.06
715.812	17399.67
716.156	17417.52
716.499	17330.29
716.843	17422.72
717.186	17232.89
717.53	17331.2
717.873	17312.67
718.216	17255.72
718.559	17244.42
718.902	17018.21
719.246	17116.29
719.589	17054.14
719.932	16987.93
720.275	17094.82
720.617	16985.9
720.96	17037.87
721.303	16912
721.646	16954.94
721.989	16929.4
722.331	16967.82
722.674	16906.58
723.016	16958.78
723.359	16820.7
723.701	16943.41
724.044	16700.7
724.386	16691.44
724.729	16693.47
725.071	16667.49
725.413	16716.52
725.755	16761.27
726.097	16592.91
726.439	16555.17
726.782	16629.29
727.124	16560.82
727.465	16509.75
727.807	16536.64
728.149	16508.85
728.491	16548.39
728.833	16486.93
729.175	16471.11
729.516	16450.54
729.858	16415.97
730.199	16432.01
730.541	16424.78
730.882	16414.61
731.224	16460.71
731.565	16343.43
731.906	16352.92
732.248	16351.11
732.589	16255.07
732.93	16187.72
733.271	16285.57
733.612	16252.58
733.953	16270.66
734.294	16291.45
734.635	16313.14
734.976	16273.6
735.317	16214.16
735.658	16214.62
735.999	16205.8
736.339	16182.98
736.68	16204.9
737.021	16173.71
737.361	16147.27
737.702	16191.79
738.042	16183.88
738.383	16070.44
738.723	16136.65
739.063	16121.96
739.404	16166.03
739.744	16120.83
740.084	16059.82
740.424	16185.46
740.764	16092.13
741.104	16170.1
741.444	16049.87
741.784	16032.93
742.124	16171.68
742.464	16111.34
742.804	16091.23
743.143	16128.74
743.483	16169.87
743.823	16107.95
744.162	16140.27
744.502	16218.68
744.841	16095.75
745.181	16282.86
745.52	16218.91
745.86	16315.86
746.199	16237.67
746.538	16245.8
746.877	16327.83
747.216	16390.88
747.556	16332.35
747.895	16348.85
748.234	16405.12
748.573	16305.46
748.911	16468.62
749.25	16555.4
749.589	16467.49
749.928	16620.48
750.267	16613.25
750.605	16648.95
750.944	16614.38
751.283	16686.92
751.621	16779.8
751.96	16713.59
752.298	16809.4
752.636	16904.09
752.975	16848.05
753.313	16981.15
753.651	17076.06
753.989	17076.74
754.327	17071.77
754.666	17147.02
755.004	17204.65
755.342	17446
755.679	17337.07
756.017	17437.41
756.355	17387.92
756.693	17529.16
757.031	17645.31
757.368	17515.37
757.706	17682.15
758.044	17699.1
758.381	17826.55
758.719	17846.66
759.056	17946.77
759.394	18060.22
759.731	17978.64
760.068	18096.15
760.405	18126.2
760.743	18286.88
761.08	18305.63
761.417	18248.91
761.754	18448.91
762.091	18376.82
762.428	18460.43
762.765	18384.95
763.102	18482.35
763.438	18587.89
763.775	18511.28
764.112	18666.98
764.449	18656.13
764.785	18725.74
765.122	18663.14
765.458	18762.8
765.795	18766.64
766.131	18809.35
766.467	18888.9
766.804	18852.74
767.14	18768.22
767.476	18888.22
767.812	18775.9
768.148	18977.03
768.485	18852.06
768.821	18804.6
769.157	18802.34
769.492	18901.33
769.828	18869.46
770.164	18793.31
770.5	18724.15
770.836	18876.69
771.171	18728.67
771.507	18697.04
771.842	18739.75
772.178	18712.4
772.513	18775.68
772.849	18692.29
773.184	18687.09
773.519	18711.5
773.855	18520.54
774.19	18593.54
774.525	18592.41
774.86	18566.87
775.195	18591.95
775.53	18502.92
775.865	18415.69
776.2	18348.12
776.535	18301.11
776.87	18349.7
777.205	18270.83
777.539	18152.64
777.874	18328.46
778.209	18234
778.543	18055.92
778.878	18055.47
779.212	18072.65
779.547	17923.5
779.881	17976.83
780.215	17823.61
780.55	17910.84
780.884	17855.7
781.218	17781.13
781.552	17819.55
781.886	17792.2
782.22	17603.73
782.554	17523.28
782.888	17442.15
783.222	17403.06
783.556	17392.66
783.889	17346.56
784.223	17265.44
784.557	17282.16
784.89	17314.47
785.224	17169.17
785.557	17203.29
785.891	17086.46
786.224	17062.96
786.558	16987.48
786.891	16847.82
787.224	16790.42
787.557	16706.35
787.891	16856.41
788.224	16766.92
788.557	16720.37
788.89	16758.78
789.223	16589.97
789.556	16500.03
789.888	16437.66
790.221	16441.73
790.554	16337.55
790.887	16336.65
791.219	16310.21
791.552	16233.82
791.884	16212.58
792.217	16152.24
792.549	16060.95
792.882	15900.73
793.214	15964.91
793.546	15922.19
793.879	15834.74
794.211	15781.63
794.543	15805.59
794.875	15678.13
795.207	15774.4
795.539	15649.21
795.871	15637
796.203	15498.25
796.535	15484.01
796.867	15412.15
797.198	15406.73
797.53	15333.74
797.862	15261.19
798.193	15336.67
798.525	15163.8
798.856	15249.9
799.188	15127.86
799.519	15063.69
799.85	14943.01
800.182	14957.25
800.513	14958.38
800.844	14861.88
801.175	14910.24
801.506	14917.25
801.837	14785.5
802.168	14762.68
802.499	14714.99
802.83	14613.75
803.161	14614.21
803.491	14579.4
803.822	14553.87
804.153	14484.27
804.483	14366.76
804.814	14327.89
805.145	14311.39
805.475	14360.2
805.805	14296.02
806.136	14336.7
806.466	14205.63
806.796	14257.83
807.126	14071.85
807.457	14110.94
807.787	14071.4
808.117	14049.02
808.447	13986.88
808.777	13991.4
809.107	13930.38
809.436	13898.97
809.766	13882.25
810.096	13858.52
810.426	13870.95
810.755	13807.45
811.085	13721.8
811.414	13720.9
811.744	13574.91
812.073	13541.24
812.403	13581.24
812.732	13547.79
813.061	13480.45
813.39	13469.38
813.719	13412.43
814.049	13495.82
814.378	13349.15
814.707	13363.39
815.036	13297.86
815.365	13278.42
815.693	13178.54
816.022	13204.07
816.351	13099.44
816.68	13045.21
817.008	13053.8
817.337	12973.12
817.665	12942.39
817.994	12994.14
818.322	12948.49
818.651	12932.44
818.979	12844.54
819.307	12936.74
819.636	12859.22
819.964	12732.22
820.292	12810.19
820.62	12775.38
820.948	12803.86
821.276	12791.43
821.604	12729.51
821.932	12746.46
822.259	12785.1
822.587	12785.78
822.915	12691.54
823.243	12701.26
823.57	12660.36
823.898	12651.77
824.225	12674.6
824.553	12659.68
824.88	12763.18
825.207	12686.12
825.535	12713.92
825.862	12781.94
826.189	12640.47
826.516	12652.22
826.843	12721.37
827.17	12725.67
827.497	12649.51
827.824	12715.27
828.151	12753.69
828.478	12666.91
828.805	12737.87
829.131	12664.88
829.458	12647.25
829.785	12612.22
830.111	12601.83
830.438	12665.56
830.764	12689.51
831.09	12658.1
831.417	12602.06
831.743	12709.85
832.069	12641.15
832.395	12535.39
832.722	12614.71
833.048	12534.03
833.374	12657.65
833.7	12613.13
834.026	12569.06
834.351	12542.62
834.677	12501.27
835.003	12596.41
835.329	12534.71
835.654	12516.41
835.98	12462.4
836.306	12457.2
836.631	12459.91
836.956	12491.32
837.282	12446.81
837.607	12484.32
837.932	12365.68
838.258	12386.69
838.583	12380.37
838.908	12211.11
839.233	12233.03
839.558	12277.77
839.883	12236.64
840.208	12110.77
840.533	12206.36
840.858	12271.44
841.182	12244.78
841.507	12160.26
841.832	12101.5
842.156	12036.42
842.481	12100.15
842.805	12046.36
843.13	11964.56
843.454	12005.69
843.778	11968.4
844.103	11923.66
844.427	11930.43
844.751	11842.3
845.075	11831.91
845.399	11880.72
845.723	11722.98
846.047	11771.79
846.371	11630.78
846.695	11722.98
847.019	11569.99
847.343	11558.69
847.666	11495.19
847.99	11430.11
848.313	11428.98
848.637	11373.61
848.96	11366.38
849.284	11239.38
849.607	11232.6
849.931	11144.47
850.254	11145.37
850.577	11067.63
850.9	11001.42
851.223	10991.93
851.546	10962.55
851.869	10879.62
852.192	10906.28
852.515	10813.63
852.838	10816.79
853.161	10768.88
853.483	10744.03
853.806	10683.91
854.129	10643.01
854.451	10609.11
854.774	10631.03
855.096	10536.8
855.419	10508.1
855.741	10451.15
856.063	10372.06
856.385	10394.88
856.708	10372.51
857.03	10282.57
857.352	10368.44
857.674	10290.25
857.996	10231.72
858.318	10187.43
858.64	10172.52
858.961	10168.9
859.283	10124.15
859.605	10058.17
859.926	10066.53
860.248	9999.64
860.57	9989.24
860.891	10043.93
861.212	9928
861.534	9949.7
861.855	9896.14
862.176	9881.22
862.498	9950.15
862.819	9963.03
863.14	9861.56
863.461	9822.69
863.782	9803.94
864.103	9777.27
864.424	9753.09
864.745	9782.24
865.065	9690.72
865.386	9722.81
865.707	9668.57
866.027	9700.89
866.348	9723.04
866.668	9718.06
866.989	9613.43
867.309	9525.75
867.63	9591.29
867.95	9602.81
868.27	9494.11
868.59	9495.92
868.91	9529.14
869.23	9464.74
869.55	9478.97
869.87	9439.65
870.19	9447.56
870.51	9445.53
870.83	9437.85
871.15	9434.91
871.469	9436.49
871.789	9424.74
872.109	9363.04
872.428	9347
872.748	9354.46
873.067	9354.01
873.386	9353.55
873.706	9272.2
874.025	9275.82
874.344	9208.92
874.663	9240.56
874.982	9207.12
875.301	9201.47
875.62	9168.47
875.939	9154.91
876.258	9174.8
876.577	9133.45
876.896	9120.11
877.214	9142.71
877.533	9126.89
877.852	9124.63
878.17	9142.71
878.489	9057.29
878.807	9064.97
879.125	9007.12
879.444	9007.57
879.762	9011.87
880.08	9004.41
880.398	8951.76
880.716	9017.07
881.034	8941.13
881.352	8930.74
881.67	8886.9
881.988	8900.46
882.306	8832.44
882.624	8869.5
882.941	8812.1
883.259	8799.22
883.577	8768.71
883.894	8706.56
884.212	8731.42
884.529	8708.15
884.846	8735.94
885.164	8694.36
885.481	8721.03
885.798	8631.99
886.115	8600.35
886.432	8609.39
886.75	8547.7
887.067	8567.81
887.383	8549.05
887.7	8504.31
888.017	8436.29
888.334	8488.04
888.651	8419.57
888.967	8394.71
889.284	8427.48
889.6	8385.44
889.917	8329.85
890.233	8296.86
890.55	8293.92
890.866	8300.02
891.182	8316.07
891.498	8298.44
891.815	8210.31
892.131	8226.58
892.447	8150.87
892.763	8155.17
893.079	8119.01
893.395	8098.22
893.71	8104.32
894.026	8057.99
894.342	8037.43
894.657	7980.26
894.973	8005.57
895.289	8010.99
895.604	8006.24
895.92	7875.4
896.235	7847.83
896.55	7830.43
896.865	7797.89
897.181	7771.9
897.496	7787.49
897.811	7776.42
898.126	7689.42
898.441	7700.49
898.756	7663.65
899.071	7656.65
899.386	7593.15
899.7	7543.66
900.015	7482.64
900.33	7445.36
900.644	7460.72
900.959	7505.24
901.273	7445.36
901.588	7429.99
901.902	7371.46
902.216	7318.8
902.531	7316.54
902.845	7262.08
903.159	7258.02
903.473	7209.2
903.787	7229.32
904.101	7188.41
904.415	7159.94
904.729	7136.66
905.042	7117.23
905.356	7059.38
905.67	7034.97
905.984	7033.16
906.297	7051.69
906.611	7036.33
906.924	6937.12
907.237	6937.12
907.551	6929.66
907.864	6832.72
908.177	6866.16
908.491	6844.01
908.804	6740.97
909.117	6790.23
909.43	6769.44
909.743	6705.26
910.056	6727.18
910.368	6691.93
910.681	6646.28
910.994	6603.57
911.307	6620.29
911.619	6539.84
911.932	6503.01
912.244	6538.71
912.557	6498.26
912.869	6442.22
913.181	6443.12
913.494	6441.31
913.806	6365.16
914.118	6346.63
914.43	6304.82
914.742	6265.95
915.054	6284.03
915.366	6229.12
915.678	6192.28
915.99	6179.63
916.302	6147.54
916.613	6145.73
916.925	6112.06
917.236	6112.06
917.548	6056.47
917.859	6057.82
918.171	5969.24
918.482	6012.62
918.794	5997.26
919.105	5937.6
919.416	5922.46
919.727	5914.55
920.038	5872.52
920.349	5851.05
920.66	5800.65
920.971	5818.28
921.282	5786.87
921.593	5741.45
921.903	5712.52
922.214	5726.98
922.525	5686.53
922.835	5608.34
923.146	5710.71
923.456	5637.27
923.767	5616.7
924.077	5555.69
924.387	5535.35
924.697	5589.81
925.008	5507.55
925.318	5441.57
925.628	5494.45
925.938	5477.27
926.248	5396.14
926.558	5366.09
926.867	5401.79
927.177	5353.88
927.487	5330.38
927.796	5286.99
928.106	5237.73
928.416	5239.54
928.725	5262.59
929.034	5168.8
929.344	5223.04
929.653	5172.87
929.962	5147.34
930.271	5185.3
930.581	5079.32
930.89	5042.48
931.199	5052.65
931.508	5049.49
931.817	5018.75
932.125	5050.39
932.434	5012.2
932.743	4937.17
933.051	4910.28
933.36	4892.43
933.669	4928.59
933.977	4881.35
934.286	4869.38
934.594	4808.81
934.902	4807.91
935.21	4777.63
935.519	4786.67
935.827	4758.87
936.135	4728.59
936.443	4688.37
936.751	4724.97
937.059	4710.51
937.367	4608.59
937.674	4630.29
937.982	4578.54
938.29	4562.49
938.597	4602.49
938.905	4506.9
939.213	4525.21
939.52	4474.59
939.827	4491.99
940.135	4463.96
940.442	4482.95
940.749	4487.01
941.056	4457.64
941.363	4407.02
941.67	4367.92
941.977	4356.85
942.284	4315.72
942.591	4306
942.898	4301.93
943.205	4290.18
943.511	4288.6
943.818	4286.34
944.125	4210.19
944.431	4231.43
944.738	4199.11
945.044	4168.83
945.35	4182.16
945.657	4132
945.963	4140.58
946.269	4107.36
946.575	4105.1
946.881	4052.9
947.187	4108.49
947.493	4063.52
947.799	4059.91
948.105	4004.32
948.41	3941.27
948.716	3957.76
949.022	3946.92
949.327	3952.79
949.633	3898.33
949.938	3916.41
950.244	3918.67
950.549	3915.5
950.854	3836.18
951.16	3858.1
951.465	3830.76
951.77	3814.72
952.075	3835.28
952.38	3806.58
952.685	3759.58
952.99	3665.12
953.294	3741.5
953.599	3691.1
953.904	3682.74
954.209	3691.56
954.513	3682.74
954.818	3659.24
955.122	3641.16
955.426	3648.62
955.731	3623.31
956.035	3565.23
956.339	3615.85
956.643	3559.36
956.948	3534.95
957.252	3518.45
957.556	3524.55
957.86	3544.21
958.163	3492.46
958.467	3478.91
958.771	3479.81
959.075	3454.05
959.378	3400.04
959.682	3377.21
959.985	3367.04
960.289	3341.51
960.592	3359.36
960.896	3379.93
961.199	3324.33
961.502	3315.52
961.805	3319.81
962.108	3258.35
962.411	3289.53
962.714	3245.01
963.017	3222.19
963.32	3223.55
963.623	3221.51
963.926	3229.87
964.228	3175.41
964.531	3152.59
964.833	3167.95
965.136	3170.89
965.438	3125.02
965.741	3112.14
966.043	3116.88
966.345	3089.09
966.648	3064
966.95	3069.42
967.252	3066.71
967.554	3043.66
967.856	3047.05
968.158	2978.35
968.46	3000.95
968.761	2967.96
969.063	2965.02
969.365	2962.76
969.666	2953.04
969.968	2967.51
970.269	2936.77
970.571	2880.28
970.872	2914.85
971.174	2878.24
971.475	2889.77
971.776	2857.23
972.077	2856.78
972.378	2830.34
972.679	2823.56
972.98	2849.77
973.281	2779.72
973.582	2760.96
973.883	2837.57
974.183	2793.5
974.484	2805.93
974.785	2753.5
975.085	2762.99
975.386	2748.76
975.686	2716.89
975.986	2668.08
976.287	2699.49
976.587	2667.63
976.887	2692.03
977.187	2643.45
977.487	2660.4
977.787	2644.13
978.087	2603.67
978.387	2616.56
978.687	2583.56
978.987	2609.32
979.286	2596.22
979.586	2559.16
979.885	2543.56
980.185	2520.74
980.484	2525.03
980.784	2513.06
981.083	2522.55
981.382	2479.84
981.682	2496.78
981.981	2502.66
982.28	2467.18
982.579	2446.84
982.878	2418.82
983.177	2431.48
983.475	2402.1
983.774	2387.18
984.073	2407.07
984.372	2412.04
984.67	2384.02
984.969	2403
985.267	2384.02
985.566	2340.4
985.864	2351.93
986.162	2321.2
986.461	2321.42
986.759	2327.07
987.057	2311.93
987.355	2279.84
987.653	2273.74
987.951	2279.16
988.249	2274.19
988.547	2282.33
988.844	2210.01
989.142	2272.16
989.44	2208.43
989.737	2219.05
990.035	2177.92
990.332	2191.03
990.63	2195.1
990.927	2173.86
991.224	2164.36
991.521	2170.24
991.819	2138.15
992.116	2120.75
992.413	2124.59
992.71	2130.47
993.006	2100.18
993.303	2108.32
993.6	2104.03
993.897	2097.93
994.193	2082.11
994.49	2058.38
994.787	2027.19
995.083	2026.97
995.379	2030.58
995.676	1994.65
995.972	2025.38
996.268	2028.77
996.565	1965.27
996.861	2004.14
997.157	1929.79
997.453	1970.47
997.749	1960.98
998.044	1949.68
998.34	1938.83
998.636	1921.43
998.932	1903.13
999.227	1891.38
999.523	1878.95
999.818	1867.42
1000.114	1873.07
1000.409	1869.68
1000.704	1849.34
1001	1847.54
1001.295	1815.67
1001.59	1831.72
1001.885	1820.19
1002.18	1798.27
1002.475	1804.83
1002.77	1775.67
1003.065	1791.04
1003.359	1758.05
1003.654	1750.82
1003.949	1729.8
1004.243	1729.35
1004.538	1714.21
1004.832	1747.2
1005.127	1734.77
1005.421	1680.76
1005.715	1681.66
1006.009	1696.58
1006.304	1668.11
1006.598	1677.37
1006.892	1688.67
1007.186	1603.02
1007.48	1648.45
1007.773	1624.49
1008.067	1621.55
1008.361	1593.76
1008.655	1593.76
1008.948	1568.9
1009.242	1587.43
1009.535	1608.45
1009.829	1588.33
1010.122	1552.85
1010.415	1564.83
1010.708	1546.3
1011.001	1523.93
1011.295	1519.18
1011.588	1518.96
1011.881	1506.75
1012.173	1476.02
1012.466	1507.88
1012.759	1471.05
1013.052	1511.5
1013.344	1464.95
1013.637	1493.2
1013.93	1464.72
1014.222	1427.66
1014.514	1434.89
1014.807	1435.8
1015.099	1404.16
1015.391	1421.11
1015.683	1433.08
1015.976	1380.43
1016.268	1410.49
1016.56	1384.05
1016.851	1357.38
1017.143	1400.09
1017.435	1378.4
1017.727	1339.53
1018.018	1345.18
1018.31	1320.09
1018.602	1342.46
1018.893	1321.67
1019.185	1317.38
1019.476	1295.01
1019.767	1284.84
1020.058	1312.86
1020.35	1264.73
1020.641	1274.22
1020.932	1258.17
1021.223	1244.61
1021.514	1260.88
1021.804	1241.22
1022.095	1238.74
1022.386	1230.83
1022.677	1210.04
1022.967	1217.27
1023.258	1213.43
1023.548	1174.11
1023.839	1205.07
1024.129	1171.62
1024.419	1175.69
1024.709	1135.24
1025	1157.61
1025.29	1158.29
1025.58	1127.1
1025.87	1136.59
1026.16	1119.65
1026.449	1128.46
1026.739	1131.62
1027.029	1119.65
1027.319	1076.93
1027.608	1097.5
1027.898	1078.06
1028.187	1075.81
1028.477	1098.63
1028.766	1080.32
1029.055	1049.37
1029.344	1059.99
1029.634	1016.15
1029.923	1031.51
1030.212	1035.35
1030.501	1032.87
1030.79	1021.57
1031.078	1008.91
1031.367	1003.72
1031.656	985.86
1031.945	1002.36
1032.233	989.93
1032.522	980.89
1032.81	976.15
1033.099	973.43
1033.387	969.82
1033.675	954.45
1033.963	928.01
1034.251	948.58
1034.54	929.82
1034.828	910.39
1035.116	959.88
1035.403	904.51
1035.691	909.93
1035.979	923.27
1036.267	901.35
1036.554	907.22
1036.842	914.68
1037.129	896.15
1037.417	875.13
1037.704	887.34
1037.992	864.06
1038.279	867
1038.566	836.26
1038.853	836.26
1039.14	836.26
