Data from hue_280_FLMS001491_00029.txt Node
Date: Tue Feb 07 15:55:04 GMT 2017
User: dcchb
Spectrometer: FLMS00149
Trigger mode: 0
Integration Time (sec): 2.000000E-2
Scans to average: 10
Electric dark correction enabled: true
Nonlinearity correction enabled: false
Boxcar width: 0
XAxis mode: Wavelengths
Number of Pixels in Spectrum: 2048
>>>>>Begin Spectral Data<<<<<
341.393	-18.59
341.776	-18.59
342.16	-18.59
342.543	-47.06
342.927	-49.55
343.31	-66.04
343.693	-66.72
344.077	-73.73
344.46	-46.16
344.843	-42.77
345.226	-45.03
345.61	-34.18
345.993	-0.51
346.376	-8.64
346.759	-2.77
347.142	8.3
347.525	55.99
347.908	50.56
348.291	78.59
348.674	83.56
349.057	109.55
349.44	125.59
349.823	159.94
350.206	168.3
350.588	188.64
350.971	183.89
351.354	210.56
351.737	222.54
352.119	247.39
352.502	256.89
352.884	268.86
353.267	276.55
353.65	292.14
354.032	292.59
354.414	302.53
354.797	308.86
355.179	305.7
355.562	306.15
355.944	317.68
356.326	359.26
356.709	322.42
357.091	335.75
357.473	340.95
357.855	349.31
358.238	343.44
358.62	338.92
359.002	343.21
359.384	346.6
359.766	300.27
360.148	311.35
360.53	338.24
360.912	327.84
361.294	327.39
361.676	316.55
362.057	333.49
362.439	318.35
362.821	325.13
363.203	318.58
363.584	325.36
363.966	317.68
364.348	335.98
364.729	345.92
365.111	325.81
365.493	325.81
365.874	315.64
366.256	302.08
366.637	318.13
367.019	284.46
367.4	302.08
367.781	290.11
368.163	288.52
368.544	309.77
368.925	313.83
369.306	309.09
369.688	302.99
370.069	298.69
370.45	312.93
370.831	313.16
371.212	300.95
371.593	318.13
371.974	327.84
372.355	308.41
372.736	310.67
373.117	338.69
373.498	305.47
373.879	310.22
374.26	322.19
374.641	312.93
375.021	301.86
375.402	315.42
375.783	315.42
376.163	328.07
376.544	332.59
376.925	324.45
377.305	337.79
377.686	322.42
378.066	321.29
378.447	321.52
378.827	331.91
379.208	324.23
379.588	319.48
379.968	319.26
380.349	329.2
380.729	336.88
381.109	324.23
381.489	320.84
381.87	343.66
382.25	363.78
382.63	336.43
383.01	333.27
383.39	332.82
383.77	327.62
384.15	340.95
384.53	316.77
384.91	318.13
385.29	320.84
385.67	315.64
386.049	375.75
386.429	355.64
386.809	354.28
387.189	366.94
387.568	343.21
387.948	355.87
388.328	349.76
388.707	365.58
389.087	347.28
389.466	360.61
389.846	347.28
390.225	371.46
390.605	363.55
390.984	367.17
391.363	400.38
391.743	374.85
392.122	366.26
392.501	352.93
392.881	379.82
393.26	382.31
393.639	367.17
394.018	383.44
394.397	391.57
394.776	379.14
395.155	383.89
395.534	393.83
395.913	369.88
396.292	373.04
396.671	388.18
397.05	396.09
397.429	398.13
397.808	402.19
398.186	401.97
398.565	396.09
398.944	417.79
399.323	409.88
399.701	416.2
400.08	402.19
400.458	416.2
400.837	413.94
401.215	418.46
401.594	405.13
401.972	434.06
402.351	437.9
402.729	416.43
403.107	415.98
403.486	421.18
403.864	441.06
404.242	452.14
404.62	446.03
404.999	445.81
405.377	447.39
405.755	456.65
406.133	448.29
406.511	457.33
406.889	446.26
407.267	485.13
407.645	495.98
408.023	485.13
408.401	459.37
408.779	491.23
409.156	503.89
409.534	493.94
409.912	501.4
410.29	505.92
410.667	520.16
411.045	516.99
411.422	510.21
411.8	529.65
412.178	559.7
412.555	527.84
412.933	550.89
413.31	569.19
413.687	569.65
414.065	594.05
414.442	567.84
414.819	603.77
415.197	596.99
415.574	612.58
415.951	594.05
416.328	586.14
416.705	621.4
417.082	608.52
417.46	626.14
417.837	651.9
418.214	654.16
418.591	683.09
418.967	673.82
419.344	680.83
419.721	695.29
420.098	675.18
420.475	677.67
420.852	692.81
421.228	713.15
421.605	710.89
421.982	716.99
422.358	735.97
422.735	753.37
423.111	729.19
423.488	768.06
423.864	777.32
424.241	785.69
424.617	774.61
424.994	771.22
425.37	789.53
425.746	806.48
426.123	808.74
426.499	832.92
426.875	828.4
427.251	862.07
427.627	848.28
428.003	873.59
428.379	922.86
428.756	892.12
429.132	909.07
429.507	912.91
429.883	905
430.259	947.49
430.635	958.79
431.011	945
431.387	968.96
431.763	1011.89
432.138	968.96
432.514	1009.18
432.89	1023.87
433.265	1019.8
433.641	1018
434.016	1059.58
434.392	1081.05
434.767	1087.37
435.143	1100.25
435.518	1110.42
435.894	1139.8
436.269	1123.08
436.644	1168.05
437.02	1180.93
437.395	1194.71
437.77	1196.3
438.145	1196.97
438.52	1252.34
438.895	1258.89
439.271	1234.94
439.646	1260.25
440.021	1264.77
440.395	1284.43
440.77	1278.1
441.145	1287.82
441.52	1337.54
441.895	1320.81
442.27	1347.25
442.645	1344.31
443.019	1361.04
443.394	1369.85
443.769	1384.31
444.143	1357.2
444.518	1394.48
444.892	1373.24
445.267	1389.29
445.641	1395.39
446.016	1436.97
446.39	1462.73
446.764	1437.87
447.139	1423.86
447.513	1482.84
447.887	1466.8
448.262	1455.27
448.636	1481.71
449.01	1483.97
449.384	1483.29
449.758	1506.12
450.132	1513.8
450.506	1502.5
450.88	1510.86
451.254	1514.03
451.628	1554.7
452.002	1555.38
452.376	1578.43
452.75	1577.53
453.123	1566.68
453.497	1623.4
453.871	1606.23
454.244	1638.77
454.618	1639.9
454.992	1674.48
455.365	1648.26
455.739	1696.4
456.112	1720.12
456.486	1729.39
456.859	1756.51
457.232	1759.45
457.606	1744.53
457.979	1770.29
458.352	1826.79
458.725	1858.2
459.099	1830.18
459.472	1855.49
459.845	1865.43
460.218	1842.38
460.591	1864.53
460.964	1894.36
461.337	1945.2
461.71	1937.29
462.083	1979.33
462.456	1950.85
462.829	1975.71
463.201	1997.63
463.574	2044.18
463.947	2050.06
464.32	2069.49
464.692	2065.65
465.065	2079.44
465.438	2097.52
465.81	2112.2
466.183	2129.83
466.555	2189.72
466.928	2205.76
467.3	2209.83
467.672	2222.48
468.045	2261.58
468.417	2251.64
468.789	2253.9
469.161	2285.08
469.534	2333.67
469.906	2361.46
470.278	2344.29
470.65	2416.38
471.022	2478.97
471.394	2426.32
471.766	2487.79
472.138	2529.82
472.51	2582.02
472.882	2576.37
473.253	2589.25
473.625	2645.3
473.997	2657.5
474.369	2666.77
474.74	2732.08
475.112	2746.99
475.484	2780.89
475.855	2796.48
476.227	2838.96
476.598	2906.31
476.97	2927.1
477.341	2928.23
477.713	2967.78
478.084	3039.41
478.455	3080.09
478.827	3088.68
479.198	3144.27
479.569	3158.96
479.94	3195.79
480.311	3252.97
480.682	3281.44
481.053	3368.44
481.424	3391.72
481.795	3403.24
482.166	3436.46
482.537	3453.19
482.908	3561.88
483.279	3537.93
483.65	3602.79
484.021	3671.03
484.391	3737.47
484.762	3762.78
485.133	3742.22
485.503	3756.45
485.874	3852.5
486.244	3847.75
486.615	3891.37
486.985	3915.09
487.356	4039.16
487.726	4053.4
488.097	4102.43
488.467	4074.64
488.837	4160.29
489.207	4187.86
489.578	4238.93
489.948	4271.7
490.318	4304.24
490.688	4345.14
491.058	4399.83
491.428	4401.86
491.798	4459.94
492.168	4570.9
492.538	4542.42
492.908	4627.17
493.278	4635.08
493.648	4665.58
494.017	4685.7
494.387	4695.64
494.757	4730.44
495.126	4769.31
495.496	4810.44
495.866	4795.98
496.235	4817.22
496.605	4886.82
496.974	4900.83
497.344	4959.36
497.713	4948.29
498.082	4983.09
498.452	4996.65
498.821	5051.56
499.19	5051.79
499.559	5087.27
499.928	5061.05
500.298	5091.11
500.667	5139.24
501.036	5138.34
501.405	5203.42
501.774	5162.52
502.143	5258.79
502.512	5281.16
502.88	5280.03
503.249	5278.45
503.618	5292.91
503.987	5393.7
504.356	5364.32
504.724	5347.15
505.093	5359.35
505.462	5436.41
505.83	5404.55
506.199	5429.41
506.567	5512.34
506.936	5509.18
507.304	5489.97
507.672	5595.05
508.041	5579.46
508.409	5580.81
508.777	5583.07
509.145	5621.04
509.514	5587.82
509.882	5644.77
510.25	5668.27
510.618	5706.91
510.986	5696.52
511.354	5742.39
511.722	5760.24
512.09	5780.81
512.458	5842.5
512.826	5781.49
513.193	5851.09
513.561	5843.63
513.929	5814.03
514.297	5893.57
514.664	5894.48
515.032	5863.52
515.4	5964.98
515.767	5968.15
516.135	6004.08
516.502	5948.71
516.869	5980.13
517.237	6008.83
517.604	5939
517.972	6025.77
518.339	6088.6
518.706	6130.63
519.073	6080.01
519.44	6081.59
519.808	6083.4
520.175	6139.22
520.542	6211.08
520.909	6160.69
521.276	6198.88
521.643	6246.33
522.009	6238.88
522.376	6326.56
522.743	6294.24
523.11	6348.03
523.477	6365.43
523.843	6376.27
524.21	6487.46
524.577	6426.44
524.943	6448.81
525.31	6468.7
525.676	6565.42
526.043	6542.6
526.409	6566.32
526.776	6607.23
527.142	6621.69
527.508	6715.02
527.874	6676.6
528.241	6723.83
528.607	6739.43
528.973	6821.01
529.339	6780.33
529.705	6839.99
530.071	6841.35
530.437	6834.79
530.803	6915.47
531.169	6943.72
531.535	6906.43
531.901	6945.07
532.267	6946.43
532.632	6999.99
532.998	7011.51
533.364	6965.86
533.73	6951.4
534.095	7026.88
534.461	7024.84
534.826	7074.79
535.192	7078.18
535.557	7134.67
535.923	7136.25
536.288	7121.56
536.653	7149.13
537.019	7136.25
537.384	7205.63
537.749	7211.73
538.114	7225.52
538.479	7248.34
538.845	7184.39
539.21	7256.93
539.575	7328.34
539.94	7246.08
540.305	7314.1
540.67	7289.7
541.034	7337.6
541.399	7353.42
541.764	7378.05
542.129	7346.19
542.494	7384.83
542.858	7458.28
543.223	7413.76
543.587	7489.46
543.952	7429.8
544.316	7433.87
544.681	7391.84
545.045	7463.25
545.41	7520.65
545.774	7485.62
546.138	7551.16
546.503	7522.23
546.867	7611.27
547.231	7632.06
547.595	7643.58
547.959	7631.61
548.324	7598.61
548.688	7624.38
549.052	7642.45
549.416	7614.21
549.779	7641.55
550.143	7678.39
550.507	7705.28
550.871	7763.58
551.235	7736.01
551.599	7720.19
551.962	7722.68
552.326	7800.19
552.689	7832.96
553.053	7750.7
553.417	7820.75
553.78	7852.17
554.143	7798.83
554.507	7867.08
554.87	7896.23
555.234	7888.55
555.597	7861.21
555.96	7934.2
556.323	7912.5
556.686	7948.89
557.05	7987.98
557.413	7963.35
557.776	7957.7
558.139	8025.72
558.502	8023.46
558.865	8048.55
559.228	8145.49
559.59	8127.19
559.953	8095.32
560.316	8155.66
560.679	8187.07
561.041	8178.26
561.404	8236.79
561.767	8281.53
562.129	8248.54
562.492	8338.03
562.854	8319.5
563.217	8305.94
563.579	8328.76
563.941	8348.2
564.304	8417.8
564.666	8482.88
565.028	8492.83
565.39	8452.83
565.753	8588.87
566.115	8528.31
566.477	8576.44
566.839	8590.45
567.201	8712.93
567.563	8652.6
567.925	8761.52
568.287	8700.51
568.648	8706.83
569.01	8806.27
569.372	8854.17
569.734	8833.16
570.095	8894.85
570.457	8842.65
570.819	8955.19
571.18	8901.86
571.542	8978.01
571.903	8936.88
572.265	9010.1
572.626	9032.93
572.987	9080.83
573.349	9083.77
573.71	9159.7
574.071	9108.18
574.432	9238.34
574.794	9284.9
575.155	9280.83
575.516	9271.34
575.877	9332.81
576.238	9380.26
576.599	9438.34
576.96	9443.31
577.32	9521.5
577.681	9532.57
578.042	9638.11
578.403	9590.43
578.763	9608.28
579.124	9655.06
579.485	9697.99
579.845	9759.46
580.206	9860.25
580.566	9786.58
580.927	9859.35
581.287	9975.27
581.648	9902.28
582.008	10072.67
582.368	10031.32
582.728	10083.75
583.089	10095.05
583.449	10176.4
583.809	10270.86
584.169	10316.96
584.529	10370.07
584.889	10406.68
585.249	10441.48
585.609	10436.51
585.969	10570.06
586.329	10517.41
586.688	10701.81
587.048	10753.33
587.408	10783.39
587.768	10826.1
588.127	10866.1
588.487	10918.53
588.846	11056.38
589.206	11096.37
589.565	11100.22
589.925	11191.51
590.284	11273.32
590.643	11317.39
591.003	11326.43
591.362	11436.48
591.721	11507.89
592.08	11551.28
592.44	11601.67
592.799	11775.23
593.158	11774.32
593.517	11782.23
593.876	11828.11
594.235	11880.76
594.593	11961.66
594.952	12045.95
595.311	12051.38
595.67	12129.79
596.029	12243.46
596.387	12310.13
596.746	12306.74
597.104	12379.51
597.463	12371.14
597.822	12504.02
598.18	12537.69
598.538	12575.66
598.897	12722.09
599.255	12664.02
599.613	12862.66
599.972	12835.99
600.33	12887.06
600.688	12779.04
601.046	12993.73
601.404	13082.76
601.762	13068.98
602.12	13177.68
602.478	13148.98
602.836	13253.83
603.194	13152.82
603.552	13290.44
603.91	13311.68
604.268	13360.27
604.625	13358.01
604.983	13467.61
605.341	13355.98
605.698	13512.58
606.056	13586.93
606.413	13575.86
606.771	13643.65
607.128	13636.87
607.485	13645.23
607.843	13596.42
608.2	13811.78
608.557	13873.03
608.914	13853.59
609.272	13841.84
609.629	13948.73
609.986	14078.22
610.343	13991.67
610.7	14071.89
611.057	14027.6
611.414	14121.61
611.771	14162.73
612.127	14213.36
612.484	14179.23
612.841	14305.1
613.198	14216.29
613.554	14316.4
613.911	14307.36
614.267	14442.73
614.624	14396.85
614.98	14421.94
615.337	14434.59
615.693	14445.44
616.05	14473.24
616.406	14597.53
616.762	14476.4
617.118	14473.46
617.475	14523.18
617.831	14616.51
618.187	14636.17
618.543	14655.15
618.899	14746.22
619.255	14651.54
619.611	14653.12
619.967	14717.75
620.323	14760.91
620.678	14719.1
621.034	14777.18
621.39	14764.08
621.746	14651.31
622.101	14857.86
622.457	14763.4
622.812	14797.52
623.168	14905.77
623.523	14782.15
623.879	14847.24
624.234	14857.18
624.589	14786.67
624.945	14831.87
625.3	14865.77
625.655	14904.86
626.01	14902.15
626.365	14955.93
626.72	14968.59
627.075	14894.02
627.43	14884.75
627.785	14823.06
628.14	14927.01
628.495	14961.81
628.85	14960.23
629.205	14894.02
629.559	14861.93
629.914	14906.44
630.269	14873.9
630.623	14826.45
630.978	14844.3
631.332	14843.17
631.687	14951.87
632.041	14855.37
632.396	14913.9
632.75	14791.87
633.104	14932.88
633.459	14746.9
633.813	14747.8
634.167	14787.58
634.521	14732.21
634.875	14744.87
635.229	14717.07
635.583	14667.58
635.937	14661.7
636.291	14690.4
636.645	14725.21
636.999	14594.36
637.352	14669.84
637.706	14610.18
638.06	14649.73
638.413	14658.77
638.767	14538.09
639.121	14567.24
639.474	14481.6
639.828	14559.79
640.181	14569.28
640.534	14514.82
640.888	14543.97
641.241	14510.52
641.594	14515.95
641.947	14531.76
642.301	14555.72
642.654	14568.83
643.007	14488.15
643.36	14508.04
643.713	14438.89
644.066	14532.89
644.419	14478.43
644.771	14381.94
645.124	14297.19
645.477	14230.76
645.83	14139.01
646.182	14095.17
646.535	14031.44
646.888	14065.34
647.24	13984.21
647.593	14017.65
647.945	14085.67
648.298	13963.19
648.65	14031.21
649.002	13950.76
649.355	14001.61
649.707	13985.56
650.059	14052.91
650.411	14245.9
650.763	14259.68
651.115	14353.69
651.467	14386.68
651.819	14378.32
652.171	14288.61
652.523	14299.23
652.875	14340.13
653.227	14161.83
653.578	14369.96
653.93	14332.67
654.282	14207.48
654.633	14185.33
654.985	14245.22
655.337	14302.17
655.688	14294.71
656.039	14399.79
656.391	14267.14
656.742	14283.18
657.094	14259.46
657.445	14336.29
657.796	14340.81
658.147	14322.05
658.498	14344.2
658.849	14317.99
659.2	14356.4
659.551	14385.78
659.902	14327.7
660.253	14403.86
660.604	14313.92
660.955	14340.58
661.306	14370.87
661.656	14316.63
662.007	14322.73
662.358	14321.15
662.708	14493.35
663.059	14361.83
663.409	14349.4
663.76	14485.44
664.11	14470.75
664.461	14392.56
664.811	14343.3
665.161	14455.61
665.511	14370.41
665.862	14400.69
666.212	14431.88
666.562	14533.57
666.912	14475.95
667.262	14343.52
667.612	14382.16
667.962	14406.8
668.312	14345.78
668.662	14425.1
669.011	14426.68
669.361	14354.37
669.711	14379.45
670.06	14352.11
670.41	14392.79
670.76	14326.12
671.109	14324.31
671.459	14451.31
671.808	14286.57
672.157	14371.77
672.507	14277.31
672.856	14223.07
673.205	14286.57
673.554	14331.32
673.904	14282.73
674.253	14305.1
674.602	14333.8
674.951	14083.87
675.3	14014.49
675.649	14258.55
675.998	14219.23
676.346	14155.96
676.695	14243.18
677.044	14123.41
677.393	14197.99
677.741	14158.22
678.09	14144.66
678.438	14096.3
678.787	14140.36
679.135	14091.55
679.484	14137.2
679.832	14104.43
680.181	13903.31
680.529	14111.44
680.877	14023.3
681.225	14003.87
681.573	14005.9
681.922	13926.81
682.27	13940.14
682.618	13968.39
682.966	13906.47
683.314	13858.79
683.661	13949.18
684.009	13783.08
684.357	13703.09
684.705	13757.32
685.053	13724.78
685.4	13695.4
685.748	13626.25
686.095	13595.07
686.443	13574.95
686.79	13503.09
687.138	13577.67
687.485	13526.59
687.832	13442.53
688.18	13419.25
688.527	13422.19
688.874	13355.3
689.221	13317.33
689.568	13340.38
689.915	13283.21
690.262	13190.56
690.609	13213.61
690.956	13159.82
691.303	13153.72
691.65	13024.23
691.997	13056.55
692.344	12958.47
692.69	12904.01
693.037	12982.2
693.383	12855.65
693.73	12869.21
694.077	12719.84
694.423	12712.15
694.769	12722.09
695.116	12656.79
695.462	12642.32
695.808	12593.28
696.155	12684.36
696.501	12475.1
696.847	12519.61
697.193	12458.82
697.539	12445.49
697.885	12352.84
698.231	12310.81
698.577	12325.95
698.923	12257.02
699.269	12210.24
699.614	12175.22
699.96	12097.25
700.306	12117.59
700.651	11997.14
700.997	11933.42
701.342	11961.21
701.688	11931.61
702.033	11840.76
702.379	11856.58
702.724	11758.05
703.069	11706.53
703.415	11628.56
703.76	11660.65
704.105	11603.25
704.45	11596.93
704.795	11499.3
705.14	11457.04
705.485	11505.63
705.83	11422.24
706.175	11457.5
706.52	11429.25
706.865	11310.15
707.209	11255.92
707.554	11254.56
707.899	11327.1
708.243	11226.31
708.588	11217.95
708.932	11050.05
709.277	11150.38
709.621	11069.93
709.966	11021.8
710.31	11077.62
710.654	10967.79
710.998	10917.85
711.342	10881.24
711.687	10896.61
712.031	10781.58
712.375	10815.03
712.719	10802.6
713.063	10815.93
713.407	10832.88
713.75	10752.66
714.094	10829.49
714.438	10766.21
714.782	10722.37
715.125	10643.51
715.469	10649.83
715.812	10624.07
716.156	10613.9
716.499	10617.52
716.843	10579.1
717.186	10538.2
717.53	10630.4
717.873	10594.02
718.216	10516.28
718.559	10487.8
718.902	10481.25
719.246	10398.54
719.589	10453.68
719.932	10378.2
720.275	10436.28
720.617	10440.35
720.96	10407.13
721.303	10436.96
721.646	10383.4
721.989	10351.99
722.331	10370.74
722.674	10305.44
723.016	10351.99
723.359	10370.52
723.701	10303.63
724.044	10255.27
724.386	10194.7
724.729	10280.58
725.071	10241.26
725.413	10177.3
725.755	10185.21
726.097	10149.51
726.439	10107.93
726.782	10216.85
727.124	10198.77
727.465	10138.43
727.807	10109.28
728.149	10126
728.491	10093.69
728.833	10111.09
729.175	10117.19
729.516	10168.26
729.858	10086.68
730.199	10168.49
730.541	10063.86
730.882	10072.22
731.224	10108.15
731.565	10053.92
731.906	10062.05
732.248	10075.16
732.589	10129.85
732.93	10061.37
733.271	10072.45
733.612	10077.87
733.953	10074.03
734.294	10058.44
734.635	10034.03
734.976	10112.9
735.317	10071.54
735.658	10117.64
735.999	10094.59
736.339	10092.33
736.68	10130.52
737.021	10118.55
737.361	10015.5
737.702	10090.75
738.042	10067.02
738.383	10051.66
738.723	10201.48
739.063	10122.16
739.404	10093.01
739.744	10088.72
740.084	10060.24
740.424	10172.11
740.764	10079.68
741.104	10213.91
741.444	10150.19
741.784	10145.67
742.124	10218.43
742.464	10176.4
742.804	10166
743.143	10178.21
743.483	10254.82
743.823	10300.24
744.162	10343.4
744.502	10419.1
744.841	10350.86
745.181	10385.66
745.52	10362.61
745.86	10417.3
746.199	10521.25
746.538	10516.73
746.877	10519.21
747.216	10601.47
747.556	10632.88
747.895	10636.5
748.234	10767.57
748.573	10794.24
748.911	10868.13
749.25	10886.89
749.589	10916.27
749.928	11041.01
750.267	11161.68
750.605	11203.26
750.944	11240.55
751.283	11281.91
751.621	11327.78
751.96	11471.96
752.298	11523.71
752.636	11660.88
752.975	11792.63
753.313	11714.89
753.651	12008.22
753.989	11981.1
754.327	12163.47
754.666	12201.88
755.004	12330.92
755.342	12440.07
755.679	12572.49
756.017	12648.65
756.355	12845.93
756.693	12876.89
757.031	13100.62
757.368	13093.16
757.706	13307.16
758.044	13403.43
758.381	13480.94
758.719	13599.13
759.056	13908.05
759.394	13953.47
759.731	14016.3
760.068	14184.88
760.405	14352.79
760.743	14440.69
761.08	14662.38
761.417	14834.81
761.754	14827.35
762.091	14999.55
762.428	15182.37
762.765	15214.01
763.102	15429.14
763.438	15550.72
763.775	15533.55
764.112	15800.88
764.449	15956.59
764.785	16074.55
765.122	16051.95
765.458	16254.43
765.795	16311.38
766.131	16493.52
766.467	16618.94
766.804	16553.86
767.14	16755.66
767.476	16855.77
767.812	16955.2
768.148	17139.83
768.485	17078.14
768.821	17221.86
769.157	17270.68
769.492	17347.74
769.828	17500.95
770.164	17519.26
770.5	17519.26
770.836	17674.06
771.171	17748.18
771.507	17754.73
771.842	17735.97
772.178	17903.2
772.513	17916.53
772.849	17981.84
773.184	17893.26
773.519	18086.25
773.855	18078.79
774.19	18145.23
774.525	18149.07
774.86	18199.69
775.195	18229.07
775.53	18420.25
775.865	18148.62
776.2	18168.51
776.535	18092.8
776.87	18175.51
777.205	18262.29
777.539	18219.13
777.874	18304.32
778.209	18164.44
778.543	18156.53
778.878	18176.64
779.212	18247.15
779.547	18234.04
779.881	18333.92
780.215	18252.57
780.55	18279.69
780.884	18241.95
781.218	18216.19
781.552	18223.87
781.886	18240.82
782.22	18168.28
782.554	18127.15
782.888	17937.1
783.222	18052.8
783.556	17918.12
783.889	17990.66
784.223	17851.9
784.557	17908.4
784.89	18074.27
785.224	17942.07
785.557	17839.25
785.891	17876.31
786.224	17841.06
786.558	17827.72
786.891	17693.26
787.224	17656.88
787.557	17602.19
787.891	17637.9
788.224	17616.43
788.557	17599.71
788.89	17573.94
789.223	17620.05
789.556	17474.29
789.888	17467.51
790.221	17413.27
790.554	17319.04
790.887	17343.89
791.219	17177.57
791.552	17217.34
791.884	17120.17
792.217	17172.83
792.549	17065.94
792.882	17073.84
793.214	16903.91
793.546	17096.22
793.879	16973.28
794.211	16836.56
794.543	16863.45
794.875	16785.04
795.207	16849.9
795.539	16753.18
795.871	16708.88
796.203	16614.42
796.535	16600.18
796.867	16566.06
797.198	16525.84
797.53	16452.17
797.862	16471.6
798.193	16386.18
798.525	16379.85
798.856	16298.72
799.188	16222.34
799.519	16257.37
799.85	16110.25
800.182	16171.95
800.513	16113.42
800.844	16042.91
801.175	16112.29
801.506	16084.49
801.837	15880.2
802.168	15954.55
802.499	15859.64
802.83	15782.13
803.161	15826.65
803.491	15797.95
803.822	15730.83
804.153	15666.88
804.483	15637.05
804.814	15627.78
805.145	15572.42
805.475	15584.17
805.805	15380.78
806.136	15452.87
806.466	15524.28
806.796	15345.08
807.126	15365.42
807.457	15337.62
807.787	15274.8
808.117	15235.25
808.447	15161.58
808.777	15201.35
809.107	15146.21
809.436	15145.31
809.766	15145.08
810.096	14990.28
810.426	15060.79
810.755	14989.15
811.085	14964.75
811.414	14903.73
811.744	14827.58
812.073	14778.31
812.403	14781.48
812.732	14774.24
813.061	14699.44
813.39	14605.89
813.719	14597.3
814.049	14635.04
814.378	14676.39
814.707	14518.88
815.036	14444.54
815.365	14514.36
815.693	14405.67
816.022	14396.63
816.351	14378.32
816.68	14249.06
817.008	14329.74
817.337	14167.71
817.665	14235.95
817.994	14274.37
818.322	14264.2
818.651	14080.7
818.979	14076.64
819.307	14130.87
819.636	14022.85
819.964	14025.79
820.292	14038.67
820.62	14077.09
820.948	13976.3
821.276	14050.87
821.604	14048.84
821.932	14007.94
822.259	13964.55
822.587	13926.13
822.915	13914.38
823.243	13986.92
823.57	13980.59
823.898	13960.03
824.225	13842.74
824.553	13943.98
824.88	14064.66
825.207	14014.72
825.535	13993.93
825.862	13974.04
826.189	13921.61
826.516	14033.02
826.843	14029.86
827.17	13979.91
827.497	14080.03
827.824	13940.82
828.151	14083.87
828.478	13967.49
828.805	14054.49
829.131	14031.21
829.458	14016.75
829.785	13885.91
830.111	13927.26
830.438	14040.03
830.764	14024.21
831.09	13948.05
831.417	13915.96
831.743	13992.8
832.069	13910.76
832.395	13875.51
832.722	13960.48
833.048	13880.48
833.374	13933.59
833.7	13840.71
834.026	13907.15
834.351	13916.41
834.677	13846.36
835.003	13858.56
835.329	13887.04
835.654	13795.29
835.98	13752.58
836.306	13752.12
836.631	13762.75
836.956	13823.31
837.282	13735.18
837.607	13784.21
837.932	13692.69
838.258	13676.87
838.583	13681.17
838.908	13618.34
839.233	13547.38
839.558	13586.25
839.883	13575.86
840.208	13515.97
840.533	13509.42
840.858	13482.07
841.182	13472.13
841.507	13443.21
841.832	13336.77
842.156	13377.44
842.481	13350.1
842.805	13385.35
843.13	13292.48
843.454	13297
843.778	13181.97
844.103	13192.14
844.427	13239.6
844.751	13154.63
845.075	13153.04
845.399	13068.53
845.723	13008.42
846.047	13013.16
846.371	12927.29
846.695	12938.81
847.019	12704.69
847.343	12766.39
847.666	12686.62
847.99	12540.86
848.313	12659.5
848.637	12522.78
848.96	12561.65
849.284	12449.11
849.607	12421.76
849.931	12332.95
850.254	12280.75
850.577	12214.09
850.9	12129.34
851.223	12164.6
851.546	12102.68
851.869	12026.52
852.192	12059.51
852.515	11965.96
852.838	11921.66
853.161	11917.6
853.483	11846.19
853.806	11817.49
854.129	11809.12
854.451	11749.69
854.774	11733.42
855.096	11627.43
855.419	11705.62
855.741	11609.36
856.063	11581.11
856.385	11571.39
856.708	11416.37
857.03	11436.03
857.352	11478.29
857.674	11424.95
857.996	11288.01
858.318	11254.79
858.64	11292.98
858.961	11216.6
859.283	11246.43
859.605	11170.95
859.926	11184.28
860.248	11149.48
860.57	11111.97
860.891	11078.3
861.212	11059.09
861.534	11046.66
861.855	11016.6
862.176	11008.02
862.498	10919.66
862.819	11085.53
863.14	10871.75
863.461	10950.62
863.782	10868.81
864.103	10928.47
864.424	10844.86
864.745	10854.35
865.065	10817.96
865.386	10774.58
865.707	10691.64
866.027	10837.17
866.348	10743.39
866.668	10728.25
866.989	10548.59
867.309	10601.47
867.63	10642.6
867.95	10599.66
868.27	10577.74
868.59	10553.11
868.91	10505.2
869.23	10567.8
869.55	10406.45
869.87	10534.13
870.19	10478.54
870.51	10531.42
870.83	10473.11
871.15	10370.52
871.469	10406.9
871.789	10388.37
872.109	10451.42
872.428	10370.97
872.748	10404.64
873.067	10328.03
873.386	10361.25
873.706	10387.92
874.025	10245.32
874.344	10253.23
874.663	10272.89
874.982	10256.4
875.301	10211.43
875.62	10183.18
875.939	10135.27
876.258	10154.25
876.577	10146.8
876.896	10133.46
877.214	10113.8
877.533	10104.31
877.852	10052.11
878.17	10073.35
878.489	10096.18
878.807	10173.01
879.125	10036.29
879.444	10007.59
879.762	9955.84
880.08	9938.21
880.398	9966.01
880.716	10022.73
881.034	9894.82
881.352	9944.54
881.67	9916.29
881.988	9847.14
882.306	9843.53
882.624	9824.54
882.941	9749.29
883.259	9787.03
883.577	9769.86
883.894	9696.41
884.212	9691.67
884.529	9641.72
884.846	9611.89
885.164	9667.26
885.481	9608.28
885.798	9615.28
886.115	9586.58
886.432	9511.56
886.75	9552.91
887.067	9478.56
887.383	9504.33
887.7	9538.22
888.017	9433.82
888.334	9433.59
888.651	9392.46
888.967	9379.36
889.284	9337.33
889.6	9339.36
889.917	9233.37
890.233	9289.64
890.55	9219.59
890.866	9214.16
891.182	9191.11
891.498	9095.07
891.815	9072.7
892.131	9028.41
892.447	9067.28
892.763	9006.94
893.079	8994.28
893.395	9060.04
893.71	8975.53
894.026	8948.86
894.342	8866.6
894.657	8889.88
894.973	8842.2
895.289	8785.02
895.604	8804.01
895.92	8721.3
896.235	8700.28
896.55	8650.79
896.865	8651.47
897.181	8647.17
897.496	8613.95
897.811	8555.42
898.126	8569.21
898.441	8524.69
898.756	8515.43
899.071	8438.14
899.386	8421.19
899.7	8387.29
900.015	8400.4
900.33	8265.94
900.644	8284.25
900.959	8280.63
901.273	8213.06
901.588	8249.9
901.902	8205.83
902.216	8148.66
902.531	8129.9
902.845	8101.65
903.159	8040.64
903.473	8022.78
903.787	7999.06
904.101	7987.76
904.415	7927.19
904.729	7838.61
905.042	7850.36
905.356	7848.1
905.67	7768.55
905.984	7845.16
906.297	7846.06
906.611	7748.67
906.924	7750.93
907.237	7708.44
907.551	7678.39
907.864	7639.06
908.177	7626.86
908.491	7566.3
908.804	7542.57
909.117	7430.93
909.43	7510.93
909.743	7441.33
910.056	7415.34
910.368	7335.34
910.681	7312.29
910.994	7272.97
911.307	7334.67
911.619	7230.94
911.932	7211.96
912.244	7220.54
912.557	7124.73
912.869	7127.67
913.181	7054.45
913.494	7059.19
913.806	6995.24
914.118	7011.51
914.43	6970.83
914.742	6897.62
915.054	6941.91
915.366	6926.77
915.678	6859.65
915.99	6784.17
916.302	6839.31
916.613	6740.11
916.925	6729.94
917.236	6761.57
917.548	6701.01
917.859	6715.25
918.171	6647.23
918.482	6587.34
918.794	6581.92
919.105	6547.79
919.416	6532.2
919.727	6551.41
920.038	6533.78
920.349	6492.88
920.66	6494.24
920.971	6429.15
921.282	6439.32
921.593	6353.22
921.903	6342.38
922.214	6332.21
922.525	6300.34
922.835	6230.74
923.146	6213.79
923.456	6176.28
923.767	6162.49
924.077	6171.08
924.387	6162.27
924.697	6102.61
925.008	6073.46
925.318	6065.55
925.628	6066.22
925.938	5979.9
926.248	5937.87
926.558	5948.49
926.867	5883.63
927.177	5892.67
927.487	5865.33
927.796	5783.07
928.106	5775.38
928.416	5834.37
928.725	5750.3
929.034	5746.23
929.344	5706.91
929.653	5709.62
929.962	5648.61
930.271	5637.99
930.581	5632.79
930.89	5637.08
931.199	5570.42
931.508	5600.02
931.817	5598.44
932.125	5581.27
932.434	5497.43
932.743	5453.81
933.051	5469.86
933.36	5396.19
933.669	5418.56
933.977	5329.52
934.286	5320.93
934.594	5341.5
934.902	5273.25
935.21	5279.13
935.519	5288.17
935.827	5242.52
936.135	5249.52
936.443	5190.32
936.751	5193.03
937.059	5139.47
937.367	5140.15
937.674	5137.21
937.982	5132.24
938.29	5082.97
938.597	5066.25
938.905	5005.91
939.213	5041.17
939.52	4976.99
939.827	5015.63
940.135	4979.25
940.442	4916.42
940.749	4910.77
941.056	4857.44
941.363	4851.12
941.67	4843.43
941.977	4787.39
942.284	4803.88
942.591	4711.68
942.898	4727.73
943.205	4766.15
943.511	4709.65
943.818	4707.84
944.125	4651.57
944.431	4660.84
944.738	4630.78
945.044	4615.19
945.35	4576.55
945.657	4536.55
945.963	4559.6
946.269	4523.89
946.575	4513.5
946.881	4465.36
947.187	4454.06
947.493	4371.35
947.799	4401.86
948.105	4399.15
948.41	4358.25
948.716	4384.91
949.022	4361.64
949.327	4356.67
949.633	4342.88
949.938	4322.77
950.244	4278.02
950.549	4249.32
950.854	4268.98
951.16	4261.53
951.465	4197.57
951.77	4208.42
952.075	4161.87
952.38	4145.15
952.685	4127.29
952.99	4061.08
953.294	4090.68
953.599	4069.67
953.904	4011.82
954.209	4035.77
954.513	4040.74
954.818	4024.47
955.122	3968.2
955.426	4002.78
955.731	3957.81
956.035	3955.32
956.339	3955.09
956.643	3903.57
956.948	3886.39
957.252	3875.1
957.556	3850.69
957.86	3855.44
958.163	3862.67
958.467	3823.57
958.771	3807.53
959.075	3771.6
959.378	3778.6
959.682	3760.75
959.985	3732.95
960.289	3748.77
960.592	3711.03
960.896	3714.87
961.199	3683.46
961.502	3667.64
961.805	3650.24
962.108	3654.99
962.411	3580.64
962.714	3580.19
963.017	3576.12
963.32	3547.87
963.623	3546.74
963.926	3528.89
964.228	3534.31
964.531	3486.18
964.833	3517.82
965.136	3397.82
965.438	3438.95
965.741	3446.86
966.043	3413.41
966.345	3461.77
966.648	3393.53
966.95	3390.59
967.252	3346.75
967.554	3350.82
967.856	3360.99
968.158	3288.9
968.46	3302
968.761	3284.83
969.063	3259.29
969.365	3279.86
969.666	3288.67
969.968	3220.42
970.269	3218.84
970.571	3215.9
970.872	3219.29
971.174	3185.85
971.475	3193.31
971.776	3160.54
972.077	3137.71
972.378	3191.27
972.679	3157.15
972.98	3121.44
973.281	3105.4
973.582	3081.22
973.883	3059.52
974.183	3027.89
974.484	3068.11
974.785	2996.47
975.085	3001.45
975.386	2999.41
975.686	3007.55
975.986	2963.03
976.287	2967.78
976.587	2924.61
976.887	2939.08
977.187	2913.77
977.487	2910.83
977.787	2857.27
978.087	2898.4
978.387	2863.6
978.687	2854.33
978.987	2813.2
979.286	2867.44
979.586	2811.62
979.885	2779.98
980.185	2787.21
980.484	2782.7
980.784	2787.89
981.083	2723.94
981.382	2719.65
981.682	2721
981.981	2712.19
982.28	2698.4
982.579	2669.25
982.878	2693.66
983.177	2657.27
983.475	2675.58
983.774	2653.66
984.073	2620.21
984.372	2603.26
984.67	2598.75
984.969	2608.01
985.267	2589.48
985.566	2594.45
985.864	2598.07
986.162	2562.36
986.461	2520.78
986.759	2504.06
987.057	2477.17
987.355	2523.04
987.653	2483.95
987.951	2485.98
988.249	2455.47
988.547	2465.87
988.844	2457.28
989.142	2451.63
989.44	2427.9
989.737	2408.02
990.035	2371.41
990.332	2398.75
990.63	2385.42
990.927	2377.28
991.224	2371.18
991.521	2372.31
991.819	2377.96
992.116	2314.68
992.413	2287.34
992.71	2321.69
993.006	2287.34
993.303	2267.91
993.6	2257.74
993.897	2251.18
994.193	2286.66
994.49	2278.08
994.787	2250.05
995.083	2242.6
995.379	2231.52
995.676	2203.95
995.972	2176.61
996.268	2215.03
996.565	2193.11
996.861	2137.51
997.157	2154.01
997.453	2131.86
997.749	2125.54
998.044	2110.17
998.34	2107.68
998.636	2060.45
998.932	2062.26
999.227	2042.15
999.523	2039.89
999.818	2062.71
1000.114	2037.63
1000.409	2009.83
1000.704	2020
1001	2000.34
1001.295	1986.11
1001.59	1968.48
1001.885	1970.06
1002.18	1975.48
1002.475	1921.25
1002.77	1925.54
1003.065	1893.68
1003.359	1941.81
1003.654	1927.58
1003.949	1892.1
1004.243	1889.84
1004.538	1864.75
1004.832	1877.63
1005.127	1875.15
1005.421	1853.45
1005.715	1829.5
1006.009	1808.48
1006.304	1804.64
1006.598	1831.76
1006.892	1798.09
1007.186	1765.09
1007.48	1752.44
1007.773	1769.61
1008.067	1755.38
1008.361	1782.95
1008.655	1717.64
1008.948	1734.81
1009.242	1713.57
1009.535	1703.4
1009.829	1691.42
1010.122	1696.85
1010.415	1693.68
1010.708	1660.46
1011.001	1680.35
1011.295	1664.08
1011.588	1638.54
1011.881	1611.65
1012.173	1626.79
1012.466	1606
1012.759	1609.39
1013.052	1582.73
1013.344	1572.78
1013.637	1593.8
1013.93	1563.97
1014.222	1568.72
1014.514	1545.44
1014.807	1541.82
1015.099	1555.61
1015.391	1497.53
1015.683	1499.79
1015.976	1520.58
1016.268	1491.43
1016.56	1504.54
1016.851	1488.04
1017.143	1477.19
1017.435	1447.82
1017.727	1434.71
1018.018	1446.46
1018.31	1449.85
1018.602	1414.82
1018.893	1387.03
1019.185	1414.6
1019.476	1422.5
1019.767	1408.95
1020.058	1380.92
1020.35	1351.55
1020.641	1329.17
1020.932	1349.51
1021.223	1374.37
1021.514	1324.65
1021.804	1327.37
1022.095	1286.69
1022.386	1312.23
1022.677	1300.47
1022.967	1271.55
1023.258	1287.59
1023.548	1290.53
1023.839	1257.99
1024.129	1262.28
1024.419	1263.19
1024.709	1244.88
1025	1244.2
1025.29	1213.7
1025.58	1204.43
1025.87	1227.93
1026.16	1205.56
1026.449	1153.13
1026.739	1194.04
1027.029	1162.17
1027.319	1182.51
1027.608	1159.01
1027.898	1150.65
1028.187	1154.26
1028.477	1160.14
1028.766	1123.3
1029.055	1129.18
1029.344	1121.5
1029.634	1135.51
1029.923	1085.56
1030.212	1091.44
1030.501	1110.42
1030.79	1098.9
1031.078	1088.73
1031.367	1071.55
1031.656	1057.77
1031.945	1031.55
1032.233	1063.42
1032.522	1059.8
1032.81	1031.1
1033.099	1024.1
1033.387	1035.4
1033.675	1039.01
1033.963	1022.06
1034.251	1002.18
1034.54	1006.24
1034.828	1002.18
1035.116	974.16
1035.403	1007.15
1035.691	970.54
1035.979	944.55
1036.267	953.36
1036.554	971.44
1036.842	957.88
1037.129	952.01
1037.417	958.56
1037.704	936.42
1037.992	948.17
1038.279	913.59
1038.566	939.58
1038.853	939.58
1039.14	939.58
