Data from hue_32_FLMS001491_00028.txt Node
Date: Tue Feb 07 17:23:07 GMT 2017
User: dcchb
Spectrometer: FLMS00149
Trigger mode: 0
Integration Time (sec): 2.000000E-2
Scans to average: 10
Electric dark correction enabled: true
Nonlinearity correction enabled: false
Boxcar width: 0
XAxis mode: Wavelengths
Number of Pixels in Spectrum: 2048
>>>>>Begin Spectral Data<<<<<
341.393	-15.56
341.776	-15.56
342.16	-15.56
342.543	-55.56
342.927	-61.44
343.31	-71.16
343.693	-65.51
344.077	-67.31
344.46	-65.73
344.843	-42.23
345.226	-24.15
345.61	-31.61
345.993	-20.08
346.376	-4.04
346.759	-6.53
347.142	14.04
347.525	62.17
347.908	66.47
348.291	67.37
348.674	84.32
349.057	103.98
349.44	112.57
349.823	155.05
350.206	166.8
350.588	202.51
350.971	220.14
351.354	245.9
351.737	244.32
352.119	267.82
352.502	263.75
352.884	283.18
353.267	280.7
353.65	315.5
354.032	309.62
354.414	309.85
354.797	310.08
355.179	327.7
355.562	323.18
355.944	352.56
356.326	339.45
356.709	356.86
357.091	369.51
357.473	355.5
357.855	337.87
358.238	337.65
358.62	356.4
359.002	345.1
359.384	348.27
359.766	360.02
360.148	352.11
360.53	336.29
360.912	324.09
361.294	329.29
361.676	338.55
362.057	323.64
362.439	345.78
362.821	357.08
363.203	339.68
363.584	336.52
363.966	307.82
364.348	332.9
364.729	321.6
365.111	327.25
365.493	336.29
365.874	333.58
366.256	310.3
366.637	338.55
367.019	330.19
367.4	335.61
367.781	312.34
368.163	333.35
368.544	302.85
368.925	321.83
369.306	338.55
369.688	319.12
370.069	299.46
370.45	317.08
370.831	312.79
371.212	315.73
371.593	314.6
371.974	315.05
372.355	319.34
372.736	338.78
373.117	344.2
373.498	311.66
373.879	318.21
374.26	317.76
374.641	329.51
375.021	327.48
375.402	320.47
375.783	340.58
376.163	332
376.544	333.8
376.925	344.88
377.305	328.83
377.686	352.11
378.066	362.73
378.447	323.18
378.827	320.92
379.208	318.44
379.588	349.17
379.968	335.84
380.349	336.52
380.729	353.69
381.109	344.43
381.489	344.88
381.87	333.8
382.25	343.52
382.63	340.81
383.01	348.95
383.39	353.01
383.77	351.88
384.15	373.8
384.53	353.69
384.91	353.92
385.29	390.07
385.67	355.05
386.049	370.19
386.429	356.63
386.809	368.38
387.189	360.02
387.568	353.69
387.948	359.34
388.328	364.09
388.707	342.39
389.087	377.65
389.466	389.85
389.846	362.96
390.225	367.7
390.605	384.88
390.984	406.57
391.363	349.4
391.743	374.48
392.122	401.37
392.501	376.29
392.881	367.93
393.26	375.16
393.639	378.55
394.018	389.85
394.397	383.52
394.776	375.39
395.155	400.02
395.534	381.49
395.913	376.52
396.292	387.59
396.671	377.19
397.05	385.33
397.429	411.77
397.808	395.72
398.186	404.54
398.565	381.71
398.944	428.72
399.323	402.28
399.701	382.84
400.08	404.76
400.458	395.05
400.837	404.09
401.215	425.78
401.594	411.54
401.972	417.87
402.351	428.94
402.729	436.63
403.107	411.09
403.486	409.06
403.864	425.78
404.242	399.57
404.62	420.81
404.999	428.49
405.377	425.33
405.755	423.97
406.133	431.88
406.511	435.27
406.889	436.17
407.267	433.69
407.645	446.34
408.023	463.29
408.401	466.23
408.779	461.71
409.156	458.55
409.534	470.98
409.912	471.88
410.29	468.26
410.667	476.63
411.045	470.07
411.422	455.38
411.8	472.56
412.178	485.67
412.555	479.56
412.933	509.17
413.31	478.43
413.687	504.65
414.065	509.62
414.442	490.41
414.819	491.54
415.197	505.55
415.574	505.1
415.951	491.77
416.328	493.8
416.705	508.72
417.082	506.46
417.46	508.94
417.837	496.74
418.214	532.9
418.591	518.43
418.967	518.88
419.344	518.66
419.721	544.19
420.098	522.27
420.475	541.48
420.852	530.64
421.228	534.03
421.605	554.36
421.982	545.1
422.358	579.22
422.735	577.19
423.111	556.62
423.488	567.92
423.864	562.73
424.241	570.41
424.617	589.62
424.994	583.29
425.37	581.71
425.746	576.74
426.123	590.75
426.499	591.2
426.875	600.46
427.251	599.56
427.627	595.27
428.003	583.74
428.379	628.71
428.756	633.68
429.132	656.51
429.507	617.64
429.883	659.9
430.259	644.31
430.635	627.13
431.011	645.89
431.387	681.14
431.763	661.48
432.138	672.78
432.514	666.23
432.89	666.45
433.265	706
433.641	678.2
434.016	690.63
434.392	688.82
434.767	698.99
435.143	713.68
435.518	698.77
435.894	725.66
436.269	726.11
436.644	729.05
437.02	743.74
437.395	726.56
437.77	767.01
438.145	753.68
438.52	756.39
438.895	777.18
439.271	772.66
439.646	765.66
440.021	788.03
440.395	781.93
440.77	797.97
441.145	790.29
441.52	823.06
441.895	821.7
442.27	798.2
442.645	787.58
443.019	819.67
443.394	829.61
443.769	824.19
444.143	802.94
444.518	839.78
444.892	847.69
445.267	844.07
445.641	848.59
446.016	842.27
446.39	834.13
446.764	844.98
447.139	870.97
447.513	875.26
447.887	879.55
448.262	882.04
448.636	891.76
449.01	891.3
449.384	909.16
449.758	907.8
450.132	936.05
450.506	916.61
450.88	906.67
451.254	931.98
451.628	914.81
452.002	927.69
452.376	929.5
452.75	961.81
453.123	956.16
453.497	981.92
453.871	997.52
454.244	975.14
454.618	1029.83
454.992	1006.33
455.365	1001.13
455.739	1008.14
456.112	1039.1
456.486	1044.07
456.859	1051.3
457.232	1061.02
457.606	1069.6
457.979	1110.06
458.352	1064.63
458.725	1109.15
459.099	1122.26
459.472	1125.65
459.845	1153.67
460.218	1147.57
460.591	1143.05
460.964	1161.35
461.337	1167.23
461.71	1215.59
462.083	1221.01
462.456	1235.48
462.829	1267.11
463.201	1259.66
463.574	1270.05
463.947	1289.26
464.32	1305.76
464.692	1309.15
465.065	1298.98
465.438	1348.69
465.81	1359.99
466.183	1396.83
466.555	1420.33
466.928	1382.59
467.3	1410.39
467.672	1455.13
468.045	1475.7
468.417	1500.78
468.789	1498.75
469.161	1509.82
469.534	1518.18
469.906	1566.09
470.278	1574.45
470.65	1610.16
471.022	1624.17
471.394	1651.06
471.766	1661.45
472.138	1701.45
472.51	1726.76
472.882	1783.03
473.253	1819.64
473.625	1818.51
473.997	1874.78
474.369	1882.92
474.74	1911.84
475.112	1955.91
475.484	1998.39
475.855	2044.04
476.227	2076.13
476.598	2135.79
476.97	2168.56
477.341	2201.55
477.713	2266.18
478.084	2330.14
478.455	2373.07
478.827	2348.89
479.198	2439.74
479.569	2480.42
479.94	2570.81
480.311	2611.26
480.682	2648.09
481.053	2715.21
481.424	2811.71
481.795	2835.89
482.166	2899.61
482.537	3011.25
482.908	3073.39
483.279	3140.28
483.65	3180.06
484.021	3276.33
484.391	3388.64
484.762	3395.42
485.133	3407.85
485.503	3517.68
485.874	3586.37
486.244	3674.96
486.615	3759.93
486.985	3904.78
487.356	3935.29
487.726	3996.31
488.097	4118.11
488.467	4145
488.837	4250.54
489.207	4361.5
489.578	4406.69
489.948	4492.57
490.318	4592.22
490.688	4637.65
491.058	4733.01
491.428	4846.45
491.798	4933.23
492.168	5029.27
492.538	5096.39
492.908	5199.89
493.278	5260.68
493.648	5363.96
494.017	5450.73
494.387	5515.59
494.757	5541.35
495.126	5686.21
495.496	5752.42
495.866	5845.52
496.235	5883.94
496.605	5938.63
496.974	6112.86
497.344	6106.08
497.713	6163.71
498.082	6312.63
498.452	6298.62
498.821	6366.64
499.19	6442.12
499.559	6469.91
499.928	6578.16
500.298	6627.2
500.667	6753.97
501.036	6751.72
501.405	6876.91
501.774	6846.63
502.143	6942.9
502.512	6979.51
502.88	7039.39
503.249	7078.03
503.618	7190.57
503.987	7232.15
504.356	7272.61
504.724	7399.38
505.093	7379.27
505.462	7453.84
505.83	7544.91
506.199	7574.74
506.567	7698.58
506.936	7648.41
507.304	7889.54
507.672	7892.02
508.041	7913.72
508.409	7944.23
508.777	8051.79
509.145	8118.01
509.514	8051.34
509.882	8154.16
510.25	8135.18
510.618	8196.65
510.986	8280.94
511.354	8384.21
511.722	8465.12
512.09	8531.33
512.458	8490.65
512.826	8508.05
513.193	8583.31
513.561	8690.2
513.929	8735.39
514.297	8837.76
514.664	8879.34
515.032	8813.58
515.4	9001.37
515.767	9027.81
516.135	9020.58
516.502	9002.5
516.869	9190.3
517.237	9199.56
517.604	9121.37
517.972	9244.53
518.339	9319.78
518.706	9340.35
519.073	9391.42
519.44	9529.5
519.808	9557.97
520.175	9439.55
520.542	9628.7
520.909	9712.09
521.276	9645.65
521.643	9791.41
522.009	9759.55
522.376	9874.8
522.743	9945.53
523.11	9979.2
523.477	10120.21
523.843	10145.75
524.21	10230.95
524.577	10233.43
524.943	10307.55
525.31	10316.37
525.676	10446.99
526.043	10521.11
526.409	10504.84
526.776	10649.69
527.142	10674.32
527.508	10739.41
527.874	10842.23
528.241	10856.69
528.607	10891.95
528.973	10973.07
529.339	11021.43
529.705	11134.42
530.071	11212.16
530.437	11241.99
530.803	11232.05
531.169	11343.68
531.535	11284.93
531.901	11372.61
532.267	11407.86
532.632	11527.41
532.998	11595.43
533.364	11622.55
533.73	11640.85
534.095	11731.7
534.461	11838.59
534.826	11910.68
535.192	11911.81
535.557	12042.88
535.923	11986.83
536.288	12058.47
536.653	12106.83
537.019	12058.92
537.384	12218.01
537.749	12236.99
538.114	12347.95
538.479	12240.38
538.845	12409.42
539.21	12416.65
539.575	12391.79
539.94	12493.94
540.305	12629.53
540.67	12546.14
541.034	12693.71
541.399	12714.04
541.764	12750.65
542.129	12778.45
542.494	12782.74
542.858	12939.58
543.223	12829.07
543.587	12976.64
543.952	12996.3
544.316	13042.4
544.681	13061.83
545.045	13181.6
545.41	13269.51
545.774	13254.14
546.138	13286.46
546.503	13387.7
546.867	13356.51
547.231	13587.24
547.595	13528.94
547.959	13539.33
548.324	13639.67
548.688	13612.78
549.052	13725.09
549.416	13730.97
549.779	13764.19
550.143	13830.17
550.507	13951.98
550.871	13984.97
551.235	13895.03
551.599	14053.22
551.962	14128.02
552.326	14175.7
552.689	14196.27
553.053	14100.22
553.417	14249.15
553.78	14389.25
554.143	14329.37
554.507	14401.91
554.87	14447.11
555.234	14588.57
555.597	14457.5
555.96	14675.8
556.323	14635.35
556.686	14762.13
557.05	14689.13
557.413	14771.39
557.776	14887.09
558.139	14890.94
558.502	14920.54
558.865	14976.81
559.228	15098.84
559.59	15079.18
559.953	15075.79
560.316	15271.72
560.679	15247.54
561.041	15293.64
561.404	15404.37
561.767	15487.3
562.129	15371.15
562.492	15575.44
562.854	15553.74
563.217	15576.57
563.579	15667.64
563.941	15683.01
564.304	15805.71
564.666	15860.63
565.028	15948.08
565.39	15961.87
565.753	16061.98
566.115	16078.25
566.477	16200.05
566.839	16212.03
567.201	16355.98
567.563	16401.63
567.925	16461.74
568.287	16504.91
568.648	16514.4
569.01	16560.72
569.372	16714.62
569.734	16699.25
570.095	16769.3
570.457	16830.32
570.819	16993.71
571.18	16863.77
571.542	17016.3
571.903	17138.79
572.265	17150.54
572.626	17326.8
572.987	17294.49
573.349	17358.22
573.71	17510.98
574.071	17580.81
574.432	17631.88
574.794	17767.92
575.155	17810.18
575.516	17783.74
575.877	17974.24
576.238	18232.32
576.599	18200.68
576.96	18349.6
577.32	18425.08
577.681	18612.19
578.042	18603.83
578.403	18772.19
578.763	18985.29
579.124	19054.22
579.485	19222.57
579.845	19414.88
580.206	19495.11
580.566	19571.72
580.927	19790.69
581.287	20045.15
581.648	20088.54
582.008	20387.74
582.368	20427.51
582.728	20689.2
583.089	20822.53
583.449	21024.33
583.809	21312.01
584.169	21445.11
584.529	21567.82
584.889	21982.28
585.249	21939.34
585.609	22242.16
585.969	22524.63
586.329	22589.04
586.688	22963.94
587.048	23164.16
587.408	23403.25
587.768	23475.57
588.127	23671.27
588.487	23925.27
588.846	24405.26
589.206	24394.64
589.565	24573.85
589.925	25049.54
590.284	25218.12
590.643	25605
591.003	25829.63
591.362	26140.36
591.721	26339.45
592.08	26645.2
592.44	26956.16
592.799	27141.69
593.158	27328.58
593.517	27697.61
593.876	27975.11
594.235	28070.25
594.593	28384.14
594.952	28743
595.311	28817.35
595.67	29307.51
596.029	29678.57
596.387	29820.04
596.746	30126.02
597.104	30324.2
597.463	30314.94
597.822	30787.92
598.18	30931.87
598.538	31208.7
598.897	31536.6
599.255	31544.51
599.613	32335.22
599.972	32353.53
600.33	32577.02
600.688	32579.28
601.046	33062.44
601.404	33243
601.762	33358.47
602.12	33876.88
602.478	34078.45
602.836	34154.38
603.194	34177.89
603.552	34400.25
603.91	34579.23
604.268	34980.8
604.625	34995.04
604.983	35351.42
605.341	35337.63
605.698	35740.56
606.056	35900.1
606.413	36200.21
606.771	36263.03
607.128	36751.6
607.485	36631.38
607.843	36716.35
608.2	37039.05
608.557	37509.78
608.914	37295.32
609.272	37748.19
609.629	37888.98
609.986	38173.71
610.343	38154.51
610.7	38542.07
611.057	38642.85
611.414	38732.34
611.771	38867.48
612.127	39089.62
612.484	39269.73
612.841	39424.98
613.198	39315.6
613.554	39550.63
613.911	39829.26
614.267	39922.59
614.624	39948.13
614.98	40118.07
615.337	40334.56
615.693	40558.74
616.05	40466.99
616.406	40927.31
616.762	40829.01
617.118	40934.32
617.475	40991.72
617.831	41020.87
618.187	41281.88
618.543	41367.3
618.899	41586.51
619.255	41679.84
619.611	41609.56
619.967	41850.68
620.323	42095.42
620.678	42081.63
621.034	41904.24
621.39	42034.63
621.746	42151.24
622.101	42546.48
622.457	42382.19
622.812	42636.87
623.168	42529.53
623.523	42778.34
623.879	42915.74
624.234	42611.79
624.589	43015.17
624.945	43033.7
625.3	43034.83
625.655	42993.25
626.01	43175.62
626.365	43122.28
626.72	43212.9
627.075	43197.99
627.43	43035.96
627.785	43161.38
628.14	43382.84
628.495	43460.13
628.85	43395.5
629.205	43273.01
629.559	43571.99
629.914	43483.4
630.269	43663.29
630.623	43347.59
630.978	43367.48
631.332	43666.68
631.687	43651.54
632.041	43622.16
632.396	43731.08
632.75	43448.15
633.104	43587.81
633.459	43474.59
633.813	43529.51
634.167	43542.84
634.521	43474.37
634.875	43587.58
635.229	43563.85
635.583	43429.62
635.937	43400.69
636.291	43376.51
636.645	43443.18
636.999	43494.25
637.352	43620.12
637.706	43485.44
638.06	43601.14
638.413	43439.79
638.767	43445.21
639.121	43355.27
639.474	43088.61
639.828	43274.82
640.181	43298.32
640.534	43388.49
640.888	43268.72
641.241	43033.92
641.594	43258.33
641.947	43263.98
642.301	43158.67
642.654	43162.28
643.007	43161.38
643.36	43178.78
643.713	43141.49
644.066	43309.17
644.419	43026.92
644.771	42785.57
645.124	42593.94
645.477	42457.22
645.83	42146.26
646.182	42158.24
646.535	41959.38
646.888	42047.06
647.24	41743.79
647.593	42083.22
647.945	41992.37
648.298	41883.67
648.65	41790.57
649.002	41600.06
649.355	41787.18
649.707	41868.31
650.059	42017.23
650.411	42512.81
650.763	42458.35
651.115	42780.37
651.467	42802.29
651.819	42771.11
652.171	42685.23
652.523	42657.44
652.875	42563.43
653.227	42515.97
653.578	42707.61
653.93	42563.2
654.282	42397.56
654.633	42307.62
654.985	42378.8
655.337	42346.71
655.688	42563.2
656.039	42567.5
656.391	42365.92
656.742	42404.56
657.094	42482.98
657.445	42555.52
657.796	42438.91
658.147	42279.14
658.498	42274.62
658.849	42352.36
659.2	42212.7
659.551	42293.83
659.902	42400.27
660.253	42215.42
660.604	42354.62
660.955	42190.11
661.306	42213.38
661.656	42183.78
662.007	42286.6
662.358	42334.06
662.708	42242.31
663.059	42151.24
663.409	41931.58
663.76	42258.8
664.11	42194.63
664.461	42312.36
664.811	42139.26
665.161	42103.33
665.511	42178.58
665.862	42180.39
666.212	42270.1
666.562	42262.87
666.912	42101.75
667.262	42139.94
667.612	42088.19
667.962	42229.2
668.312	42178.35
668.662	42208.41
669.011	42205.02
669.361	41985.14
669.711	42099.71
670.06	42047.51
670.41	41997.12
670.76	41979.04
671.109	42137.23
671.459	42020.62
671.808	41920.96
672.157	42167.96
672.507	41784.69
672.856	41790.34
673.205	41867.63
673.554	41945.82
673.904	41863.11
674.253	42022.43
674.602	41930.9
674.951	41277.81
675.3	41069.23
675.649	41919.6
675.998	41639.39
676.346	41774.07
676.695	41844.35
677.044	41530.24
677.393	41786.5
677.741	41715.54
678.09	41717.35
678.438	41638.03
678.787	41535.21
679.135	41685.94
679.484	41344.48
679.832	41567.07
680.181	41313.52
680.529	41536.79
680.877	41220.64
681.225	41342.22
681.573	41360.07
681.922	41017.25
682.27	41191.04
682.618	41037.82
682.966	41002.11
683.314	41037.37
683.661	41024.71
684.009	40848.67
684.357	40682.8
684.705	40720.77
685.053	40796.7
685.4	40643.71
685.748	40522.13
686.095	40453.65
686.443	40169.14
686.79	40192.87
687.138	40349.7
687.485	40389.93
687.832	40208.01
688.18	40172.08
688.527	39927.57
688.874	40060.44
689.221	39944.51
689.568	39694.13
689.915	39725.54
690.262	39794.91
690.609	39510.4
690.956	39413.46
691.303	39335.72
691.65	39212.1
691.997	39338.2
692.344	38966.24
692.69	39022.05
693.037	39044.88
693.383	38645.34
693.73	38797.43
694.077	38699.35
694.423	38826.13
694.769	38618
695.116	38475.85
695.462	38407.15
695.808	38323.31
696.155	38467.04
696.501	38099.82
696.847	38136.43
697.193	37874.29
697.539	38034.06
697.885	37741.63
698.231	37622.99
698.577	37741.86
698.923	37635.87
699.269	37331.7
699.614	37321.08
699.96	37223.46
700.306	37176
700.651	37067.75
700.997	37043.35
701.342	36922.22
701.688	36839.74
702.033	36795.22
702.379	36797.03
702.724	36525.17
703.069	36534.89
703.415	36340.09
703.76	36193.88
704.105	36187.33
704.45	36204.73
704.795	35902.36
705.14	35818.3
705.485	35762.7
705.83	35643.61
706.175	35675.47
706.52	35621.01
706.865	35560.22
707.209	35402.71
707.554	35225.77
707.899	35437.74
708.243	35162.04
708.588	35072.1
708.932	34884.99
709.277	35006.57
709.621	34913.23
709.966	34915.95
710.31	35020.8
710.654	34551.21
710.998	34663.3
711.342	34616.29
711.687	34539.91
712.031	34290.65
712.375	34205.46
712.719	34367.49
713.063	34223.08
713.407	34194.84
713.75	34162.97
714.094	34150.54
714.438	33868.06
714.782	34038.46
715.125	33843.66
715.469	33857.9
715.812	33773.6
716.156	33513.05
716.499	33566.38
716.843	33581.29
717.186	33327.97
717.53	33515.08
717.873	33529.99
718.216	33428.53
718.559	33146.5
718.902	32970.69
719.246	33068.31
719.589	32994.87
719.932	32867.64
720.275	32856.11
720.617	32890.46
720.96	32817.24
721.303	32789.22
721.646	32749.9
721.989	32570.25
722.331	32729.56
722.674	32722.56
723.016	32661.32
723.359	32554.88
723.701	32616.12
724.044	32402.11
724.386	32294.32
724.729	32395.11
725.071	32220.65
725.413	32283.02
725.755	32179.07
726.097	32065.17
726.439	31968.45
726.782	31864.73
727.124	31986.08
727.465	31810.94
727.807	31798.97
728.149	31726.88
728.491	31746.99
728.833	31753.09
729.175	31579.54
729.516	31509.26
729.858	31477.39
730.199	31399.88
730.541	31398.07
730.882	31307.23
731.224	31469.03
731.565	31276.04
731.906	31334.35
732.248	31336.83
732.589	31121.47
732.93	31133.9
733.271	30933.68
733.612	31029.04
733.953	31151.53
734.294	31032.43
734.635	30851.42
734.976	30894.13
735.317	30796.05
735.658	30792.89
735.999	30753.12
736.339	30721.03
736.68	30792.66
737.021	30569.39
737.361	30546.34
737.702	30684.42
738.042	30541.82
738.383	30487.36
738.723	30506.57
739.063	30393.13
739.404	30419.79
739.744	30335.05
740.084	30282.4
740.424	30270.87
740.764	30071.78
741.104	30376.63
741.444	30038.79
741.784	30115.39
742.124	30081.27
742.464	29919.24
742.804	29813.26
743.143	29871.33
743.483	29982.74
743.823	29739.13
744.162	29759.7
744.502	29828.85
744.841	29807.61
745.181	29812.13
745.52	29693.03
745.86	29649.87
746.199	29559.03
746.538	29535.75
746.877	29578.91
747.216	29670.21
747.556	29462.08
747.895	29427.96
748.234	29234.97
748.573	29256.66
748.911	29202.42
749.25	29188.41
749.589	29137.79
749.928	29119.26
750.267	29178.92
750.605	29088.53
750.944	28949.78
751.283	28801.3
751.621	28823
751.96	28809.21
752.298	28820.51
752.636	28712.27
752.975	28703.45
753.313	28624.59
753.651	28593.85
753.989	28456.91
754.327	28443.35
754.666	28244.94
755.004	28425.72
755.342	28386.4
755.679	28346.18
756.017	28153.41
756.355	28286.06
756.693	28099.4
757.031	28166.29
757.368	28052.85
757.706	27893.31
758.044	27802.01
758.381	27884.72
758.719	27763.37
759.056	27785.51
759.394	27685.4
759.731	27468.23
760.068	27557.5
760.405	27480.66
760.743	27366.54
761.08	27274.11
761.417	27234.11
761.754	27069.37
762.091	27102.37
762.428	27047.23
762.765	26903.5
763.102	26951.41
763.438	26757.29
763.775	26654.02
764.112	26650.85
764.449	26641.59
764.785	26522.95
765.122	26319.56
765.458	26230.07
765.795	26266.68
766.131	26105.56
766.467	26198.21
766.804	26165.44
767.14	25944.43
767.476	25842.96
767.812	25732.01
768.148	25753.25
768.485	25574.27
768.821	25515.74
769.157	25532.46
769.492	25387.16
769.828	25297.44
770.164	25086.6
770.5	24981.29
770.836	25080.05
771.171	24927.96
771.507	24910.33
771.842	24685.71
772.178	24677.12
772.513	24645.48
772.849	24635.31
773.184	24363.46
773.519	24370.91
773.855	24228.09
774.19	24057.93
774.525	24062.22
774.86	24024.48
775.195	24025.39
775.53	23912.85
775.865	23722.34
776.2	23594.44
776.535	23453.87
776.87	23475.34
777.205	23558.5
777.539	23348.57
777.874	23285.07
778.209	23094.34
778.543	23156.71
778.878	22981.8
779.212	22971.63
779.547	22815.02
779.881	22878.75
780.215	22788.13
780.55	22810.95
780.884	22601.47
781.218	22464.3
781.552	22396.05
781.886	22483.73
782.22	22217.75
782.554	22177.3
782.888	21995.83
783.222	21926.23
783.556	21922.62
783.889	21841.26
784.223	21679.01
784.557	21572.34
784.89	21645.33
785.224	21578.9
785.557	21432.91
785.891	21386.13
786.224	21217.78
786.558	21253.25
786.891	21161.73
787.224	21055.97
787.557	20890.1
787.891	20995.41
788.224	20965.8
788.557	20794.51
788.89	20712.93
789.223	20784.57
789.556	20534.63
789.888	20528.08
790.221	20443.33
790.554	20214.41
790.887	20272.04
791.219	20205.37
791.552	20177.8
791.884	20015.55
792.217	19963.8
792.549	19931.26
792.882	19778.94
793.214	19636.12
793.546	19727.65
793.879	19672.28
794.211	19444.94
794.543	19653.52
794.875	19363.59
795.207	19484.04
795.539	19397.03
795.871	19325.62
796.203	19261.22
796.535	19079.07
796.867	19095.8
797.198	18994.56
797.53	19049.24
797.862	18863.71
798.193	18979.42
798.525	18767.44
798.856	18814.67
799.188	18503.5
799.519	18435.7
799.85	18479.99
800.182	18389.15
800.513	18420.56
800.844	18295.14
801.175	18344.63
801.506	18332.88
801.837	18146.22
802.168	18219.44
802.499	18149.16
802.83	18111.64
803.161	18109.16
803.491	18024.64
803.822	17950.74
804.153	17858.54
804.483	17691.09
804.814	17729.51
805.145	17630.75
805.475	17663.74
805.805	17519.12
806.136	17536.74
806.466	17570.87
806.796	17445.22
807.126	17318.44
807.457	17280.25
807.787	17214.04
808.117	17230.08
808.447	17205.45
808.777	17176.3
809.107	17052.24
809.436	16994.16
809.766	16942.41
810.096	16889.98
810.426	16828.74
810.755	16861.05
811.085	16808.4
811.414	16749.87
811.744	16585.13
812.073	16642.75
812.403	16657.44
812.732	16571.8
813.061	16473.72
813.39	16429.2
813.719	16438.47
814.049	16435.3
814.378	16372.71
814.707	16305.36
815.036	16269.43
815.365	16164.57
815.693	16078.7
816.022	16115.76
816.351	16037.12
816.68	15898.82
817.008	15985.14
817.337	15812.72
817.665	15941.53
817.994	15796.45
818.322	15850.46
818.651	15754.64
818.979	15603.69
819.307	15680.07
819.636	15735.21
819.964	15603.23
820.292	15640.07
820.62	15600.3
820.948	15548.77
821.276	15618.37
821.604	15518.04
821.932	15620.41
822.259	15601.2
822.587	15528.21
822.915	15513.29
823.243	15531.15
823.57	15485.5
823.898	15442.11
824.225	15447.98
824.553	15399.4
824.88	15530.02
825.207	15561.65
825.535	15441.88
825.862	15486.63
826.189	15438.72
826.516	15477.36
826.843	15518.04
827.17	15504.93
827.497	15433.29
827.824	15402.56
828.151	15464.03
828.478	15448.89
828.805	15534.76
829.131	15492.05
829.458	15485.5
829.785	15394.88
830.111	15455.22
830.438	15507.64
830.764	15415.22
831.09	15455.89
831.417	15347.65
831.743	15309
832.069	15356.46
832.395	15410.24
832.722	15396.01
833.048	15338.61
833.374	15401.43
833.7	15304.03
834.026	15278.27
834.351	15309.91
834.677	15271.49
835.003	15285.95
835.329	15258.84
835.654	15201.44
835.98	15145.39
836.306	15097.71
836.631	15080.99
836.956	15108.78
837.282	15171.61
837.607	15045.73
837.932	14953.99
838.258	15017.49
838.583	15029.01
838.908	14938.62
839.233	15058.84
839.558	14935.23
839.883	14847.1
840.208	14899.52
840.533	14888.68
840.858	14815.01
841.182	14827.66
841.507	14748.57
841.832	14775.91
842.156	14661.11
842.481	14695.91
842.805	14702.69
843.13	14683.71
843.454	14584.5
843.778	14565.07
844.103	14525.52
844.427	14491.85
844.751	14436.03
845.075	14435.81
845.399	14438.74
845.723	14267
846.047	14294.57
846.371	14190.39
846.695	14231.07
847.019	13998.76
847.343	14010.06
847.666	13963.73
847.99	13902.71
848.313	13922.15
848.637	13724.64
848.96	13839.21
849.284	13785.88
849.607	13573.91
849.931	13599.9
850.254	13522.16
850.577	13495.27
850.9	13401.26
851.223	13289.4
851.546	13293.46
851.869	13234.48
852.192	13334.37
852.515	13070.87
852.838	13027.26
853.161	13078.55
853.483	13029.29
853.806	12988.16
854.129	12905.9
854.451	12834.27
854.774	12829.52
855.096	12745.91
855.419	12806.47
855.741	12745.68
856.063	12666.81
856.385	12709.3
856.708	12599.02
857.03	12546.14
857.352	12566.93
857.674	12489.87
857.996	12435.41
858.318	12371.45
858.64	12364
858.961	12380.04
859.283	12265.47
859.605	12256.43
859.926	12334.62
860.248	12193.83
860.57	12157.22
860.891	12188.18
861.212	12014.85
861.534	12111.8
861.855	12007.17
862.176	11993.61
862.498	12015.53
862.819	12005.59
863.14	11930.79
863.461	11916.33
863.782	11912.94
864.103	11915.42
864.424	11814.18
864.745	11870.45
865.065	11853.95
865.386	11766.95
865.707	11769.66
866.027	11740.74
866.348	11723.56
866.668	11734.18
866.989	11634.98
867.309	11644.02
867.63	11635.88
867.95	11569.22
868.27	11459.39
868.59	11559.5
868.91	11567.63
869.23	11535.32
869.55	11494.19
869.87	11501.65
870.19	11563.34
870.51	11530.12
870.83	11432.27
871.15	11389.33
871.469	11407.41
871.789	11459.84
872.109	11389.33
872.428	11263.01
872.748	11343.23
873.067	11346.17
873.386	11262.33
873.706	11311.82
874.025	11170.58
874.344	11213.07
874.663	11184.82
874.982	11262.56
875.301	11151.37
875.62	11150.7
875.939	11114.31
876.258	11117.7
876.577	11146.4
876.896	11005.61
877.214	11024.6
877.533	11037.93
877.852	11002.22
878.17	11000.19
878.489	10990.47
878.807	10975.78
879.125	10939.18
879.444	10999.97
879.762	10895.79
880.08	10900.98
880.398	10889.69
880.716	10898.27
881.034	10839.07
881.352	10851.49
881.67	10741.67
881.988	10808.33
882.306	10761.33
882.624	10668.22
882.941	10683.36
883.259	10640.2
883.577	10619.86
883.894	10617.6
884.212	10540.54
884.529	10514.33
884.846	10516.81
885.164	10501.67
885.481	10475.46
885.798	10453.54
886.115	10397.27
886.432	10481.79
886.75	10379.19
887.067	10404.27
887.383	10336.71
887.7	10364.5
888.017	10255.8
888.334	10267.33
888.651	10303.49
888.967	10194.79
889.284	10167.9
889.6	10166.99
889.917	10094.23
890.233	10101.23
890.55	9997.73
890.866	10023.72
891.182	10009.26
891.498	10096.49
891.815	9929.94
892.131	9936.26
892.447	9905.98
892.763	9901.46
893.079	9848.58
893.395	9783.05
893.71	9748.47
894.026	9773.78
894.342	9738.3
894.657	9737.17
894.973	9678.87
895.289	9701.47
895.604	9615.82
895.92	9580.12
896.235	9495.15
896.55	9600.45
896.865	9503.06
897.181	9405.43
897.496	9447.92
897.811	9409.72
898.126	9347.58
898.441	9306.9
898.756	9263.97
899.071	9255.83
899.386	9268.94
899.7	9121.37
900.015	9182.39
900.33	8992.56
900.644	8986.01
900.959	9098.55
901.273	9074.82
901.588	8954.14
901.902	8937.87
902.216	8994.14
902.531	8879.79
902.845	8853.13
903.159	8760.02
903.473	8743.98
903.787	8791.21
904.101	8746.46
904.415	8754.15
904.729	8652.46
905.042	8572.23
905.356	8589.41
905.67	8616.3
905.984	8581.72
906.297	8440.26
906.611	8423.31
906.924	8479.35
907.237	8414.72
907.551	8420.6
907.864	8358.68
908.177	8346.25
908.491	8320.71
908.804	8314.39
909.117	8205.91
909.43	8115.52
909.743	8186.03
910.056	8177.21
910.368	8086.14
910.681	8025.81
910.994	8062.42
911.307	8044.56
911.619	7906.04
911.932	7967.28
912.244	7894.06
912.557	7861.29
912.869	7794.85
913.181	7812.48
913.494	7750.56
913.806	7684.35
914.118	7693.39
914.43	7679.6
914.742	7678.24
915.054	7636.89
915.366	7593.27
915.678	7515.54
915.99	7464.69
916.302	7452.26
916.613	7417.91
916.925	7403.68
917.236	7365.48
917.548	7388.76
917.859	7294.53
918.171	7285.49
918.482	7280.51
918.794	7230.57
919.105	7245.71
919.416	7164.81
919.727	7149.22
920.038	7115.77
920.349	7079.39
920.66	7094.53
920.971	7085.49
921.282	7008.43
921.593	6943.12
921.903	6885.95
922.214	6909.9
922.525	6880.53
922.835	6887.76
923.146	6784.26
923.456	6816.8
923.767	6786.52
924.077	6734.99
924.387	6743.81
924.697	6633.53
925.008	6651.38
925.318	6546.75
925.628	6587.43
925.938	6544.26
926.248	6488.22
926.558	6460.65
926.867	6504.72
927.177	6451.16
927.487	6413.64
927.796	6385.17
928.106	6321.44
928.416	6317.38
928.725	6298.17
929.034	6279.86
929.344	6303.59
929.653	6243.71
929.962	6177.27
930.271	6111.28
930.581	6149.7
930.89	6122.58
931.199	6054.11
931.508	6069.93
931.817	6022.24
932.125	6020.89
932.434	5980.21
932.743	5963.49
933.051	5925.3
933.36	5894.11
933.669	5919.87
933.977	5815.69
934.286	5831.06
934.594	5836.71
934.902	5768.24
935.21	5765.07
935.519	5710.61
935.827	5718.52
936.135	5644.17
936.443	5641.91
936.751	5577.96
937.059	5586.32
937.367	5532.31
937.674	5539.09
937.982	5550.16
938.29	5467.91
938.597	5519.21
938.905	5416.38
939.213	5376.61
939.52	5388.59
939.827	5368.02
940.135	5385.65
940.442	5327.35
940.749	5328.25
941.056	5303.39
941.363	5261.58
941.67	5244.41
941.977	5211.87
942.284	5215.48
942.591	5190.17
942.898	5192.21
943.205	5238.99
943.511	5162.15
943.818	5160.8
944.125	5061.59
944.431	5031.08
944.738	5060.46
945.044	4995.15
945.35	4978.2
945.657	4968.71
945.963	4955.15
946.269	4926.23
946.575	4915.83
946.881	4900.92
947.187	4901.59
947.493	4810.52
947.799	4811.88
948.105	4820.69
948.41	4797.19
948.716	4802.61
949.022	4727.81
949.327	4709.28
949.633	4668.38
949.938	4676.74
950.244	4658.21
950.549	4629.51
950.854	4653.01
951.16	4589.51
951.465	4560.59
951.77	4576.86
952.075	4540.25
952.38	4556.52
952.685	4523.3
952.99	4455.73
953.294	4428.61
953.599	4446.24
953.904	4427.93
954.209	4384.77
954.513	4405.11
954.818	4313.36
955.122	4358.78
955.426	4324.89
955.731	4286.92
956.035	4260.26
956.339	4225.23
956.643	4221.61
956.948	4196.75
957.252	4228.84
957.556	4214.15
957.86	4236.08
958.163	4165.34
958.467	4137.77
958.771	4118.11
959.075	4092.35
959.378	4071.33
959.682	4090.99
959.985	4007.38
960.289	4050.54
960.592	3985.46
960.896	3996.08
961.199	3989.75
961.502	3966.48
961.805	3968.29
962.108	3942.98
962.411	3914.95
962.714	3925.57
963.017	3888.74
963.32	3855.75
963.623	3871.11
963.926	3825.69
964.228	3812.81
964.531	3799.48
964.833	3755.86
965.136	3782.3
965.438	3794.96
965.741	3764.9
966.043	3701.4
966.345	3710.44
966.648	3682.42
966.95	3657.56
967.252	3685.81
967.554	3663.43
967.856	3610.33
968.158	3611.91
968.46	3593.61
968.761	3610.33
969.063	3558.13
969.365	3551.12
969.666	3540.5
969.968	3504.34
970.269	3492.37
970.571	3515.87
970.872	3476.77
971.174	3458.02
971.475	3453.95
971.776	3418.24
972.077	3386.38
972.378	3375.08
972.679	3410.79
972.98	3408.98
973.281	3332.82
973.582	3361.97
973.883	3307.06
974.183	3311.81
974.484	3318.36
974.785	3286.72
975.085	3244.24
975.386	3277
975.686	3273.84
975.986	3219.6
976.287	3196.78
976.587	3177.57
976.887	3202.43
977.187	3220.28
977.487	3138.25
977.787	3186.16
978.087	3100.29
978.387	3103.22
978.687	3108.65
978.987	3103.68
979.286	3051.25
979.586	3067.29
979.885	3053.06
980.185	3030.68
980.484	3002.89
980.784	2978.03
981.083	2997.01
981.382	2957.92
981.682	2962.66
981.981	2969.89
982.28	2940.97
982.579	2925.6
982.878	2931.02
983.177	2888.31
983.475	2874.75
983.774	2878.82
984.073	2879.27
984.372	2868.43
984.67	2842.44
984.969	2810.35
985.267	2846.51
985.566	2771.03
985.864	2776.68
986.162	2741.2
986.461	2718.83
986.759	2723.57
987.057	2701.88
987.355	2714.31
987.653	2723.12
987.951	2691.03
988.249	2666.4
988.547	2681.31
988.844	2669.34
989.142	2669.56
989.44	2632.95
989.737	2578.94
990.035	2591.15
990.332	2609.23
990.63	2592.28
990.927	2579.62
991.224	2578.94
991.521	2551.37
991.819	2562.67
992.116	2520.87
992.413	2477.7
992.71	2500.98
993.006	2469.57
993.303	2459.17
993.6	2425.95
993.897	2474.31
994.193	2449.91
994.49	2456.69
994.787	2405.16
995.083	2436.57
995.379	2361.32
995.676	2360.87
995.972	2375.78
996.268	2345.05
996.565	2354.32
996.861	2304.6
997.157	2308.67
997.453	2318.16
997.749	2275.45
998.044	2285.62
998.34	2295.11
998.636	2261.66
998.932	2242.46
999.227	2233.64
999.523	2246.75
999.818	2217.6
1000.114	2194.55
1000.409	2198.84
1000.704	2186.64
1001	2156.58
1001.295	2146.64
1001.59	2174.89
1001.885	2141.67
1002.18	2119.07
1002.475	2118.39
1002.77	2124.04
1003.065	2084.04
1003.359	2121.55
1003.654	2081.78
1003.949	2070.26
1004.243	2067.77
1004.538	2026.87
1004.832	2078.39
1005.127	2045.62
1005.421	2009.92
1005.715	1993.87
1006.009	1988.9
1006.304	1950.49
1006.598	1962.01
1006.892	1957.26
1007.186	1964.72
1007.48	1946.87
1007.773	1937.6
1008.067	1898.96
1008.361	1881.33
1008.655	1878.62
1008.948	1868.68
1009.242	1909.81
1009.535	1868
1009.829	1847.89
1010.122	1860.77
1010.415	1834.1
1010.708	1805.4
1011.001	1802.92
1011.295	1796.37
1011.588	1777.38
1011.881	1763.15
1012.173	1752.52
1012.466	1728.8
1012.759	1718.85
1013.052	1701.68
1013.344	1735.35
1013.637	1708.46
1013.93	1703.49
1014.222	1689.48
1014.514	1697.16
1014.807	1661.68
1015.099	1646.54
1015.391	1619.19
1015.683	1614.68
1015.976	1639.31
1016.268	1659.87
1016.56	1605.86
1016.851	1639.08
1017.143	1613.32
1017.435	1585.3
1017.727	1557.5
1018.018	1582.13
1018.31	1564.96
1018.602	1554.11
1018.893	1534
1019.185	1517.5
1019.476	1533.1
1019.767	1493.77
1020.058	1506.2
1020.35	1491.74
1020.641	1473.44
1020.932	1465.98
1021.223	1476.6
1021.514	1470.95
1021.804	1444.51
1022.095	1421.69
1022.386	1397.73
1022.677	1415.36
1022.967	1415.13
1023.258	1393.89
1023.548	1367.9
1023.839	1354.57
1024.129	1367.22
1024.419	1362.48
1024.709	1331.29
1025	1332.42
1025.29	1352.76
1025.58	1320.45
1025.87	1327
1026.16	1322.25
1026.449	1299.66
1026.739	1332.87
1027.029	1270.28
1027.319	1258.07
1027.608	1265.08
1027.898	1237.06
1028.187	1238.87
1028.477	1254.23
1028.766	1240.9
1029.055	1252.88
1029.344	1207.68
1029.634	1190.51
1029.923	1220.11
1030.212	1168.59
1030.501	1201.13
1030.79	1151.86
1031.078	1169.72
1031.367	1154.12
1031.656	1157.51
1031.945	1121.13
1032.233	1129.72
1032.522	1129.04
1032.81	1103.5
1033.099	1090.85
1033.387	1121.13
1033.675	1102.15
1033.963	1081.36
1034.251	1078.42
1034.54	1087.91
1034.828	1053.79
1035.116	1088.81
1035.403	1083.16
1035.691	1066.89
1035.979	1054.01
1036.267	1020.57
1036.554	1031.87
1036.842	1015.59
1037.129	1003.17
1037.417	993
1037.704	983.28
1037.992	994.8
1038.279	983.51
1038.566	993.22
1038.853	993.22
1039.14	993.22
