Data from hue_120_FLMS001491_00043.txt Node
Date: Tue Feb 07 16:59:26 GMT 2017
User: dcchb
Spectrometer: FLMS00149
Trigger mode: 0
Integration Time (sec): 2.000000E-2
Scans to average: 10
Electric dark correction enabled: true
Nonlinearity correction enabled: false
Boxcar width: 0
XAxis mode: Wavelengths
Number of Pixels in Spectrum: 2048
>>>>>Begin Spectral Data<<<<<
341.393	-36.43
341.776	-36.43
342.16	-36.43
342.543	-87.5
342.927	-57.44
343.31	-56.09
343.693	-67.61
344.077	-54.73
344.46	-46.14
344.843	-83.43
345.226	-71
345.61	-36.88
345.993	-20.38
346.376	-14.73
346.759	29.79
347.142	13.97
347.525	53.06
347.908	56.91
348.291	71.14
348.674	107.75
349.057	118.37
349.44	120.41
349.823	154.3
350.206	179.16
350.588	176.22
350.971	208.31
351.354	220.06
351.737	234.08
352.119	258.48
352.502	260.29
352.884	281.53
353.267	282.44
353.65	300.51
354.032	311.14
354.414	301.64
354.797	307.07
355.179	317.46
355.562	318.59
355.944	311.36
356.326	344.81
356.709	312.04
357.091	333.51
357.473	340.74
357.855	355.65
358.238	319.05
358.62	338.25
359.002	355.88
359.384	352.26
359.766	328.76
360.148	356.56
360.53	336.22
360.912	344.36
361.294	338.93
361.676	336.67
362.057	333.51
362.439	342.77
362.821	323.79
363.203	338.71
363.584	347.52
363.966	316.11
364.348	350.46
364.729	330.12
365.111	308.88
365.493	343.9
365.874	317.69
366.256	324.69
366.637	313.62
367.019	319.27
367.4	309.33
367.781	317.01
368.163	318.59
368.544	320.63
368.925	316.56
369.306	343.68
369.688	306.84
370.069	319.05
370.45	304.13
370.831	316.56
371.212	337.8
371.593	319.27
371.974	317.92
372.355	309.55
372.736	314.07
373.117	315.2
373.498	331.7
373.879	322.89
374.26	334.64
374.641	335.77
375.021	311.81
375.402	328.31
375.783	330.8
376.163	339.61
376.544	336.45
376.925	325.82
377.305	330.34
377.686	332.38
378.066	344.13
378.447	329.67
378.827	339.61
379.208	328.76
379.588	347.75
379.968	342.77
380.349	352.49
380.729	349.1
381.109	338.25
381.489	335.77
381.87	352.49
382.25	371.25
382.63	352.04
383.01	360.17
383.39	359.5
383.77	366.05
384.15	361.53
384.53	364.02
384.91	354.3
385.29	346.62
385.67	357.69
386.049	375.54
386.429	347.75
386.809	374.41
387.189	362.89
387.568	367.86
387.948	343.45
388.328	373.73
388.707	352.72
389.087	360.63
389.466	384.58
389.846	379.16
390.225	387.07
390.605	389.55
390.984	376.44
391.363	350.23
391.743	414.86
392.122	394.98
392.501	384.58
392.881	389.1
393.26	391.81
393.639	399.04
394.018	383.22
394.397	395.43
394.776	374.41
395.155	402.21
395.534	398.59
395.913	387.07
396.292	399.72
396.671	403.11
397.05	409.21
397.429	403.56
397.808	417.57
398.186	404.24
398.565	430.45
398.944	409.89
399.323	415.77
399.701	422.32
400.08	423.9
400.458	423.9
400.837	427.52
401.215	419.38
401.594	407.18
401.972	431.58
402.351	438.36
402.729	440.17
403.107	440.4
403.486	437.91
403.864	441.08
404.242	422.55
404.62	446.73
404.999	439.27
405.377	451.47
405.755	457.57
406.133	455.99
406.511	486.27
406.889	470.68
407.267	487.18
407.645	478.36
408.023	478.14
408.401	464.13
408.779	472.71
409.156	478.36
409.534	486.72
409.912	504.35
410.29	491.24
410.667	488.53
411.045	487.18
411.422	546.16
411.8	518.81
412.178	490.79
412.555	520.85
412.933	515.42
413.31	528.76
413.687	526.05
414.065	551.36
414.442	545.48
414.819	540.96
415.197	540.96
415.574	541.41
415.951	536.21
416.328	577.34
416.705	573.05
417.082	538.47
417.46	558.36
417.837	591.58
418.214	567.17
418.591	584.58
418.967	570.79
419.344	586.16
419.721	592.26
420.098	573.05
420.475	602.88
420.852	584.8
421.228	631.58
421.605	592.03
421.982	617.57
422.358	617.57
422.735	620.05
423.111	639.94
423.488	646.27
423.864	632.26
424.241	628.42
424.617	627.06
424.994	669.32
425.37	642.65
425.746	653.5
426.123	653.05
426.499	673.61
426.875	669.32
427.251	663.44
427.627	685.59
428.003	692.37
428.379	727.17
428.756	712.71
429.132	718.36
429.507	723.78
429.883	731.24
430.259	717
430.635	746.15
431.011	751.58
431.387	731.01
431.763	764.01
432.138	768.3
432.514	779.37
432.89	762.2
433.265	793.16
433.641	792.48
434.016	817.34
434.392	810.78
434.767	811.91
435.143	867.73
435.518	858.24
435.894	841.74
436.269	853.27
436.644	827.05
437.02	880.39
437.395	869.77
437.77	874.28
438.145	888.07
438.52	907.05
438.895	876.54
439.271	910.22
439.646	949.99
440.021	916.32
440.395	925.58
440.77	923.32
441.145	932.81
441.52	952.25
441.895	963.1
442.27	966.26
442.645	965.81
443.019	983.43
443.394	969.65
443.769	1007.84
444.143	987.05
444.518	984.34
444.892	1006.94
445.267	1034.28
445.641	1013.49
446.016	1014.85
446.39	1024.11
446.764	1048.74
447.139	1041.29
447.513	1049.87
447.887	1041.29
448.262	1087.84
448.636	1063.43
449.01	1071.57
449.384	1079.03
449.758	1094.17
450.132	1109.08
450.506	1114.05
450.88	1126.71
451.254	1127.61
451.628	1160.38
452.002	1165.58
452.376	1148.4
452.75	1175.75
453.123	1178.23
453.497	1201.06
453.871	1231.79
454.244	1204.67
454.618	1243.54
454.992	1207.16
455.365	1259.36
455.739	1300.71
456.112	1285.12
456.486	1315.63
456.859	1311.56
457.232	1352.69
457.606	1342.97
457.979	1354.95
458.352	1359.47
458.725	1406.25
459.099	1399.24
459.472	1440.82
459.845	1469.52
460.218	1477.43
460.591	1438.56
460.964	1480.14
461.337	1524.44
461.71	1529.63
462.083	1555.62
462.456	1571.67
462.829	1590.42
463.201	1587.49
463.574	1617.54
463.947	1657.09
464.32	1706.81
464.692	1649.86
465.065	1702.96
465.438	1748.39
465.81	1775.96
466.183	1799.23
466.555	1815.05
466.928	1838.55
467.3	1839.01
467.672	1885.11
468.045	1928.49
468.417	1959.68
468.789	2004.42
469.161	2019.11
469.534	2061.37
469.906	2120.81
470.278	2160.8
470.65	2146.57
471.022	2200.8
471.394	2268.15
471.766	2294.36
472.138	2311.08
472.51	2389.05
472.882	2411.42
473.253	2471.08
473.625	2525.09
473.997	2611.41
474.369	2591.53
474.74	2717.85
475.112	2756.27
475.484	2809.38
475.855	2894.34
476.227	2943.16
476.598	2972.08
476.97	3061.12
477.341	3117.39
477.713	3221.57
478.084	3262.47
478.455	3382.24
478.827	3454.1
479.198	3571.84
479.569	3615.91
479.94	3760.76
480.311	3845.73
480.682	3935.45
481.053	4020.64
481.424	4171.6
481.795	4232.61
482.166	4316.45
482.537	4449.78
482.908	4565.94
483.279	4668.54
483.65	4799.38
484.021	4955.08
484.391	5030.11
484.762	5138.35
485.133	5278.91
485.503	5380.83
485.874	5570.88
486.244	5652.46
486.615	5862.85
486.985	5920.48
487.356	6141.04
487.726	6241.6
488.097	6407.7
488.467	6536.73
488.837	6720.68
489.207	6853.11
489.578	7011.3
489.948	7129.04
490.318	7325.64
490.688	7445.86
491.058	7684.95
491.428	7779.64
491.798	7898.73
492.168	8162.91
492.538	8241.55
492.908	8485.16
493.278	8622.78
493.648	8696.23
494.017	8888.76
494.387	9052.6
494.757	9142.99
495.126	9291.24
495.496	9404.91
495.866	9506.6
496.235	9700.04
496.605	9847.61
496.974	9986.14
497.344	10159.92
497.713	10239.24
498.082	10389.51
498.452	10583.86
498.821	10653.01
499.19	10726.46
499.559	10879.45
499.928	10956.51
500.298	11098.2
500.667	11288.7
501.036	11329.15
501.405	11493.67
501.774	11514.68
502.143	11647.56
502.512	11774.11
502.88	11904.05
503.249	11936.59
503.618	11997.16
503.987	12071.73
504.356	12222.69
504.724	12347.43
505.093	12449.35
505.462	12520.53
505.83	12663.35
506.199	12730.24
506.567	12833.07
506.936	12843.69
507.304	13067.41
507.672	13088.88
508.041	13122.55
508.409	13243.23
508.777	13337.69
509.145	13529.77
509.514	13419.72
509.882	13565.7
510.25	13708.3
510.618	13736.32
510.986	13816.32
511.354	13884.56
511.722	13940.16
512.09	14031.68
512.458	14056.54
512.826	14154.61
513.193	14210.43
513.561	14193.03
513.929	14394.16
514.297	14398
514.664	14502.85
515.032	14549.63
515.4	14641.38
515.767	14708.72
516.135	14825.33
516.502	14613.81
516.869	14912.33
517.237	14812.68
517.604	14817.42
517.972	15014.03
518.339	14942.84
518.706	14977.87
519.073	15044.31
519.44	15090.63
519.808	15217.18
520.175	15178.09
520.542	15301.02
520.909	15418.54
521.276	15320.46
521.643	15458.99
522.009	15565.2
522.376	15529.49
522.743	15588.47
523.11	15670.51
523.477	15835.25
523.843	15826.21
524.21	15886.55
524.577	15945.75
524.943	15923.38
525.31	16038.41
525.676	16133.54
526.043	16148.23
526.409	16087.22
526.776	16282.47
527.142	16321.34
527.508	16263.94
527.874	16290.38
528.241	16369.24
528.607	16317.04
528.973	16483.37
529.339	16361.11
529.705	16500.54
530.071	16538.51
530.437	16562.91
530.803	16505.96
531.169	16632.74
531.535	16542.57
531.901	16488.56
532.267	16550.93
532.632	16556.58
532.998	16527.43
533.364	16619.63
533.73	16596.81
534.095	16669.58
534.461	16635.9
534.826	16651.05
535.192	16651.27
535.557	16695.11
535.923	16604.94
536.288	16617.37
536.653	16660.99
537.019	16508.9
537.384	16536.47
537.749	16499.41
538.114	16579.41
538.479	16476.59
538.845	16458.28
539.21	16511.39
539.575	16392.29
539.94	16400.2
540.305	16468.68
540.67	16305.07
541.034	16367.89
541.399	16360.66
541.764	16369.24
542.129	16411.5
542.494	16323.14
542.858	16260.32
543.223	16278.63
543.587	16271.17
543.952	16194.79
544.316	16216.93
544.681	16124.96
545.045	16152.98
545.41	16180.32
545.774	16197.72
546.138	16124.28
546.503	16106.88
546.867	16056.48
547.231	16014.68
547.595	16050.38
547.959	15915.25
548.324	15934.23
548.688	16048.8
549.052	15997.96
549.416	15899.65
549.779	15791.18
550.143	15817.62
550.507	15825.53
550.871	15855.81
551.235	15858.98
551.599	15786.21
551.962	15792.54
552.326	15758.87
552.689	15769.26
553.053	15664.86
553.417	15726.55
553.78	15880.67
554.143	15683.39
554.507	15715.48
554.87	15756.61
555.234	15788.24
555.597	15657.4
555.96	15693.33
556.323	15618.98
556.686	15564.97
557.05	15650.62
557.413	15629.6
557.776	15580.11
558.139	15687.23
558.502	15681.81
558.865	15557.51
559.228	15632.77
559.59	15666.89
559.953	15663.73
560.316	15753.89
560.679	15649.94
561.041	15846.09
561.404	15774.68
561.767	15888.58
562.129	15689.49
562.492	15884.96
562.854	15853.78
563.217	15827.34
563.579	15794.12
563.941	15938.07
564.304	15873.21
564.666	15858.3
565.028	15953.21
565.39	15966.32
565.753	15911.18
566.115	15996.37
566.477	16038.63
566.839	16101.68
567.201	16122.7
567.563	16066.88
567.925	16187.1
568.287	16164.05
568.648	16098.29
569.01	16253.77
569.372	16214.67
569.734	16197.95
570.095	16301.68
570.457	16316.36
570.819	16264.39
571.18	16358.85
571.542	16331.73
571.903	16370.37
572.265	16450.82
572.626	16399.98
572.987	16331.96
573.349	16481.33
573.71	16418.06
574.071	16479.75
574.432	16588.9
574.794	16677.71
575.155	16507.32
575.516	16476.59
575.877	16606.07
576.238	16602.23
576.599	16633.42
576.96	16558.84
577.32	16578.5
577.681	16669.12
578.042	16673.42
578.403	16657.15
578.763	16684.26
579.124	16527.21
579.485	16676.13
579.845	16750.93
580.206	16724.72
580.566	16719.97
580.927	16620.54
581.287	16707.09
581.648	16651.72
582.008	16793.64
582.368	16744.83
582.728	16684.94
583.089	16735.34
583.449	16658.73
583.809	16672.29
584.169	16640.42
584.529	16605.17
584.889	16764.94
585.249	16640.2
585.609	16636.36
585.969	16684.04
586.329	16621.89
586.688	16620.31
587.048	16591.39
587.408	16589.35
587.768	16570.6
588.127	16548.22
588.487	16447.89
588.846	16678.62
589.206	16480.88
589.565	16498.51
589.925	16484.04
590.284	16476.13
590.643	16505.06
591.003	16571.27
591.362	16572.4
591.721	16534.21
592.08	16551.84
592.44	16562.46
592.799	16594.32
593.158	16477.04
593.517	16445.63
593.876	16574.44
594.235	16541.22
594.593	16504.16
594.952	16428
595.311	16435.68
595.67	16512.07
596.029	16452.63
596.387	16570.82
596.746	16540.09
597.104	16452.86
597.463	16506.64
597.822	16529.47
598.18	16495.57
598.538	16418.28
598.897	16571.27
599.255	16319.53
599.613	16586.87
599.972	16475.91
600.33	16454.21
600.688	16428
601.046	16552.52
601.404	16541.67
601.762	16517.49
602.12	16553.19
602.478	16491.95
602.836	16540.99
603.194	16403.37
603.552	16466.19
603.91	16401.11
604.268	16486.76
604.625	16372.86
604.983	16453.99
605.341	16441.56
605.698	16397.49
606.056	16470.71
606.413	16469.81
606.771	16433.65
607.128	16478.39
607.485	16537.83
607.843	16494.89
608.2	16515.68
608.557	16647.88
608.914	16637.03
609.272	16648.79
609.629	16682.91
609.986	16740.53
610.343	16528.34
610.7	16693.76
611.057	16698.5
611.414	16730.82
611.771	16648.33
612.127	16752.29
612.484	16719.29
612.841	16674.77
613.198	16688.78
613.554	16759.97
613.911	16837.48
614.267	16773.98
614.624	16705.06
614.98	16759.29
615.337	16884.71
615.693	16833.19
616.05	16872.96
616.406	16937.59
616.762	16844.94
617.118	16848.1
617.475	16896.46
617.831	16951.83
618.187	16971.49
618.543	16940.98
618.899	16981.21
619.255	17064.37
619.611	17023.01
619.967	17094.2
620.323	17019.4
620.678	16948.89
621.034	17002.67
621.39	16943.69
621.746	16934.2
622.101	17168.09
622.457	17043.35
622.812	17006.97
623.168	17004.26
623.523	16953.86
623.879	17150.47
624.234	16944.14
624.589	17048.1
624.945	17106.85
625.3	17071.6
625.655	17074.08
626.01	17042.67
626.365	17016.69
626.72	17019.17
627.075	17022.56
627.43	17000.87
627.785	16945.05
628.14	16970.58
628.495	17030.47
628.85	16901.89
629.205	16964.26
629.559	16913.64
629.914	16945.05
630.269	16930.36
630.623	16950.92
630.978	16894.2
631.332	16947.31
631.687	16924.48
632.041	16881.32
632.396	16873.41
632.75	16905.95
633.104	16891.72
633.459	16846.75
633.813	16719.97
634.167	16717.48
634.521	16821.44
634.875	16752.74
635.229	16709.12
635.583	16633.19
635.937	16636.81
636.291	16605.4
636.645	16602.23
636.999	16547.32
637.352	16648.79
637.706	16531.27
638.06	16528.34
638.413	16542.12
638.767	16506.42
639.121	16557.94
639.474	16463.03
639.828	16484.72
640.181	16481.56
640.534	16451.5
640.888	16388.23
641.241	16318.62
641.594	16301.22
641.947	16440.43
642.301	16355.69
642.654	16345.06
643.007	16330.6
643.36	16321.11
643.713	16346.42
644.066	16261
644.419	16171.51
644.771	16137.84
645.124	15997.28
645.477	16014
645.83	15885.19
646.182	15873.44
646.535	15806.55
646.888	15856.94
647.24	15703.05
647.593	15766.77
647.945	15739.66
648.298	15614.24
648.65	15637.74
649.002	15627.34
649.355	15734.46
649.707	15697.4
650.059	15850.84
650.411	16087.67
650.763	15912.31
651.115	16149.82
651.467	16111.62
651.819	16082.25
652.171	16018.52
652.523	16045.41
652.875	16145.75
653.227	16018.75
653.578	16025.3
653.93	16057.84
654.282	15975.13
654.633	15910.27
654.985	15930.84
655.337	16062.81
655.688	16021.46
656.039	16076.15
656.391	15885.42
656.742	16071.17
657.094	15947.56
657.445	16112.08
657.796	16014.23
658.147	16006.99
658.498	16065.3
658.849	16105.97
659.2	16037.5
659.551	16016.26
659.902	16131.28
660.253	15957.73
660.604	16114.11
660.955	15950.95
661.306	16031.85
661.656	16012.87
662.007	16038.63
662.358	16021.46
662.708	16032.08
663.059	16086.77
663.409	15957.05
663.76	16137.61
664.11	16065.75
664.461	16105.3
664.811	16143.94
665.161	16053.09
665.511	16067.33
665.862	16024.17
666.212	16145.75
666.562	16125.18
666.912	16049.48
667.262	16059.42
667.612	16037.5
667.962	16046.32
668.312	16023.27
668.662	16103.94
669.011	16032.98
669.361	16048.8
669.711	15909.6
670.06	15887
670.41	15891.74
670.76	15873.66
671.109	16011.97
671.459	15906.21
671.808	15926.09
672.157	16032.53
672.507	15863.95
672.856	15872.99
673.205	15899.2
673.554	15889.26
673.904	15844.51
674.253	15953.44
674.602	15848.13
674.951	15676.83
675.3	15590.06
675.649	15838.64
675.998	15887.9
676.346	15840.45
676.695	15910.73
677.044	15701.01
677.393	15890.16
677.741	15872.99
678.09	15792.31
678.438	15771.97
678.787	15727.68
679.135	15647.46
679.484	15629.38
679.832	15626.44
680.181	15582.15
680.529	15567.23
680.877	15453.11
681.225	15610.85
681.573	15618.98
681.922	15485.65
682.27	15388.03
682.618	15366.79
682.966	15405.2
683.314	15446.78
683.661	15344.19
684.009	15306.67
684.357	15246.34
684.705	15221.93
685.053	15208.6
685.4	15187.13
685.748	15101.03
686.095	15164.53
686.443	15122.95
686.79	15031.2
687.138	15071.43
687.485	15026
687.832	14920.47
688.18	14998.66
688.527	14924.08
688.874	14850.87
689.221	14826.91
689.568	14686.58
689.915	14722.28
690.262	14704.2
690.609	14617.88
690.956	14617.88
691.303	14532.46
691.65	14482.29
691.997	14506.02
692.344	14392.12
692.69	14387.38
693.037	14381.5
693.383	14263.76
693.73	14273.25
694.077	14188.06
694.423	14204.56
694.769	14116.2
695.116	14112.81
695.462	14041.62
695.808	14045.69
696.155	14011.11
696.501	13813.38
696.847	13845.47
697.193	13785.13
697.539	13819.48
697.885	13782.87
698.231	13657
698.577	13686.38
698.923	13621.29
699.269	13598.24
699.614	13516.21
699.96	13394.63
700.306	13469.43
700.651	13329.1
700.997	13285.48
701.342	13234.19
701.688	13241.19
702.033	13183.34
702.379	13118.03
702.724	13194.86
703.069	13092.72
703.415	12956
703.76	13036
704.105	13027.41
704.45	12851.6
704.795	12863.8
705.14	12815.21
705.485	12805.27
705.83	12741.54
706.175	12796.68
706.52	12727.53
706.865	12650.92
707.209	12677.82
707.554	12546.29
707.899	12534.32
708.243	12515.33
708.588	12555.33
708.932	12373.19
709.277	12356.02
709.621	12373.42
709.966	12326.41
710.31	12364.15
710.654	12149.02
710.998	12273.76
711.342	12186.53
711.687	12106.53
712.031	12140.66
712.375	12090.94
712.719	12180.65
713.063	12041.45
713.407	12212.74
713.75	12081.9
714.094	11977.04
714.438	12012.52
714.782	12022.24
715.125	11913.32
715.469	12029.92
715.812	11813.66
716.156	11823.83
716.499	11806.43
716.843	11875.13
717.186	11697.5
717.53	11746.77
717.873	11827.9
718.216	11784.73
718.559	11715.13
718.902	11599.2
719.246	11707.67
719.589	11703.83
719.932	11603.49
720.275	11616.38
720.617	11568.69
720.96	11652.31
721.303	11551.52
721.646	11570.95
721.989	11456.38
722.331	11554.91
722.674	11529.15
723.016	11528.92
723.359	11464.74
723.701	11488.92
724.044	11397.85
724.386	11318.53
724.729	11335.48
725.071	11391.75
725.413	11383.84
725.755	11381.81
726.097	11361.92
726.439	11266.1
726.782	11262.26
727.124	11326.67
727.465	11314.69
727.807	11331.19
728.149	11298.64
728.491	11229.94
728.833	11333.22
729.175	11251.19
729.516	11216.61
729.858	11179.55
730.199	11226.1
730.541	11224.3
730.882	11177.29
731.224	11158.08
731.565	11161.25
731.906	11243.73
732.248	11173.68
732.589	11179.1
732.93	11100.46
733.271	11128.03
733.612	11152.66
733.953	11164.64
734.294	11116.73
734.635	11093.9
734.976	11050.74
735.317	11081.47
735.658	11107.91
735.999	11127.12
736.339	11161.92
736.68	11204.63
737.021	11136.61
737.361	11038.76
737.702	11184.52
738.042	11184.3
738.383	11113.79
738.723	11237.85
739.063	11085.09
739.404	11156.73
739.744	11107.24
740.084	11164.18
740.424	11145.43
740.764	11138.65
741.104	11274.46
741.444	11196.5
741.784	11195.14
742.124	11210.96
742.464	11251.19
742.804	11214.13
743.143	11247.57
743.483	11273.33
743.823	11272.88
744.162	11255.71
744.502	11341.13
744.841	11243.73
745.181	11404.18
745.52	11402.37
745.86	11489.83
746.199	11479.88
746.538	11545.64
746.877	11525.08
747.216	11671.06
747.556	11641.23
747.895	11650.27
748.234	11704.28
748.573	11775.92
748.911	11847.33
749.25	11900.66
749.589	11910.38
749.928	12029.92
750.267	12184.95
750.605	12128
750.944	12291.61
751.283	12256.81
751.621	12457.48
751.96	12419.07
752.298	12549.91
752.636	12699.96
752.975	12700.87
753.313	12795.33
753.651	12972.5
753.989	13033.29
754.327	13126.84
754.666	13165.71
755.004	13432.15
755.342	13481.19
755.679	13639.6
756.017	13722.53
756.355	13799.37
756.693	13909.42
757.031	14085.24
757.368	14196.65
757.706	14364.33
758.044	14577.43
758.381	14664.88
758.719	14864.2
759.056	14997.08
759.394	15164.3
759.731	15160.91
760.068	15470.51
760.405	15546.89
760.743	15688.58
761.08	15991.4
761.417	16062.59
761.754	16119.53
762.091	16405.63
762.428	16598.62
762.765	16656.69
763.102	16878.84
763.438	16990.92
763.775	17155.21
764.112	17350.91
764.449	17527.41
764.785	17722.88
765.122	17771.92
765.458	17910
765.795	18096.2
766.131	18254.84
766.467	18410.1
766.804	18517.44
767.14	18481.05
767.476	18722.4
767.812	18814.15
768.148	19064.09
768.485	19097.53
768.821	19129.4
769.157	19257.53
769.492	19346.12
769.828	19588.14
770.164	19592.44
770.5	19773.9
770.836	19851.64
771.171	19821.36
771.507	19971.64
771.842	19989.94
772.178	20187
772.513	20211.63
772.849	20335.92
773.184	20349.25
773.519	20429.48
773.855	20549.7
774.19	20553.09
774.525	20557.84
774.86	20666.53
775.195	20777.94
775.53	20745.63
775.865	20765.51
776.2	20643.26
776.535	20583.82
776.87	20743.82
777.205	20863.14
777.539	20703.59
777.874	20929.8
778.209	20807.09
778.543	20894.55
778.878	20835.34
779.212	20876.7
779.547	20801.22
779.881	20990.59
780.215	20988.11
780.55	21032.17
780.884	20954.43
781.218	21001.89
781.552	20980.2
781.886	20961.67
782.22	20962.8
782.554	20970.48
782.888	20709.7
783.222	20860.88
783.556	20793.08
783.889	20808
784.223	20725.74
784.557	20621.11
784.89	20793.99
785.224	20722.8
785.557	20623.14
785.891	20593.99
786.224	20674.22
786.558	20596.48
786.891	20565.52
787.224	20476.93
787.557	20424.51
787.891	20574.33
788.224	20374.11
788.557	20509.47
788.89	20366.88
789.223	20511.06
789.556	20351.29
789.888	20311.51
790.221	20231.52
790.554	20096.83
790.887	20100.45
791.219	20148.35
791.552	20098.86
791.884	20067.9
792.217	20058.64
792.549	19977.06
792.882	19880.34
793.214	19898.87
793.546	19877.18
793.879	19885.99
794.211	19678.54
794.543	19880.34
794.875	19811.64
795.207	19750.62
795.539	19629.05
795.871	19635.6
796.203	19543.85
796.535	19346.79
796.867	19474.25
797.198	19396.28
797.53	19278.32
797.862	19359.45
798.193	19342.27
798.525	19234.71
798.856	19147.25
799.188	18991.55
799.519	19072.68
799.85	18952.91
800.182	18888.05
800.513	18870.2
800.844	18842.4
801.175	18904.09
801.506	18768.5
801.837	18739.8
802.168	18618.45
802.499	18712.46
802.83	18530.54
803.161	18549.3
803.491	18514.5
803.822	18576.87
804.153	18380.04
804.483	18331.9
804.814	18342.3
805.145	18289.65
805.475	18199.93
805.805	18138.46
806.136	18266.82
806.466	18248.07
806.796	18143.89
807.126	18071.35
807.457	17978.24
807.787	18088.97
808.117	17877.68
808.447	17808.08
808.777	17828.19
809.107	17804.24
809.436	17726.5
809.766	17750.9
810.096	17715.65
810.426	17593.62
810.755	17610.79
811.085	17648.08
811.414	17618.7
811.744	17483.34
812.073	17462.55
812.403	17405.15
812.732	17297.58
813.061	17388.43
813.39	17281.54
813.719	17280.18
814.049	17311.14
814.378	17229.11
814.707	17165.61
815.036	17140.52
815.365	17069.57
815.693	16877.03
816.022	16950.47
816.351	16963.81
816.68	16835
817.008	16893.98
817.337	16757.03
817.665	16694.21
817.994	16713.19
818.322	16685.39
818.651	16668.22
818.979	16685.17
819.307	16703.02
819.636	16672.29
819.964	16503.03
820.292	16527.88
820.62	16594.55
820.948	16439.53
821.276	16569.92
821.604	16583.02
821.932	16504.16
822.259	16501.9
822.587	16496.7
822.915	16487.89
823.243	16553.42
823.57	16491.73
823.898	16457.83
824.225	16464.61
824.553	16507.32
824.88	16496.02
825.207	16646.3
825.535	16444.05
825.862	16484.72
826.189	16443.37
826.516	16550.93
826.843	16549.13
827.17	16564.95
827.497	16611.72
827.824	16563.59
828.151	16547.09
828.478	16560.43
828.805	16564.27
829.131	16463.25
829.458	16464.38
829.785	16410.83
830.111	16557.26
830.438	16500.31
830.764	16525.17
831.09	16525.85
831.417	16426.42
831.743	16531.27
832.069	16485.63
832.395	16491.73
832.722	16484.04
833.048	16414.44
833.374	16460.09
833.7	16383.03
834.026	16350.49
834.351	16361.11
834.677	16332.86
835.003	16460.99
835.329	16423.71
835.654	16289.92
835.98	16279.08
836.306	16302.58
836.631	16272.75
836.956	16308.46
837.282	16244.5
837.607	16232.98
837.932	16136.03
838.258	16123.6
838.583	16058.52
838.908	16015.58
839.233	16112.08
839.558	15967.22
839.883	15911.63
840.208	15960.89
840.533	16035.24
840.858	15947.33
841.182	15842.93
841.507	15891.97
841.832	15750.96
842.156	15840.22
842.481	15872.76
842.805	15768.58
843.13	15755.25
843.454	15687.68
843.778	15567.46
844.103	15590.51
844.427	15565.42
844.751	15536.27
845.075	15513.45
845.399	15406.78
845.723	15324.3
846.047	15429.83
846.371	15310.06
846.695	15239.78
847.019	15167.47
847.343	15150.52
847.666	14892
847.99	14929.73
848.313	14973.58
848.637	14900.81
848.96	14869.4
849.284	14776.52
849.607	14739.68
849.931	14662.62
850.254	14638.67
850.577	14428.28
850.9	14405
851.223	14430.09
851.546	14318
851.869	14199.81
852.192	14214.05
852.515	14124.33
852.838	14024.45
853.161	14115.74
853.483	13957.56
853.806	13969.76
854.129	13917.56
854.451	13894.28
854.774	13827.62
855.096	13716.66
855.419	13785.58
855.741	13652.25
856.063	13617.9
856.385	13572.93
856.708	13559.15
857.03	13557.34
857.352	13543.56
857.674	13448.64
857.996	13416.1
858.318	13348.99
858.64	13358.7
858.961	13331.58
859.283	13275.99
859.605	13150.12
859.926	13244.36
860.248	13201.64
860.57	13107.86
860.891	13071.25
861.212	13029.45
861.534	12932.5
861.855	12982.89
862.176	13027.19
862.498	12939.05
862.819	12993.97
863.14	12921.43
863.461	12902.9
863.782	12871.03
864.103	12862.44
864.424	12825.84
864.745	12839.17
865.065	12696.35
865.386	12744.26
865.707	12741.32
866.027	12656.35
866.348	12602.34
866.668	12670.58
866.989	12589.46
867.309	12545.84
867.63	12590.59
867.95	12526.63
868.27	12475.56
868.59	12504.04
868.91	12456.35
869.23	12450.25
869.55	12342.46
869.87	12491.15
870.19	12370.71
870.51	12360.76
870.83	12377.03
871.15	12298.62
871.469	12318.05
871.789	12364.15
872.109	12269.24
872.428	12144.95
872.748	12237.6
873.067	12206.87
873.386	12167.77
873.706	12097.04
874.025	12070.15
874.344	12114.89
874.663	12080.09
874.982	12052.97
875.301	12120.09
875.62	12078.51
875.939	12027.44
876.258	12067.44
876.577	12001.22
876.896	11967.55
877.214	11940.43
877.533	11915.35
877.852	11943.82
878.17	11937.5
878.489	11906.76
878.807	11869.7
879.125	11824.28
879.444	11791.29
879.762	11784.51
880.08	11807.1
880.398	11793.32
880.716	11706.77
881.034	11771.63
881.352	11722.59
881.67	11613.89
881.988	11635.36
882.306	11592.65
882.624	11564.17
882.941	11548.35
883.259	11489.6
883.577	11530.95
883.894	11469.26
884.212	11409.83
884.529	11500.22
884.846	11420
885.164	11345.87
885.481	11294.58
885.798	11313.56
886.115	11278.98
886.432	11245.99
886.75	11196.73
887.067	11235.82
887.383	11112.66
887.7	11179.78
888.017	11091.87
888.334	11208.48
888.651	11100
888.967	11032.21
889.284	11039.89
889.6	11011.65
889.917	10907.02
890.233	10884.19
890.55	10868.6
890.866	10865.66
891.182	10822.05
891.498	10796.96
891.815	10724.2
892.131	10754.25
892.447	10651.88
892.763	10684.65
893.079	10714.7
893.395	10558.55
893.71	10562.17
894.026	10506.57
894.342	10487.82
894.657	10482.17
894.973	10399.46
895.289	10414.15
895.604	10421.15
895.92	10286.69
896.235	10206.69
896.55	10262.51
896.865	10233.36
897.181	10242.63
897.496	10219.58
897.811	10147.71
898.126	10096.19
898.441	10037.43
898.756	10043.08
899.071	9892.13
899.386	9960.83
899.7	9902.3
900.015	9860.72
900.33	9744.11
900.644	9705.01
900.959	9839.02
901.273	9697.56
901.588	9702.3
901.902	9598.35
902.216	9564
902.531	9644
902.845	9548.41
903.159	9471.8
903.473	9477.67
903.787	9372.82
904.101	9351.35
904.415	9361.52
904.729	9350.45
905.042	9247.17
905.356	9224.57
905.67	9255.53
905.984	9199.04
906.297	9152.94
906.611	9103.22
906.924	9113.16
907.237	9040.85
907.551	9042.66
907.864	9029.78
908.177	8991.36
908.491	8875.66
908.804	8900.74
909.117	8847.86
909.43	8828.2
909.743	8792.72
910.056	8713.85
910.368	8717.47
910.681	8672.05
910.994	8637.7
911.307	8648.77
911.619	8545.5
911.932	8504.37
912.244	8417.82
912.557	8476.12
912.869	8389.12
913.181	8365.61
913.494	8322
913.806	8298.5
914.118	8226.18
914.43	8250.59
914.742	8250.81
915.054	8173.08
915.366	8141.44
915.678	8094.89
915.99	8062.34
916.302	8049.92
916.613	7969.47
916.925	7984.15
917.236	7954.55
917.548	7858.73
917.859	7886.98
918.171	7798.17
918.482	7836.59
918.794	7719.53
919.105	7780.54
919.416	7668.68
919.727	7684.28
920.038	7750.94
920.349	7626.42
920.66	7571.96
920.971	7549.82
921.282	7508.46
921.593	7486.54
921.903	7465.3
922.214	7444.51
922.525	7417.62
922.835	7354.79
923.146	7317.05
923.456	7312.99
923.767	7220.11
924.077	7252.2
924.387	7160.9
924.697	7213.33
925.008	7144.63
925.318	7070.51
925.628	7069.38
925.938	7070.96
926.248	7035.48
926.558	7000.9
926.867	7005.65
927.177	6945.99
927.487	6942.83
927.796	6840
928.106	6828.7
928.416	6767.69
928.725	6830.06
929.034	6693.34
929.344	6743.96
929.653	6771.98
929.962	6693.11
930.271	6669.84
930.581	6642.49
930.89	6644.08
931.199	6531.54
931.508	6538.09
931.817	6536.28
932.125	6511.42
932.434	6448.83
932.743	6401.6
933.051	6387.81
933.36	6378.77
933.669	6363.86
933.977	6362.28
934.286	6336.74
934.594	6297.42
934.902	6263.97
935.21	6251.77
935.519	6217.2
935.827	6224.2
936.135	6102.62
936.443	6128.84
936.751	6085.9
937.059	6073.92
937.367	6074.15
937.674	6028.05
937.982	5977.65
938.29	5997.09
938.597	5962.06
938.905	5888.84
939.213	5875.74
939.52	5825.79
939.827	5915.06
940.135	5812.69
940.442	5828.28
940.749	5772.24
941.056	5740.37
941.363	5676.64
941.67	5681.84
941.977	5628.74
942.284	5568.4
942.591	5566.82
942.898	5565.91
943.205	5548.96
943.511	5519.81
943.818	5542.18
944.125	5539.25
944.431	5497.21
944.738	5466.48
945.044	5449.53
945.35	5367.05
945.657	5332.92
945.963	5355.07
946.269	5328.41
946.575	5290.67
946.881	5274.17
947.187	5258.35
947.493	5216.09
947.799	5248.63
948.105	5204.11
948.41	5148.3
948.716	5140.61
949.022	5156.21
949.327	5119.6
949.633	5091.35
949.938	5048.41
950.244	5076.43
950.549	5044.12
950.854	4990.79
951.16	4967.96
951.465	4976.78
951.77	4951.92
952.075	4905.14
952.38	4897.68
952.685	4922.31
952.99	4816.78
953.294	4808.19
953.599	4773.17
953.904	4745.14
954.209	4788.98
954.513	4726.84
954.818	4723.9
955.122	4704.92
955.426	4726.16
955.731	4656.56
956.035	4688.42
956.339	4654.75
956.643	4622.89
956.948	4541.99
957.252	4546.96
957.556	4556.9
957.86	4525.49
958.163	4456.79
958.467	4496.11
958.771	4502.44
959.075	4457.69
959.378	4443.46
959.682	4406.85
959.985	4358.26
960.289	4368.2
960.592	4334.98
960.896	4331.37
961.199	4330.01
961.502	4319.84
961.805	4263.35
962.108	4253.63
962.411	4206.85
962.714	4245.95
963.017	4266.96
963.32	4226.06
963.623	4143.58
963.926	4193.97
964.228	4106.52
964.531	4116.69
964.833	4082.79
965.136	4083.24
965.438	4053.64
965.741	4014.32
966.043	4032.17
966.345	4047.99
966.648	3994.43
966.95	3965.73
967.252	3934.77
967.554	3953.98
967.856	3938.16
968.158	3855.45
968.46	3864.94
968.761	3873.75
969.063	3839.4
969.365	3845.05
969.666	3840.08
969.968	3771.84
970.269	3790.37
970.571	3771.38
970.872	3745.62
971.174	3750.59
971.475	3731.84
971.776	3668.34
972.077	3674.66
972.378	3684.15
972.679	3644.61
972.98	3624.95
973.281	3682.12
973.582	3634.66
973.883	3584.27
974.183	3576.59
974.484	3553.31
974.785	3536.81
975.085	3512.63
975.386	3522.35
975.686	3518.28
975.986	3500.43
976.287	3479.41
976.587	3441.9
976.887	3405.52
977.187	3423.6
977.487	3425.4
977.787	3410.49
978.087	3379.53
978.387	3403.26
978.687	3364.39
978.987	3340.66
979.286	3329.81
979.586	3310.15
979.885	3302.24
980.185	3256.37
980.484	3221.57
980.784	3266.99
981.083	3269.48
981.382	3220.21
981.682	3225.86
981.981	3195.58
982.28	3158.29
982.579	3153.32
982.878	3109.48
983.177	3109.93
983.475	3094.11
983.774	3102.47
984.073	3122.36
984.372	3073.32
984.67	3083.49
984.969	3025.87
985.267	3053.44
985.566	3001.01
985.864	3001.23
986.162	2998.75
986.461	2956.72
986.759	2922.59
987.057	2934.57
987.355	2956.72
987.653	2890.73
987.951	2930.05
988.249	2925.08
988.547	2867.45
988.844	2860
989.142	2834.01
989.44	2843.5
989.737	2798.08
990.035	2808.92
990.332	2781.58
990.63	2758.53
990.927	2730.28
991.224	2758.3
991.521	2720.56
991.819	2722.15
992.116	2721.47
992.413	2695.25
992.71	2721.24
993.006	2669.27
993.303	2684.63
993.6	2668.81
993.897	2640.34
994.193	2643.28
994.49	2593.79
994.787	2593.79
995.083	2616.61
995.379	2569.83
995.676	2547.91
995.972	2532.77
996.268	2544.98
996.565	2544.75
996.861	2472.21
997.157	2496.39
997.453	2507.46
997.749	2473.79
998.044	2459.1
998.34	2416.62
998.636	2423.62
998.932	2421.14
999.227	2437.41
999.523	2416.84
999.818	2399.22
1000.114	2402.15
1000.409	2406.22
1000.704	2348.6
1001	2335.72
1001.295	2288.26
1001.59	2325.32
1001.885	2300.46
1002.18	2282.16
1002.475	2284.87
1002.77	2235.83
1003.065	2218.2
1003.359	2250.75
1003.654	2195.83
1003.949	2213.01
1004.243	2212.1
1004.538	2209.39
1004.832	2170.3
1005.127	2178.88
1005.421	2139.56
1005.715	2136.4
1006.009	2154.48
1006.304	2117.19
1006.598	2127.36
1006.892	2100.02
1007.186	2064.08
1007.48	2060.02
1007.773	2046.46
1008.067	1995.61
1008.361	2010.75
1008.655	1995.16
1008.948	2001.94
1009.242	1989.06
1009.535	1972.56
1009.829	1936.86
1010.122	1923.3
1010.415	1977.08
1010.708	1966.69
1011.001	1948.38
1011.295	1930.98
1011.588	1897.99
1011.881	1896.63
1012.173	1899.12
1012.466	1861.6
1012.759	1864.54
1013.052	1829.97
1013.344	1859.57
1013.637	1833.36
1013.93	1803.75
1014.222	1813.02
1014.514	1797.65
1014.807	1782.51
1015.099	1754.71
1015.391	1749.06
1015.683	1745.9
1015.976	1744.54
1016.268	1703.87
1016.56	1714.94
1016.851	1715.62
1017.143	1668.61
1017.435	1693.25
1017.727	1674.04
1018.018	1648.28
1018.31	1628.16
1018.602	1617.77
1018.893	1619.58
1019.185	1587.71
1019.476	1603.08
1019.767	1595.17
1020.058	1585.9
1020.35	1565.57
1020.641	1554.72
1020.932	1547.49
1021.223	1585
1021.514	1556.98
1021.804	1532.8
1022.095	1522.18
1022.386	1524.21
1022.677	1517.66
1022.967	1476.3
1023.258	1495.96
1023.548	1469.3
1023.839	1444.44
1024.129	1469.3
1024.419	1430.43
1024.709	1439.92
1025	1444.67
1025.29	1403.08
1025.58	1381.84
1025.87	1367.83
1026.16	1379.81
1026.449	1372.12
1026.739	1380.26
1027.029	1358.34
1027.319	1341.84
1027.608	1324.22
1027.898	1332.8
1028.187	1328.51
1028.477	1293.93
1028.766	1319.92
1029.055	1286.93
1029.344	1276.53
1029.634	1283.31
1029.923	1290.77
1030.212	1236.76
1030.501	1257.78
1030.79	1229.3
1031.078	1254.16
1031.367	1193.82
1031.656	1208.74
1031.945	1203.77
1032.233	1198.12
1032.522	1201.06
1032.81	1202.86
1033.099	1171.23
1033.387	1159.48
1033.675	1144.79
1033.963	1152.92
1034.251	1175.75
1034.54	1155.41
1034.828	1148.85
1035.116	1151.79
1035.403	1082.42
1035.691	1119.25
1035.979	1114.5
1036.267	1078.57
1036.554	1099.14
1036.842	1072.25
1037.129	1091
1037.417	1069.08
1037.704	1064.56
1037.992	1031.12
1038.279	1040.61
1038.566	1053.72
1038.853	1053.72
1039.14	1053.72
