Data from hue_280_FLMS001491_00098.txt Node
Date: Tue Feb 07 15:56:09 GMT 2017
User: dcchb
Spectrometer: FLMS00149
Trigger mode: 0
Integration Time (sec): 2.000000E-2
Scans to average: 10
Electric dark correction enabled: true
Nonlinearity correction enabled: false
Boxcar width: 0
XAxis mode: Wavelengths
Number of Pixels in Spectrum: 2048
>>>>>Begin Spectral Data<<<<<
341.393	-3.73
341.776	-3.73
342.16	-3.73
342.543	-45.08
342.927	-53.22
343.31	-64.97
343.693	-76.95
344.077	-55.03
344.46	-54.35
344.843	-75.59
345.226	-47.34
345.61	-21.81
345.993	-32.43
346.376	-3.95
346.759	22.03
347.142	34.46
347.525	60.22
347.908	50.73
348.291	75.59
348.674	82.14
349.057	107.23
349.44	129.6
349.823	136.38
350.206	152.2
350.588	184.74
350.971	184.97
351.354	210.5
351.737	238.52
352.119	224.74
352.502	261.58
352.884	274
353.267	270.16
353.65	281.46
354.032	275.59
354.414	278.07
354.797	321.23
355.179	304.51
355.562	324.4
355.944	321.69
356.326	330.5
356.709	355.58
357.091	334.57
357.473	340.67
357.855	320.56
358.238	337.51
358.62	337.28
359.002	328.01
359.384	325.53
359.766	339.31
360.148	346.54
360.53	322.59
360.912	339.77
361.294	307.9
361.676	317.84
362.057	333.44
362.439	328.24
362.821	325.08
363.203	323.49
363.584	327.11
363.966	317.84
364.348	318.97
364.729	312.87
365.111	318.07
365.493	331.4
365.874	297.05
366.256	308.35
366.637	304.29
367.019	323.72
367.4	326.43
367.781	310.16
368.163	305.19
368.544	309.48
368.925	314.68
369.306	301.8
369.688	283.5
370.069	303.83
370.45	322.59
370.831	299.99
371.212	312.65
371.593	325.75
371.974	318.3
372.355	297.28
372.736	306.32
373.117	309.26
373.498	324.62
373.879	312.87
374.26	333.89
374.641	331.4
375.021	304.51
375.402	316.71
375.783	324.85
376.163	320.78
376.544	310.39
376.925	327.34
377.305	335.7
377.686	346.77
378.066	315.58
378.447	319.43
378.827	329.82
379.208	333.21
379.588	310.61
379.968	320.33
380.349	310.16
380.729	334.34
381.109	335.7
381.489	350.61
381.87	329.6
382.25	307.9
382.63	334.57
383.01	331.18
383.39	351.74
383.77	334.34
384.15	345.41
384.53	341.12
384.91	358.3
385.29	347.67
385.67	349.71
386.049	347.22
386.429	332.08
386.809	337.96
387.189	342.7
387.568	354.23
387.948	354.91
388.328	336.15
388.707	340.67
389.087	348.13
389.466	347.9
389.846	340.44
390.225	357.17
390.605	333.66
390.984	367.56
391.363	371.18
391.743	371.85
392.122	355.81
392.501	372.98
392.881	372.53
393.26	355.58
393.639	372.31
394.018	385.87
394.397	373.44
394.776	389.26
395.155	368.24
395.534	387.22
395.913	381.8
396.292	378.41
396.671	377.96
397.05	386.77
397.429	401.23
397.808	392.19
398.186	382.93
398.565	412.98
398.944	401.46
399.323	409.82
399.701	408.46
400.08	408.69
400.458	389.03
400.837	406.2
401.215	396.49
401.594	407.33
401.972	403.72
402.351	425.41
402.729	424.51
403.107	428.12
403.486	428.35
403.864	410.05
404.242	405.53
404.62	435.81
404.999	440.78
405.377	449.59
405.755	447.56
406.133	458.86
406.511	465.64
406.889	453.21
407.267	474.22
407.645	448.46
408.023	455.47
408.401	475.81
408.779	462.7
409.156	477.61
409.534	499.76
409.912	475.58
410.29	496.82
410.667	501.12
411.045	503.38
411.422	514.68
411.8	526.65
412.178	512.42
412.555	535.01
412.933	514.9
413.31	539.53
413.687	536.6
414.065	562.58
414.442	579.76
414.819	561.91
415.197	559.65
415.574	561.23
415.951	584.28
416.328	593.32
416.705	600.78
417.082	588.57
417.46	609.59
417.837	608.23
418.214	633.77
418.591	651.4
418.967	626.76
419.344	644.62
419.721	650.04
420.098	661.34
420.475	657.04
420.852	685.52
421.228	678.74
421.605	688.68
421.982	706.99
422.358	702.02
422.735	707.21
423.111	712.18
423.488	735.01
423.864	757.83
424.241	746.31
424.617	779.75
424.994	759.87
425.37	754.44
425.746	757.83
426.123	772.52
426.499	792.63
426.875	795.57
427.251	825.63
427.627	820.2
428.003	825.18
428.379	857.49
428.756	876.02
429.132	866.08
429.507	892.29
429.883	887.55
430.259	913.99
430.635	930.71
431.011	920.09
431.387	926.64
431.763	940.88
432.138	945.85
432.514	932.07
432.89	986.08
433.265	961.44
433.641	984.72
434.016	998.5
434.392	1027.66
434.767	1079.41
435.143	1078.5
435.518	1060.88
435.894	1075.11
436.269	1092.06
436.644	1135.45
437.02	1144.49
437.395	1116.47
437.77	1133.42
438.145	1137.71
438.52	1165.05
438.895	1196.24
439.271	1174.09
439.646	1208.89
440.021	1225.39
440.395	1224.71
440.77	1232.85
441.145	1254.54
441.52	1261.55
441.895	1301.32
442.27	1298.16
442.645	1293.19
443.019	1305.39
443.394	1314.65
443.769	1331.15
444.143	1327.99
444.518	1340.42
444.892	1334.54
445.267	1343.81
445.641	1348.1
446.016	1373.18
446.39	1402.79
446.764	1376.35
447.139	1386.52
447.513	1420.19
447.887	1385.61
448.262	1393.07
448.636	1420.87
449.01	1438.04
449.384	1454.09
449.758	1433.3
450.132	1431.04
450.506	1466.74
450.88	1462
451.254	1464.26
451.628	1494.31
452.002	1497.25
452.376	1534.31
452.75	1541.99
453.123	1506.06
453.497	1556.46
453.871	1554.65
454.244	1567.08
454.618	1615.89
454.992	1588.77
455.365	1609.11
455.739	1615.44
456.112	1628.09
456.486	1638.94
456.859	1660.63
457.232	1692.95
457.606	1669.9
457.979	1704.02
458.352	1763.23
458.725	1761.65
459.099	1702.67
459.472	1767.3
459.845	1758.03
460.218	1804.59
460.591	1828.09
460.964	1799.84
461.337	1836.45
461.71	1857.92
462.083	1927.07
462.456	1883.23
462.829	1887.97
463.201	1930.01
463.574	1903.11
463.947	1969.55
464.32	1959.16
464.692	1966.39
465.065	1991.25
465.438	2005.48
465.81	2033.51
466.183	2051.36
466.555	2096.33
466.928	2097.01
467.3	2101.98
467.672	2144.46
468.045	2191.47
468.417	2184.46
468.789	2206.16
469.161	2197.57
469.534	2198.47
469.906	2257.45
470.278	2295.65
470.65	2287.06
471.022	2334.97
471.394	2346.27
471.766	2365.93
472.138	2366.6
472.51	2430.33
472.882	2443.21
473.253	2475.3
473.625	2508.07
473.997	2548.29
474.369	2561.18
474.74	2566.15
475.112	2612.02
475.484	2656.09
475.855	2651.34
476.227	2707.16
476.598	2742.64
476.97	2729.53
477.341	2773.83
477.713	2835.97
478.084	2847.04
478.455	2954.39
478.827	2874.39
479.198	2998.9
479.569	2967.49
479.94	3047.26
480.311	3088.17
480.682	3094.04
481.053	3151.44
481.424	3205.45
481.795	3250.87
482.166	3267.82
482.537	3273.47
482.908	3334.26
483.279	3390.53
483.65	3402.28
484.021	3472.56
484.391	3482.96
484.762	3477.08
485.133	3522.51
485.503	3567.02
485.874	3642.05
486.244	3701.48
486.615	3685.44
486.985	3781.48
487.356	3781.93
487.726	3812.67
488.097	3835.04
488.467	3879.33
488.837	3922.04
489.207	3987.35
489.578	3986.45
489.948	4037.29
490.318	4083.17
490.688	4130.63
491.058	4143.28
491.428	4115.26
491.798	4222.15
492.168	4267.35
492.538	4254.46
492.908	4316.84
493.278	4385.99
493.648	4387.57
494.017	4359.09
494.387	4450.84
494.757	4430.05
495.126	4527.9
495.496	4488.81
495.866	4531.07
496.235	4548.69
496.605	4556.83
496.974	4620.33
497.344	4659.2
497.713	4630.27
498.082	4656.49
498.452	4678.18
498.821	4698.07
499.19	4720.89
499.559	4708.92
499.928	4791.4
500.298	4814.45
500.667	4839.08
501.036	4824.39
501.405	4866.43
501.774	4873.66
502.143	4930.6
502.512	4919.31
502.88	4927.67
503.249	4975.8
503.618	4934.9
503.987	4973.09
504.356	5040.66
504.724	4975.8
505.093	5029.13
505.462	5024.16
505.83	5011.51
506.199	5105.74
506.567	5078.17
506.936	5124.72
507.304	5139.41
507.672	5200.2
508.041	5185.97
508.409	5218.28
508.777	5211.5
509.145	5280.65
509.514	5203.37
509.882	5249.24
510.25	5272.97
510.618	5283.36
510.986	5322.01
511.354	5307.32
511.722	5336.47
512.09	5400.2
512.458	5340.09
512.826	5377.6
513.193	5375.56
513.561	5394.77
513.929	5439.29
514.297	5467.54
514.664	5459.4
515.032	5472.51
515.4	5508.22
515.767	5545.96
516.135	5520.42
516.502	5457.14
516.869	5600.64
517.237	5623.02
517.604	5587.08
517.972	5645.61
518.339	5657.59
518.706	5653.98
519.073	5602
519.44	5644.48
519.808	5655.11
520.175	5665.73
520.542	5746.85
520.909	5761.09
521.276	5736.01
521.643	5767.42
522.009	5750.92
522.376	5804.71
522.743	5776.01
523.11	5878.38
523.477	5866.4
523.843	5854.42
524.21	5890.81
524.577	5954.53
524.943	5976.68
525.31	5967.64
525.676	5975.1
526.043	6045.15
526.409	6043.8
526.776	6094.19
527.142	6095.32
527.508	6071.14
527.874	6122.44
528.241	6131.7
528.607	6147.3
528.973	6163.11
529.339	6163.11
529.705	6215.09
530.071	6248.99
530.437	6275.43
530.803	6313.85
531.169	6330.12
531.535	6318.59
531.901	6297.35
532.267	6307.29
532.632	6385.71
532.998	6356.1
533.364	6379.38
533.73	6380.06
534.095	6431.13
534.461	6448.31
534.826	6445.59
535.192	6518.13
535.557	6511.58
535.923	6537.79
536.288	6544.12
536.653	6539.15
537.019	6517.68
537.384	6599.71
537.749	6587.28
538.114	6589.54
538.479	6588.41
538.845	6600.62
539.21	6579.83
539.575	6650.33
539.94	6592.03
540.305	6677.9
540.67	6655.76
541.034	6639.71
541.399	6682.42
541.764	6700.05
542.129	6749.09
542.494	6712.7
542.858	6767.17
543.223	6760.16
543.587	6718.81
543.952	6763.1
544.316	6733.95
544.681	6715.64
545.045	6806.71
545.41	6841.29
545.774	6792.25
546.138	6816.88
546.503	6824.11
546.867	6894.85
547.231	6894.85
547.595	6937.56
547.959	6859.37
548.324	6895.52
548.688	6955.18
549.052	6944.56
549.416	6923.09
549.779	6937.11
550.143	6889.2
550.507	7002.19
550.871	6958.12
551.235	6965.35
551.599	6986.14
551.962	7010.32
552.326	7002.19
552.689	7042.41
553.053	7020.49
553.417	7013.26
553.78	7096.88
554.143	7088.74
554.507	7082.64
554.87	7127.38
555.234	7160.6
555.597	7126.48
555.96	7139.36
556.323	7147.5
556.686	7149.08
557.05	7216.65
557.413	7225.46
557.776	7258
558.139	7194.05
558.502	7266.59
558.865	7250.54
559.228	7269.07
559.59	7298.9
559.953	7347.26
560.316	7416.42
560.679	7349.98
561.041	7450.31
561.404	7467.04
561.767	7509.07
562.129	7450.09
562.492	7567.82
562.854	7471.1
563.217	7474.04
563.579	7519.24
563.941	7617.09
564.304	7576.64
564.666	7593.81
565.028	7613.25
565.39	7637.43
565.753	7678.33
566.115	7700.48
566.477	7688.72
566.839	7746.35
567.201	7807.59
567.563	7829.51
567.925	7819.34
568.287	7796.74
568.648	7858.66
569.01	7824.77
569.372	7942.28
569.734	7927.81
570.095	8029.28
570.457	8037.64
570.819	8086
571.18	8037.64
571.542	8064.99
571.903	8109.5
572.265	8171.42
572.626	8166.45
572.987	8150.41
573.349	8235.38
573.71	8248.26
574.071	8274.92
574.432	8297.75
574.794	8383.17
575.155	8428.59
575.516	8404.86
575.877	8469.95
576.238	8478.76
576.599	8516.05
576.96	8577.74
577.32	8608.93
577.681	8557.4
578.042	8653.9
578.403	8553.33
578.763	8685.31
579.124	8781.8
579.485	8784.97
579.845	8824.51
580.206	8864.74
580.566	8918.75
580.927	8974.34
581.287	8992.42
581.648	9045.98
582.008	9138.86
582.368	9127.33
582.728	9223.37
583.089	9206.88
583.449	9253.43
583.809	9293.2
584.169	9378.62
584.529	9448.23
584.889	9518.05
585.249	9532.74
585.609	9523.48
585.969	9628.33
586.329	9651.16
586.688	9780.87
587.048	9812.96
587.408	9886.86
587.768	9944.94
588.127	9962.79
588.487	10053.41
588.846	10237.58
589.206	10123.69
589.565	10192.39
589.925	10263.57
590.284	10306.28
590.643	10465.37
591.003	10532.27
591.362	10595.31
591.721	10637.12
592.08	10708.31
592.44	10796.89
592.799	10868.08
593.158	10859.26
593.517	11009.99
593.876	11109.2
594.235	11071.69
594.593	11130.67
594.952	11246.37
595.311	11219.7
595.67	11317.1
596.029	11440.72
596.387	11517.55
596.746	11518.45
597.104	11517.78
597.463	11660.82
597.822	11769.75
598.18	11730.65
598.538	11776.3
598.897	11862.4
599.255	11826.24
599.613	12023.53
599.972	11984.43
600.33	12062.85
600.688	12113.47
601.046	12211.09
601.404	12301.26
601.762	12266.46
602.12	12393.69
602.478	12452.44
602.836	12444.98
603.194	12485.66
603.552	12468.03
603.91	12552.78
604.268	12588.03
604.625	12490.18
604.983	12733.34
605.341	12693.34
605.698	12683.4
606.056	12811.3
606.413	12830.06
606.771	12900.79
607.128	12941.24
607.485	12873.22
607.843	12977.17
608.2	13071.41
608.557	13133.1
608.914	13128.81
609.272	13190.73
609.629	13240.44
609.986	13233.44
610.343	13218.75
610.7	13358.63
611.057	13385.52
611.414	13294.23
611.771	13391.85
612.127	13480.89
612.484	13519.98
612.841	13554.11
613.198	13512.75
613.554	13458.29
613.911	13632.3
614.267	13601.11
614.624	13661.9
614.98	13713.2
615.337	13851.05
615.693	13748.23
616.05	13687.66
616.406	13843.59
616.762	13756.14
617.118	13810.15
617.475	13913.87
617.831	13908
618.187	13943.48
618.543	13957.26
618.899	14069.35
619.255	14025.73
619.611	13943.25
619.967	14023.47
620.323	14052.62
620.678	13970.59
621.034	14026.41
621.39	14054.88
621.746	13980.54
622.101	14183.24
622.457	14127.65
622.812	14150.48
623.168	14127.43
623.523	14241.32
623.879	14231.6
624.234	14098.73
624.589	14159.29
624.945	14214.65
625.3	14243.81
625.655	14147.76
626.01	14209.23
626.365	14309.12
626.72	14202.45
627.075	14226.86
627.43	14243.58
627.785	14227.99
628.14	14225.73
628.495	14321.09
628.85	14305.27
629.205	14224.6
629.559	14257.59
629.914	14208.78
630.269	14317.7
630.623	14331.26
630.978	14239.29
631.332	14345.95
631.687	14314.76
632.041	14187.76
632.396	14274.09
632.75	14102.34
633.104	14174.43
633.459	14208.1
633.813	14113.87
634.167	14094.21
634.521	14156.35
634.875	14145.5
635.229	14192.51
635.583	14046.3
635.937	14081.55
636.291	14104.15
636.645	14058.27
636.999	14023.25
637.352	14030.93
637.706	13931.95
638.06	14065.51
638.413	13960.2
638.767	13996.13
639.121	13945.96
639.474	13872.74
639.828	13995
640.181	13939.86
640.534	13921.33
640.888	13902.12
641.241	13849.92
641.594	13841.1
641.947	13991.16
642.301	13901.67
642.654	13919.07
643.007	13889.01
643.36	13854.66
643.713	13906.64
644.066	13906.19
644.419	13799.98
644.771	13748.23
645.124	13630.72
645.477	13621
645.83	13545.52
646.182	13509.81
646.535	13472.98
646.888	13482.7
647.24	13372.42
647.593	13433.43
647.945	13398.18
648.298	13409.93
648.65	13437.5
649.002	13367.22
649.355	13500.77
649.707	13442.25
650.059	13507.1
650.411	13680.66
650.763	13720.66
651.115	13872.06
651.467	13755.23
651.819	13788
652.171	13724.27
652.523	13719.53
652.875	13808.11
653.227	13712.52
653.578	13779.64
653.93	13770.6
654.282	13712.29
654.633	13619.42
654.985	13759.53
655.337	13720.88
655.688	13817.83
656.039	13816.92
656.391	13689.47
656.742	13669.36
657.094	13827.32
657.445	13681.11
657.796	13721.33
658.147	13616.25
658.498	13686.31
658.849	13745.74
659.2	13778.51
659.551	13780.32
659.902	13824.61
660.253	13726.08
660.604	13722.69
660.955	13691.73
661.306	13773.99
661.656	13805.63
662.007	13828
662.358	13761.56
662.708	13832.52
663.059	13775.8
663.409	13731.05
663.76	13785.74
664.11	13810.37
664.461	13879.97
664.811	13851.73
665.161	13813.99
665.511	13755.01
665.862	13888.79
666.212	13833.87
666.562	13885.17
666.912	13881.56
667.262	13860.77
667.612	13860.99
667.962	13863.03
668.312	13889.01
668.662	13949.8
669.011	13781.67
669.361	13877.26
669.711	13886.3
670.06	13770.6
670.41	13802.24
670.76	13794.1
671.109	13826.64
671.459	13837.04
671.808	13791.39
672.157	13826.19
672.507	13762.69
672.856	13728.79
673.205	13732.63
673.554	13852.63
673.904	13708.91
674.253	13826.87
674.602	13713.42
674.951	13554.56
675.3	13417.16
675.649	13646.08
675.998	13717.72
676.346	13550.94
676.695	13643.82
677.044	13627.1
677.393	13668.91
677.741	13603.37
678.09	13612.64
678.438	13582.35
678.787	13604.95
679.135	13589.13
679.484	13508.23
679.832	13553.43
680.181	13428.01
680.529	13475.92
680.877	13423.71
681.225	13395.24
681.573	13467.1
681.922	13426.2
682.27	13338.75
682.618	13364.73
682.966	13257.62
683.314	13371.29
683.661	13341.91
684.009	13245.19
684.357	13196.83
684.705	13205.19
685.053	13162.93
685.4	13216.94
685.748	13116.38
686.095	13001.81
686.443	13084.97
686.79	13011.97
687.138	13056.72
687.485	13031.41
687.832	12985.99
688.18	12946.21
688.527	12894.92
688.874	12871.19
689.221	12848.59
689.568	12829.61
689.915	12730.85
690.262	12769.95
690.609	12655.83
690.956	12633.68
691.303	12625.32
691.65	12651.08
691.997	12624.64
692.344	12417.87
692.69	12485.89
693.037	12402.5
693.383	12363.18
693.73	12433.23
694.077	12327.7
694.423	12309.62
694.769	12284.99
695.116	12205.44
695.462	12173.8
695.808	12098.78
696.155	12179.91
696.501	12053.36
696.847	12019.46
697.193	11899.46
697.539	11994.83
697.885	11799.8
698.231	11846.58
698.577	11857.65
698.923	11808.84
699.269	11782.4
699.614	11678.22
699.96	11671.44
700.306	11626.02
700.651	11587.6
700.997	11480.72
701.342	11488.17
701.688	11453.82
702.033	11429.87
702.379	11405.69
702.724	11280.27
703.069	11311.45
703.415	11181.51
703.76	11200.27
704.105	11222.42
704.45	11113.49
704.795	11041.18
705.14	11020.84
705.485	11000.28
705.83	10973.16
706.175	11016.77
706.52	10916.66
706.865	10899.04
707.209	10923.44
707.554	10880.96
707.899	10837.57
708.243	10818.36
708.588	10702.43
708.932	10685.71
709.277	10678.48
709.621	10669.21
709.966	10639.38
710.31	10605.71
710.654	10518.93
710.998	10523.45
711.342	10560.97
711.687	10525.26
712.031	10496.11
712.375	10453.4
712.719	10504.02
713.063	10454.53
713.407	10466.73
713.75	10367.98
714.094	10407.75
714.438	10325.04
714.782	10405.72
715.125	10334.98
715.469	10338.6
715.812	10164.82
716.156	10217.47
716.499	10261.31
716.843	10140.41
717.186	10134.54
717.53	10229.9
717.873	10242.78
718.216	10195.55
718.559	10122.78
718.902	10067.42
719.246	10137.02
719.589	10020.64
719.932	10040.75
720.275	10044.37
720.617	10020.87
720.96	10008.89
721.303	9958.95
721.646	9972.73
721.989	9972.28
722.331	9994.88
722.674	10001.43
723.016	9920.08
723.359	9939.06
723.701	9909.23
724.044	9866.75
724.386	9868.1
724.729	9919.4
725.071	9909
725.413	9844.83
725.755	9845.5
726.097	9850.48
726.439	9771.38
726.782	9782.45
727.124	9865.84
727.465	9744.72
727.807	9774.09
728.149	9794.21
728.491	9687.54
728.833	9763.25
729.175	9786.07
729.516	9796.24
729.858	9764.83
730.199	9831.72
730.541	9800.53
730.882	9775.68
731.224	9809.35
731.565	9751.5
731.906	9751.95
732.248	9758.5
732.589	9709.24
732.93	9756.69
733.271	9757.6
733.612	9702.46
733.953	9700.65
734.294	9700.2
734.635	9737.03
734.976	9769.57
735.317	9673.98
735.658	9715.56
735.999	9700.65
736.339	9724.38
736.68	9657.03
737.021	9739.52
737.361	9674.43
737.702	9766.86
738.042	9697.03
738.383	9715.79
738.723	9776.58
739.063	9671.72
739.404	9733.64
739.744	9783.81
740.084	9681.67
740.424	9748.56
740.764	9794.43
741.104	9777.26
741.444	9744.26
741.784	9802.57
742.124	9753.53
742.464	9818.16
742.804	9817.03
743.143	9848.44
743.483	9880.08
743.823	9906.29
744.162	9867.42
744.502	9939.96
744.841	9988.55
745.181	10080.07
745.52	9963.92
745.86	10129.11
746.199	10046.85
746.538	10126.63
746.877	10200.52
747.216	10252.27
747.556	10245.95
747.895	10334.53
748.234	10338.37
748.573	10402.55
748.911	10448.2
749.25	10568.2
749.589	10515.09
749.928	10701.75
750.267	10733.16
750.605	10755.76
750.944	10854.74
751.283	10879.83
751.621	10993.5
751.96	11046.6
752.298	11195.52
752.636	11207.5
752.975	11317.56
753.313	11349.19
753.651	11537.44
753.989	11584.67
754.327	11747.83
754.666	11762.06
755.004	11946.69
755.342	12031.44
755.679	12232.11
756.017	12315.27
756.355	12404.31
756.693	12395.27
757.031	12725.43
757.368	12700.12
757.706	12837.52
758.044	13027.57
758.381	13117.06
758.719	13272.08
759.056	13493.77
759.394	13585.29
759.731	13578.06
760.068	13750.71
760.405	13862.35
760.743	13964.72
761.08	14185.28
761.417	14328.1
761.754	14390.47
762.091	14652.16
762.428	14727.64
762.765	14815.99
763.102	14989.78
763.438	15056.44
763.775	15173.27
764.112	15365.81
764.449	15548.18
764.785	15569.87
765.122	15673.83
765.458	15774.16
765.795	15942.29
766.131	16091.89
766.467	16170.08
766.804	16211.44
767.14	16278.78
767.476	16443.97
767.812	16587.93
768.148	16801.03
768.485	16699.79
768.821	16757.19
769.157	16960.35
769.492	16982.49
769.828	17075.6
770.164	17039.21
770.5	17137.06
770.836	17201.92
771.171	17216.84
771.507	17342.71
771.842	17243.28
772.178	17480.78
772.513	17429.71
772.849	17611.63
773.184	17632.87
773.519	17642.36
773.855	17702.47
774.19	17663.83
774.525	17749.7
774.86	17826.76
775.195	17887.33
775.53	17846.88
775.865	17805.52
776.2	17841.9
776.535	17718.97
776.87	17845.52
777.205	17945.86
777.539	17817.5
777.874	17880.55
778.209	17852.3
778.543	17838.06
778.878	17817.27
779.212	17919.64
779.547	17969.13
779.881	17885.74
780.215	17886.42
780.55	17956.25
780.884	17800.32
781.218	17851.17
781.552	17939.98
781.886	17883.03
782.22	17807.78
782.554	17724.39
782.888	17733.21
783.222	17669.93
783.556	17710.38
783.889	17664.06
784.223	17568.01
784.557	17634.68
784.89	17714.68
785.224	17608.69
785.557	17526.21
785.891	17528.69
786.224	17498.18
786.558	17550.61
786.891	17379.77
787.224	17380.45
787.557	17269.72
787.891	17390.84
788.224	17400.11
788.557	17311.07
788.89	17277.62
789.223	17316.49
789.556	17222.94
789.888	17219.77
790.221	17181.13
790.554	17109.04
790.887	17070.62
791.219	16974.81
791.552	17072.21
791.884	16877.86
792.217	16932.78
792.549	16827.47
792.882	16730.75
793.214	16673.12
793.546	16794.7
793.879	16716.28
794.211	16678.09
794.543	16657.3
794.875	16669.51
795.207	16548.83
795.539	16571.43
795.871	16499.57
796.203	16363.52
796.535	16319.46
796.867	16390.87
797.198	16317.65
797.53	16406.91
797.862	16299.12
798.193	16293.24
798.525	16103.19
798.856	16174.15
799.188	15959.92
799.519	16028.84
799.85	15920.15
800.182	15933.71
800.513	15892.58
800.844	15798.57
801.175	15839.47
801.506	15801.51
801.837	15711.11
802.168	15680.6
802.499	15712.47
802.83	15618.91
803.161	15533.04
803.491	15534.85
803.822	15569.87
804.153	15392.25
804.483	15325.36
804.814	15281.97
805.145	15380.27
805.475	15347.73
805.805	15163.78
806.136	15230
806.466	15240.84
806.796	15247.62
807.126	15076.1
807.457	15034.52
807.787	15004.46
808.117	14956.78
808.447	14951.13
808.777	14947.06
809.107	14926.73
809.436	14904.58
809.766	14857.35
810.096	14866.39
810.426	14829.1
810.755	14724.47
811.085	14737.8
811.414	14710.23
811.744	14597.7
812.073	14646.73
812.403	14658.26
812.732	14496.91
813.061	14472.05
813.39	14392.95
813.719	14461.65
814.049	14499.17
814.378	14424.14
814.707	14277.7
815.036	14282
815.365	14329
815.693	14108.22
816.022	14220.53
816.351	14189.12
816.68	14111.15
817.008	14173.3
817.337	14066.64
817.665	14056.92
817.994	14058.27
818.322	14087.43
818.651	13974.66
818.979	13916.13
819.307	14010.14
819.636	13918.62
819.964	13875.68
820.292	13845.17
820.62	13825.96
820.948	13819.18
821.276	13872.06
821.604	13823.7
821.932	13855.34
822.259	13893.98
822.587	13759.3
822.915	13705.74
823.243	13854.89
823.57	13731.73
823.898	13773.31
824.225	13778.73
824.553	13727.44
824.88	13741.45
825.207	13743.93
825.535	13698.51
825.862	13732.41
826.189	13680.21
826.516	13786.64
826.843	13835.91
827.17	13774.67
827.497	13868
827.824	13842.69
828.151	13811.95
828.478	13891.73
828.805	13811.05
829.131	13817.38
829.458	13803.59
829.785	13721.79
830.111	13779.86
830.438	13836.13
830.764	13819.18
831.09	13809.92
831.417	13674.33
831.743	13773.76
832.069	13730.83
832.395	13619.42
832.722	13741.9
833.048	13755.01
833.374	13717.94
833.7	13533.09
834.026	13656.48
834.351	13755.46
834.677	13673.2
835.003	13686.31
835.329	13602.92
835.654	13588.46
835.98	13563.37
836.306	13565.63
836.631	13505.97
836.956	13558.17
837.282	13574.67
837.607	13452.64
837.932	13500.77
838.258	13513.43
838.583	13501.9
838.908	13352.53
839.233	13401.57
839.558	13373.32
839.883	13345.3
840.208	13389.14
840.533	13313.44
840.858	13277.28
841.182	13288.58
841.507	13319.76
841.832	13184.17
842.156	13196.83
842.481	13203.38
842.805	13189.82
843.13	13138.98
843.454	13086.32
843.778	12962.94
844.103	13020.34
844.427	12994.35
844.751	12996.61
845.075	12902.6
845.399	12903.73
845.723	12834.8
846.047	12953.22
846.371	12742.83
846.695	12795.26
847.019	12687.46
847.343	12635.26
847.666	12567.47
847.99	12500.58
848.313	12457.19
848.637	12386
848.96	12365.21
849.284	12302.39
849.607	12263.29
849.931	12146.23
850.254	12085.44
850.577	11988.72
850.9	11998.22
851.223	11970.87
851.546	11884.55
851.869	11870.99
852.192	11899.46
852.515	11786.92
852.838	11749.18
853.161	11729.75
853.483	11710.77
853.806	11679.35
854.129	11616.3
854.451	11594.16
854.774	11529.08
855.096	11482.3
855.419	11481.17
855.741	11476.42
856.063	11379.7
856.385	11314.62
856.708	11352.58
857.03	11254.51
857.352	11317.1
857.674	11194.85
857.996	11123.89
858.318	11181.29
858.64	11127.96
858.961	11109.43
859.283	11116.88
859.605	10999.37
859.926	11029.88
860.248	10979.26
860.57	10944.91
860.891	10951.24
861.212	10862.43
861.534	10880.5
861.855	10830.11
862.176	10827.4
862.498	10842.99
862.819	10852.26
863.14	10766.61
863.461	10800.28
863.782	10763.9
864.103	10768.42
864.424	10680.51
864.745	10747.63
865.065	10685.26
865.386	10636.67
865.707	10621.53
866.027	10598.93
866.348	10582.43
866.668	10633.51
866.989	10534.3
867.309	10453.62
867.63	10555.32
867.95	10478.26
868.27	10488.42
868.59	10450.91
868.91	10457.01
869.23	10403.91
869.55	10377.02
869.87	10377.02
870.19	10383.57
870.51	10291.37
870.83	10388.99
871.15	10277.13
871.469	10274.42
871.789	10250.01
872.109	10316.9
872.428	10230.13
872.748	10273.06
873.067	10190.81
873.386	10241.43
873.706	10150.35
874.025	10146.51
874.344	10097.25
874.663	10081.43
874.982	10054.31
875.301	10112.62
875.62	10037.14
875.939	10001.43
876.258	10083.69
876.577	10022.45
876.896	9996.01
877.214	9988.32
877.533	10026.97
877.852	9966.4
878.17	10058.61
878.489	9989.91
878.807	10006.63
879.125	9934.54
879.444	9897.93
879.762	9873.07
880.08	9876.24
880.398	9840.53
880.716	9838.95
881.034	9822.45
881.352	9778.16
881.67	9795.56
881.988	9804.37
882.306	9699.97
882.624	9653.87
882.941	9605.51
883.259	9652.06
883.577	9651.38
883.894	9657.03
884.212	9569.8
884.529	9567.55
884.846	9501.78
885.164	9514.44
885.481	9455.46
885.798	9511.95
886.115	9418.17
886.432	9406.42
886.75	9335.01
887.067	9419.75
887.383	9366.87
887.7	9351.28
888.017	9254.33
888.334	9279.64
888.651	9328.46
888.967	9227.67
889.284	9168.46
889.6	9173.21
889.917	9069.93
890.233	9060.44
890.55	9048.01
890.866	9140.89
891.182	9034.23
891.498	8931.4
891.815	8976.15
892.131	8934.57
892.447	8921.23
892.763	8833.78
893.079	8890.95
893.395	8860.9
893.71	8879.43
894.026	8768.24
894.342	8772.76
894.657	8752.65
894.973	8728.25
895.289	8679.43
895.604	8630.85
895.92	8627.91
896.235	8577.29
896.55	8625.87
896.865	8553.79
897.181	8501.81
897.496	8492.77
897.811	8451.19
898.126	8466.11
898.441	8429.04
898.756	8455.03
899.071	8300.91
899.386	8326.67
899.7	8247.81
900.015	8183.85
900.33	8191.08
900.644	8135.72
900.959	8190.18
901.273	8086.91
901.588	8058.21
901.902	8118.32
902.216	8015.72
902.531	7974.59
902.845	7991.54
903.159	7926.46
903.473	7904.76
903.787	7871.32
904.101	7800.81
904.415	7827.7
904.729	7827.93
905.042	7784.99
905.356	7751.55
905.67	7696.18
905.984	7777.54
906.297	7678.1
906.611	7604.88
906.924	7639.01
907.237	7567.15
907.551	7561.27
907.864	7558.56
908.177	7528.5
908.491	7474.72
908.804	7401.27
909.117	7443.53
909.43	7328.96
909.743	7314.72
910.056	7305.68
910.368	7293.03
910.681	7267.49
910.994	7215.97
911.307	7243.31
911.619	7112.47
911.932	7138.68
912.244	7112.24
912.557	7078.8
912.869	7007.39
913.181	7105.01
913.494	7037.89
913.806	6950.89
914.118	6918.8
914.43	6899.82
914.742	6899.59
915.054	6819.82
915.366	6858.69
915.678	6778.01
915.99	6831.35
916.302	6668.86
916.613	6728.98
916.925	6668.19
917.236	6651.24
917.548	6622.31
917.859	6632.25
918.171	6574.18
918.482	6528.98
918.794	6520.39
919.105	6554.74
919.416	6493.95
919.727	6420.74
920.038	6437.23
920.349	6404.46
920.66	6397.91
920.971	6337.8
921.282	6272.49
921.593	6294.64
921.903	6280.85
922.214	6202.66
922.525	6199.95
922.835	6135.54
923.146	6125.83
923.456	6197.46
923.767	6101.42
924.077	6058.48
924.387	6091.48
924.697	6074.98
925.008	6014.42
925.318	5986.85
925.628	5886.51
925.938	5922.44
926.248	5870.24
926.558	5867.08
926.867	5827.08
927.177	5852.39
927.487	5760.87
927.796	5775.55
928.106	5710.02
928.416	5725.16
928.725	5697.36
929.034	5651.94
929.344	5702.11
929.653	5633.86
929.962	5587.99
930.271	5529.91
930.581	5557.03
930.89	5543.7
931.199	5504.6
931.508	5529.91
931.817	5516.35
932.125	5461.21
932.434	5452.85
932.743	5385.73
933.051	5372.85
933.36	5404.04
933.669	5359.75
933.977	5328.33
934.286	5253.08
934.594	5282.91
934.902	5226.42
935.21	5217.83
935.519	5222.8
935.827	5224.83
936.135	5201.11
936.443	5130.83
936.751	5108.23
937.059	5093.99
937.367	5067.32
937.674	5055.12
937.982	5064.16
938.29	5019.42
938.597	5030.94
938.905	4987.33
939.213	4898.52
939.52	4913.66
939.827	4932.86
940.135	4896.03
940.442	4886.76
940.749	4835.24
941.056	4807.9
941.363	4775.81
941.67	4800.44
941.977	4731.97
942.284	4738.75
942.591	4758.41
942.898	4686.32
943.205	4725.41
943.511	4651.06
943.818	4628.92
944.125	4644.96
944.431	4589.37
944.738	4598.64
945.044	4562.48
945.35	4525.64
945.657	4546.66
945.963	4500.79
946.269	4544.17
946.575	4465.53
946.881	4437.51
947.187	4442.48
947.493	4392.99
947.799	4401.58
948.105	4428.47
948.41	4329.72
948.716	4314.35
949.022	4336.04
949.327	4292.2
949.633	4226.22
949.938	4233.67
950.244	4246.33
950.549	4188.25
950.854	4122.72
951.16	4158.2
951.465	4199.1
951.77	4117.97
952.075	4107.8
952.38	4133.56
952.685	4094.92
952.99	4040.91
953.294	4051.53
953.599	4029.16
953.904	4048.14
954.209	4001.36
954.513	3981.93
954.818	3933.79
955.122	3944.19
955.426	3979.44
955.731	3948.94
956.035	3901.25
956.339	3867.36
956.643	3886.11
956.948	3858.09
957.252	3852.89
957.556	3835.49
957.86	3813.12
958.163	3790.07
958.467	3759.11
958.771	3754.59
959.075	3767.92
959.378	3700.13
959.682	3707.81
959.985	3705.78
960.289	3700.81
960.592	3633.24
960.896	3621.49
961.199	3617.64
961.502	3606.12
961.805	3578.32
962.108	3515.95
962.411	3557.99
962.714	3523.41
963.017	3510.3
963.32	3527.03
963.623	3534.94
963.926	3526.57
964.228	3486.8
964.531	3495.16
964.833	3442.06
965.136	3459.23
965.438	3423.75
965.741	3382.4
966.043	3407.93
966.345	3388.5
966.648	3364.09
966.95	3358.67
967.252	3288.39
967.554	3314.83
967.856	3317.77
968.158	3292.46
968.46	3244.77
968.761	3279.8
969.063	3232.12
969.365	3268.28
969.666	3215.4
969.968	3186.47
970.269	3218.56
970.571	3192.57
970.872	3152.8
971.174	3116.64
971.475	3140.14
971.776	3102.18
972.077	3078.22
972.378	3071.9
972.679	3071.67
972.98	3065.57
973.281	3057.66
973.582	3060.6
973.883	3030.09
974.183	3013.59
974.484	3013.82
974.785	3008.17
975.085	2946.25
975.386	2986.48
975.686	2948.74
975.986	2935.4
976.287	2927.04
976.587	2892.01
976.887	2896.99
977.187	2879.59
977.487	2862.86
977.787	2878.23
978.087	2894.73
978.387	2858.57
978.687	2842.75
978.987	2805.69
979.286	2790.55
979.586	2761.4
979.885	2763.43
980.185	2789.19
980.484	2743.09
980.784	2722.3
981.083	2745.8
981.382	2733.15
981.682	2723.43
981.981	2703.77
982.28	2683.88
982.579	2662.42
982.878	2649.99
983.177	2637.33
983.475	2624.9
983.774	2602.3
984.073	2591.68
984.372	2569.08
984.67	2571.8
984.969	2550.55
985.267	2553.27
985.566	2549.88
985.864	2520.27
986.162	2527.73
986.461	2520.72
986.759	2509.2
987.057	2482.31
987.355	2488.86
987.653	2457.68
987.951	2448.18
988.249	2433.5
988.547	2439.14
988.844	2412.93
989.142	2398.02
989.44	2400.28
989.737	2389.43
990.035	2379.49
990.332	2367.51
990.63	2344.68
990.927	2335.42
991.224	2330
991.521	2358.7
991.819	2332.03
992.116	2307.85
992.413	2279.15
992.71	2296.1
993.006	2264.91
993.303	2263.56
993.6	2221.07
993.897	2216.1
994.193	2199.6
994.49	2228.3
994.787	2207.06
995.083	2165.25
995.379	2168.87
995.676	2151.02
995.972	2164.8
996.268	2150.79
996.565	2129.55
996.861	2118.48
997.157	2131.36
997.453	2120.28
997.749	2102.43
998.044	2120.51
998.34	2099.49
998.636	2090.23
998.932	2093.39
999.227	2042.09
999.523	2031.47
999.818	2026.27
1000.114	2002.55
1000.409	2005.71
1000.704	1988.31
1001	1961.42
1001.295	1993.05
1001.59	1958.71
1001.885	1953.51
1002.18	1893.17
1002.475	1929.33
1002.77	1916.22
1003.065	1904.24
1003.359	1896.56
1003.654	1906.28
1003.949	1864.47
1004.243	1871.7
1004.538	1857.01
1004.832	1859.27
1005.127	1888.65
1005.421	1822.66
1005.715	1825.83
1006.009	1815.88
1006.304	1800.29
1006.598	1791.7
1006.892	1773.4
1007.186	1728.66
1007.48	1768.43
1007.773	1768.43
1008.067	1753.29
1008.361	1731.14
1008.655	1718.71
1008.948	1721.88
1009.242	1710.8
1009.535	1701.76
1009.829	1658.83
1010.122	1664.48
1010.415	1654.53
1010.708	1636.45
1011.001	1647.75
1011.295	1610.47
1011.588	1606.85
1011.881	1621.54
1012.173	1574.53
1012.466	1608.88
1012.759	1586.96
1013.052	1598.72
1013.344	1561.88
1013.637	1556.68
1013.93	1563.01
1014.222	1528.43
1014.514	1534.54
1014.807	1524.14
1015.099	1525.27
1015.391	1508.77
1015.683	1504.93
1015.976	1498.38
1016.268	1492.05
1016.56	1476.23
1016.851	1474.42
1017.143	1457.25
1017.435	1437.59
1017.727	1438.27
1018.018	1437.82
1018.31	1405.5
1018.602	1413.86
1018.893	1405.73
1019.185	1380.42
1019.476	1409.79
1019.767	1382
1020.058	1371.6
1020.35	1348.55
1020.641	1339.96
1020.932	1334.54
1021.223	1308.78
1021.514	1339.96
1021.804	1339.06
1022.095	1304.49
1022.386	1301.32
1022.677	1297.03
1022.967	1292.73
1023.258	1268.55
1023.548	1246.41
1023.839	1228.56
1024.129	1217.03
1024.419	1235.11
1024.709	1226.52
1025	1226.07
1025.29	1230.14
1025.58	1191.95
1025.87	1197.14
1026.16	1205.05
1026.449	1211.83
1026.739	1184.26
1027.029	1144.72
1027.319	1179.07
1027.608	1144.72
1027.898	1144.72
1028.187	1163.25
1028.477	1124.15
1028.766	1153.08
1029.055	1136.58
1029.344	1128.9
1029.634	1110.59
1029.923	1089.12
1030.212	1102.23
1030.501	1110.37
1030.79	1073.31
1031.078	1073.08
1031.367	1069.24
1031.656	1062.46
1031.945	1044.61
1032.233	1049.35
1032.522	1032.85
1032.81	1024.04
1033.099	1022.46
1033.387	1022.01
1033.675	1026.98
1033.963	1024.27
1034.251	1009.58
1034.54	984.27
1034.828	998.5
1035.116	967.32
1035.403	991.95
1035.691	958.28
1035.979	950.82
1036.267	961.67
1036.554	946.75
1036.842	946.53
1037.129	927.32
1037.417	915.34
1037.704	910.15
1037.992	907.89
1038.279	916.93
1038.566	905.17
1038.853	905.17
1039.14	905.17
