Data from hue_50_FLMS001491_44.txt Node
Date: Mon Feb 06 15:10:11 GMT 2017
User: dcchb
Spectrometer: FLMS00149
Trigger mode: 0
Integration Time (sec): 2.000000E-2
Scans to average: 10
Electric dark correction enabled: true
Nonlinearity correction enabled: false
Boxcar width: 0
XAxis mode: Wavelengths
Number of Pixels in Spectrum: 2048
>>>>>Begin Spectral Data<<<<<
341.393	-11.68
341.776	-11.68
342.16	-11.68
342.543	-64.11
342.927	-52.13
343.31	-54.17
343.693	-70.89
344.077	-56.65
344.46	-38.57
344.843	-51.45
345.226	-35.63
345.61	-46.03
345.993	-23.21
346.376	15.21
346.759	6.4
347.142	22.44
347.525	25.61
347.908	36.45
348.291	65.83
348.674	84.59
349.057	120.07
349.44	134.76
349.823	167.07
350.206	163
350.588	194.87
350.971	210.23
351.354	240.06
351.737	250.46
352.119	245.04
352.502	268.54
352.884	277.8
353.267	277.58
353.65	303.57
354.032	301.31
354.414	313.51
354.797	330.23
355.179	317.8
355.562	337.69
355.944	356.22
356.326	365.48
356.709	350.34
357.091	335.66
357.473	348.08
357.855	348.31
358.238	350.12
358.62	334.98
359.002	341.76
359.384	334.3
359.766	345.15
360.148	349.44
360.53	330.46
360.912	362.55
361.294	350.12
361.676	337.24
362.057	327.97
362.439	334.07
362.821	337.01
363.203	320.51
363.584	341.08
363.966	332.04
364.348	344.69
364.729	309.44
365.111	345.82
365.493	319.38
365.874	331.59
366.256	315.77
366.637	300.63
367.019	298.37
367.4	314.41
367.781	337.24
368.163	317.58
368.544	328.2
368.925	316.67
369.306	318.03
369.688	307.18
370.069	325.03
370.45	328.42
370.831	328.42
371.212	323
371.593	302.21
371.974	323.45
372.355	322.32
372.736	323.9
373.117	320.06
373.498	326.62
373.879	312.83
374.26	311.93
374.641	321.64
375.021	323
375.402	331.59
375.783	338.14
376.163	306.5
376.544	319.38
376.925	314.86
377.305	332.04
377.686	319.16
378.066	349.67
378.447	345.15
378.827	340.4
379.208	331.81
379.588	314.41
379.968	315.09
380.349	353.06
380.729	337.01
381.109	349.44
381.489	353.28
381.87	313.06
382.25	354.19
382.63	351.25
383.01	335.43
383.39	343.79
383.77	335.2
384.15	342.89
384.53	340.17
384.91	342.66
385.29	334.75
385.67	345.6
386.049	351.47
386.429	359.38
386.809	339.04
387.189	356.22
387.568	363.22
387.948	348.54
388.328	355.32
388.707	342.66
389.087	376.11
389.466	371.59
389.846	366.84
390.225	376.56
390.605	382.66
390.984	362.32
391.363	369.55
391.743	353.06
392.122	393.51
392.501	366.84
392.881	363.9
393.26	365.94
393.639	381.98
394.018	377.46
394.397	383.11
394.776	384.47
395.155	379.04
395.534	390.34
395.913	368.65
396.292	374.75
396.671	395.09
397.05	399.83
397.429	373.39
397.808	375.2
398.186	392.15
398.565	388.31
398.944	375.43
399.323	402.77
399.701	392.15
400.08	389.89
400.458	369.78
400.837	394.64
401.215	400.51
401.594	393.28
401.972	410.23
402.351	400.51
402.729	392.38
403.107	394.41
403.486	393.51
403.864	393.73
404.242	404.13
404.62	410.23
404.999	408.42
405.377	396.44
405.755	417.69
406.133	432.15
406.511	421.3
406.889	412.26
407.267	427.4
407.645	420.17
408.023	412.49
408.401	429.44
408.779	429.89
409.156	438.7
409.534	436.44
409.912	435.31
410.29	419.72
410.667	451.58
411.045	435.77
411.422	417.69
411.8	438.25
412.178	443.45
412.555	465.37
412.933	440.29
413.31	439.61
413.687	447.52
414.065	458.14
414.442	440.06
414.819	451.58
415.197	453.39
415.574	489.32
415.951	482.54
416.328	471.7
416.705	455.88
417.082	480.28
417.46	491.36
417.837	488.87
418.214	471.02
418.591	463.79
418.967	489.78
419.344	494.07
419.721	469.89
420.098	493.84
420.475	509.89
420.852	490.23
421.228	491.58
421.605	495.65
421.982	494.29
422.358	512.83
422.735	504.46
423.111	496.33
423.488	501.53
423.864	530.68
424.241	493.39
424.617	497.46
424.994	516.67
425.37	544.69
425.746	514.63
426.123	530.23
426.499	525.48
426.875	519.83
427.251	555.54
427.627	555.54
428.003	550.34
428.379	553.73
428.756	571.36
429.132	565.93
429.507	585.82
429.883	559.83
430.259	551.92
430.635	580.85
431.011	588.76
431.387	568.42
431.763	568.64
432.138	580.85
432.514	596.44
432.89	590.79
433.265	593.95
433.641	584.24
434.016	600.28
434.392	593.5
434.767	610
435.143	615.87
435.518	606.16
435.894	633.95
436.269	655.65
436.644	633.73
437.02	629.21
437.395	633.05
437.77	657.23
438.145	655.19
438.52	669.43
438.895	662.65
439.271	688.41
439.646	690.9
440.021	675.76
440.395	688.19
440.77	687.96
441.145	695.65
441.52	697
441.895	708.75
442.27	681.63
442.645	690.67
443.019	705.59
443.394	674.63
443.769	701.52
444.143	704.23
444.518	702.88
444.892	713.27
445.267	719.83
445.641	716.44
446.016	720.05
446.39	746.04
446.764	727.51
447.139	721.86
447.513	724.8
447.887	767.73
448.262	748.07
448.636	737.45
449.01	735.64
449.384	746.27
449.758	746.49
450.132	790.11
450.506	777
450.88	788.3
451.254	753.95
451.628	802.08
452.002	808.64
452.376	812.25
452.75	822.42
453.123	814.06
453.497	813.38
453.871	826.72
454.244	840.73
454.618	831.69
454.992	855.42
455.365	889.09
455.739	893.15
456.112	891.35
456.486	871.01
456.859	889.54
457.232	907.62
457.606	898.13
457.979	898.13
458.352	933.61
458.725	931.12
459.099	957.11
459.472	961.4
459.845	979.25
460.218	965.92
460.591	978.58
460.964	973.15
461.337	1007.05
461.71	1027.16
462.083	1041.63
462.456	1056.77
462.829	1031.68
463.201	1067.39
463.574	1051.79
463.947	1053.6
464.32	1089.53
464.692	1101.51
465.065	1104.22
465.438	1127.72
465.81	1144.45
466.183	1137.22
466.555	1158.68
466.928	1161.17
467.3	1189.87
467.672	1215.18
468.045	1254.5
468.417	1249.98
468.789	1252.92
469.161	1272.58
469.534	1316.65
469.906	1311.9
470.278	1344.44
470.65	1370.88
471.022	1411.11
471.394	1430.99
471.766	1471.67
472.138	1498.11
472.51	1509.64
472.882	1565.68
473.253	1561.61
473.625	1590.76
473.997	1608.62
474.369	1650.2
474.74	1675.73
475.112	1744.66
475.484	1753.02
475.855	1817.88
476.227	1866.91
476.598	1901.49
476.97	1946.01
477.341	1982.84
477.713	2083.41
478.084	2063.52
478.455	2133.8
478.827	2193.01
479.198	2287.24
479.569	2318.43
479.94	2409.95
480.311	2463.06
480.682	2512.55
481.053	2628.7
481.424	2694.92
481.795	2778.53
482.166	2812.65
482.537	2895.81
482.908	2983.49
483.279	3072.98
483.65	3108.01
484.021	3248.57
484.391	3321.34
484.762	3394.56
485.133	3511.62
485.503	3579.86
485.874	3731.72
486.244	3783.93
486.615	3974.2
486.985	4005.16
487.356	4118.83
487.726	4220.75
488.097	4368.77
488.467	4401.76
488.837	4630.23
489.207	4700.51
489.578	4817.57
489.948	4957.45
490.318	5063.44
490.688	5205.13
491.058	5273.38
491.428	5444.9
491.798	5554.5
492.168	5712.24
492.538	5788.62
492.908	5928.05
493.278	6065.9
493.648	6151.32
494.017	6296.85
494.387	6445.32
494.757	6573.68
495.126	6700.01
495.496	6790.4
495.866	6855.71
496.235	7025.2
496.605	7161.01
496.974	7310.61
497.344	7401.91
497.713	7572.75
498.082	7665.41
498.452	7809.58
498.821	7931.39
499.19	8009.8
499.559	8149.01
499.928	8247.54
500.298	8355.56
500.667	8470.58
501.036	8572.73
501.405	8761.65
501.774	8795.55
502.143	8948.08
502.512	9033.73
502.88	9164.35
503.249	9248.19
503.618	9369.54
503.987	9381.07
504.356	9567.05
504.724	9687.5
505.093	9718.91
505.462	9826.03
505.83	9881.84
506.199	10021.5
506.567	10237.99
506.936	10281.61
507.304	10469.4
507.672	10590.53
508.041	10585.78
508.409	10708.04
508.777	10820.35
509.145	10955.49
509.514	11058.08
509.882	11150.96
510.25	11237.06
510.618	11354.35
510.986	11402.26
511.354	11597.05
511.722	11749.82
512.09	11858.06
512.458	11865.75
512.826	11938.06
513.193	11947.55
513.561	12126.76
513.929	12232.97
514.297	12376.47
514.664	12483.58
515.032	12565.84
515.4	12689
515.767	12738.72
516.135	12777.59
516.502	12761.77
516.869	13076.56
517.237	13105.71
517.604	13131.25
517.972	13331.92
518.339	13350.68
518.706	13425.93
519.073	13512.94
519.44	13632.93
519.808	13766.49
520.175	13729.65
520.542	13944.34
520.909	14041.06
521.276	14108.63
521.643	14294.16
522.009	14319.02
522.376	14497.32
522.743	14668.39
523.11	14665.22
523.477	14878.55
523.843	15031.31
524.21	15139.33
524.577	15212.78
524.943	15297.07
525.31	15309.5
525.676	15502.71
526.043	15583.39
526.409	15675.59
526.776	15843.27
527.142	15876.94
527.508	16009.37
527.874	16090.27
528.241	16251.17
528.607	16265.41
528.973	16352.41
529.339	16403.48
529.705	16598.05
530.071	16716.47
530.437	16694.32
530.803	16992.17
531.169	17066.74
531.535	17010.92
531.901	17098.83
532.267	17193.74
532.632	17331.37
532.998	17352.38
533.364	17450.69
533.73	17412.72
534.095	17730.45
534.461	17859.04
534.826	17762.09
535.192	17926.6
535.557	17971.35
535.923	18045.47
536.288	18155.07
536.653	18198.69
537.019	18132.48
537.384	18328.63
537.749	18426.7
538.114	18455.86
538.479	18464.9
538.845	18622.86
539.21	18540.6
539.575	18665.57
539.94	18752.12
540.305	18854.26
540.67	18867.37
541.034	19016.52
541.399	18980.59
541.764	19067.59
542.129	19141.04
542.494	19207.48
542.858	19332.44
543.223	19356.4
543.587	19466
543.952	19408.37
544.316	19550.52
544.681	19516.85
545.045	19659.44
545.41	19789.83
545.774	19705.99
546.138	19919.77
546.503	19850.17
546.867	19820.11
547.231	20185.08
547.595	20119.77
547.959	20183.49
548.324	20205.64
548.688	20343.26
549.052	20357.95
549.416	20346.88
549.779	20447.89
550.143	20610.38
550.507	20715.46
550.871	20709.58
551.235	20787.09
551.599	21005.62
551.962	20940.99
552.326	20968.33
552.689	21136.92
553.053	21070.03
553.417	21095.79
553.78	21436.12
554.143	21391.6
554.507	21529.22
554.87	21624.13
555.234	21720.63
555.597	21549.56
555.96	21709.78
556.323	21907.52
556.686	21956.33
557.05	21982.77
557.413	22039.94
557.776	22110.45
558.139	22297.11
558.502	22358.58
558.865	22508.41
559.228	22594.28
559.59	22697.78
559.953	22681.96
560.316	22823.88
560.679	22880.15
561.041	23013.48
561.404	23128.05
561.767	23216.64
562.129	23228.61
562.492	23387.93
562.854	23480.58
563.217	23465.67
563.579	23595.38
563.941	23700.01
564.304	23783.63
564.666	23810.52
565.028	24013.45
565.39	24106.1
565.753	24203.28
566.115	24355.36
566.477	24304.97
566.839	24415.93
567.201	24578.18
567.563	24551.52
567.925	24849.13
568.287	24770.04
568.648	24861.11
569.01	24954.22
569.372	25175.91
569.734	25032.86
570.095	25238.28
570.457	25379.74
570.819	25443.02
571.18	25438.27
571.542	25683.92
571.903	25823.8
572.265	25831.93
572.626	25993.06
572.987	26042.1
573.349	26032.15
573.71	26280.06
574.071	26260.85
574.432	26364.58
574.794	26521.18
575.155	26541.75
575.516	26592.59
575.877	26604.34
576.238	26791
576.599	26884.34
576.96	26976.76
577.32	27063.31
577.681	27211.11
578.042	27343.76
578.403	27350.76
578.763	27379.92
579.124	27495.62
579.485	27597.54
579.845	27809.73
580.206	27929.28
580.566	27880.92
580.927	27906.68
581.287	28148.93
581.648	28095.15
582.008	28280
582.368	28386.89
582.728	28438.42
583.089	28513.45
583.449	28461.02
583.809	28723.38
584.169	28817.62
584.529	28746.66
584.889	29067.78
585.249	29033.21
585.609	28951.17
585.969	29202.47
586.329	29188.46
586.688	29403.82
587.048	29489.46
587.408	29477.26
587.768	29602
588.127	29657.37
588.487	29733.53
588.846	30053.74
589.206	29847.87
589.565	29976.68
589.925	30215.77
590.284	30351.59
590.643	30348.43
591.003	30477.24
591.362	30566.05
591.721	30634.97
592.08	30707.06
592.44	30833.61
592.799	30926.72
593.158	31043.77
593.517	31095.07
593.876	31221.4
594.235	31241.51
594.593	31440.83
594.952	31534.61
595.311	31526.93
595.67	31613.93
596.029	31854.83
596.387	31898.44
596.746	31934.37
597.104	31892.79
597.463	31981.15
597.822	32180.69
598.18	32142.28
598.538	32177.53
598.897	32357.86
599.255	32217.75
599.613	32858.87
599.972	32711.75
600.33	32688.93
600.688	32703.17
601.046	32966.44
601.404	33098.64
601.762	33078.52
602.12	33276.71
602.478	33283.72
602.836	33313.09
603.194	33229.71
603.552	33323.49
603.91	33441.68
604.268	33617.27
604.625	33499.75
604.983	33844.6
605.341	33648.9
605.698	33925.96
606.056	33927.31
606.413	33947.88
606.771	34074.2
607.128	34215.22
607.485	34084.37
607.843	34040.31
608.2	34305.38
608.557	34542.67
608.914	34352.84
609.272	34479.84
609.629	34649.33
609.986	34632.61
610.343	34739.72
610.7	35061.3
611.057	34970.45
611.414	34999.38
611.771	35191.24
612.127	35248.18
612.484	35203.66
612.841	35502.64
613.198	35370.44
613.554	35394.85
613.911	35700.83
614.267	35637.33
614.624	35606.82
614.98	35754.61
615.337	35974.27
615.693	35891.56
616.05	35864.21
616.406	35984.66
616.762	35875.06
617.118	36123.41
617.475	36099.01
617.831	36158.67
618.187	36334.93
618.543	36256.52
618.899	36467.13
619.255	36541.26
619.611	36473.91
619.967	36535.38
620.323	36725.88
620.678	36573.57
621.034	36474.82
621.39	36489.05
621.746	36542.61
622.101	36968.36
622.457	36773.79
622.812	36920.68
623.168	36993.22
623.523	36916.16
623.879	37141.47
624.234	36819.89
624.589	37143.27
624.945	36948.48
625.3	37124.97
625.655	37177.62
626.01	37242.93
626.365	37255.81
626.72	37139.21
627.075	37263.5
627.43	37231.63
627.785	37154.35
628.14	37229.6
628.495	37379.65
628.85	37358.18
629.205	37099.66
629.559	37308.69
629.914	37189.15
630.269	37256.04
630.623	37180.79
630.978	37237.51
631.332	37204.06
631.687	37380.56
632.041	37164.07
632.396	37322.25
632.75	37223.95
633.104	37242.03
633.459	37036.38
633.813	37123.39
634.167	37008.59
634.521	37098.3
634.875	37170.84
635.229	37127.91
635.583	36900.57
635.937	36997.52
636.291	36934.01
636.645	36938.76
636.999	37017.18
637.352	37103.73
637.706	36826.67
638.06	36975.82
638.413	36902.15
638.767	36822.15
639.121	37003.39
639.474	36743.51
639.828	36752.78
640.181	36774.02
640.534	36800.23
640.888	36623.97
641.241	36562.05
641.594	36710.29
641.947	36703.06
642.301	36516.62
642.654	36574.48
643.007	36594.81
643.36	36533.57
643.713	36678.65
644.066	36710.52
644.419	36421.94
644.771	36283.64
645.124	35924.32
645.477	35901.95
645.83	35661.73
646.182	35482.08
646.535	35449.08
646.888	35468.97
647.24	35289.54
647.593	35535.63
647.945	35379.25
648.298	35348.07
648.65	35265.13
649.002	35211.35
649.355	35252.48
649.707	35374.96
650.059	35299.71
650.411	35724.1
650.763	35753.03
651.115	36139.91
651.467	36089.74
651.819	35873.93
652.171	35823.31
652.523	35922.74
652.875	35957.32
653.227	35813.59
653.578	35954.38
653.93	35940.59
654.282	35752.8
654.633	35651.34
654.985	35786.25
655.337	35918.45
655.688	35807.26
656.039	35885.91
656.391	35597.55
656.742	35700.15
657.094	35652.69
657.445	35816.53
657.796	35700.15
658.147	35722.3
658.498	35563.66
658.849	35574.28
659.2	35452.7
659.551	35563.2
659.902	35711.9
660.253	35489.08
660.604	35569.08
660.955	35413.15
661.306	35591.45
661.656	35395.3
662.007	35517.1
662.358	35393.72
662.708	35358.01
663.059	35467.84
663.409	35153.5
663.76	35542.41
664.11	35520.94
664.461	35573.37
664.811	35464
665.161	35437.56
665.511	35410.66
665.862	35459.48
666.212	35474.62
666.562	35395.98
666.912	35405.92
667.262	35459.03
667.612	35444.79
667.962	35461.96
668.312	35395.3
668.662	35462.19
669.011	35442.53
669.361	35234.62
669.711	35258.35
670.06	35245.92
670.41	35149.2
670.76	35135.42
671.109	35289.76
671.459	35302.65
671.808	35205.25
672.157	35326.6
672.507	35059.26
672.856	35058.81
673.205	35149.88
673.554	35275.08
673.904	35065.36
674.253	35308.29
674.602	35033.05
674.951	34566.62
675.3	34457.92
675.649	34967.74
675.998	34893.62
676.346	35010
676.695	35133.61
677.044	34788.99
677.393	34963.67
677.741	34879.15
678.09	34807.74
678.438	34872.37
678.787	34818.59
679.135	34806.16
679.484	34608.65
679.832	34726.16
680.181	34545.83
680.529	34610.69
680.877	34501.76
681.225	34450.92
681.573	34733.85
681.922	34398.04
682.27	34299.96
682.618	34406.17
682.966	34261.09
683.314	34299.06
683.661	34197.36
684.009	34092.51
684.357	34010.48
684.705	33939.74
685.053	34045.5
685.4	33916.01
685.748	33751.27
686.095	33952.17
686.443	33701.78
686.79	33645.97
687.138	33628.34
687.485	33767.54
687.832	33587.44
688.18	33579.53
688.527	33439.42
688.874	33465.41
689.221	33368.01
689.568	33253.21
689.915	33227.22
690.262	33152.19
690.609	33120.56
690.956	33091.63
691.303	32907.68
691.65	32753.11
691.997	32886.66
692.344	32674.01
692.69	32608.48
693.037	32644.18
693.383	32402.83
693.73	32569.38
694.077	32246
694.423	32323.29
694.769	32142.28
695.116	31982.28
695.462	32069.06
695.808	31884.43
696.155	32030.41
696.501	31797.2
696.847	31619.58
697.193	31624.55
697.539	31699.58
697.885	31410.54
698.231	31317.44
698.577	31311.34
698.923	31325.8
699.269	31123.77
699.614	30945.02
699.96	30920.39
700.306	31038.8
700.651	30836.1
700.997	30807.4
701.342	30623.67
701.688	30785.25
702.033	30529.89
702.379	30501.87
702.724	30392.72
703.069	30517.01
703.415	30132.39
703.76	30098.04
704.105	30237.69
704.45	29967.19
704.795	29907.08
705.14	29754.32
705.485	29794.77
705.83	29751.83
706.175	29866.86
706.52	29560.65
706.865	29661.44
707.209	29457.15
707.554	29368.34
707.899	29559.52
708.243	29361.56
708.588	29336.25
708.932	29087.44
709.277	29118.18
709.621	29113.43
709.966	28816.71
710.31	29042.7
710.654	28724.97
710.998	28775.59
711.342	28870.72
711.687	28563.39
712.031	28558.64
712.375	28498.08
712.719	28592.99
713.063	28565.87
713.407	28617.85
713.75	28346.44
714.094	28280.91
714.438	28241.14
714.782	28135.6
715.125	28129.73
715.469	28135.6
715.812	27901.94
716.156	27853.8
716.499	27968.37
716.843	27901.03
717.186	27694.71
717.53	27798.21
717.873	27777.42
718.216	27667.37
718.559	27616.07
718.902	27363.19
719.246	27514.6
719.589	27401.38
719.932	27363.19
720.275	27407.94
720.617	27259.01
720.96	27287.49
721.303	27252.46
721.646	27299.92
721.989	27087.49
722.331	27209.07
722.674	26944.67
723.016	26910.78
723.359	26976.54
723.701	27033.71
724.044	26797.56
724.386	26627.62
724.729	26934.05
725.071	26743.55
725.413	26750.33
725.755	26778.35
726.097	26563.44
726.439	26375.65
726.782	26607.28
727.124	26618.58
727.465	26400.28
727.807	26415.2
728.149	26398.47
728.491	26341.3
728.833	26413.39
729.175	26249.55
729.516	26196.67
729.858	26152.15
730.199	26151.25
730.541	26073.96
730.882	26004.13
731.224	26101.98
731.565	25910.58
731.906	25971.37
732.248	25929.56
732.589	25812.05
732.93	25658.83
733.271	25797.58
733.612	25782.67
733.953	25818.6
734.294	25641.2
734.635	25703.8
734.976	25724.82
735.317	25477.37
735.658	25613.86
735.999	25486.18
736.339	25480.53
736.68	25471.27
737.021	25360.31
737.361	25238.28
737.702	25427.42
738.042	25322.57
738.383	25222.68
738.723	25257.26
739.063	25143.14
739.404	25225.4
739.744	25145.85
740.084	25001.9
740.424	25106.08
740.764	25002.35
741.104	25081.45
741.444	24749.93
741.784	24935.46
742.124	24858.4
742.464	24807.78
742.804	24817.27
743.143	24703.6
743.483	24838.29
743.823	24638.97
744.162	24589.93
744.502	24625.64
744.841	24509.71
745.181	24586.99
745.52	24481.91
745.86	24460.22
746.199	24635.58
746.538	24369.15
746.877	24441.46
747.216	24338.19
747.556	24259.09
747.895	24457.28
748.234	24144.29
748.573	24259.77
748.911	24204.63
749.25	24091.64
749.589	24007.8
749.928	24036.95
750.267	24111.75
750.605	23958.99
750.944	23876.28
751.283	23754.7
751.621	23840.12
751.96	23771.42
752.298	23813.68
752.636	23728.94
752.975	23730.97
753.313	23553.12
753.651	23756.96
753.989	23510.19
754.327	23497.08
754.666	23433.58
755.004	23500.7
755.342	23386.57
755.679	23350.42
756.017	23276.07
756.355	23367.59
756.693	23160.82
757.031	23149.07
757.368	22957.21
757.706	23036.53
758.044	22965.34
758.381	22997.21
758.719	22860.94
759.056	22895.29
759.394	22829.75
759.731	22566.03
760.068	22686.93
760.405	22494.17
760.743	22497.78
761.08	22562.64
761.417	22281.29
761.754	22403.1
762.091	22236.1
762.428	22233.16
762.765	22008.76
763.102	22075.42
763.438	22018.47
763.775	21895.09
764.112	21964.01
764.449	21950.68
764.785	21858.03
765.122	21685.83
765.458	21656.22
765.795	21622.78
766.131	21513.86
766.467	21376.23
766.804	21442.44
767.14	21276.12
767.476	21236.57
767.812	21132.85
768.148	21205.84
768.485	20989.35
768.821	20880.43
769.157	20791.16
769.492	20856.25
769.828	20849.01
770.164	20584.61
770.5	20619.87
770.836	20501.23
771.171	20476.14
771.507	20370.83
771.842	20308.69
772.178	20315.47
772.513	20199.54
772.849	20094.68
773.184	20012.43
773.519	19938.3
773.855	19933.33
774.19	19772.21
774.525	19762.26
774.86	19717.52
775.195	19720.23
775.53	19533.34
775.865	19511.87
776.2	19347.13
776.535	19215.16
776.87	19280.24
777.205	19156.4
777.539	19106.01
777.874	19150.75
778.209	18861.27
778.543	19014.71
778.878	18822.63
779.212	18898.56
779.547	18831.89
779.881	18674.83
780.215	18600.94
780.55	18581.5
780.884	18470.55
781.218	18393.26
781.552	18455.86
781.886	18411.56
782.22	18237.11
782.554	18099.48
782.888	18020.16
783.222	17996.43
783.556	17882.31
783.889	17892.48
784.223	17714.18
784.557	17664.24
784.89	17742.2
785.224	17689.32
785.557	17486.16
785.891	17470.8
786.224	17304.02
786.558	17390.12
786.891	17329.11
787.224	17268.77
787.557	17165.04
787.891	17115.1
788.224	17114.65
788.557	17087.76
788.89	17030.13
789.223	16937.25
789.556	16789.46
789.888	16813.41
790.221	16719.18
790.554	16681.89
790.887	16624.04
791.219	16556.25
791.552	16461.33
791.884	16474.89
792.217	16379.98
792.549	16259.08
792.882	16243.26
793.214	16153.54
793.546	16231.28
793.879	16022.02
794.211	16020.21
794.543	16008.24
794.875	15897.96
795.207	15980.89
795.539	15862.25
795.871	15907
796.203	15740.67
796.535	15622.48
796.867	15536.39
797.198	15575.48
797.53	15581.81
797.862	15425.2
798.193	15497.06
798.525	15354.92
798.856	15344.3
799.188	15214.13
799.519	15116.96
799.85	15150.18
800.182	15114.02
800.513	15058.66
800.844	14976.17
801.175	15011.43
801.506	15023.86
801.837	14961.71
802.168	14940.02
802.499	14789.74
802.83	14717.42
803.161	14756.74
803.491	14746.58
803.822	14675.16
804.153	14552.91
804.483	14488.96
804.814	14487.37
805.145	14472.91
805.475	14324.44
805.805	14381.61
806.136	14408.28
806.466	14337.77
806.796	14272.92
807.126	14168.51
807.457	14165.35
807.787	14106.37
808.117	14039.93
808.447	13926.94
808.777	14075.18
809.107	13975.75
809.436	13955.41
809.766	13900.27
810.096	13817.79
810.426	13797.9
810.755	13806.94
811.085	13806.04
811.414	13754.74
811.744	13641.75
812.073	13648.3
812.403	13659.37
812.732	13559.94
813.061	13578.47
813.39	13432.03
813.719	13469.32
814.049	13411.47
814.378	13432.71
814.707	13378.48
815.036	13291.25
815.365	13199.95
815.693	13154.75
816.022	13154.53
816.351	13123.79
816.68	13109.78
817.008	13075.88
817.337	13023.23
817.665	13026.85
817.994	13081.08
818.322	12981.42
818.651	12868.21
818.979	12938.71
819.307	12926.74
819.636	12804.25
819.964	12810.58
820.292	12845.16
820.62	12774.88
820.948	12833.86
821.276	12847.42
821.604	12689.23
821.932	12802.45
822.259	12845.38
822.587	12779.85
822.915	12697.59
823.243	12715.89
823.57	12678.83
823.898	12633.64
824.225	12615.33
824.553	12625.05
824.88	12661.66
825.207	12682.45
825.535	12675.22
825.862	12660.98
826.189	12667.76
826.516	12641.09
826.843	12726.29
827.17	12686.06
827.497	12685.16
827.824	12626.18
828.151	12710.02
828.478	12655.11
828.805	12746.18
829.131	12602.9
829.458	12622.34
829.785	12539.18
830.111	12591.83
830.438	12596.58
830.764	12536.46
831.09	12678.38
831.417	12615.11
831.743	12640.19
832.069	12610.36
832.395	12478.61
832.722	12573.75
833.048	12470.03
833.374	12551.38
833.7	12493.98
834.026	12502.11
834.351	12484.04
834.677	12512.51
835.003	12553.64
835.329	12477.93
835.654	12458.73
835.98	12367.88
836.306	12533.98
836.631	12406.75
836.956	12432.74
837.282	12478.61
837.607	12359.07
837.932	12301.22
838.258	12310.93
838.583	12318.39
838.908	12236.36
839.233	12245.85
839.558	12199.52
839.883	12150.26
840.208	12106.64
840.533	12209.47
840.858	12193.87
841.182	12153.88
841.507	12178.73
841.832	12037.27
842.156	12022.81
842.481	12012.18
842.805	11907.55
843.13	11965.41
843.454	11890.83
843.778	11831.17
844.103	11888.35
844.427	11862.58
844.751	11830.49
845.075	11724.96
845.399	11793.21
845.723	11729.93
846.047	11627.11
846.371	11588.92
846.695	11565.42
847.019	11524.51
847.343	11484.97
847.666	11390.05
847.99	11381.24
848.313	11355.03
848.637	11296.5
848.96	11291.75
849.284	11240.45
849.607	11204.07
849.931	11155.94
850.254	11081.36
850.577	10993
850.9	10950.74
851.223	10906.68
851.546	10870.07
851.869	10720.01
852.192	10834.81
852.515	10760.24
852.838	10721.82
853.161	10751.65
853.483	10592.33
853.806	10635.72
854.129	10576.52
854.451	10532.68
854.774	10504.65
855.096	10458.1
855.419	10402.28
855.741	10418.33
856.063	10329.29
856.385	10279.8
856.708	10314.15
857.03	10266.24
857.352	10204.55
857.674	10214.04
857.996	10244.77
858.318	10117.54
858.64	10131.78
858.961	10181.27
859.283	10072.12
859.605	10045.91
859.926	10058.56
860.248	9962.29
860.57	9940.37
860.891	10005.46
861.212	9944.44
861.534	9848.85
861.855	9878.23
862.176	9866.48
862.498	9878.91
862.819	9885.46
863.14	9810.89
863.461	9804.11
863.782	9722.53
864.103	9699.48
864.424	9711.68
864.745	9716.2
865.065	9632.59
865.386	9664.22
865.707	9652.7
866.027	9658.35
866.348	9638.01
866.668	9618.8
866.989	9589.65
867.309	9566.37
867.63	9509.65
867.95	9582.42
868.27	9469.43
868.59	9472.14
868.91	9479.82
869.23	9482.08
869.55	9385.81
869.87	9430.33
870.19	9391.01
870.51	9396.21
870.83	9385.36
871.15	9335.19
871.469	9366.38
871.789	9431.24
872.109	9346.72
872.428	9320.05
872.748	9311.24
873.067	9301.97
873.386	9280.73
873.706	9268.98
874.025	9210.68
874.344	9166.16
874.663	9225.36
874.982	9165.48
875.301	9144.91
875.62	9118.93
875.939	9118.47
876.258	9161.41
876.577	9078.25
876.896	9051.81
877.214	9064.92
877.533	9114.86
877.852	9069.44
878.17	9102.43
878.489	9012.71
878.807	9012.49
879.125	8937.01
879.444	9006.61
879.762	8912.15
880.08	8957.12
880.398	8900.63
880.716	8898.59
881.034	8928.2
881.352	8872.38
881.67	8830.35
881.988	8867.18
882.306	8831.02
882.624	8778.37
882.941	8725.72
883.259	8758.48
883.577	8747.86
883.894	8676.23
884.212	8657.24
884.529	8713.06
884.846	8578.38
885.164	8630.8
885.481	8626.28
885.798	8565.27
886.115	8572.95
886.432	8528.43
886.75	8487.98
887.067	8541.99
887.383	8472.84
887.7	8411.15
888.017	8419.74
888.334	8466.97
888.651	8409.34
888.967	8360.08
889.284	8393.75
889.6	8333.86
889.917	8276.92
890.233	8338.16
890.55	8232.4
890.866	8237.82
891.182	8237.14
891.498	8209.12
891.815	8124.83
892.131	8140.2
892.447	8158.5
892.763	8136.35
893.079	8093.87
893.395	8049.8
893.71	8023.81
894.026	8029.01
894.342	7979.07
894.657	7970.03
894.973	7954.44
895.289	7924.38
895.604	7844.84
895.92	7804.16
896.235	7826.31
896.55	7831.73
896.865	7824.95
897.181	7754.89
897.496	7851.39
897.811	7728.45
898.126	7645.29
898.441	7619.08
898.756	7610.27
899.071	7551.74
899.386	7633.77
899.7	7521.45
900.015	7551.74
900.33	7497.95
900.644	7413.21
900.959	7463.6
901.273	7389.48
901.588	7379.31
901.902	7342.7
902.216	7318.75
902.531	7294.34
902.845	7265.64
903.159	7205.76
903.473	7144.29
903.787	7203.5
904.101	7176.38
904.415	7123.73
904.729	7092.54
905.042	7059.09
905.356	7076.49
905.67	7029.26
905.984	7064.29
906.297	7007.57
906.611	6927.12
906.924	6911.98
907.237	6888.7
907.551	6896.39
907.864	6833.79
908.177	6847.35
908.491	6785.88
908.804	6787.91
909.117	6745.43
909.43	6758.76
909.743	6666.34
910.056	6683.74
910.368	6612.33
910.681	6637.41
910.994	6578.88
911.307	6603.51
911.619	6523.06
911.932	6533.46
912.244	6486.91
912.557	6433.35
912.869	6438.55
913.181	6399.68
913.494	6412.56
913.806	6347.47
914.118	6366.91
914.43	6311.77
914.742	6311.32
915.054	6241.94
915.366	6255.5
915.678	6187.7
915.99	6161.04
916.302	6110.19
916.613	6125.56
916.925	6112.68
917.236	6061.38
917.548	6085.33
917.859	6019.35
918.171	5978.44
918.482	5938.45
918.794	5951.33
919.105	5956.52
919.416	5937.77
919.727	5868.39
920.038	5840.82
920.349	5818.67
920.66	5767.83
920.971	5784.1
921.282	5764.89
921.593	5742.74
921.903	5721.28
922.214	5648.51
922.525	5654.39
922.835	5643.76
923.146	5606.93
923.456	5583.43
923.767	5553.82
924.077	5561.05
924.387	5584.56
924.697	5508.85
925.008	5511.11
925.318	5444.9
925.628	5427.5
925.938	5444.67
926.248	5403.54
926.558	5386.37
926.867	5349.99
927.177	5338.46
927.487	5319.93
927.796	5272.47
928.106	5312.47
928.416	5223.66
928.725	5249.2
929.034	5173.49
929.344	5215.07
929.653	5144.12
929.962	5134.4
930.271	5100.5
930.581	5076.55
930.89	5025.7
931.199	5052.82
931.508	5042.88
931.817	5041.07
932.125	4987.06
932.434	5012.82
932.743	4884.91
933.051	4889.21
933.36	4841.98
933.669	4870.68
933.977	4852.37
934.286	4823.45
934.594	4841.75
934.902	4794.29
935.21	4775.99
935.519	4735.54
935.827	4713.39
936.135	4658.93
936.443	4658.25
936.751	4662.32
937.059	4667.29
937.367	4612.6
937.674	4627.07
937.982	4599.5
938.29	4530.35
938.597	4548.2
938.905	4525.38
939.213	4544.36
939.52	4441.31
939.827	4461.65
940.135	4446.51
940.442	4435.43
940.749	4425.04
941.056	4404.47
941.363	4367.87
941.67	4391.14
941.977	4333.06
942.284	4295.1
942.591	4325.83
942.898	4293.29
943.205	4265.27
943.511	4240.86
943.818	4270.01
944.125	4231.37
944.431	4203.8
944.738	4165.38
945.044	4162.67
945.35	4130.36
945.657	4122
945.963	4122.45
946.269	4095.1
946.575	4137.81
946.881	4051.26
947.187	4051.94
947.493	4055.11
947.799	4013.98
948.105	4014.65
948.41	3933.07
948.716	3940.31
949.022	3943.02
949.327	3920.19
949.633	3915.9
949.938	3934.88
950.244	3890.14
950.549	3834.77
950.854	3837.26
951.16	3855.34
951.465	3806.3
951.77	3802.46
952.075	3745.73
952.38	3728.33
952.685	3778.05
952.99	3689.47
953.294	3728.33
953.599	3738.05
953.904	3651.73
954.209	3688.11
954.513	3634.55
954.818	3633.2
955.122	3633.42
955.426	3606.76
955.731	3589.81
956.035	3552.75
956.339	3512.75
956.643	3554.33
956.948	3521.56
957.252	3530.15
957.556	3517.27
957.86	3456.25
958.163	3483.82
958.467	3432.3
958.771	3463.26
959.075	3430.71
959.378	3404.27
959.682	3381.9
959.985	3364.95
960.289	3333.99
960.592	3363.37
960.896	3287.67
961.199	3294.9
961.502	3324.28
961.805	3298.97
962.108	3292.87
962.411	3265.97
962.714	3262.13
963.017	3223.04
963.32	3229.14
963.623	3200.44
963.926	3219.2
964.228	3128.58
964.531	3174.9
964.833	3179.42
965.136	3166.99
965.438	3127.45
965.741	3109.82
966.043	3062.59
966.345	3079.31
966.648	3044.74
966.95	3075.02
967.252	3056.71
967.554	3041.8
967.856	3010.39
968.158	3000.44
968.46	3001.12
968.761	2960.22
969.063	2986.66
969.365	2959.31
969.666	2949.82
969.968	2914.12
970.269	2901.01
970.571	2910.05
970.872	2903.72
971.174	2874.8
971.475	2876.83
971.776	2830.73
972.077	2823.95
972.378	2839.32
972.679	2814.46
972.98	2802.48
973.281	2804.52
973.582	2758.64
973.883	2793.67
974.183	2762.71
974.484	2801.8
974.785	2771.75
975.085	2752.99
975.386	2722.71
975.686	2721.13
975.986	2684.97
976.287	2684.75
976.587	2640.68
976.887	2649.94
977.187	2632.32
977.487	2651.75
977.787	2598.87
978.087	2616.72
978.387	2596.39
978.687	2593.22
978.987	2562.26
979.286	2542.83
979.586	2562.49
979.885	2542.38
980.185	2557.52
980.484	2528.59
980.784	2526.78
981.083	2482.49
981.382	2467.12
981.682	2500.12
981.981	2491.76
982.28	2475.03
982.579	2449.05
982.878	2434.36
983.177	2407.24
983.475	2393.45
983.774	2396.39
984.073	2397.07
984.372	2377.41
984.67	2390.29
984.969	2340.12
985.267	2355.94
985.566	2347.35
985.864	2326.56
986.162	2327.24
986.461	2314.13
986.759	2268.71
987.057	2275.27
987.355	2296.73
987.653	2293.34
987.951	2267.13
988.249	2237.75
988.547	2278.2
988.844	2244.31
989.142	2226.45
989.44	2216.96
989.737	2193.46
990.035	2182.16
990.332	2176.74
990.63	2153.46
990.927	2172.89
991.224	2162.95
991.521	2146
991.819	2147.13
992.116	2141.94
992.413	2118.88
992.71	2132.67
993.006	2104.2
993.303	2083.63
993.6	2086.34
993.897	2071.65
994.193	2062.16
994.49	2047.47
994.787	2047.25
995.083	2031.43
995.379	2026.01
995.676	2019.45
995.972	1995.72
996.268	1992.56
996.565	2004.09
996.861	2004.09
997.157	1973.58
997.453	1962.73
997.749	1948.72
998.044	1925.67
998.34	1922.28
998.636	1908.5
998.932	1883.41
999.227	1868.04
999.523	1895.39
999.818	1868.95
1000.114	1883.18
1000.409	1838.21
1000.704	1833.47
1001	1820.14
1001.295	1827.37
1001.59	1832.34
1001.885	1829.4
1002.18	1819.91
1002.475	1803.86
1002.77	1785.33
1003.065	1752.34
1003.359	1744.43
1003.654	1739.69
1003.949	1728.16
1004.243	1729.97
1004.538	1707.6
1004.832	1738.1
1005.127	1721.16
1005.421	1677.99
1005.715	1681.38
1006.009	1669.18
1006.304	1670.99
1006.598	1635.96
1006.892	1635.06
1007.186	1649.97
1007.48	1663.08
1007.773	1591.44
1008.067	1656.75
1008.361	1591.67
1008.655	1595.28
1008.948	1597.77
1009.242	1602.06
1009.535	1598.45
1009.829	1549.63
1010.122	1565.23
1010.415	1551.89
1010.708	1506.92
1011.001	1536.75
1011.295	1515.06
1011.588	1524.32
1011.881	1540.14
1012.173	1503.99
1012.466	1492.46
1012.759	1494.04
1013.052	1473.7
1013.344	1482.29
1013.637	1461.95
1013.93	1486.13
1014.222	1452.01
1014.514	1449.07
1014.807	1422.86
1015.099	1425.8
1015.391	1411.78
1015.683	1408.85
1015.976	1412.91
1016.268	1375.63
1016.56	1379.24
1016.851	1371.79
1017.143	1380.15
1017.435	1345.57
1017.727	1366.14
1018.018	1341.73
1018.31	1310.54
1018.602	1323.65
1018.893	1316.87
1019.185	1297.66
1019.476	1330.66
1019.767	1308.28
1020.058	1250.66
1020.35	1284.78
1020.641	1251.11
1020.932	1253.6
1021.223	1248.4
1021.514	1227.61
1021.804	1231.9
1022.095	1217.67
1022.386	1217.89
1022.677	1219.02
1022.967	1214.28
1023.258	1191.45
1023.548	1186.03
1023.839	1176.31
1024.129	1191.23
1024.419	1205.01
1024.709	1153.26
1025	1161.62
1025.29	1151.68
1025.58	1168.63
1025.87	1166.37
1026.16	1139.48
1026.449	1127.27
1026.739	1120.72
1027.029	1113.49
1027.319	1099.48
1027.608	1102.64
1027.898	1086.14
1028.187	1082.98
1028.477	1047.27
1028.766	1059.7
1029.055	1030.33
1029.344	1064.22
1029.634	1046.6
1029.923	1039.14
1030.212	1057.67
1030.501	1032.59
1030.79	992.13
1031.078	1017.44
1031.367	992.36
1031.656	993.49
1031.945	977.22
1032.233	975.19
1032.522	988.07
1032.81	975.64
1033.099	975.41
1033.387	957.56
1033.675	955.3
1033.963	927.96
1034.251	972.02
1034.54	952.14
1034.828	939.93
1035.116	932.25
1035.403	923.66
1035.691	908.3
1035.979	953.27
1036.267	903.78
1036.554	901.06
1036.842	902.65
1037.129	903.55
1037.417	892.25
1037.704	884.57
1037.992	881.86
1038.279	892.25
1038.566	882.76
1038.853	882.76
1039.14	882.76
