Data from hue_30_FLMS001491_96.txt Node
Date: Mon Feb 06 15:06:25 GMT 2017
User: dcchb
Spectrometer: FLMS00149
Trigger mode: 0
Integration Time (sec): 2.000000E-2
Scans to average: 10
Electric dark correction enabled: true
Nonlinearity correction enabled: false
Boxcar width: 0
XAxis mode: Wavelengths
Number of Pixels in Spectrum: 2048
>>>>>Begin Spectral Data<<<<<
341.393	-15.04
341.776	-15.04
342.16	-15.04
342.543	-63.85
342.927	-85.1
343.31	-62.05
343.693	-87.36
344.077	-65.21
344.46	-57.75
344.843	-46.45
345.226	-30.86
345.61	-38.32
345.993	-32.44
346.376	-16.17
346.759	7.78
347.142	27.89
347.525	42.81
347.908	58.85
348.291	85.75
348.674	101.34
349.057	112.19
349.44	123.71
349.823	141.34
350.206	148.12
350.588	185.4
350.971	236.7
351.354	241.45
351.737	246.87
352.119	236.25
352.502	251.17
352.884	273.09
353.267	288
353.65	281.9
354.032	284.61
354.414	317.15
354.797	319.19
355.179	322.12
355.562	323.71
355.944	345.85
356.326	324.84
356.709	360.99
357.091	336.36
357.473	352.86
357.855	332.52
358.238	343.59
358.62	334.55
359.002	331.84
359.384	342.91
359.766	345.4
360.148	326.19
360.53	350.15
360.912	326.87
361.294	341.11
361.676	324.61
362.057	311.28
362.439	327.32
362.821	344.04
363.203	332.75
363.584	331.62
363.966	331.39
364.348	306.31
364.729	337.04
365.111	324.61
365.493	308.57
365.874	325.29
366.256	323.93
366.637	312.63
367.019	297.49
367.4	314.21
367.781	323.25
368.163	331.16
368.544	313.76
368.925	316.7
369.306	303.14
369.688	315.8
370.069	324.16
370.45	306.98
370.831	327.32
371.212	317.15
371.593	313.31
371.974	306.08
372.355	284.61
372.736	321.45
373.117	304.05
373.498	327.1
373.879	321.67
374.26	318.06
374.641	323.25
375.021	318.96
375.402	320.99
375.783	330.94
376.163	313.76
376.544	331.84
376.925	330.26
377.305	326.42
377.686	303.14
378.066	325.51
378.447	335.46
378.827	330.49
379.208	334.55
379.588	335.46
379.968	332.97
380.349	315.34
380.729	330.26
381.109	339.75
381.489	322.35
381.87	332.52
382.25	333.65
382.63	332.07
383.01	328.23
383.39	341.11
383.77	319.64
384.15	341.56
384.53	359.41
384.91	337.94
385.29	351.28
385.67	317.15
386.049	320.54
386.429	337.72
386.809	342.91
387.189	342.24
387.568	356.93
387.948	357.83
388.328	352.63
388.707	337.27
389.087	360.77
389.466	364.61
389.846	356.25
390.225	344.72
390.605	359.86
390.984	355.8
391.363	351.73
391.743	359.41
392.122	367.55
392.501	358.06
392.881	377.49
393.26	363.48
393.639	365.74
394.018	370.71
394.397	372.52
394.776	369.58
395.155	372.74
395.534	375
395.913	376.59
396.292	382.24
396.671	362.35
397.05	373.87
397.429	365.74
397.808	361.22
398.186	373.65
398.565	361.22
398.944	376.59
399.323	378.17
399.701	384.72
400.08	379.52
400.458	379.98
400.837	378.17
401.215	384.04
401.594	394.89
401.972	390.82
402.351	396.7
402.729	375.91
403.107	394.66
403.486	395.12
403.864	400.99
404.242	410.48
404.62	416.59
404.999	393.99
405.377	381.33
405.755	424.49
406.133	403.25
406.511	416.36
406.889	405.29
407.267	397.6
407.645	397.15
408.023	426.98
408.401	406.42
408.779	424.72
409.156	418.17
409.534	425.62
409.912	444.61
410.29	428.34
410.667	426.98
411.045	429.69
411.422	419.07
411.8	444.83
412.178	470.14
412.555	438.73
412.933	452.52
413.31	452.06
413.687	442.12
414.065	461.1
414.442	458.39
414.819	469.24
415.197	449.8
415.574	452.52
415.951	468.79
416.328	471.72
416.705	458.39
417.082	470.82
417.46	465.62
417.837	474.66
418.214	475.34
418.591	480.54
418.967	484.83
419.344	473.08
419.721	521.22
420.098	499.52
420.475	494.55
420.852	505.4
421.228	510.14
421.605	506.53
421.982	499.52
422.358	504.72
422.735	516.47
423.111	513.31
423.488	517.83
423.864	513.31
424.241	510.14
424.617	504.04
424.994	528.67
425.37	530.71
425.746	525.73
426.123	527.77
426.499	548.11
426.875	559.86
427.251	552.85
427.627	555.34
428.003	558.5
428.379	569.58
428.756	570.48
429.132	566.64
429.507	580.42
429.883	573.64
430.259	566.64
430.635	577.48
431.011	562.12
431.387	584.94
431.763	598.28
432.138	616.35
432.514	590.59
432.89	628.33
433.265	621.78
433.641	593.98
434.016	631.72
434.392	586.52
434.767	634.21
435.143	638.73
435.518	647.77
435.894	635.34
436.269	649.35
436.644	639.86
437.02	655
437.395	641.66
437.77	647.99
438.145	675.56
438.52	672.4
438.895	663.13
439.271	665.39
439.646	683.92
440.021	679.18
440.395	683.7
440.77	709.23
441.145	702.45
441.52	709.91
441.895	720.08
442.27	688.89
442.645	707.2
443.019	724.83
443.394	711.94
443.769	714.66
444.143	719.18
444.518	732.73
444.892	720.53
445.267	733.19
445.641	727.54
446.016	727.54
446.39	732.28
446.764	755.11
447.139	747.2
447.513	749.01
447.887	762.11
448.262	781.1
448.636	742.23
449.01	750.14
449.384	769.8
449.758	784.49
450.132	781.32
450.506	775.45
450.88	822.9
451.254	789.68
451.628	804.37
452.002	802.34
452.376	807.31
452.75	790.36
453.123	802.56
453.497	819.29
453.871	826.29
454.244	862.9
454.618	859.96
454.992	867.65
455.365	862.9
455.739	898.83
456.112	888.21
456.486	904.71
456.859	904.71
457.232	921.66
457.606	884.82
457.979	921.2
458.352	956.23
458.725	938.83
459.099	936.8
459.472	948.77
459.845	963.92
460.218	966.4
460.591	981.09
460.964	987.42
461.337	996.68
461.71	994.87
462.083	1022.44
462.456	1054.08
462.829	1044.37
463.201	1050.01
463.574	1045.27
463.947	1085.04
464.32	1078.04
464.692	1066.29
465.065	1093.18
465.438	1114.42
465.81	1133.85
466.183	1123.23
466.555	1144.48
466.928	1167.98
467.3	1161.2
467.672	1170.24
468.045	1208.2
468.417	1234.42
468.789	1217.69
469.161	1275.77
469.534	1259.95
469.906	1304.47
470.278	1290.01
470.65	1312.83
471.022	1320.74
471.394	1334.08
471.766	1346.05
472.138	1376.56
472.51	1406.84
472.882	1454.98
473.253	1468.76
473.625	1465.82
473.997	1492.04
474.369	1521.41
474.74	1544.92
475.112	1586.05
475.484	1608.87
475.855	1654.07
476.227	1642.77
476.598	1710.11
476.97	1709.21
477.341	1737.45
477.713	1778.58
478.084	1795.53
478.455	1851.35
478.827	1914.85
479.198	1956.88
479.569	1953.49
479.94	1997.79
480.311	2019.03
480.682	2073.94
481.053	2113.72
481.424	2153.94
481.795	2231.9
482.166	2225.8
482.537	2300.15
482.908	2342.41
483.279	2406.14
483.65	2462.41
484.021	2502.18
484.391	2530.65
484.762	2567.04
485.133	2596.41
485.503	2660.37
485.874	2743.08
486.244	2764.09
486.615	2864.88
486.985	2904.88
487.356	2928.61
487.726	3017.19
488.097	3073.46
488.467	3093.35
488.837	3174.25
489.207	3211.77
489.578	3276.85
489.948	3346
490.318	3368.82
490.688	3412.44
491.058	3524.07
491.428	3555.49
491.798	3649.49
492.168	3690.4
492.538	3694.47
492.908	3776.72
493.278	3870.73
493.648	3874.57
494.017	3941.24
494.387	3969.49
494.757	4014.46
495.126	4124.51
495.496	4101.01
495.866	4167.45
496.235	4211.29
496.605	4238.18
496.974	4297.39
497.344	4347.33
497.713	4367.67
498.082	4447.21
498.452	4547.32
498.821	4519.98
499.19	4603.59
499.559	4585.97
499.928	4655.8
500.298	4716.13
500.667	4756.13
501.036	4777.83
501.405	4807.43
501.774	4849.69
502.143	4851.72
502.512	4908.9
502.88	4998.84
503.249	5002
503.618	5010.81
503.987	5081.55
504.356	5114.31
504.724	5127.2
505.093	5151.6
505.462	5202.45
505.83	5254.2
506.199	5255.1
506.567	5347.75
506.936	5324.93
507.304	5443.35
507.672	5419.62
508.041	5443.57
508.409	5517.47
508.777	5528.09
509.145	5536.9
509.514	5606.05
509.882	5622.78
510.25	5668.2
510.618	5697.12
510.986	5687.86
511.354	5723.79
511.722	5821.41
512.09	5823.45
512.458	5772.6
512.826	5911.81
513.193	5868.65
513.561	5931.02
513.929	5954.97
514.297	5977.12
514.664	5999.49
515.032	6052.37
515.4	6071.35
515.767	6075.65
516.135	6122.42
516.502	6101.86
516.869	6208.52
517.237	6272.02
517.604	6171.46
517.972	6300.5
518.339	6335.75
518.706	6301.4
519.073	6302.98
519.44	6345.92
519.808	6406.94
520.175	6377.56
520.542	6452.58
520.909	6549.31
521.276	6541.17
521.643	6577.55
522.009	6587.04
522.376	6625.69
522.743	6634.05
523.11	6698.68
523.477	6765.12
523.843	6803.99
524.21	6809.19
524.577	6875.85
524.943	6952.46
525.31	6953.36
525.676	6981.84
526.043	7008.28
526.409	7085.34
526.776	7100.48
527.142	7123.08
527.508	7143.87
527.874	7188.61
528.241	7245.33
528.607	7279.23
528.973	7347.93
529.339	7337.99
529.705	7373.01
530.071	7459.79
530.437	7482.16
530.803	7497.53
531.169	7506.57
531.535	7559.67
531.901	7660.24
532.267	7693.46
532.632	7711.31
532.998	7669.95
533.364	7766.45
533.73	7726
534.095	7817.29
534.461	7824.75
534.826	7931.19
535.192	7954.92
535.557	8053.67
535.923	7949.04
536.288	8061.36
536.653	8064.07
537.019	8022.49
537.384	8105.87
537.749	8128.25
538.114	8168.47
538.479	8114.46
538.845	8194.23
539.21	8188.81
539.575	8321.69
539.94	8242.37
540.305	8398.07
540.67	8370.5
541.034	8401.69
541.399	8451.4
541.764	8477.62
542.129	8472.87
542.494	8462.93
542.858	8608.01
543.223	8570.72
543.587	8632.64
543.952	8625.86
544.316	8711.73
544.681	8693.88
545.045	8760.55
545.41	8850.49
545.774	8838.06
546.138	8853.88
546.503	8909.02
546.867	8894.1
547.231	9000.77
547.595	9046.19
547.959	8998.73
548.324	9052.29
548.688	9143.14
549.052	9136.58
549.416	9144.49
549.779	9133.19
550.143	9195.79
550.507	9208.9
550.871	9232.85
551.235	9279.85
551.599	9377.48
551.962	9376.58
552.326	9428.33
552.689	9446.18
553.053	9424.26
553.417	9460.87
553.78	9572.05
554.143	9484.6
554.507	9567.3
554.87	9658.83
555.234	9690.92
555.597	9604.82
555.96	9739.05
556.323	9733.85
556.686	9787.86
557.05	9800.29
557.413	9789.45
557.776	9802.1
558.139	9871.25
558.502	9918.93
558.865	9920.74
559.228	9976.11
559.59	9999.61
559.953	10053.39
560.316	10143.56
560.679	10101.3
561.041	10232.15
561.404	10243.22
561.767	10274.18
562.129	10195.99
562.492	10353.27
562.854	10329.09
563.217	10336.1
563.579	10400.05
563.941	10440.05
564.304	10491.8
564.666	10599.82
565.028	10529.09
565.39	10592.59
565.753	10713.04
566.115	10573.15
566.477	10787.61
566.839	10717.11
567.201	10820.83
567.563	10837.33
567.925	10842.75
568.287	10936.31
568.648	10931.56
569.01	11035.29
569.372	11058.34
569.734	11051.11
570.095	11137.21
570.457	11200.26
570.819	11190.31
571.18	11226.7
571.542	11287.03
571.903	11335.85
572.265	11438.89
572.626	11459.46
572.987	11479.8
573.349	11504.2
573.71	11674.82
574.071	11621.94
574.432	11755.27
574.794	11902.84
575.155	11797.08
575.516	11953.46
575.877	12018.54
576.238	12093.79
576.599	12107.35
576.96	12253.11
577.32	12317.29
577.681	12416.04
578.042	12540.33
578.403	12589.82
578.763	12682.93
579.124	12796.37
579.485	12950.04
579.845	13104.16
580.206	13180.32
580.566	13318.62
580.927	13401.33
581.287	13568.56
581.648	13656.69
582.008	13814.42
582.368	13898.94
582.728	14140.29
583.089	14333.28
583.449	14398.82
583.809	14575.76
584.169	14863.89
584.529	14911.8
584.889	15147.95
585.249	15212.81
585.609	15462.52
585.969	15701.38
586.329	15880.13
586.688	16081.48
587.048	16337.3
587.408	16446.45
587.768	16696.83
588.127	16907.22
588.487	17072.19
588.846	17520.09
589.206	17564.16
589.565	17795.56
589.925	18209.11
590.284	18319.84
590.643	18628.54
591.003	18871.69
591.362	19150.56
591.721	19311.23
592.08	19588.96
592.44	19843.87
592.799	20211.32
593.158	20342.39
593.517	20634.58
593.876	20911.19
594.235	21104.63
594.593	21425.52
594.952	21747.1
595.311	21890.82
595.67	22197.93
596.029	22633.85
596.387	22861.87
596.746	23143.45
597.104	23218.02
597.463	23484.68
597.822	23794.73
598.18	23982.07
598.538	24110.43
598.897	24553.35
599.255	24592.67
599.613	25158.31
599.972	25236.72
600.33	25538.64
600.688	25705.64
601.046	25938.63
601.404	26349.24
601.762	26438.27
602.12	26726.63
602.478	27042.33
602.836	27162.77
603.194	27252.72
603.552	27478.02
603.91	27763.21
604.268	28048.63
604.625	28191.22
604.983	28496.98
605.341	28488.62
605.698	28800.02
606.056	29061.48
606.413	29250.4
606.771	29508.02
607.128	29586.44
607.485	29677.96
607.843	29791.63
608.2	30256.25
608.557	30548.22
608.914	30497.6
609.272	30806.07
609.629	31006.97
609.986	31256.68
610.343	31405.37
610.7	31626.61
611.057	31732.37
611.414	31760.85
611.771	32058.92
612.127	32282.87
612.484	32368.74
612.841	32473.82
613.198	32659.13
613.554	32711.78
613.911	32926.92
614.267	33073.58
614.624	33245.33
614.98	33391.76
615.337	33537.97
615.693	33604.19
616.05	33667.24
616.406	33997.4
616.762	34022.93
617.118	33967.12
617.475	34183.38
617.831	34373.43
618.187	34497.04
618.543	34665.63
618.899	34857.94
619.255	34859.3
619.611	34913.98
619.967	35135.22
620.323	35289.34
620.678	35259.06
621.034	35162.56
621.39	35392.39
621.746	35298.61
622.101	35822.66
622.457	35587.86
622.812	35681.42
623.168	35831.93
623.523	35929.32
623.879	36080.05
624.234	35835.99
624.589	36106.27
624.945	36160.05
625.3	36377.9
625.655	36277.11
626.01	36220.16
626.365	36360.5
626.72	36349.65
627.075	36541.96
627.43	36537.9
627.785	36416.77
628.14	36527.05
628.495	36637.33
628.85	36673.94
629.205	36591
629.559	36986.7
629.914	36710.55
630.269	36715.97
630.623	36800.26
630.978	36700.6
631.332	36866.47
631.687	37022.63
632.041	36802.97
632.396	36899.47
632.75	36887.49
633.104	36962.97
633.459	36744.67
633.813	36834.16
634.167	36838
634.521	36866.47
634.875	36892.01
635.229	36926.13
635.583	36706.48
635.937	36893.37
636.291	36844.1
636.645	36749.64
636.999	36786.48
637.352	36904.21
637.706	36642.07
638.06	36804.55
638.413	36858.34
638.767	36642.07
639.121	36895.63
639.474	36653.37
639.828	36710.55
640.181	36809.75
640.534	36785.35
640.888	36648.85
641.241	36595.75
641.594	36659.7
641.947	36789.64
642.301	36612.92
642.654	36719.36
643.007	36567.05
643.36	36513.72
643.713	36568.4
644.066	36552.81
644.419	36458.35
644.771	36209.77
645.124	35916.67
645.477	35808.65
645.83	35606.17
646.182	35593.29
646.535	35351.71
646.888	35485.72
647.24	35446.4
647.593	35644.36
647.945	35639.16
648.298	35367.98
648.65	35303.58
649.002	35234.88
649.355	35489.11
649.707	35273.3
650.059	35564.14
650.411	35799.16
650.763	35894.3
651.115	36233.27
651.467	36136.78
651.819	36240.95
652.171	36065.14
652.523	36059.72
652.875	36005.03
653.227	35899.27
653.578	36187.17
653.93	35962.54
654.282	35928.42
654.633	35716.22
654.985	35900.85
655.337	35878.03
655.688	35952.15
656.039	36075.08
656.391	35725.94
656.742	35903.79
657.094	35818.14
657.445	35935.65
657.796	35841.87
658.147	35760.74
658.498	35753.06
658.849	35803.9
659.2	35679.84
659.551	35727.3
659.902	35760.74
660.253	35731.14
660.604	35724.58
660.955	35675.32
661.306	35767.97
661.656	35674.42
662.007	35673.29
662.358	35693.4
662.708	35658.37
663.059	35624.92
663.409	35459.28
663.76	35715.32
664.11	35767.29
664.461	35734.53
664.811	35716.22
665.161	35670.8
665.511	35588.54
665.862	35787.86
666.212	35743.57
666.562	35820.4
666.912	35713.28
667.262	35554.64
667.612	35642.1
667.962	35644.81
668.312	35656.34
668.662	35819.5
669.011	35572.04
669.361	35606.17
669.711	35579.73
670.06	35449.34
670.41	35415.21
670.76	35438.49
671.109	35527.07
671.459	35568.2
671.808	35325.05
672.157	35386.51
672.507	35264.48
672.856	35370.92
673.205	35323.69
673.554	35408.89
673.904	35330.92
674.253	35429.9
674.602	35378.38
674.951	34807.55
675.3	34584.95
675.649	35283.24
675.998	35216.57
676.346	35174.77
676.695	35262.67
677.044	34953.08
677.393	35148.55
677.741	35159.85
678.09	35053.19
678.438	35070.36
678.787	35085.96
679.135	34997.14
679.484	34849.58
679.832	34978.84
680.181	34949.46
680.529	34958.28
680.877	34704.95
681.225	34742.69
681.573	34830.82
681.922	34652.07
682.27	34499.53
682.618	34547.67
682.966	34449.36
683.314	34736.36
683.661	34486.65
684.009	34358.74
684.357	34297.5
684.705	34224.51
685.053	34379.08
685.4	34212.08
685.748	34060.67
686.095	34036.49
686.443	33968.02
686.79	33881.47
687.138	34001.92
687.485	33993.1
687.832	33880.34
688.18	33799.44
688.527	33695.71
688.874	33592.89
689.221	33617.97
689.568	33451.65
689.915	33400.12
690.262	33431.08
690.609	33239.45
690.956	33075.16
691.303	33075.16
691.65	32835.39
691.997	33026.8
692.344	32733.48
692.69	32873.58
693.037	32922.85
693.383	32508.62
693.73	32610.09
694.077	32396.76
694.423	32467.04
694.769	32395.63
695.116	32270.44
695.462	32262.75
695.808	32215.52
696.155	32267.05
696.501	31967.85
696.847	31979.82
697.193	31719.26
697.539	31900.28
697.885	31692.82
698.231	31577.57
698.577	31515.88
698.923	31491.7
699.269	31271.37
699.614	31171.03
699.96	31179.62
700.306	31149.11
700.651	31002.9
700.997	30981.43
701.342	31011.03
701.688	30728.1
702.033	30843.81
702.379	30698.95
702.724	30606.3
703.069	30697.82
703.415	30346.42
703.76	30280.88
704.105	30376.7
704.45	30217.16
704.795	30174.45
705.14	30046.31
705.485	29970.61
705.83	29842.03
706.175	29920.22
706.52	29830.95
706.865	29614.24
707.209	29716.15
707.554	29583.5
707.899	29740.33
708.243	29412.43
708.588	29421.25
708.932	29214.7
709.277	29306.22
709.621	29120.24
709.966	29126.56
710.31	29070.52
710.654	28843.86
710.998	28922.05
711.342	28888.6
711.687	28960.24
712.031	28721.38
712.375	28552.12
712.719	28742.62
713.063	28528.61
713.407	28740.13
713.75	28400.48
714.094	28406.81
714.438	28231.9
714.782	28339.69
715.125	28214.5
715.469	28240.94
715.812	28102.18
716.156	27990.55
716.499	28009.08
716.843	28023.99
717.186	27895.18
717.53	27952.58
717.873	28009.76
718.216	27827.16
718.559	27764.79
718.902	27689.31
719.246	27635.53
719.589	27591.92
719.932	27489.55
720.275	27497.68
720.617	27454.74
720.96	27505.59
721.303	27374.07
721.646	27343.56
721.989	27268.53
722.331	27256.78
722.674	27302.88
723.016	27196.9
723.359	27130.23
723.701	27197.58
724.044	27055.88
724.386	26912.16
724.729	26973.17
725.071	26759.4
725.413	26848.66
725.755	26820.18
726.097	26891.14
726.439	26551.49
726.782	26517.14
727.124	26679.62
727.465	26510.81
727.807	26537.93
728.149	26426.07
728.491	26471.72
728.833	26407.54
729.175	26487.31
729.516	26382.23
729.858	26294.55
730.199	26321.44
730.541	26235.34
730.882	26152.86
731.224	26312.4
731.565	26088.23
731.906	26131.39
732.248	26111.5
732.589	25923.71
732.93	25974.56
733.271	26012.07
733.612	25871.96
733.953	26079.87
734.294	25901.79
734.635	25727.11
734.976	25943.15
735.317	25681.01
735.658	25694.11
735.999	25610.72
736.339	25589.03
736.68	25658.18
737.021	25652.53
737.361	25515.13
737.702	25537.28
738.042	25457.73
738.383	25405.98
738.723	25478.52
739.063	25242.82
739.404	25451.63
739.744	25318.3
740.084	25202.37
740.424	25186.1
740.764	25246.67
741.104	25196.72
741.444	25104.75
741.784	25079.44
742.124	25045.77
742.464	25036.73
742.804	24882.61
743.143	24874.7
743.483	24918.77
743.823	24731.2
744.162	24736.62
744.502	24792.22
744.841	24745.66
745.181	24769.17
745.52	24681.26
745.86	24785.89
746.199	24604.42
746.538	24568.49
746.877	24567.36
747.216	24562.16
747.556	24506.57
747.895	24548.15
748.234	24352
748.573	24403.53
748.911	24423.19
749.25	24379.34
749.589	24224.77
749.928	24246.69
750.267	24315.39
750.605	24222.74
750.944	24306.58
751.283	24097.32
751.621	24212.8
751.96	24049.41
752.298	24130.76
752.636	24073.82
752.975	23905.46
753.313	23882.63
753.651	23977.77
753.989	23785.24
754.327	23827.27
754.666	23699.36
755.004	23719.02
755.342	23778.46
755.679	23623.21
756.017	23395.42
756.355	23667.27
756.693	23467.96
757.031	23444.45
757.368	23366.26
757.706	23368.52
758.044	23235.65
758.381	23299.83
758.719	23165.14
759.056	23250.79
759.394	23142.32
759.731	23022.09
760.068	22955.43
760.405	22818.93
760.743	22910.46
761.08	22763.79
761.417	22720.63
761.754	22677.02
762.091	22614.42
762.428	22504.37
762.765	22377.14
763.102	22496.68
763.438	22329.68
763.775	22248.33
764.112	22250.36
764.449	22281.55
764.785	22170.59
765.122	21977.15
765.458	21881.33
765.795	21947.32
766.131	21883.14
766.467	21744.61
766.804	21700.77
767.14	21672.75
767.476	21595.46
767.812	21393.43
768.148	21590.27
768.485	21399.08
768.821	21233.89
769.157	21238.41
769.492	21235.7
769.828	21127.68
770.164	20921.58
770.5	20973.11
770.836	20908.93
771.171	20858.53
771.507	20800.23
771.842	20710.97
772.178	20626.68
772.513	20552.33
772.849	20487.7
773.184	20415.16
773.519	20369.51
773.855	20287.02
774.19	20187.14
774.525	20174.03
774.86	20135.84
775.195	20003.41
775.53	19991.44
775.865	19815.17
776.2	19764.32
776.535	19656.53
776.87	19537.21
777.205	19516.2
777.539	19431.68
777.874	19579.47
778.209	19318.23
778.543	19334.73
778.878	19196.43
779.212	19200.27
779.547	19025.36
779.881	19087.51
780.215	18837.8
780.55	18915.08
780.884	18827.63
781.218	18788.53
781.552	18752.6
781.886	18702.88
782.22	18610.68
782.554	18570.91
782.888	18410.69
783.222	18292.95
783.556	18287.75
783.889	18262.9
784.223	18099.74
784.557	18132.73
784.89	18075.1
785.224	17979.29
785.557	17918.95
785.891	17783.13
786.224	17773.19
786.558	17749.91
786.891	17629.01
787.224	17608
787.557	17432.18
787.891	17482.8
788.224	17472.86
788.557	17479.64
788.89	17258.85
789.223	17234.22
789.556	17228.57
789.888	17161.46
790.221	17030.16
790.554	16859.09
790.887	17060.44
791.219	16896.15
791.552	16911.29
791.884	16786.78
792.217	16687.12
792.549	16631.07
792.882	16569.83
793.214	16365.54
793.546	16459.1
793.879	16323.51
794.211	16226.34
794.543	16268.15
794.875	16223.63
795.207	16320.12
795.539	16182.05
795.871	16162.61
796.203	15962.62
796.535	15822.28
796.867	15843.75
797.198	15864.09
797.53	15759.68
797.862	15730.31
798.193	15750.19
798.525	15618.22
798.856	15740.7
799.188	15516.98
799.519	15457.77
799.85	15359.02
800.182	15331.9
800.513	15413.93
800.844	15243.99
801.175	15312.46
801.506	15272.69
801.837	15178.91
802.168	15218.46
802.499	15168.51
802.83	15056.43
803.161	14939.59
803.491	14940.05
803.822	15016.88
804.153	14860.73
804.483	14755.19
804.814	14792.48
805.145	14656.21
805.475	14733.5
805.805	14601.97
806.136	14689.2
806.466	14639.94
806.796	14608.3
807.126	14510
807.457	14406.5
807.787	14488.53
808.117	14393.84
808.447	14267.97
808.777	14334.19
809.107	14257.13
809.436	14281.53
809.766	14264.13
810.096	14152.72
810.426	14056.9
810.755	14129.9
811.085	14100.97
811.414	14057.13
811.744	13952.05
812.073	13874.08
812.403	13938.72
812.732	13781.66
813.061	13865.5
813.39	13687.65
813.719	13662.34
814.049	13773.52
814.378	13748.89
814.707	13672.51
815.036	13679.06
815.365	13567.88
815.693	13426.64
816.022	13427.54
816.351	13423.47
816.68	13381.22
817.008	13299.41
817.337	13256.93
817.665	13188.23
817.994	13340.54
818.322	13297.38
818.651	13197.94
818.979	13160.43
819.307	13129.02
819.636	13108.68
819.964	12999.31
820.292	13060.32
820.62	13104.39
820.948	12989.36
821.276	13115.69
821.604	12997.72
821.932	12991.85
822.259	13056.25
822.587	12950.72
822.915	12898.06
823.243	13082.69
823.57	12895.13
823.898	12966.99
824.225	12942.58
824.553	12939.87
824.88	12965.41
825.207	13023.26
825.535	12877.05
825.862	12960.21
826.189	12900.1
826.516	12897.39
826.843	12984.16
827.17	12999.98
827.497	13007.44
827.824	12962.02
828.151	12946.88
828.478	12893.77
828.805	12965.41
829.131	12913.21
829.458	12933.09
829.785	12826.65
830.111	12913.66
830.438	12884.28
830.764	12890.38
831.09	12945.3
831.417	12804.51
831.743	12959.53
832.069	12821.91
832.395	12799.31
832.722	12842.47
833.048	12787.11
833.374	12821.46
833.7	12733.1
834.026	12764.73
834.351	12756.6
834.677	12805.64
835.003	12769.71
835.329	12648.35
835.654	12679.54
835.98	12596.83
836.306	12648.35
836.631	12612.87
836.956	12632.31
837.282	12720.89
837.607	12567.23
837.932	12590.73
838.258	12564.51
838.583	12621.69
838.908	12512.09
839.233	12488.13
839.558	12478.87
839.883	12431.64
840.208	12414.91
840.533	12348.02
840.858	12412.2
841.182	12409.72
841.507	12368.59
841.832	12298.53
842.156	12264.41
842.481	12261.92
842.805	12277.97
843.13	12238.87
843.454	12221.02
843.778	12072.1
844.103	12061.7
844.427	12020.12
844.751	12031.65
845.075	12021.7
845.399	11951.65
845.723	11999.78
846.047	11901.93
846.371	11812.44
846.695	11834.59
847.019	11732.45
847.343	11739.68
847.666	11669.85
847.99	11583.3
848.313	11522.96
848.637	11490.42
848.96	11511.66
849.284	11469.18
849.607	11388.95
849.931	11346.24
850.254	11245.9
850.577	11208.84
850.9	11172.23
851.223	11101.95
851.546	11067.83
851.869	11042.52
852.192	11062.86
852.515	10873.49
852.838	10980.6
853.161	10872.36
853.483	10796.88
853.806	10808.4
854.129	10811.34
854.451	10736.77
854.774	10736.09
855.096	10647.73
855.419	10642.53
855.741	10580.84
856.063	10628.07
856.385	10498.58
856.708	10468.98
857.03	10485.92
857.352	10388.75
857.674	10382.2
857.996	10315.53
858.318	10392.14
858.64	10362.09
858.961	10329.54
859.283	10191.02
859.605	10190.79
859.926	10211.13
860.248	10186.95
860.57	10203.67
860.891	10174.97
861.212	10140.62
861.534	10068.31
861.855	10151.47
862.176	10030.8
862.498	10059.95
862.819	10102.88
863.14	10058.59
863.461	9960.51
863.782	9911.7
864.103	9964.13
864.424	9883.45
864.745	9840.97
865.065	9886.62
865.386	9825.38
865.707	9786.06
866.027	9786.28
866.348	9804.81
866.668	9791.71
866.989	9739.28
867.309	9670.58
867.63	9773.4
867.95	9734.31
868.27	9618.38
868.59	9684.82
868.91	9672.39
869.23	9603.24
869.55	9632.84
869.87	9649.11
870.19	9585.84
870.51	9610.02
870.83	9588.77
871.15	9525.5
871.469	9512.62
871.789	9571.82
872.109	9559.17
872.428	9504.93
872.748	9506.29
873.067	9419.29
873.386	9428.55
873.706	9430.81
874.025	9453.18
874.344	9359.17
874.663	9386.97
874.982	9443.69
875.301	9351.27
875.62	9302.23
875.939	9227.2
876.258	9282.11
876.577	9265.62
876.896	9222.91
877.214	9231.95
877.533	9299.74
877.852	9243.7
878.17	9245.51
878.489	9190.37
878.807	9249.57
879.125	9208.44
879.444	9148.56
879.762	9127.32
880.08	9175.45
880.398	9090.26
880.716	9100.2
881.034	9001.67
881.352	9086.87
881.67	8956.47
881.988	9055.91
882.306	8996.02
882.624	8972.52
882.941	8943.82
883.259	8941.11
883.577	8890.94
883.894	8839.64
884.212	8845.29
884.529	8840.09
884.846	8810.04
885.164	8783.82
885.481	8675.35
885.798	8824.5
886.115	8766.65
886.432	8720.77
886.75	8702.24
887.067	8671.28
887.383	8661.79
887.7	8711.96
888.017	8630.83
888.334	8655.69
888.651	8621.12
888.967	8480.55
889.284	8498.63
889.6	8523.72
889.917	8474.68
890.233	8452.31
890.55	8386.77
890.866	8467.22
891.182	8410.5
891.498	8386.77
891.815	8315.36
892.131	8302.48
892.447	8295.02
892.763	8279.43
893.079	8302.48
893.395	8189.71
893.71	8165.31
894.026	8176.83
894.342	8182.93
894.657	8095.25
894.973	8115.59
895.289	8045.99
895.604	8029.04
895.92	8011.64
896.235	8006.67
896.55	7965.99
896.865	7915.6
897.181	7927.12
897.496	7899.33
897.811	7863.85
898.126	7864.75
898.441	7796.28
898.756	7812.1
899.071	7818.88
899.386	7756.51
899.7	7670.41
900.015	7660.24
900.33	7630.41
900.644	7632.44
900.959	7545.44
901.273	7612.78
901.588	7537.3
901.902	7482.39
902.216	7469.06
902.531	7483.74
902.845	7413.46
903.159	7370.53
903.473	7361.26
903.787	7330.08
904.101	7319
904.415	7258.67
904.729	7288.95
905.042	7188.84
905.356	7161.27
905.67	7171.89
905.984	7172.79
906.297	7137.76
906.611	7133.47
906.924	7062.29
907.237	7037.88
907.551	7048.73
907.864	7002.63
908.177	6993.14
908.491	6971.67
908.804	6854.16
909.117	6863.87
909.43	6875.4
909.743	6843.76
910.056	6808.73
910.368	6737.77
910.681	6757.89
910.994	6739.58
911.307	6677.21
911.619	6652.81
911.932	6637.44
912.244	6592.47
912.557	6566.48
912.869	6556.76
913.181	6554.28
913.494	6509.53
913.806	6439.7
914.118	6442.19
914.43	6414.85
914.742	6412.81
915.054	6401.96
915.366	6323.1
915.678	6286.94
915.99	6264.57
916.302	6243.78
916.613	6241.97
916.925	6177.34
917.236	6239.93
917.548	6197.22
917.859	6143.89
918.171	6134.4
918.482	6086.27
918.794	6098.24
919.105	6044.69
919.416	6014.18
919.727	6011.69
920.038	6037.45
920.349	5989.77
920.66	5907.97
920.971	5955.87
921.282	5874.75
921.593	5814.64
921.903	5802.66
922.214	5829.78
922.525	5797.46
922.835	5714.98
923.146	5715.65
923.456	5720.63
923.767	5701.42
924.077	5674.98
924.387	5664.36
924.697	5606.51
925.008	5604.47
925.318	5569.67
925.628	5528.77
925.938	5527.64
926.248	5507.75
926.558	5443.12
926.867	5431.59
927.177	5424.81
927.487	5396.57
927.796	5383.46
928.106	5372.61
928.416	5380.3
928.725	5321.31
929.034	5267.31
929.344	5276.12
929.653	5286.97
929.962	5236.12
930.271	5173.52
930.581	5211.04
930.89	5160.42
931.199	5108.67
931.508	5115.22
931.817	5079.06
932.125	5073.86
932.434	5073.19
932.743	5030.25
933.051	5029.35
933.36	4950.93
933.669	4927.88
933.977	4912.51
934.286	4908.67
934.594	4852.85
934.902	4860.08
935.21	4841.78
935.519	4891.27
935.827	4834.55
936.135	4739.86
936.443	4781.67
936.751	4752.74
937.059	4739.18
937.367	4709.35
937.674	4674.78
937.982	4647.66
938.29	4613.08
938.597	4693.08
938.905	4590.03
939.213	4581.9
939.52	4553.88
939.827	4606.98
940.135	4536.02
940.442	4545.52
940.749	4521.11
941.056	4475.46
941.363	4453.54
941.67	4444.05
941.977	4419.19
942.284	4366.31
942.591	4342.58
942.898	4343.04
943.205	4370.61
943.511	4336.93
943.818	4283.83
944.125	4311.62
944.431	4260.33
944.738	4243.6
945.044	4216.71
945.35	4184.85
945.657	4179.88
945.963	4170.16
946.269	4102.82
946.575	4162.25
946.881	4100.33
947.187	4133.78
947.493	4076.15
947.799	4064.85
948.105	4044.74
948.41	4065.08
948.716	4062.82
949.022	3959.54
949.327	3973.33
949.633	3972.42
949.938	3978.3
950.244	3945.76
950.549	3918.41
950.854	3870.73
951.16	3858.53
951.465	3918.41
951.77	3847.91
952.075	3802.26
952.38	3825.31
952.685	3810.39
952.99	3778.98
953.294	3771.07
953.599	3769.04
953.904	3736.05
954.209	3737.4
954.513	3706.67
954.818	3698.31
955.122	3692.21
955.426	3691.75
955.731	3665.99
956.035	3649.95
956.339	3596.16
956.643	3608.14
956.948	3572.21
957.252	3564.75
957.556	3616.95
957.86	3572.66
958.163	3521.14
958.467	3519.1
958.771	3500.57
959.075	3536.5
959.378	3453.79
959.682	3479.33
959.985	3454.7
960.289	3429.61
960.592	3443.4
960.896	3421.93
961.199	3395.49
961.502	3355.04
961.805	3366.56
962.108	3317.75
962.411	3344.64
962.714	3320.24
963.017	3291.31
963.32	3244.53
963.623	3266.68
963.926	3266
964.228	3232.56
964.531	3246.34
964.833	3220.35
965.136	3185.1
965.438	3189.62
965.741	3131.54
966.043	3155.27
966.345	3141.94
966.648	3086.35
966.95	3128.15
967.252	3089.28
967.554	3083.86
967.856	3075.27
968.158	3021.04
968.46	3024.2
968.761	3005.9
969.063	3020.36
969.365	2949.63
969.666	3007.93
969.968	2971.32
970.269	2967.25
970.571	2964.31
970.872	2935.16
971.174	2939
971.475	2930.87
971.776	2878.44
972.077	2871.44
972.378	2881.83
972.679	2877.54
972.98	2865.11
973.281	2832.34
973.582	2816.97
973.883	2845.67
974.183	2814.04
974.484	2793.47
974.785	2785.79
975.085	2783.98
975.386	2765.22
975.686	2803.64
975.986	2740.14
976.287	2737.65
976.587	2696.07
976.887	2700.82
977.187	2720.48
977.487	2671.44
977.787	2656.75
978.087	2682.74
978.387	2630.09
978.687	2621.5
978.987	2635.96
979.286	2624.89
979.586	2602.29
979.885	2577.66
980.185	2561.16
980.484	2571.1
980.784	2537.43
981.083	2519.13
981.382	2517.55
981.682	2513.93
981.981	2502.18
982.28	2512.58
982.579	2496.98
982.878	2493.82
983.177	2459.47
983.475	2421.05
983.774	2447.72
984.073	2434.84
984.372	2398.68
984.67	2413.59
984.969	2384.67
985.267	2375.4
985.566	2365.23
985.864	2380.15
986.162	2348.96
986.461	2326.14
986.759	2357.33
987.057	2327.5
987.355	2306.25
987.653	2328.4
987.951	2278.91
988.249	2279.13
988.547	2283.88
988.844	2268.29
989.142	2268.51
989.44	2242.3
989.737	2204.79
990.035	2219.02
990.332	2243.43
990.63	2217.89
990.927	2218.35
991.224	2188.52
991.521	2164.34
991.819	2174.96
992.116	2182.87
992.413	2137.67
992.71	2140.61
993.006	2120.72
993.303	2126.14
993.6	2146.94
993.897	2095.64
994.193	2098.8
994.49	2081.4
994.787	2071.68
995.083	2048.86
995.379	2028.97
995.676	2038.46
995.972	2036.43
996.268	2007.28
996.565	1985.13
996.861	2004.11
997.157	1984.45
997.453	1966.6
997.749	1992.36
998.044	1962.53
998.34	1946.94
998.636	1933.61
998.932	1949.65
999.227	1925.25
999.523	1919.6
999.818	1897
1000.114	1899.94
1000.409	1898.81
1000.704	1864
1001	1871.46
1001.295	1880.5
1001.59	1840.5
1001.885	1870.56
1002.18	1828.75
1002.475	1793.05
1002.77	1795.08
1003.065	1816.32
1003.359	1780.84
1003.654	1763.67
1003.949	1771.13
1004.243	1755.76
1004.538	1775.42
1004.832	1737.91
1005.127	1747.17
1005.421	1718.02
1005.715	1744.01
1006.009	1704.69
1006.304	1705.82
1006.598	1679.38
1006.892	1668.53
1007.186	1658.13
1007.48	1639.6
1007.773	1642.54
1008.067	1676.66
1008.361	1624.69
1008.655	1624.46
1008.948	1611.13
1009.242	1591.24
1009.535	1562.54
1009.829	1609.77
1010.122	1573.39
1010.415	1598.02
1010.708	1548.98
1011.001	1529.78
1011.295	1533.62
1011.588	1544.24
1011.881	1531.58
1012.173	1515.99
1012.466	1535.65
1012.759	1525.71
1013.052	1501.75
1013.344	1508.53
1013.637	1464.47
1013.93	1472.38
1014.222	1470.34
1014.514	1438.03
1014.807	1441.64
1015.099	1465.6
1015.391	1428.99
1015.683	1414.98
1015.976	1410.01
1016.268	1419.04
1016.56	1404.81
1016.851	1394.86
1017.143	1396.22
1017.435	1393.96
1017.727	1368.65
1018.018	1367.29
1018.31	1363.9
1018.602	1341.31
1018.893	1312.38
1019.185	1324.58
1019.476	1296.34
1019.767	1333.62
1020.058	1296.79
1020.35	1316.9
1020.641	1281.87
1020.932	1298.6
1021.223	1241.42
1021.514	1259.27
1021.804	1212.95
1022.095	1256.79
1022.386	1217.02
1022.677	1241.87
1022.967	1224.93
1023.258	1215.89
1023.548	1209.11
1023.839	1211.14
1024.129	1175.44
1024.419	1186.73
1024.709	1166.62
1025	1194.64
1025.29	1137.7
1025.58	1139.73
1025.87	1171.14
1026.16	1132.5
1026.449	1130.92
1026.739	1123.23
1027.029	1111.93
1027.319	1132.05
1027.608	1112.61
1027.898	1128.88
1028.187	1110.13
1028.477	1094.99
1028.766	1083.01
1029.055	1058.83
1029.344	1068.55
1029.634	1049.11
1029.923	1054.08
1030.212	1051.82
1030.501	1037.81
1030.79	1047.3
1031.078	1025.16
1031.367	1027.42
1031.656	1003.91
1031.945	1018.83
1032.233	1013.63
1032.522	984.48
1032.81	994.42
1033.099	1023.12
1033.387	995.33
1033.675	966.85
1033.963	966.4
1034.251	950.13
1034.54	960.98
1034.828	965.27
1035.116	950.13
1035.403	926.63
1035.691	929.34
1035.979	931.37
1036.267	925.27
1036.554	933.18
1036.842	927.76
1037.129	901.09
1037.417	893.41
1037.704	907.87
1037.992	871.71
1038.279	866.74
1038.566	871.94
1038.853	871.94
1039.14	871.94
