Data from hue_10_FLMS001491_52.txt Node
Date: Mon Feb 06 15:32:08 GMT 2017
User: dcchb
Spectrometer: FLMS00149
Trigger mode: 0
Integration Time (sec): 2.000000E-2
Scans to average: 10
Electric dark correction enabled: true
Nonlinearity correction enabled: false
Boxcar width: 0
XAxis mode: Wavelengths
Number of Pixels in Spectrum: 2048
>>>>>Begin Spectral Data<<<<<
341.393	-0.75
341.776	-0.75
342.16	-0.75
342.543	-69.9
342.927	-74.64
343.31	-66.96
343.693	-68.54
344.077	-48.88
344.46	-57.02
344.843	-39.39
345.226	-32.61
345.61	-48.66
345.993	-38.71
346.376	12.58
346.759	-7.75
347.142	24.79
347.525	49.87
347.908	43.54
348.291	69.76
348.674	90.32
349.057	117.67
349.44	116.08
349.823	130.1
350.206	161.73
350.588	193.37
350.971	223.65
351.354	222.75
351.737	220.26
352.119	258.45
352.502	257.1
352.884	298.23
353.267	283.99
353.65	290.09
354.032	285.8
354.414	293.93
354.797	300.03
355.179	310.66
355.562	318.34
355.944	321.5
356.326	336.42
356.709	335.06
357.091	340.94
357.473	349.3
357.855	338.23
358.238	352.01
358.62	319.24
359.002	337.1
359.384	347.94
359.766	350.2
360.148	336.87
360.53	336.19
360.912	338.45
361.294	336.87
361.676	315.63
362.057	324.44
362.439	339.58
362.821	314.5
363.203	323.08
363.584	318.11
363.966	328.96
364.348	315.18
364.729	318.11
365.111	320.37
365.493	319.02
365.874	315.18
366.256	325.34
366.637	332.35
367.019	302.07
367.4	307.94
367.781	309.07
368.163	303.42
368.544	326.47
368.925	309.98
369.306	321.73
369.688	307.27
370.069	311.56
370.45	327.6
370.831	303.65
371.212	312.01
371.593	288.28
371.974	311.56
372.355	312.24
372.736	316.53
373.117	316.76
373.498	313.14
373.879	303.42
374.26	321.95
374.641	299.13
375.021	310.2
375.402	333.48
375.783	326.93
376.163	315.18
376.544	323.99
376.925	323.99
377.305	333.93
377.686	330.09
378.066	330.09
378.447	311.56
378.827	329.86
379.208	323.08
379.588	320.37
379.968	321.28
380.349	329.64
380.729	320.6
381.109	313.37
381.489	341.39
381.87	316.76
382.25	340.26
382.63	336.87
383.01	334.38
383.39	333.93
383.77	345.01
384.15	325.12
384.53	329.41
384.91	337.55
385.29	351.33
385.67	342.29
386.049	365.8
386.429	350.88
386.809	333.71
387.189	338.23
387.568	336.42
387.948	318.34
388.328	362.86
388.707	352.69
389.087	323.76
389.466	368.06
389.846	342.52
390.225	348.17
390.605	373.03
390.984	357.89
391.363	357.89
391.743	342.52
392.122	352.91
392.501	372.12
392.881	375.06
393.26	344.1
393.639	345.68
394.018	368.96
394.397	346.81
394.776	353.37
395.155	380.03
395.534	366.02
395.913	356.08
396.292	371.45
396.671	368.51
397.05	360.6
397.429	394.5
397.808	385.68
398.186	337.77
398.565	385.91
398.944	370.54
399.323	385.91
399.701	378.45
400.08	379.81
400.458	383.2
400.837	396.98
401.215	388.62
401.594	388.39
401.972	384.78
402.351	376.64
402.729	391.78
403.107	387.72
403.486	382.07
403.864	390.65
404.242	396.76
404.62	407.6
404.999	413.25
405.377	388.62
405.755	404.89
406.133	423.42
406.511	392.01
406.889	415.74
407.267	404.21
407.645	411.44
408.023	402.4
408.401	419.13
408.779	406.25
409.156	432.91
409.534	428.17
409.912	433.14
410.29	431.56
410.667	440.82
411.045	428.17
411.422	417.77
411.8	413.48
412.178	429.97
412.555	422.07
412.933	451.67
413.31	442.86
413.687	442.86
414.065	450.99
414.442	454.83
414.819	458.45
415.197	465.45
415.574	439.92
415.951	451.89
416.328	454.83
416.705	471.78
417.082	466.58
417.46	496.87
417.837	482.63
418.214	465.23
418.591	480.82
418.967	483.08
419.344	477.2
419.721	468.84
420.098	476.98
420.475	470.88
420.852	489.18
421.228	501.39
421.605	506.36
421.982	518.79
422.358	505.9
422.735	518.56
423.111	510.42
423.488	500.26
423.864	522.85
424.241	526.24
424.617	533.02
424.994	509.52
425.37	505.45
425.746	532.8
426.123	530.54
426.499	528.28
426.875	544.32
427.251	538.22
427.627	526.24
428.003	539.8
428.379	539.8
428.756	557.2
429.132	547.26
429.507	573.93
429.883	562.85
430.259	576.86
430.635	570.76
431.011	590.65
431.387	571.44
431.763	576.86
432.138	572.8
432.514	585.68
432.89	593.13
433.265	598.56
433.641	583.42
434.016	621.61
434.392	622.51
434.767	630.2
435.143	614.83
435.518	638.56
435.894	627.48
436.269	638.56
436.644	656.41
437.02	662.28
437.395	647.37
437.77	640.14
438.145	669.52
438.52	648.27
438.895	662.96
439.271	666.35
439.646	656.64
440.021	672.68
440.395	693.02
440.77	671.78
441.145	690.53
441.52	710.87
441.895	693.7
442.27	701.83
442.645	709.97
443.019	720.14
443.394	704.09
443.769	739.12
444.143	710.42
444.518	719.23
444.892	711.55
445.267	729.4
445.641	741.83
446.016	731.21
446.39	732.57
446.764	772.34
447.139	736.41
447.513	742.06
447.887	736.41
448.262	749.06
448.636	748.38
449.01	779.34
449.384	753.13
449.758	783.86
450.132	756.75
450.506	789.97
450.88	790.87
451.254	752.68
451.628	803.52
452.002	753.13
452.376	807.37
452.75	793.35
453.123	813.47
453.497	803.07
453.871	808.95
454.244	841.26
454.618	850.98
454.992	832.68
455.365	850.3
455.739	879.91
456.112	894.14
456.486	871.77
456.859	889.4
457.232	904.31
457.606	913.35
457.979	888.27
458.352	906.57
458.725	913.58
459.099	903.63
459.472	971.66
459.845	937.76
460.218	950.19
460.591	949.96
460.964	969.62
461.337	968.72
461.71	1000.36
462.083	990.86
462.456	999.9
462.829	1012.78
463.201	1032.9
463.574	1052.56
463.947	1028.6
464.32	1048.49
464.692	1040.13
465.065	1071.54
465.438	1070.86
465.81	1089.62
466.183	1100.24
466.555	1128.49
466.928	1095.27
467.3	1148.37
467.672	1165.1
468.045	1170.75
468.417	1169.62
468.789	1186.34
469.161	1196.51
469.534	1245.55
469.906	1218.2
470.278	1247.35
470.65	1275.38
471.022	1285.09
471.394	1305.21
471.766	1325.77
472.138	1329.16
472.51	1339.33
472.882	1363.28
473.253	1382.49
473.625	1390.4
473.997	1424.75
474.369	1430.17
474.74	1466.33
475.112	1482.15
475.484	1498.87
475.855	1538.42
476.227	1559.21
476.598	1582.71
476.97	1584.52
477.341	1652.32
477.713	1653.22
478.084	1670.17
478.455	1713.56
478.827	1738.64
479.198	1767.57
479.569	1777.96
479.94	1817.51
480.311	1848.69
480.682	1891.18
481.053	1938.41
481.424	1972.76
481.795	1998.52
482.166	2010.72
482.537	2023.6
482.908	2090.72
483.279	2137.27
483.65	2165.3
484.021	2190.83
484.391	2249.59
484.762	2269.47
485.133	2301.79
485.503	2322.58
485.874	2371.39
486.244	2412.75
486.615	2502.69
486.985	2511.5
487.356	2547.88
487.726	2557.38
488.097	2602.12
488.467	2618.39
488.837	2694.32
489.207	2674.89
489.578	2760.76
489.948	2787.43
490.318	2845.96
490.688	2841.66
491.058	2943.13
491.428	2963.02
491.798	3013.86
492.168	3065.84
492.538	3058.61
492.908	3103.35
493.278	3107.87
493.648	3097.48
494.017	3180.18
494.387	3196.91
494.757	3231.71
495.126	3282.55
495.496	3304.25
495.866	3333.63
496.235	3355.55
496.605	3392.38
496.974	3423.57
497.344	3452.04
497.713	3476.45
498.082	3465.15
498.452	3547.18
498.821	3576.78
499.19	3584.24
499.559	3614.3
499.928	3604.81
500.298	3669.21
500.667	3727.06
501.036	3714.18
501.405	3778.36
501.774	3791.92
502.143	3824.46
502.512	3802.77
502.88	3838.92
503.249	3819.26
503.618	3885.7
503.987	3873.05
504.356	3854.52
504.724	3909.43
505.093	3922.54
505.462	3966.6
505.83	3956.89
506.199	4017
506.567	4057.9
506.936	4057.22
507.304	4115.3
507.672	4119.82
508.041	4106.94
508.409	4162.53
508.777	4159.59
509.145	4148.52
509.514	4182.64
509.882	4212.02
510.25	4195.53
510.618	4285.01
510.986	4262.87
511.354	4335.41
511.722	4330.89
512.09	4372.47
512.458	4350.1
512.826	4380.15
513.193	4395.07
513.561	4371.79
513.929	4406.59
514.297	4487.04
514.664	4478.46
515.032	4458.57
515.4	4511.22
515.767	4526.36
516.135	4534.5
516.502	4570.43
516.869	4591.9
517.237	4611.79
517.604	4574.95
517.972	4625.34
518.339	4620.82
518.706	4644.55
519.073	4696.53
519.44	4712.35
519.808	4718.22
520.175	4733.59
520.542	4791.89
520.909	4758.67
521.276	4793.02
521.643	4826.47
522.009	4845.68
522.376	4891.33
522.743	4879.35
523.11	4897.88
523.477	4975.84
523.843	4990.53
524.21	5045.67
524.577	5055.62
524.943	5054.26
525.31	5079.12
525.676	5120.25
526.043	5135.16
526.409	5174.93
526.776	5232.33
527.142	5259.68
527.508	5268.72
527.874	5259.45
528.241	5295.16
528.607	5344.87
528.973	5427.81
529.339	5336.06
529.705	5413.8
530.071	5422.39
530.437	5436.85
530.803	5499.9
531.169	5556.62
531.535	5473.68
531.901	5487.69
532.267	5508.49
532.632	5651.98
532.998	5634.13
533.364	5679.33
533.73	5668.03
534.095	5726.78
534.461	5722.72
534.826	5765.65
535.192	5783.51
535.557	5821.47
535.923	5847.46
536.288	5834.13
536.653	5868.93
537.019	5837.74
537.384	5894.24
537.749	5899.66
538.114	5912.54
538.479	5957.29
538.845	5960.22
539.21	6018.75
539.575	5998.19
539.94	6031.86
540.305	6102.14
540.67	6113.89
541.034	6127.23
541.399	6181.46
541.764	6150.5
542.129	6193.21
542.494	6201.8
542.858	6234.79
543.223	6213.33
543.587	6322.25
543.952	6318.86
544.316	6316.6
544.681	6260.1
545.045	6360.21
545.41	6441.34
545.774	6439.53
546.138	6448.35
546.503	6500.32
546.867	6503.26
547.231	6525.86
547.595	6510.72
547.959	6558.63
548.324	6544.16
548.688	6573.32
549.052	6672.3
549.416	6645.86
549.779	6694.89
550.143	6661.45
550.507	6781.22
550.871	6721.33
551.235	6795
551.599	6778.73
551.962	6806.53
552.326	6835.68
552.689	6933.76
553.053	6846.53
553.417	6820.54
553.78	6958.39
554.143	6971.05
554.507	6950.48
554.87	6975.57
555.234	7038.61
555.597	6995.45
555.96	6985.73
556.323	7109.12
556.686	7082.91
557.05	7148.44
557.413	7107.99
557.776	7169.46
558.139	7228.67
558.502	7221.66
558.865	7243.35
559.228	7235.22
559.59	7277.25
559.953	7293.97
560.316	7343.01
560.679	7399.96
561.041	7411.03
561.404	7445.84
561.767	7503.69
562.129	7386.63
562.492	7552.5
562.854	7502.56
563.217	7562.89
563.579	7502.33
563.941	7594.53
564.304	7636.34
564.666	7697.58
565.028	7657.13
565.39	7730.12
565.753	7711.14
566.115	7806.05
566.477	7818.25
566.839	7844.47
567.201	7837.69
567.563	7851.47
567.925	7944.58
568.287	7926.27
568.648	7901.42
569.01	7983.9
569.372	8020.28
569.734	8077.68
570.095	8082.43
570.457	8194.06
570.819	8117.91
571.18	8187.28
571.542	8253.72
571.903	8212.37
572.265	8343.44
572.626	8401.52
572.987	8384.57
573.349	8442.42
573.71	8465.24
574.071	8529.65
574.432	8527.61
574.794	8635.18
575.155	8603.09
575.516	8673.37
575.877	8761.51
576.238	8820.04
576.599	8894.84
576.96	8914.05
577.32	8926.25
577.681	9021.16
578.042	9115.62
578.403	9138.9
578.763	9254.38
579.124	9268.39
579.485	9389.51
579.845	9549.51
580.206	9611.2
580.566	9731.65
580.927	9839.67
581.287	9981.14
581.648	10035.37
582.008	10197.63
582.368	10196.95
582.728	10398.3
583.089	10540.9
583.449	10605.98
583.809	10777.27
584.169	10924.84
584.529	11069.02
584.889	11314.21
585.249	11422.91
585.609	11523.02
585.969	11652.05
586.329	11897.24
586.688	12096.33
587.048	12262.21
587.408	12386.72
587.768	12592.14
588.127	12841.85
588.487	13002.98
588.846	13346.47
589.206	13424.89
589.565	13670.08
589.925	13943.52
590.284	14039.56
590.643	14371.08
591.003	14665.53
591.362	14900.78
591.721	15100.32
592.08	15381.9
592.44	15648.56
592.799	15845.39
593.158	16136
593.517	16371.25
593.876	16610.79
594.235	16864.8
594.593	17094.85
594.952	17466.59
595.311	17617.55
595.67	18030.64
596.029	18368.03
596.387	18629.72
596.746	18892.99
597.104	19084.17
597.463	19313.32
597.822	19675.34
598.18	19815
598.538	20053.64
598.897	20513.51
599.255	20619.73
599.613	21131.8
599.972	21198.02
600.33	21569.31
600.688	21772.69
601.046	22120.7
601.404	22306.24
601.762	22542.39
602.12	22937.86
602.478	23152.77
602.836	23508.69
603.194	23600.89
603.552	24000.88
603.91	24155.9
604.268	24413.07
604.625	24670.47
604.983	24982.55
605.341	25055.77
605.698	25328.53
606.056	25781.85
606.413	25799.03
606.771	26165.8
607.128	26444.66
607.485	26518.33
607.843	26712.67
608.2	27075.38
608.557	27259.33
608.914	27414.12
609.272	27895.02
609.629	27935.01
609.986	28319.64
610.343	28308.79
610.7	28707.42
611.057	28872.84
611.414	29027.19
611.771	29196.9
612.127	29354.19
612.484	29646.83
612.841	29877.11
613.198	29879.82
613.554	29983.77
613.911	30418.34
614.267	30445.46
614.624	30569.75
614.98	30863.98
615.337	31207.02
615.693	31247.92
616.05	31204.76
616.406	31625.09
616.762	31647.46
617.118	31809.49
617.475	31773.11
617.831	32066.2
618.187	32233.88
618.543	32344.39
618.899	32632.29
619.255	32729.24
619.611	32727.2
619.967	32969.91
620.323	33060.76
620.678	33051.72
621.034	33009.23
621.39	33217.36
621.746	33327.19
622.101	33817.57
622.457	33556.79
622.812	33768.08
623.168	33805.59
623.523	34071.58
623.879	34173.49
624.234	34169.43
624.589	34197.9
624.945	34386.82
625.3	34406.48
625.655	34530.77
626.01	34531
626.365	34719.47
626.72	34702.07
627.075	34805.34
627.43	34785.46
627.785	34893.48
628.14	34869.3
628.495	34987.03
628.85	35026.35
629.205	34994.49
629.559	35161.72
629.914	34972.8
630.269	35214.82
630.623	35166.69
630.978	35174.82
631.332	35278.1
631.687	35409.17
632.041	35311.09
632.396	35376.4
632.75	35271.77
633.104	35386.34
633.459	35270.19
633.813	35270.87
634.167	35283.3
634.521	35240.13
634.875	35523.97
635.229	35519
635.583	35262.96
635.937	35398.09
636.291	35405.55
636.645	35368.49
636.999	35367.14
637.352	35526.9
637.706	35282.84
638.06	35459.11
638.413	35281.71
638.767	35279.91
639.121	35470.64
639.474	35326.68
639.828	35254.82
640.181	35441.03
640.534	35428.6
640.888	35268.38
641.241	35232.45
641.594	35272.67
641.947	35359.9
642.301	35335.27
642.654	35243.3
643.007	35288.72
643.36	35304.54
643.713	35272.45
644.066	35308.83
644.419	35175.28
644.771	34814.16
645.124	34629.75
645.477	34490.1
645.83	34469.31
646.182	34387.5
646.535	34298.01
646.888	34409.65
647.24	34033.61
647.593	34280.38
647.945	34264.11
648.298	34134.4
648.65	34019.83
649.002	33865.03
649.355	34160.84
649.707	34104.12
650.059	34215.75
650.411	34567.61
650.763	34706.14
651.115	34981.61
651.467	34855.74
651.819	34968.73
652.171	34844.66
652.523	34830.2
652.875	34788.39
653.227	34700.94
653.578	34893.48
653.93	34803.99
654.282	34679.24
654.633	34627.72
654.985	34601.51
655.337	34544.11
655.688	34685.57
656.039	34742.07
656.391	34567.38
656.742	34647.61
657.094	34624.78
657.445	34763.08
657.796	34534.16
658.147	34577.1
658.498	34632.69
658.849	34627.04
659.2	34530.77
659.551	34541.85
659.902	34648.06
660.253	34627.49
660.604	34645.35
660.955	34485.35
661.306	34547.72
661.656	34581.84
662.007	34452.36
662.358	34466.37
662.708	34625.01
663.059	34480.83
663.409	34219.59
663.76	34612.35
664.11	34556.99
664.461	34484.45
664.811	34537.1
665.161	34431.57
665.511	34420.72
665.862	34375.3
666.212	34524.45
666.562	34472.92
666.912	34396.99
667.262	34423.88
667.612	34492.36
667.962	34572.58
668.312	34342.08
668.662	34429.31
669.011	34532.13
669.361	34404.22
669.711	34314.06
670.06	34135.98
670.41	34124
670.76	34324.9
671.109	34361.06
671.459	34300.95
671.808	34248.75
672.157	34303.21
672.507	33945.03
672.856	34214.4
673.205	34192.02
673.554	34149.09
673.904	34041.75
674.253	34263.21
674.602	34137.34
674.951	33739.83
675.3	33511.36
675.649	33954.97
675.998	33940.73
676.346	33989.32
676.695	34260.05
677.044	33824.8
677.393	34051.92
677.741	34067.96
678.09	33781.19
678.438	33884.69
678.787	33831.36
679.135	34097.79
679.484	33663.45
679.832	33916.78
680.181	33559.95
680.529	33813.28
680.877	33665.94
681.225	33592.49
681.573	33861.64
681.922	33640.4
682.27	33436.79
682.618	33485.15
682.966	33399.05
683.314	33435.21
683.661	33235.44
684.009	33027.54
684.357	33160.64
684.705	33126.06
685.053	33125.61
685.4	33013.75
685.748	32996.35
686.095	33042.22
686.443	32688.56
686.79	32776.24
687.138	32949.35
687.485	32853.75
687.832	32726.75
688.18	32863.92
688.527	32564.95
688.874	32644.95
689.221	32563.59
689.568	32427.78
689.915	32316.59
690.262	32309.14
690.609	32301.45
690.956	32088.8
691.303	32087.45
691.65	32006.77
691.997	31895.36
692.344	31800.68
692.69	31722.49
693.037	31853.1
693.383	31540.34
693.73	31567.23
694.077	31407.69
694.423	31439.1
694.769	31376.96
695.116	31334.02
695.462	31130.18
695.808	31087.93
696.155	31063.97
696.501	30989.4
696.847	30871.21
697.193	30677.77
697.539	30872.11
697.885	30581.27
698.231	30526.81
698.577	30583.08
698.923	30493.82
699.269	30249.98
699.614	30174.05
699.96	30219.47
700.306	30187.16
700.651	30078.01
700.997	30041.17
701.342	29913.95
701.688	29982.64
702.033	29743.33
702.379	29685.93
702.724	29501.07
703.069	29700.62
703.415	29230.12
703.76	29205.72
704.105	29419.95
704.45	29168.65
704.795	29053.85
705.14	29029.9
705.485	29002.78
705.83	28907.19
706.175	28918.72
706.52	28886.63
706.865	28839.17
707.209	28807.31
707.554	28730.47
707.899	28652.74
708.243	28598.27
708.588	28486.64
708.932	28374.1
709.277	28249.58
709.621	28156.03
709.966	28130.94
710.31	28153.54
710.654	27986.31
710.998	27960.1
711.342	27901.34
711.687	27800.33
712.031	27808.01
712.375	27768.69
712.719	27697.73
713.063	27629.03
713.407	27706.09
713.75	27583.38
714.094	27453.67
714.438	27347.23
714.782	27453.9
715.125	27309.27
715.469	27462.48
715.812	27281.25
716.156	27101.36
716.499	26995.15
716.843	27158.31
717.186	27012.78
717.53	27059.1
717.873	26995.6
718.216	27000.58
718.559	26825.89
718.902	26679.45
719.246	26767.36
719.589	26654.82
719.932	26490.31
720.275	26605.33
720.617	26568.72
720.96	26480.82
721.303	26429.97
721.646	26456.63
721.989	26284.89
722.331	26469.97
722.674	26288.28
723.016	26268.62
723.359	26214.83
723.701	26234.27
724.044	26016.42
724.386	25989.3
724.729	26098.68
725.071	25945.69
725.413	25987.49
725.755	26006.93
726.097	25900.27
726.439	25730.55
726.782	25778.69
727.124	25971.45
727.465	25660.95
727.807	25723.77
728.149	25622.08
728.491	25575.75
728.833	25714.51
729.175	25514.74
729.516	25323.33
729.858	25443.55
730.199	25427.28
730.541	25408.98
730.882	25299.38
731.224	25348.19
731.565	25203.33
731.906	25248.98
732.248	25180.28
732.589	24978.48
732.93	25083.11
733.271	24992.27
733.612	24932.38
733.953	25005.15
734.294	24880.63
734.635	24858.26
734.976	24964.24
735.317	24818.03
735.658	24799.73
735.999	24864.59
736.339	24827.07
736.68	24913.85
737.021	24822.55
737.361	24724.93
737.702	24742.1
738.042	24756.11
738.383	24635.67
738.723	24673.18
739.063	24483.81
739.404	24558.15
739.744	24455.11
740.084	24391.38
740.424	24414.2
740.764	24367.2
741.104	24385.28
741.444	24365.16
741.784	24265.96
742.124	24159.75
742.464	24244.49
742.804	24137.83
743.143	24072.74
743.483	24254.43
743.823	24007.43
744.162	23998.62
744.502	24095.57
744.841	23954.55
745.181	24105.06
745.52	23868.23
745.86	23977.38
746.199	23834.56
746.538	23755.46
746.877	23868
747.216	23823.71
747.556	23837.72
747.895	23809.25
748.234	23683.6
748.573	23705.29
748.911	23708.46
749.25	23550.95
749.589	23529.25
749.928	23456.94
750.267	23443.61
750.605	23331.97
750.944	23360.67
751.283	23171.98
751.621	23411.29
751.96	23147.57
752.298	23284.74
752.636	23193.67
752.975	23210.17
753.313	23058.98
753.651	23179.66
753.989	23053.56
754.327	22994.13
754.666	22837.3
755.004	22910.97
755.342	22941.7
755.679	22985.99
756.017	22667.81
756.355	22874.81
756.693	22663.51
757.031	22852.89
757.368	22658.54
757.706	22610.63
758.044	22433.01
758.381	22579.22
758.719	22386.23
759.056	22408.61
759.394	22338.55
759.731	22155.96
760.068	22343.07
760.405	22325.9
760.743	22144.66
761.08	22212.68
761.417	22023.98
761.754	21987.83
762.091	22005.45
762.428	21870.77
762.765	21885.91
763.102	21755.74
763.438	21702.86
763.775	21487.27
764.112	21575.63
764.449	21529.53
764.785	21426.48
765.122	21321.85
765.458	21276.66
765.795	21163.89
766.131	21124.57
766.467	21026.72
766.804	20947.85
767.14	20874.63
767.476	20890.68
767.812	20816.11
768.148	20866.73
768.485	20737.69
768.821	20583.79
769.157	20559.39
769.492	20439.84
769.828	20570.69
770.164	20297.02
770.5	20283.92
770.836	20272.16
771.171	20089.34
771.507	20187.2
771.842	19965.28
772.178	19929.57
772.513	19999.18
772.849	19850.93
773.184	19845.28
773.519	19788.56
773.855	19693.87
774.19	19623.37
774.525	19455.24
774.86	19446.65
775.195	19470.38
775.53	19389.93
775.865	19231.29
776.2	19175.02
776.535	19114.91
776.87	19045.3
777.205	18928.7
777.539	18854.35
777.874	18789.49
778.209	18629.27
778.543	18657.29
778.878	18563.51
779.212	18526.9
779.547	18407.35
779.881	18554.47
780.215	18316.74
780.55	18326
780.884	18120.13
781.218	18153.8
781.552	18173.01
781.886	18056.63
782.22	18052.34
782.554	17889.4
782.888	17757.43
783.222	17687.83
783.556	17596.08
783.889	17605.12
784.223	17494.38
784.557	17448.51
784.89	17486.7
785.224	17415.52
785.557	17200.61
785.891	17232.47
786.224	17138.01
786.558	17251.68
786.891	17008.75
787.224	17046.71
787.557	16959.48
787.891	16880.84
788.224	16858.7
788.557	16864.34
788.89	16750
789.223	16748.64
789.556	16615.76
789.888	16540.74
790.221	16532.83
790.554	16428.65
790.887	16427.52
791.219	16412.15
791.552	16326.28
791.884	16278.15
792.217	16127.41
792.549	16152.5
792.882	16010.58
793.214	15998.38
793.546	15878.38
793.879	15891.04
794.211	15758.61
794.543	15726.07
794.875	15802.23
795.207	15754.54
795.539	15761.32
795.871	15520.2
796.203	15463.7
796.535	15427.09
796.867	15388.45
797.198	15317.04
797.53	15380.09
797.862	15190.49
798.193	15321.79
798.525	15196.82
798.856	15183.94
799.188	15032.08
799.519	14958.63
799.85	14928.12
800.182	14968.58
800.513	14940.33
800.844	14676.38
801.175	14827.79
801.506	14787.11
801.837	14721.8
802.168	14600
802.499	14664.85
802.83	14496.72
803.161	14497.63
803.491	14505.08
803.822	14444.97
804.153	14466.22
804.483	14296.28
804.814	14277.52
805.145	14331.3
805.475	14202.72
805.805	14144.87
806.136	14148.94
806.466	14166.79
806.796	14084.98
807.126	14020.8
807.457	13921.6
807.787	13928.38
808.117	13888.38
808.447	13861.03
808.777	13832.33
809.107	13839.79
809.436	13823.75
809.766	13809.51
810.096	13656.07
810.426	13675.73
810.755	13664.43
811.085	13594.83
811.414	13513.47
811.744	13503.76
812.073	13433.47
812.403	13454.72
812.732	13446.36
813.061	13336.75
813.39	13329.97
813.719	13253.14
814.049	13311.44
814.378	13248.62
814.707	13188.96
815.036	13198
815.365	13096.99
815.693	12966.82
816.022	13013.6
816.351	13009.98
816.68	12942.19
817.008	12908.29
817.337	12804.79
817.665	12842.76
817.994	12881.85
818.322	12802.98
818.651	12745.81
818.979	12708.97
819.307	12746.26
819.636	12726.37
819.964	12620.61
820.292	12689.31
820.62	12546.49
820.948	12605.47
821.276	12657.68
821.604	12571.8
821.932	12546.94
822.259	12548.3
822.587	12524.12
822.915	12534.06
823.243	12568.19
823.57	12580.62
823.898	12560.73
824.225	12549.66
824.553	12546.94
824.88	12527.96
825.207	12546.72
825.535	12579.94
825.862	12576.55
826.189	12520.5
826.516	12546.27
826.843	12473.27
827.17	12605.47
827.497	12561.86
827.824	12591.24
828.151	12530.9
828.478	12487.74
828.805	12538.81
829.131	12521.41
829.458	12467.85
829.785	12421.52
830.111	12501.07
830.438	12538.81
830.764	12457.91
831.09	12485.93
831.417	12383.33
831.743	12461.75
832.069	12462.65
832.395	12407.51
832.722	12469.66
833.048	12393.05
833.374	12389.21
833.7	12301.3
834.026	12337.01
834.351	12409.55
834.677	12399.38
835.003	12375.2
835.329	12429.43
835.654	12245.03
835.98	12237.8
836.306	12291.13
836.631	12191.25
836.956	12247.52
837.282	12267.63
837.607	12155.54
837.932	12191.47
838.258	12133.62
838.583	12132.94
838.908	12075.77
839.233	12108.76
839.558	12119.16
839.883	11983.12
840.208	11956.68
840.533	12086.62
840.858	11969.11
841.182	11963.46
841.507	12019.5
841.832	11873.06
842.156	11908.99
842.481	11942.67
842.805	11863.35
843.13	11813.4
843.454	11795.78
843.778	11647.53
844.103	11704.71
844.427	11777.25
844.751	11675.1
845.075	11668.32
845.399	11603.01
845.723	11562.56
846.047	11577.48
846.371	11500.64
846.695	11498.61
847.019	11342
847.343	11363.92
847.666	11297.71
847.99	11258.84
848.313	11248
848.637	11068.34
848.96	11119.41
849.284	11144.27
849.607	11078.06
849.931	11044.84
850.254	10820.66
850.577	10898.17
850.9	10825.18
851.223	10843.71
851.546	10786.09
851.869	10635.58
852.192	10719.87
852.515	10636.71
852.838	10608.46
853.161	10626.09
853.483	10533.66
853.806	10480.33
854.129	10447.56
854.451	10455.93
854.774	10388.58
855.096	10394.23
855.419	10306.33
855.741	10290.96
856.063	10274.69
856.385	10140
856.708	10147.23
857.03	10184.52
857.352	10149.72
857.674	10094.13
857.996	10066.11
858.318	10067.91
858.64	10017.75
858.961	10018.42
859.283	10021.81
859.605	9919.89
859.926	9867.24
860.248	9887.8
860.57	9837.41
860.891	9908.6
861.212	9760.12
861.534	9843.29
861.855	9690.52
862.176	9743.85
862.498	9792.21
862.819	9679.22
863.14	9721.03
863.461	9671.09
863.782	9627.25
864.103	9676.74
864.424	9604.87
864.745	9670.86
865.065	9539.57
865.386	9589.28
865.707	9529.62
866.027	9480.13
866.348	9505.67
866.668	9484.2
866.989	9420.92
867.309	9337.76
867.63	9423.18
867.95	9475.61
868.27	9318.33
868.59	9354.26
868.91	9359.46
869.23	9334.83
869.55	9282.85
869.87	9328.5
870.19	9310.65
870.51	9276.52
870.83	9269.29
871.15	9247.6
871.469	9264.09
871.789	9267.26
872.109	9272.68
872.428	9211.21
872.748	9175.96
873.067	9188.61
873.386	9160.82
873.706	9180.48
874.025	9087.15
874.344	9128.05
874.663	9063.65
874.982	9075.4
875.301	9074.49
875.62	9001.05
875.939	8988.62
876.258	9074.27
876.577	9008.96
876.896	9006.02
877.214	8962.18
877.533	8994.5
877.852	8870.2
878.17	8937.77
878.489	8901.16
878.807	8869.98
879.125	8887.61
879.444	8902.29
879.762	8833.6
880.08	8841.28
880.398	8819.36
880.716	8802.41
881.034	8758.34
881.352	8781.39
881.67	8718.12
881.988	8801.05
882.306	8774.16
882.624	8748.85
882.941	8577.33
883.259	8630.89
883.577	8717.67
883.894	8615.52
884.212	8612.13
884.529	8623.43
884.846	8534.62
885.164	8469.76
885.481	8525.13
885.798	8548.18
886.115	8464.79
886.432	8461.4
886.75	8427.05
887.067	8488.52
887.383	8353.83
887.7	8359.94
888.017	8419.37
888.334	8366.72
888.651	8375.08
888.967	8318.13
889.284	8284.46
889.6	8261.41
889.917	8204.46
890.233	8234.74
890.55	8128.53
890.866	8247.62
891.182	8167.17
891.498	8115.2
891.815	8103.22
892.131	8058.47
892.447	8017.12
892.763	8051.24
893.079	8039.04
893.395	8001.53
893.71	8014.18
894.026	7925.37
894.342	7968.99
894.657	7854.86
894.973	7795.43
895.289	7833.62
895.604	7796.11
895.92	7695.09
896.235	7706.39
896.55	7751.36
896.865	7659.16
897.181	7635.89
897.496	7711.82
897.811	7599.96
898.126	7597.24
898.441	7575.55
898.756	7530.8
899.071	7471.15
899.386	7529.22
899.7	7499.85
900.015	7413.97
900.33	7349.11
900.644	7388.66
900.959	7411.94
901.273	7329.45
901.588	7331.94
901.902	7232.06
902.216	7251.49
902.531	7276.12
902.845	7178.95
903.159	7163.81
903.473	7151.83
903.787	7087.88
904.101	7097.14
904.415	7063.02
904.729	7034.77
905.042	7000.65
905.356	6992.06
905.67	6901.44
905.984	6971.5
906.297	6961.33
906.611	6910.26
906.924	6922.01
907.237	6853.76
907.551	6839.07
907.864	6775.57
908.177	6752.52
908.491	6759.3
908.804	6694.44
909.117	6663.03
909.43	6713.2
909.743	6597.5
910.056	6662.35
910.368	6583.71
910.681	6533.32
910.994	6491.28
911.307	6489.48
911.619	6443.38
911.932	6487.67
912.244	6372.19
912.557	6379.42
912.869	6360.21
913.181	6337.84
913.494	6362.93
913.806	6265.3
914.118	6228.92
914.43	6260.78
914.742	6243.83
915.054	6198.18
915.366	6171.29
915.678	6166.32
915.99	6098.75
916.302	6029.6
916.613	6028.47
916.925	6071.41
917.236	6074.57
917.548	6015.14
917.859	6033.44
918.171	5965.2
918.482	5903.95
918.794	5887.23
919.105	5877.51
919.416	5867.12
919.727	5824.86
920.038	5799.55
920.349	5776.27
920.66	5771.53
920.971	5716.84
921.282	5742.15
921.593	5635.71
921.903	5652.66
922.214	5626
922.525	5605.43
922.835	5570.86
923.146	5541.7
923.456	5553.68
923.767	5524.53
924.077	5496.96
924.387	5473.46
924.697	5448.37
925.008	5416.28
925.318	5377.42
925.628	5346.91
925.938	5367.47
926.248	5338.77
926.558	5316.85
926.867	5298.1
927.177	5305.1
927.487	5230.53
927.796	5205.67
928.106	5223.97
928.416	5158.89
928.725	5162.73
929.034	5147.36
929.344	5098.1
929.653	5091.77
929.962	5061.72
930.271	5040.93
930.581	5017.88
930.89	4964.32
931.199	4976.75
931.508	4917.09
931.817	4978.1
932.125	4947.82
932.434	4908.05
932.743	4860.82
933.051	4856.98
933.36	4814.94
933.669	4795.51
933.977	4834.83
934.286	4797.54
934.594	4744.44
934.902	4739.92
935.21	4739.92
935.519	4735.62
935.827	4698.34
936.135	4700.6
936.443	4661.95
936.751	4606.59
937.059	4590.77
937.367	4560.49
937.674	4567.27
937.982	4583.31
938.29	4528.62
938.597	4569.53
938.905	4443.65
939.213	4451.34
939.52	4447.04
939.827	4416.08
940.135	4427.84
940.442	4383.32
940.749	4418.34
941.056	4406.82
941.363	4340.61
941.67	4329.76
941.977	4300.16
942.284	4277.56
942.591	4262.42
942.898	4222.19
943.205	4232.13
943.511	4241.17
943.818	4205.47
944.125	4191.23
944.431	4162.08
944.738	4142.87
945.044	4137
945.35	4105.13
945.657	4087.05
945.963	4065.36
946.269	4043.21
946.575	4033.72
946.881	4031.01
947.187	4040.05
947.493	4011.58
947.799	3903.33
948.105	3964.8
948.41	3907.62
948.716	3900.84
949.022	3908.75
949.327	3879.15
949.633	3825.14
949.938	3847.29
950.244	3873.27
950.549	3771.58
950.854	3815.65
951.16	3801.41
951.465	3775.42
951.77	3749.44
952.075	3728.19
952.38	3657.46
952.685	3709.44
952.99	3682.09
953.294	3657.23
953.599	3648.65
953.904	3630.12
954.209	3598.48
954.513	3632.6
954.818	3567.07
955.122	3562.77
955.426	3568.42
955.731	3541.08
956.035	3532.94
956.339	3520.06
956.643	3493.17
956.948	3518.48
957.252	3486.17
957.556	3422.66
957.86	3442.1
958.163	3466.28
958.467	3402.1
958.771	3391.03
959.075	3396
959.378	3352.84
959.682	3395.55
959.985	3316.23
960.289	3309.45
960.592	3344.93
960.896	3311.03
961.199	3313.51
961.502	3251.14
961.805	3272.61
962.108	3241.88
962.411	3207.75
962.714	3199.39
963.017	3209.34
963.32	3178.15
963.623	3155.1
963.926	3172.73
964.228	3120.75
964.531	3093.18
964.833	3141.09
965.136	3084.37
965.438	3052.05
965.741	3066.29
966.043	3077.81
966.345	3032.17
966.648	3058.61
966.95	3043.47
967.252	3010.02
967.554	3026.97
967.856	2963.02
968.158	2960.08
968.46	2940.42
968.761	3007.99
969.063	2944.94
969.365	2923.24
969.666	2901.55
969.968	2921.21
970.269	2855.45
970.571	2888.44
970.872	2878.95
971.174	2837.82
971.475	2862.68
971.776	2823.58
972.077	2807.99
972.378	2794.21
972.679	2793.75
972.98	2799.86
973.281	2776.81
973.582	2770.03
973.883	2737.48
974.183	2724.83
974.484	2742
974.785	2706.07
975.085	2702.01
975.386	2705.17
975.686	2678.05
975.986	2668.79
976.287	2643.25
976.587	2628.33
976.887	2664.72
977.187	2635.79
977.487	2591.73
977.787	2592.4
978.087	2584.27
978.387	2565.06
978.687	2575.68
978.987	2542.91
979.286	2501.11
979.586	2565.29
979.885	2502.24
980.185	2479.19
980.484	2488
980.784	2498.85
981.083	2479.86
981.382	2458.85
981.682	2458.85
981.981	2443.03
982.28	2428.79
982.579	2385.63
982.878	2415.23
983.177	2399.87
983.475	2407.55
983.774	2397.38
984.073	2388.57
984.372	2349.7
984.67	2350.15
984.969	2338.85
985.267	2373.2
985.566	2346.31
985.864	2333.65
986.162	2271.06
986.461	2314.9
986.759	2275.35
987.057	2282.81
987.355	2246.88
987.653	2277.61
987.951	2227.89
988.249	2243.71
988.547	2221.11
988.844	2217.5
989.142	2222.7
989.44	2225.63
989.737	2164.84
990.035	2170.95
990.332	2179.53
990.63	2168.91
990.927	2129.59
991.224	2118.97
991.521	2101.12
991.819	2126.43
992.116	2107.67
992.413	2103.6
992.71	2114.68
993.006	2071.06
993.303	2078.97
993.6	2059.08
993.897	2029.48
994.193	2035.58
994.49	2009.59
994.787	2026.09
995.083	2023.83
995.379	2008.92
995.676	2012.76
995.972	1990.84
996.268	1997.84
996.565	1994.23
996.861	1963.72
997.157	1948.8
997.453	1948.13
997.749	1922.14
998.044	1928.92
998.34	1939.77
998.636	1917.17
998.932	1880.33
999.227	1894.57
999.523	1882.82
999.818	1846.43
1000.114	1870.16
1000.409	1829.49
1000.704	1813.67
1001	1818.86
1001.295	1790.39
1001.59	1829.94
1001.885	1816.15
1002.18	1778.19
1002.475	1754.01
1002.77	1756.95
1003.065	1769.83
1003.359	1779.77
1003.654	1786.78
1003.949	1737.74
1004.243	1736.83
1004.538	1710.62
1004.832	1718.53
1005.127	1705.65
1005.421	1698.19
1005.715	1677.17
1006.009	1677.17
1006.304	1725.53
1006.598	1671.3
1006.892	1621.13
1007.186	1616.84
1007.48	1624.52
1007.773	1629.94
1008.067	1589.49
1008.361	1615.25
1008.655	1581.36
1008.948	1584.07
1009.242	1565.54
1009.535	1543.17
1009.829	1559.66
1010.122	1557.4
1010.415	1529.83
1010.708	1521.7
1011.001	1496.61
1011.295	1501.58
1011.588	1514.01
1011.881	1487.12
1012.173	1502.94
1012.466	1480.57
1012.759	1478.08
1013.052	1466.11
1013.344	1443.06
1013.637	1440.57
1013.93	1442.38
1014.222	1418.88
1014.514	1417.07
1014.807	1410.29
1015.099	1396.28
1015.391	1394.69
1015.683	1398.76
1015.976	1380.01
1016.268	1411.87
1016.56	1377.97
1016.851	1356.96
1017.143	1354.02
1017.435	1338.88
1017.727	1345.2
1018.018	1322.83
1018.31	1321.48
1018.602	1313.79
1018.893	1303.85
1019.185	1289.39
1019.476	1311.31
1019.767	1279.44
1020.058	1249.61
1020.35	1294.13
1020.641	1259.33
1020.932	1264.53
1021.223	1246.45
1021.514	1223.85
1021.804	1227.24
1022.095	1205.1
1022.386	1219.33
1022.677	1213.46
1022.967	1183.18
1023.258	1189.95
1023.548	1207.58
1023.839	1176.62
1024.129	1196.73
1024.419	1154.25
1024.709	1138.2
1025	1149.05
1025.29	1117.64
1025.58	1114.02
1025.87	1119.67
1026.16	1116.28
1026.449	1116.28
1026.739	1123.06
1027.029	1104.31
1027.319	1071.54
1027.608	1100.24
1027.898	1074.93
1028.187	1079.9
1028.477	1059.11
1028.766	1088.26
1029.055	1047.81
1029.344	1061.37
1029.634	1033.57
1029.923	1052.11
1030.212	1029.73
1030.501	1028.15
1030.79	1006
1031.078	980.69
1031.367	1013.46
1031.656	991.09
1031.945	994.03
1032.233	965.33
1032.522	977.98
1032.81	977.08
1033.099	965.1
1033.387	950.19
1033.675	958.1
1033.963	952.9
1034.251	928.72
1034.54	937.53
1034.828	931.43
1035.116	948.38
1035.403	928.72
1035.691	929.62
1035.979	908.83
1036.267	914.93
1036.554	898.44
1036.842	916.06
1037.129	882.62
1037.417	876.06
1037.704	863.86
1037.992	877.19
1038.279	888.27
1038.566	846.69
1038.853	846.69
1039.14	846.69
