Data from hue_28_FLMS001491_00036.txt Node
Date: Tue Feb 07 17:17:12 GMT 2017
User: dcchb
Spectrometer: FLMS00149
Trigger mode: 0
Integration Time (sec): 2.000000E-2
Scans to average: 10
Electric dark correction enabled: true
Nonlinearity correction enabled: false
Boxcar width: 0
XAxis mode: Wavelengths
Number of Pixels in Spectrum: 2048
>>>>>Begin Spectral Data<<<<<
341.393	2.99
341.776	2.99
342.16	2.99
342.543	-72.26
342.927	-59.83
343.31	-53.05
343.693	-75.2
344.077	-59.83
344.46	-42.2
344.843	-49.43
345.226	-54.63
345.61	-40.17
345.993	-16.44
346.376	-6.95
346.759	8.64
347.142	23.78
347.525	38.02
347.908	69.21
348.291	78.47
348.674	78.47
349.057	101.3
349.44	123.22
349.823	132.93
350.206	151.46
350.588	185.14
350.971	203.89
351.354	236.43
351.737	246.83
352.119	254.06
352.502	268.3
352.884	271.01
353.267	278.69
353.65	293.38
354.032	294.74
354.414	289.09
354.797	312.82
355.179	327.96
355.562	300.84
355.944	344
356.326	338.8
356.709	353.72
357.091	326.83
357.473	336.09
357.855	349.65
358.238	316.43
358.62	372.7
359.002	325.25
359.384	341.06
359.766	342.87
360.148	336.32
360.53	347.84
360.912	344.91
361.294	318.69
361.676	321.4
362.057	318.69
362.439	336.32
362.821	323.44
363.203	303.1
363.584	323.21
363.966	326.15
364.348	335.19
364.729	313.04
365.111	318.92
365.493	310.78
365.874	328.41
366.256	344.23
366.637	323.44
367.019	303.1
367.4	319.82
367.781	318.24
368.163	323.44
368.544	322.76
368.925	317.11
369.306	313.72
369.688	308.97
370.069	311.01
370.45	313.04
370.831	319.37
371.212	310.1
371.593	320.5
371.974	319.82
372.355	297.22
372.736	314.4
373.117	343.1
373.498	314.85
373.879	304.46
374.26	304.91
374.641	325.25
375.021	326.6
375.402	318.47
375.783	329.31
376.163	330.9
376.544	318.01
376.925	307.85
377.305	299.71
377.686	328.18
378.066	317.34
378.447	315.53
378.827	322.31
379.208	331.12
379.588	308.52
379.968	334.51
380.349	319.82
380.729	333.61
381.109	345.36
381.489	329.99
381.87	327.96
382.25	337.45
382.63	329.54
383.01	329.77
383.39	340.61
383.77	349.2
384.15	331.12
384.53	359.82
384.91	346.04
385.29	345.36
385.67	357.79
386.049	341.29
386.429	353.27
386.809	348.3
387.189	335.64
387.568	351.69
387.948	359.37
388.328	339.71
388.707	349.65
389.087	352.59
389.466	344.68
389.846	366.6
390.225	362.08
390.605	367.96
390.984	348.3
391.363	345.13
391.743	379.48
392.122	366.15
392.501	381.29
392.881	376.54
393.26	365.02
393.639	359.82
394.018	369.31
394.397	382.87
394.776	350.78
395.155	359.6
395.534	367.96
395.913	373.38
396.292	372.48
396.671	407.05
397.05	386.94
397.429	394.4
397.808	381.29
398.186	400.05
398.565	393.49
398.944	378.8
399.323	386.04
399.701	399.14
400.08	379.71
400.458	409.99
400.837	409.31
401.215	403.21
401.594	407.28
401.972	395.07
402.351	389.88
402.729	409.09
403.107	403.89
403.486	424.9
403.864	401.63
404.242	377.67
404.62	409.99
404.999	414.51
405.377	387.16
405.755	419.03
406.133	415.19
406.511	437.79
406.889	420.61
407.267	425.36
407.645	413.83
408.023	440.27
408.401	431.46
408.779	427.84
409.156	419.48
409.534	440.04
409.912	436.88
410.29	461.97
410.667	426.26
411.045	440.5
411.422	450.21
411.8	440.72
412.178	449.31
412.555	432.81
412.933	463.55
413.31	454.73
413.687	475.75
414.065	458.12
414.442	472.36
414.819	477.11
415.197	467.39
415.574	479.14
415.951	487.5
416.328	495.86
416.705	483.21
417.082	485.69
417.46	470.78
417.837	506.03
418.214	527.73
418.591	475.3
418.967	512.59
419.344	487.05
419.721	504.22
420.098	511
420.475	518.46
420.852	513.04
421.228	524.34
421.605	531.34
421.982	530.89
422.358	532.25
422.735	518.69
423.111	512.36
423.488	514.39
423.864	549.87
424.241	540.83
424.617	535.86
424.994	561.17
425.37	529.08
425.746	546.48
426.123	561.85
426.499	541.29
426.875	568.86
427.251	543.77
427.627	561.62
428.003	594.62
428.379	575.86
428.756	559.59
429.132	580.83
429.507	598.91
429.883	610.66
430.259	582.19
430.635	597.55
431.011	597.33
431.387	606.82
431.763	612.02
432.138	626.25
432.514	618.12
432.89	626.03
433.265	621.74
433.641	622.64
434.016	662.64
434.392	653.15
434.767	662.86
435.143	649.08
435.518	686.37
435.894	675.52
436.269	682.75
436.644	696.76
437.02	689.3
437.395	690.21
437.77	700.38
438.145	708.06
438.52	703.99
438.895	715.29
439.271	695.63
439.646	728.62
440.021	730.21
440.395	743.31
440.77	722.07
441.145	729.3
441.52	732.01
441.895	750.55
442.27	753.71
442.645	752.13
443.019	763.2
443.394	738.34
443.769	747.16
444.143	765.91
444.518	776.53
444.892	760.94
445.267	749.87
445.641	772.92
446.016	793.93
446.39	792.35
446.764	788.28
447.139	780.83
447.513	782.41
447.887	785.12
448.262	781.28
448.636	799.58
449.01	824.44
449.384	791.22
449.758	817.89
450.132	838.68
450.506	859.47
450.88	848.85
451.254	848.17
451.628	854.95
452.002	881.62
452.376	846.81
452.75	847.94
453.123	871.45
453.497	894.04
453.871	883.42
454.244	897.43
454.618	898.34
454.992	927.72
455.365	915.96
455.739	915.51
456.112	976.53
456.486	942.63
456.859	982.4
457.232	964.78
457.606	965.68
457.979	949.18
458.352	1023.76
458.725	990.99
459.099	1003.87
459.472	1008.62
459.845	1016.75
460.218	1059.92
460.591	1070.99
460.964	1046.81
461.337	1079.8
461.71	1098.78
462.083	1102.4
462.456	1119.12
462.829	1104.21
463.201	1132.46
463.574	1131.55
463.947	1154.6
464.32	1166.81
464.692	1175.84
465.065	1188.05
465.438	1201.61
465.81	1216.97
466.183	1186.92
466.555	1244.77
466.928	1231.89
467.3	1238.67
467.672	1266.46
468.045	1286.58
468.417	1318.21
468.789	1314.15
469.161	1313.47
469.534	1334.03
469.906	1383.52
470.278	1370.64
470.65	1387.82
471.022	1422.62
471.394	1442.28
471.766	1457.19
472.138	1477.53
472.51	1512.11
472.882	1546.46
473.253	1542.84
473.625	1572.22
473.997	1602.5
474.369	1618.09
474.74	1617.64
475.112	1668.94
475.484	1667.36
475.855	1743.06
476.227	1762.95
476.598	1821.7
476.97	1804.75
477.341	1833.68
477.713	1897.18
478.084	1895.6
478.455	1954.36
478.827	1974.92
479.198	2053.79
479.569	2040.68
479.94	2114.35
480.311	2138.31
480.682	2188.47
481.053	2231.41
481.424	2283.84
481.795	2305.31
482.166	2320.67
482.537	2381.46
482.908	2419.88
483.279	2478.41
483.65	2547.11
484.021	2621.91
484.391	2628.91
484.762	2649.48
485.133	2683.83
485.503	2754.33
485.874	2764.96
486.244	2832.75
486.615	2901.45
486.985	2986.87
487.356	3025.74
487.726	3029.36
488.097	3111.84
488.467	3160.43
488.837	3237.71
489.207	3300.08
489.578	3319.07
489.948	3411.49
490.318	3466.18
490.688	3440.64
491.058	3527.2
491.428	3536.91
491.798	3639.28
492.168	3732.16
492.538	3712.28
492.908	3798.37
493.278	3833.4
493.648	3876.56
494.017	3926.28
494.387	3974.19
494.757	4040.18
495.126	4058.48
495.496	4094.19
495.866	4124.92
496.235	4193.84
496.605	4247.85
496.974	4293.5
497.344	4320.39
497.713	4328.3
498.082	4400.39
498.452	4481.29
498.821	4467.06
499.19	4481.52
499.559	4540.5
499.928	4563.1
500.298	4627.73
500.667	4658.24
501.036	4687.16
501.405	4700.27
501.774	4741.63
502.143	4781.63
502.512	4845.58
502.88	4853.49
503.249	4819.36
503.618	4901.17
503.987	4912.92
504.356	4920.61
504.724	4934.84
505.093	5045.57
505.462	5030.21
505.83	5099.36
506.199	5115.4
506.567	5146.36
506.936	5196.53
507.304	5210.31
507.672	5237.66
508.041	5270.88
508.409	5263.65
508.777	5322.85
509.145	5351.33
509.514	5373.02
509.882	5399.69
510.25	5367.37
510.618	5469.29
510.986	5502.28
511.354	5547.03
511.722	5627.71
512.09	5569.63
512.458	5583.41
512.826	5596.29
513.193	5642.39
513.561	5641.94
513.929	5702.28
514.297	5758.1
514.664	5788.6
515.032	5772.79
515.4	5817.08
515.767	5881.71
516.135	5872.9
516.502	5851.43
516.869	5939.79
517.237	5990.63
517.604	5869.05
517.972	5967.58
518.339	6036.06
518.706	6091.42
519.073	6078.77
519.44	6046.45
519.808	6107.01
520.175	6067.02
520.542	6107.01
520.909	6246.67
521.276	6209.84
521.643	6259.33
522.009	6281.02
522.376	6344.97
522.743	6303.62
523.11	6383.39
523.477	6455.93
523.843	6492.32
524.21	6447.34
524.577	6570.05
524.943	6576.61
525.31	6586.1
525.676	6617.96
526.043	6637.17
526.409	6640.33
526.776	6759.43
527.142	6784.28
527.508	6798.3
527.874	6817.05
528.241	6876.94
528.607	6928.46
528.973	6963.72
529.339	6963.26
529.705	7015.69
530.071	7078.97
530.437	7162.13
530.803	7189.25
531.169	7181.34
531.535	7193.54
531.901	7240.09
532.267	7247.78
532.632	7288
532.998	7375.68
533.364	7382.24
533.73	7375
534.095	7507.43
534.461	7486.64
534.826	7531.84
535.192	7572.74
535.557	7600.76
535.923	7593.53
536.288	7573.42
536.653	7673.75
537.019	7659.52
537.384	7710.81
537.749	7742.45
538.114	7750.14
538.479	7737.93
538.845	7807.53
539.21	7830.81
539.575	7873.3
539.94	7886.85
540.305	7964.82
540.67	7922.79
541.034	7962.11
541.399	8019.73
541.764	8056.34
542.129	8141.76
542.494	8083.23
542.858	8180.86
543.223	8206.85
543.587	8242.1
543.952	8233.51
544.316	8290.91
544.681	8319.84
545.045	8322.32
545.41	8413.62
545.774	8428.54
546.138	8391.25
546.503	8476.9
546.867	8472.38
547.231	8530.45
547.595	8613.62
547.959	8610
548.324	8633.5
548.688	8630.79
549.052	8711.24
549.416	8732.48
549.779	8712.14
550.143	8716.66
550.507	8854.51
550.871	8826.04
551.235	8828.52
551.599	8954.85
551.962	8915.98
552.326	8992.59
552.689	9012.47
553.053	8965.7
553.417	9012.25
553.78	9118.91
554.143	9063.32
554.507	9111.91
554.87	9104.68
555.234	9245.69
555.597	9142.87
555.96	9287.95
556.323	9256.54
556.686	9312.58
557.05	9289.08
557.413	9305.35
557.776	9396.65
558.139	9443.2
558.502	9417.89
558.865	9497.43
559.228	9473.25
559.59	9539.01
559.953	9566.58
560.316	9670.08
560.679	9673.02
561.041	9690.88
561.404	9726.81
561.767	9822.17
562.129	9779.91
562.492	9874.15
562.854	9821.27
563.217	9852
563.579	9946.01
563.941	9981.26
564.304	9948.04
564.666	10076.63
565.028	10049.51
565.39	9981.49
565.753	10102.62
566.115	10222.84
566.477	10223.74
566.839	10275.72
567.201	10270.52
567.563	10333.57
567.925	10376.51
568.287	10415.15
568.648	10288.15
569.01	10368.37
569.372	10537.18
569.734	10533.79
570.095	10639.55
570.457	10671.19
570.819	10726.78
571.18	10768.59
571.542	10815.37
571.903	10846.1
572.265	10899.66
572.626	11008.35
572.987	11003.38
573.349	10962.25
573.71	11073.21
574.071	11173.55
574.432	11219.42
574.794	11269.59
575.155	11355.24
575.516	11421.9
575.877	11456.25
576.238	11547.1
576.599	11586.19
576.96	11622.12
577.32	11727.43
577.681	11828.45
578.042	11960.19
578.403	12041.32
578.763	12177.14
579.124	12220.75
579.485	12341.65
579.845	12522.89
580.206	12538.26
580.566	12682.43
580.927	12840.17
581.287	12966.95
581.648	13062.76
582.008	13277.45
582.368	13403.32
582.728	13470.89
583.089	13652.8
583.449	13831.33
583.809	14004.43
584.169	14106.8
584.529	14295.27
584.889	14592.44
585.249	14662.95
585.609	14876.73
585.969	15203.95
586.329	15339.77
586.688	15663.83
587.048	15759.64
587.408	15991.05
587.768	16224.94
588.127	16500.87
588.487	16649.79
588.846	17049.33
589.206	17117.35
589.565	17375.87
589.925	17804.79
590.284	18080.03
590.643	18212.68
591.003	18603.86
591.362	18900.12
591.721	19052.66
592.08	19414.24
592.44	19788.01
592.799	19976.71
593.158	20186.19
593.517	20453.3
593.876	20753.18
594.235	20996.57
594.593	21316.56
594.952	21769.88
595.311	22041.74
595.67	22261.17
596.029	22737.31
596.387	23079.22
596.746	23398.99
597.104	23471.76
597.463	23785.65
597.822	24182.47
598.18	24399.64
598.538	24566.19
598.897	25086.18
599.255	25232.39
599.613	25784.69
599.972	25897
600.33	26279.14
600.688	26408.4
601.046	26828.05
601.404	27229.85
601.762	27414.25
602.12	27854.47
602.478	28033.9
602.836	28272.76
603.194	28510.49
603.552	28754.33
603.91	28911.84
604.268	29319.06
604.625	29445.16
604.983	29938.48
605.341	29952.94
605.698	30439.93
606.056	30746.59
606.413	30937.77
606.771	31210.99
607.128	31370.98
607.485	31616.17
607.843	31880.57
608.2	32177.06
608.557	32335.25
608.914	32615.47
609.272	32899.53
609.629	33109.24
609.986	33423.13
610.343	33478.72
610.7	33939.5
611.057	34089.1
611.414	34200.51
611.771	34485.7
612.127	34729.31
612.484	34828.97
612.841	35103.77
613.198	35221.73
613.554	35360.26
613.911	35691.55
614.267	35850.64
614.624	36018.77
614.98	36308.71
615.337	36482.04
615.693	36587.12
616.05	36634.12
616.406	37078.63
616.762	36980.55
617.118	37172.41
617.475	37319.75
617.831	37583.02
618.187	37750.02
618.543	37797.25
618.899	38202.89
619.255	38214.42
619.611	38295.09
619.967	38479.04
620.323	38586.16
620.678	38660.28
621.034	38651.24
621.39	38702.77
621.746	38732.15
622.101	39415.07
622.457	38960.61
622.812	39207.61
623.168	39351.11
623.523	39477.89
623.879	39858.22
624.234	39349.76
624.589	39778.9
624.945	39915.62
625.3	39948.84
625.655	39943.19
626.01	40100.47
626.365	40179.79
626.72	40228.15
627.075	40205.1
627.43	40364.19
627.785	40351.76
628.14	40443.74
628.495	40384.76
628.85	40510.86
629.205	40368.94
629.559	40635.15
629.914	40599.44
630.269	40723.96
630.623	40632.89
630.978	40602.83
631.332	40796.27
631.687	40826.55
632.041	40811.41
632.396	40992.2
632.75	40789.72
633.104	40935.48
633.459	40797.63
633.813	40889.6
634.167	40975.48
634.521	40902.03
634.875	40940
635.229	41036.04
635.583	40826.55
635.937	40964.63
636.291	40909.26
636.645	40989.49
636.999	40820.23
637.352	41093.89
637.706	40716.95
638.06	41086.43
638.413	40811.41
638.767	40761.02
639.121	41005.31
639.474	40841.92
639.828	40826.1
640.181	40772.77
640.534	40949.94
640.888	40799.89
641.241	40744.3
641.594	40702.04
641.947	40870.85
642.301	40807.35
642.654	40757.4
643.007	40686.67
643.36	40732.77
643.713	40668.37
644.066	40911.98
644.419	40596.05
644.771	40441.93
645.124	39992.23
645.477	40072
645.83	39756.53
646.182	39636.3
646.535	39579.58
646.888	39665
647.24	39561.05
647.593	39671.56
647.945	39675.4
648.298	39455.52
648.65	39414.39
649.002	39448.74
649.355	39619.81
649.707	39515.18
650.059	39624.78
650.411	40055.95
650.763	40055.95
651.115	40577.29
651.467	40283.52
651.819	40432.89
652.171	40295.49
652.523	40275.38
652.875	40346.34
653.227	40150.41
653.578	40492.55
653.93	40314.48
654.282	40214.14
654.633	40027.48
654.985	40210.52
655.337	40160.36
655.688	40228.83
656.039	40328.04
656.391	40114.48
656.742	40168.04
657.094	40100.7
657.445	40234.7
657.796	40162.16
658.147	40077.42
658.498	40059.12
658.849	40032.45
659.2	40094.82
659.551	39901.61
659.902	40067.7
660.253	40013.24
660.604	40018.89
660.955	40092.34
661.306	40041.94
661.656	39900.02
662.007	40062.51
662.358	40081.94
662.708	40052.56
663.059	39902.51
663.409	39722.85
663.76	40065.22
664.11	40068.61
664.461	40055.95
664.811	40027.7
665.161	39962.17
665.511	39782.74
665.862	39931.66
666.212	40080.81
666.562	40127.14
666.912	39961.49
667.262	39913.13
667.612	39785
667.962	39894.6
668.312	39770.76
668.662	40091.21
669.011	39907.71
669.361	39866.35
669.711	39827.03
670.06	39952
670.41	39760.82
670.76	39804.43
671.109	39787.94
671.459	39770.08
671.808	39687.6
672.157	39723.53
672.507	39575.29
672.856	39617.55
673.205	39713.36
673.554	39829.97
673.904	39679.47
674.253	39846.92
674.602	39726.24
674.951	39119.71
675.3	38951.12
675.649	39620.03
675.998	39546.81
676.346	39579.58
676.695	39554.5
677.044	39351.79
677.393	39569.19
677.741	39563.54
678.09	39481.05
678.438	39399.47
678.787	39512.92
679.135	39473.82
679.484	39004.23
679.832	39274.96
680.181	39107.05
680.529	39243.54
680.877	39023.21
681.225	38982.53
681.573	39295.52
681.922	38989.31
682.27	38964
682.618	38926.94
682.966	38746.83
683.314	38795.19
683.661	38717.91
684.009	38536.9
684.357	38522.21
684.705	38526.05
685.053	38535.77
685.4	38376.22
685.748	38299.84
686.095	38232.27
686.443	38172.39
686.79	38202.22
687.138	38252.61
687.485	38177.13
687.832	38028.44
688.18	38027.53
688.527	37876.35
688.874	37902.34
689.221	37700.08
689.568	37693.75
689.915	37530.14
690.262	37600.42
690.609	37421.45
690.956	37413.76
691.303	37354.1
691.65	37199.08
691.997	37126.09
692.344	36937.84
692.69	36990.27
693.037	37016.71
693.383	36653.56
693.73	36889.48
694.077	36576.04
694.423	36615.36
694.769	36579.21
695.116	36418.08
695.462	36291.08
695.808	36329.72
696.155	36285.66
696.501	36005.21
696.847	36102.16
697.193	35726.35
697.539	35942.16
697.885	35707.14
698.231	35555.28
698.577	35604.54
698.923	35634.15
699.269	35359.35
699.614	35200.03
699.96	35092.69
700.306	35096.31
700.651	34989.19
700.997	34878.46
701.342	35059.7
701.688	34724.34
702.033	34631.01
702.379	34771.57
702.724	34510.79
703.069	34527.51
703.415	34146.28
703.76	34243.45
704.105	34373.39
704.45	34273.96
704.795	33952.61
705.14	33965.27
705.485	33964.59
705.83	33734.76
706.175	33750.36
706.52	33792.61
706.865	33704.93
707.209	33562.79
707.554	33507.2
707.899	33513.98
708.243	33263.81
708.588	33487.76
708.932	33166.42
709.277	33001
709.621	32953.77
709.966	32765.75
710.31	33036.48
710.654	32725.3
710.998	32665.41
711.342	32789.7
711.687	32636.26
712.031	32439.43
712.375	32391.52
712.719	32493.44
713.063	32340.45
713.407	32473.55
713.75	32236.5
714.094	32307.91
714.438	32062.72
714.782	32205.99
715.125	32023.62
715.469	32002.38
715.812	31696.85
716.156	31669.05
716.499	31596.29
716.843	31751.09
717.186	31528.27
717.53	31733.01
717.873	31646.23
718.216	31593.8
718.559	31495.5
718.902	31222.96
719.246	31410.08
719.589	31250.08
719.932	31156.07
720.275	31183.64
720.617	31139.8
720.96	31061.39
721.303	31024.78
721.646	30924.67
721.989	30838.34
722.331	30901.84
722.674	30888.96
723.016	30967.83
723.359	30701.62
723.701	30883.31
724.044	30599.48
724.386	30495.75
724.729	30629.31
725.071	30486.49
725.413	30457.33
725.755	30432.02
726.097	30272.25
726.439	30265.93
726.782	30262.76
727.124	30352.93
727.465	29987.29
727.807	30194.29
728.149	30054.18
728.491	29988.87
728.833	29987.52
729.175	29891.02
729.516	30016.44
729.858	29834.07
730.199	29840.4
730.541	29709.56
730.882	29754.08
731.224	29768.31
731.565	29750.01
731.906	29640.41
732.248	29618.03
732.589	29632.5
732.93	29440.86
733.271	29380.53
733.612	29391.6
733.953	29434.76
734.294	29331.26
734.635	29162.23
734.976	29242.23
735.317	29038.39
735.658	29131.72
735.999	29089.91
736.339	28981.44
736.68	29147.99
737.021	28992.97
737.361	28825.97
737.702	29000.2
738.042	28841.11
738.383	28745.74
738.723	28812.86
739.063	28603.15
739.404	28873.42
739.744	28672.3
740.084	28532.41
740.424	28520.44
740.764	28540.77
741.104	28650.38
741.444	28557.95
741.784	28535.13
742.124	28393.89
742.464	28406.32
742.804	28377.39
743.143	28264.17
743.483	28284.74
743.823	28182.14
744.162	28029.83
744.502	28202.25
744.841	28053.78
745.181	28178.07
745.52	27979.66
745.86	28075.25
746.199	28016.49
746.538	27815.82
746.877	27956.84
747.216	27874.8
747.556	27882.26
747.895	27873.9
748.234	27809.72
748.573	27785.31
748.911	27728.37
749.25	27733.11
749.589	27479.11
749.928	27598.88
750.267	27554.36
750.605	27411.54
750.944	27367.25
751.283	27338.77
751.621	27479.56
751.96	27215.61
752.298	27233.01
752.636	27154.82
752.975	27127.48
753.313	26983.75
753.651	27322.28
753.989	27002.28
754.327	27027.37
754.666	26856.3
755.004	26898.11
755.342	26827.37
755.679	26827.6
756.017	26723.87
756.355	26760.71
756.693	26618.11
757.031	26726.13
757.368	26520.49
757.706	26450.89
758.044	26346.93
758.381	26497.44
758.719	26283.43
759.056	26363.66
759.394	26181.51
759.731	26084.12
760.068	26008.86
760.405	25961.18
760.743	25867.4
761.08	26004.8
761.417	25731.13
761.754	25712.83
762.091	25642.55
762.428	25557.35
762.765	25532.94
763.102	25521.65
763.438	25344.93
763.775	25302.44
764.112	25381.08
764.449	25334.31
764.785	25176.8
765.122	25004.37
765.458	24967.31
765.795	24890.48
766.131	24915.11
766.467	24744.49
766.804	24589.47
767.14	24540.2
767.476	24545.17
767.812	24488.9
768.148	24467.66
768.485	24226.99
768.821	24091.4
769.157	24116.26
769.492	24026.54
769.828	23907.22
770.164	23841.46
770.5	23813.22
770.836	23688.25
771.171	23631.75
771.507	23676.95
771.842	23330.06
772.178	23344.3
772.513	23262.27
772.849	23313.57
773.184	23096.85
773.519	23094.59
773.855	23073.57
774.19	22955.61
774.525	22923.75
774.86	22833.58
775.195	22801.72
775.53	22639.01
775.865	22622.96
776.2	22484.44
776.535	22299.58
776.87	22276.53
777.205	22234.05
777.539	22110.44
777.874	22153.82
778.209	21839.93
778.543	21849.2
778.878	21809.2
779.212	21868.41
779.547	21609.66
779.881	21707.96
780.215	21610.79
780.55	21517.68
780.884	21511.58
781.218	21326.28
781.552	21281.76
781.886	21168.09
782.22	21153.17
782.554	21053.51
782.888	20891.03
783.222	20759.51
783.556	20660.98
783.889	20664.6
784.223	20507.09
784.557	20512.74
784.89	20450.59
785.224	20467.77
785.557	20293.99
785.891	20219.41
786.224	20177.61
786.558	20182.8
786.891	19948.23
787.224	19834.79
787.557	19847.9
787.891	19829.59
788.224	19714.34
788.557	19750.95
788.89	19671.63
789.223	19599.77
789.556	19407.68
789.888	19466.44
790.221	19381.02
790.554	19113
790.887	19245.65
791.219	19097.18
791.552	19094.7
791.884	18895.15
792.217	19029.61
792.549	18901.03
792.882	18761.37
793.214	18677.08
793.546	18704.88
793.879	18583.3
794.211	18509.63
794.543	18583.07
794.875	18485.67
795.207	18555.95
795.539	18356.64
795.871	18367.94
796.203	18223.31
796.535	18207.49
796.867	18294.72
797.198	18076.64
797.53	18127.26
797.862	17866.48
798.193	17990.54
798.525	17843.88
798.856	17828.29
799.188	17666.94
799.519	17573.83
799.85	17530.44
800.182	17537
800.513	17472.37
800.844	17365.25
801.175	17455.19
801.506	17340.17
801.837	17273.27
802.168	17194.86
802.499	17171.58
802.83	17186.72
803.161	17066.73
803.491	17027.18
803.822	17001.42
804.153	16905.6
804.483	16764.36
804.814	16821.76
805.145	16660.86
805.475	16653.18
805.805	16648.88
806.136	16731.82
806.466	16671.48
806.796	16534.31
807.126	16459.06
807.457	16357.59
807.787	16406.86
808.117	16285.73
808.447	16210.93
808.777	16163.25
809.107	16239.18
809.436	16177.03
809.766	16151.27
810.096	16008.68
810.426	16020.43
810.755	16008.68
811.085	15915.8
811.414	15902.92
811.744	15728.46
812.073	15792.18
812.403	15702.69
812.732	15726.87
813.061	15703.6
813.39	15549.25
813.719	15512.42
814.049	15610.04
814.378	15464.06
814.707	15444.62
815.036	15413.21
815.365	15405.75
815.693	15309.03
816.022	15290.73
816.351	15278.52
816.68	15091.41
817.008	15210.05
817.337	15063.84
817.665	15032.43
817.994	15102.48
818.322	15033.79
818.651	14920.12
818.979	14937.74
819.307	14955.14
819.636	14931.87
819.964	14771.65
820.292	14874.92
820.62	14894.13
820.948	14764.41
821.276	14890.74
821.604	14779.33
821.932	14784.53
822.259	14733.23
822.587	14777.75
822.915	14648.48
823.243	14756.96
823.57	14682.61
823.898	14736.39
824.225	14679.44
824.553	14682.38
824.88	14744.08
825.207	14674.7
825.535	14592.22
825.862	14703.4
826.189	14700.69
826.516	14747.92
826.843	14805.77
827.17	14729.16
827.497	14717.41
827.824	14697.07
828.151	14739.78
828.478	14693.23
828.805	14655.72
829.131	14658.65
829.458	14639.67
829.785	14564.65
830.111	14605.1
830.438	14684.87
830.764	14657.3
831.09	14703.4
831.417	14569.62
831.743	14700.69
832.069	14598.32
832.395	14535.27
832.722	14650.97
833.048	14544.98
833.374	14614.81
833.7	14536.17
834.026	14574.14
834.351	14551.76
834.677	14547.92
835.003	14501.37
835.329	14525.32
835.654	14475.16
835.98	14367.59
836.306	14387.93
836.631	14374.37
836.956	14438.55
837.282	14359.9
837.607	14270.64
837.932	14352.45
838.258	14283.52
838.583	14201.94
838.908	14177.08
839.233	14213.92
839.558	14152.23
839.883	14077.65
840.208	14065.9
840.533	14030.65
840.858	14033.36
841.182	14062.96
841.507	13976.19
841.832	13970.99
842.156	13881.05
842.481	13907.94
842.805	13924.89
843.13	13813.25
843.454	13859.81
843.778	13817.77
844.103	13826.36
844.427	13746.36
844.751	13679.7
845.075	13728.51
845.399	13664.1
845.723	13535.75
846.047	13613.94
846.371	13561.96
846.695	13540.72
847.019	13304.79
847.343	13270.22
847.666	13261.4
847.99	13158.81
848.313	13183.44
848.637	13134.63
848.96	13053.95
849.284	13071.35
849.607	12957.68
849.931	12917.46
850.254	12833.84
850.577	12818.7
850.9	12702.32
851.223	12630.91
851.546	12608.31
851.869	12585.04
852.192	12609.44
852.515	12511.59
852.838	12415.55
853.161	12497.36
853.483	12384.59
853.806	12291.03
854.129	12347.53
854.451	12197.7
854.774	12117.48
855.096	12092.62
855.419	12064.6
855.741	12089.68
856.063	12005.39
856.385	11940.31
856.708	12001.1
857.03	11911.83
857.352	11907.99
857.674	11827.09
857.996	11851.27
858.318	11735.57
858.64	11772.4
858.961	11670.26
859.283	11647.21
859.605	11646.08
859.926	11609.02
860.248	11616.25
860.57	11553.43
860.891	11537.83
861.212	11517.49
861.534	11441.56
861.855	11467.1
862.176	11388.46
862.498	11409.47
862.819	11371.06
863.14	11344.62
863.461	11367.67
863.782	11345.97
864.103	11265.97
864.424	11250.38
864.745	11309.36
865.065	11251.96
865.386	11162.7
865.707	11129.93
866.027	11146.88
866.348	11100.33
866.668	11119.31
866.989	11115.7
867.309	11061.46
867.63	11113.66
867.95	11042.93
868.27	10992.76
868.59	11009.03
868.91	10999.54
869.23	10989.15
869.55	10884.06
869.87	10958.41
870.19	10955.93
870.51	10895.14
870.83	10923.61
871.15	10909.37
871.469	10832.31
871.789	10805.87
872.109	10782.37
872.428	10756.61
872.748	10813.56
873.067	10743.28
873.386	10778.76
873.706	10784.86
874.025	10717.74
874.344	10702.37
874.663	10724.29
874.982	10673.45
875.301	10629.16
875.62	10599.55
875.939	10595.71
876.258	10624.64
876.577	10567.91
876.896	10491.76
877.214	10500.57
877.533	10510.97
877.852	10466.45
878.17	10452.89
878.489	10441.59
878.807	10448.6
879.125	10410.86
879.444	10353.23
879.762	10361.14
880.08	10352.33
880.398	10296.51
880.716	10319.33
881.034	10304.42
881.352	10306.45
881.67	10227.81
881.988	10266.23
882.306	10219.22
882.624	10221.48
882.941	10160.02
883.259	10084.99
883.577	10102.16
883.894	10050.64
884.212	10049.51
884.529	10021.71
884.846	10058.32
885.164	9989.85
885.481	9961.38
885.798	9957.76
886.115	9955.73
886.432	9946.46
886.75	9856.07
887.067	9946.91
887.383	9842.06
887.7	9853.81
888.017	9748.27
888.334	9744.66
888.651	9717.77
888.967	9724.09
889.284	9682.74
889.6	9684.1
889.917	9619.46
890.233	9614.04
890.55	9564.78
890.866	9575.17
891.182	9529.3
891.498	9473.48
891.815	9520.03
892.131	9486.59
892.447	9424.89
892.763	9361.17
893.079	9367.95
893.395	9337.44
893.71	9346.03
894.026	9279.36
894.342	9231.68
894.657	9168.85
894.973	9147.84
895.289	9204.33
895.604	9131.79
895.92	9070.1
896.235	9068.97
896.55	9022.64
896.865	9012.7
897.181	9037.78
897.496	8982.19
897.811	8863.78
898.126	8868.52
898.441	8871.01
898.756	8764.8
899.071	8728.87
899.386	8805.25
899.7	8692.26
900.015	8718.02
900.33	8570.68
900.644	8647.51
900.959	8614.29
901.273	8602.09
901.588	8538.82
901.902	8461.98
902.216	8497.91
902.531	8430.8
902.845	8410.46
903.159	8393.51
903.473	8351.48
903.787	8328.65
904.101	8277.13
904.415	8250.24
904.729	8262.44
905.042	8261.99
905.356	8188.99
905.67	8156.9
905.984	8118.04
906.297	8095.66
906.611	8078.94
906.924	8045.27
907.237	7973.86
907.551	8022.22
907.864	7947.42
908.177	7906.29
908.491	7918.94
908.804	7836.91
909.117	7838.95
909.43	7774.09
909.743	7697.26
910.056	7711.72
910.368	7720.08
910.681	7633.98
910.994	7679.4
911.307	7619.97
911.619	7520.76
911.932	7513.98
912.244	7527.09
912.557	7454.32
912.869	7439.41
913.181	7356.25
913.494	7374.33
913.806	7356.47
914.118	7347.21
914.43	7242.8
914.742	7273.09
915.054	7238.28
915.366	7163.71
915.678	7161
915.99	7130.04
916.302	7067.44
916.613	7099.3
916.925	7052.07
917.236	7022.7
917.548	6961.46
917.859	6954
918.171	6956.71
918.482	6923.72
918.794	6875.13
919.105	6895.69
919.416	6805.98
919.727	6801.91
920.038	6759.43
920.349	6727.79
920.66	6712.2
920.971	6674.46
921.282	6697.06
921.593	6657.06
921.903	6587.68
922.214	6552.43
922.525	6542.94
922.835	6519.21
923.146	6382.49
923.456	6488.02
923.767	6451.41
924.077	6388.36
924.387	6396.5
924.697	6320.12
925.008	6339.1
925.318	6284.19
925.628	6275.6
925.938	6248.71
926.248	6211.42
926.558	6180.01
926.867	6171.19
927.177	6096.39
927.487	6119.22
927.796	6036.73
928.106	6046.68
928.416	6062.04
928.725	6045.77
929.034	5991.54
929.344	5972.78
929.653	5931.2
929.962	5944.53
930.271	5886.91
930.581	5865.89
930.89	5811.2
931.199	5808.72
931.508	5801.94
931.817	5726.23
932.125	5702.51
932.434	5695.27
932.743	5657.53
933.051	5630.87
933.36	5630.19
933.669	5569.18
933.977	5542.06
934.286	5556.97
934.594	5510.87
934.902	5432.46
935.21	5446.24
935.519	5494.38
935.827	5445.56
936.135	5439.01
936.443	5411.89
936.751	5368.73
937.059	5326.7
937.367	5356.75
937.674	5295.96
937.982	5284.21
938.29	5205.8
938.597	5252.57
938.905	5214.61
939.213	5175.29
939.52	5170.77
939.827	5167.83
940.135	5146.36
940.442	5066.59
940.749	5096.42
941.056	5062.3
941.363	5030.66
941.67	4992.92
941.977	4980.94
942.284	4949.98
942.591	4958.8
942.898	4926.71
943.205	4921.06
943.511	4920.38
943.818	4868.18
944.125	4832.7
944.431	4821.4
944.738	4839.48
945.044	4806.03
945.35	4759.03
945.657	4721.97
945.963	4701.4
946.269	4633.38
946.575	4704.57
946.881	4684
947.187	4611.46
947.493	4615.75
947.799	4639.26
948.105	4554.51
948.41	4558.81
948.716	4542.08
949.022	4518.36
949.327	4522.42
949.633	4467.96
949.938	4462.99
950.244	4492.37
950.549	4409.88
950.854	4393.61
951.16	4385.25
951.465	4402.2
951.77	4370.79
952.075	4344.12
952.38	4335.08
952.685	4335.76
952.99	4286.27
953.294	4252.15
953.599	4222.77
953.904	4234.52
954.209	4159.95
954.513	4183.22
954.818	4143.9
955.122	4153.39
955.426	4107.75
955.731	4056.67
956.035	4072.72
956.339	4044.02
956.643	4080.4
956.948	3988.2
957.252	4031.14
957.556	4023.45
957.86	3997.92
958.163	3991.14
958.467	3945.72
958.771	3954.53
959.075	3955.21
959.378	3911.82
959.682	3926.96
959.985	3834.98
960.289	3832.95
960.592	3819.17
960.896	3816.68
961.199	3801.09
961.502	3778.94
961.805	3763.12
962.108	3776.45
962.411	3723.57
962.714	3693.52
963.017	3709.11
963.32	3732.84
963.623	3691.48
963.926	3721.09
964.228	3632.28
964.531	3637.47
964.833	3609
965.136	3607.42
965.438	3543.24
965.741	3541.21
966.043	3550.47
966.345	3543.69
966.648	3508.44
966.95	3551.15
967.252	3503.24
967.554	3486.07
967.856	3466.63
968.158	3454.65
968.46	3410.59
968.761	3394.77
969.063	3392.06
969.365	3362.91
969.666	3411.72
969.968	3346.41
970.269	3319.29
970.571	3315.68
970.872	3346.86
971.174	3286.3
971.475	3269.35
971.776	3268.45
972.077	3269.12
972.378	3219.63
972.679	3222.34
972.98	3216.92
973.281	3189.13
973.582	3182.35
973.883	3192.74
974.183	3174.21
974.484	3125.62
974.785	3110.48
975.085	3112.97
975.386	3094.89
975.686	3089.69
975.986	3105.51
976.287	3052.18
976.587	3030.26
976.887	3037.72
977.187	3014.21
977.487	3008.11
977.787	2985.97
978.087	2976.25
978.387	2928.79
978.687	2946.65
978.987	2911.39
979.286	2901.9
979.586	2904.39
979.885	2875.91
980.185	2848.34
980.484	2878.62
980.784	2866.65
981.083	2834.33
981.382	2853.09
981.682	2854.67
981.981	2813.32
982.28	2801.11
982.579	2791.85
982.878	2777.84
983.177	2761.11
983.475	2772.19
983.774	2750.04
984.073	2726.99
984.372	2694.22
984.67	2714.79
984.969	2697.84
985.267	2689.93
985.566	2687.9
985.864	2677.95
986.162	2654.45
986.461	2615.13
986.759	2638.63
987.057	2591.85
987.355	2578.97
987.653	2563.38
987.951	2593.89
988.249	2554.11
988.547	2559.99
988.844	2559.31
989.142	2539.42
989.44	2521.12
989.737	2480.9
990.035	2512.53
990.332	2454.23
990.63	2436.6
990.927	2476.38
991.224	2472.99
991.521	2419.88
991.819	2396.38
992.116	2407.22
992.413	2433.66
992.71	2407.68
993.006	2395.7
993.303	2402.48
993.6	2362.93
993.897	2359.09
994.193	2347.57
994.49	2301.46
994.787	2323.39
995.083	2303.72
995.379	2287
995.676	2250.84
995.972	2257.85
996.268	2237.29
996.565	2250.84
996.861	2249.26
997.157	2223.95
997.453	2223.95
997.749	2220.56
998.044	2167.46
998.34	2193.67
998.636	2166.33
998.932	2171.75
999.227	2130.85
999.523	2130.17
999.818	2119.1
1000.114	2129.04
1000.409	2097.85
1000.704	2074.58
1001	2118.64
1001.295	2081.13
1001.59	2086.1
1001.885	2058.99
1002.18	2041.13
1002.475	2034.81
1002.77	2016.5
1003.065	1997.97
1003.359	2007.46
1003.654	1995.48
1003.949	1971.08
1004.243	1982.38
1004.538	1966.33
1004.832	1948.25
1005.127	1931.53
1005.421	1901.02
1005.715	1902.15
1006.009	1909.38
1006.304	1868.48
1006.598	1861.93
1006.892	1874.81
1007.186	1851.31
1007.48	1846.56
1007.773	1829.39
1008.067	1808.82
1008.361	1853.34
1008.655	1821.03
1008.948	1791.65
1009.242	1784.19
1009.535	1763.63
1009.829	1746.45
1010.122	1763.63
1010.415	1741.93
1010.708	1745.1
1011.001	1742.38
1011.295	1718.88
1011.588	1694.48
1011.881	1689.5
1012.173	1683.4
1012.466	1673.46
1012.759	1691.54
1013.052	1635.95
1013.344	1634.36
1013.637	1626.45
1013.93	1629.62
1014.222	1633.91
1014.514	1612.44
1014.807	1586.23
1015.099	1575.61
1015.391	1624.19
1015.683	1580.81
1015.976	1564.99
1016.268	1545.1
1016.56	1550.75
1016.851	1533.8
1017.143	1525.67
1017.435	1536.51
1017.727	1517.98
1018.018	1466.91
1018.31	1488.6
1018.602	1481.6
1018.893	1468.04
1019.185	1474.82
1019.476	1453.8
1019.767	1444.09
1020.058	1459.68
1020.35	1473.69
1020.641	1414.93
1020.932	1403.18
1021.223	1396.4
1021.514	1404.09
1021.804	1346.24
1022.095	1355.73
1022.386	1365.9
1022.677	1366.12
1022.967	1330.64
1023.258	1323.64
1023.548	1324.54
1023.839	1321.6
1024.129	1322.28
1024.419	1309.63
1024.709	1298.33
1025	1301.72
1025.29	1280.93
1025.58	1262.85
1025.87	1251.55
1026.16	1242.28
1026.449	1237.99
1026.739	1257.2
1027.029	1233.92
1027.319	1216.52
1027.608	1211.55
1027.898	1221.04
1028.187	1211.1
1028.477	1202.06
1028.766	1143.53
1029.055	1164.55
1029.344	1152.57
1029.634	1164.77
1029.923	1137.88
1030.212	1141.95
1030.501	1146.47
1030.79	1123.42
1031.078	1108.28
1031.367	1099.69
1031.656	1102.85
1031.945	1115.06
1032.233	1081.38
1032.522	1083.42
1032.81	1077.32
1033.099	1071.67
1033.387	1076.19
1033.675	1056.75
1033.963	1047.03
1034.251	1043.19
1034.54	1037.09
1034.828	1028.96
1035.116	1035.06
1035.403	1017.2
1035.691	1028.73
1035.979	1015.4
1036.267	994.15
1036.554	1015.17
1036.842	962.74
1037.129	977.88
1037.417	956.42
1037.704	949.64
1037.992	976.3
1038.279	952.57
1038.566	950.54
1038.853	950.54
1039.14	950.54
