Data from hue_80_FLMS001491_61.txt Node
Date: Mon Feb 06 15:23:22 GMT 2017
User: dcchb
Spectrometer: FLMS00149
Trigger mode: 0
Integration Time (sec): 2.000000E-2
Scans to average: 10
Electric dark correction enabled: true
Nonlinearity correction enabled: false
Boxcar width: 0
XAxis mode: Wavelengths
Number of Pixels in Spectrum: 2048
>>>>>Begin Spectral Data<<<<<
341.393	2.98
341.776	2.98
342.16	2.98
342.543	-55.78
342.927	-62.78
343.31	-70.46
343.693	-77.92
344.077	-71.37
344.46	-56
344.843	-56
345.226	-46.06
345.61	-30.92
345.993	-24.82
346.376	-0.41
346.759	13.38
347.142	34.84
347.525	47.5
347.908	64.9
348.291	59.25
348.674	97.21
349.057	116.88
349.44	134.73
349.823	139.02
350.206	155.07
350.588	213.82
350.971	207.04
351.354	230.09
351.737	227.16
352.119	263.99
352.502	263.54
352.884	270.77
353.267	287.27
353.65	283.42
354.032	302.63
354.414	308.28
354.797	316.87
355.179	315.97
355.562	331.33
355.944	328.17
356.326	343.99
356.709	340.37
357.091	328.17
357.473	341.28
357.855	372.01
358.238	355.97
358.62	331.11
359.002	341.28
359.384	346.47
359.766	354.84
360.148	334.72
360.53	358
360.912	329.53
361.294	319.36
361.676	331.11
362.057	335.85
362.439	319.81
362.821	316.64
363.203	310.09
363.584	318.45
363.966	307.83
364.348	309.64
364.729	315.97
365.111	286.59
365.493	324.55
365.874	317.32
366.256	318.68
366.637	327.49
367.019	309.41
367.4	296.98
367.781	324.55
368.163	326.14
368.544	331.56
368.925	308.51
369.306	318.23
369.688	298.34
370.069	317.1
370.45	290.66
370.831	300.6
371.212	306.93
371.593	309.64
371.974	295.18
372.355	318
372.736	308.28
373.117	312.58
373.498	331.79
373.879	315.06
374.26	311.45
374.641	318.23
375.021	328.85
375.402	312.12
375.783	335.85
376.163	337.43
376.544	305.12
376.925	323.88
377.305	308.51
377.686	322.97
378.066	322.97
378.447	329.07
378.827	335.85
379.208	342.63
379.588	332.46
379.968	341.73
380.349	335.4
380.729	336.98
381.109	341.73
381.489	330.2
381.87	328.85
382.25	349.41
382.63	310.77
383.01	328.62
383.39	326.14
383.77	336.08
384.15	325.91
384.53	343.54
384.91	338.79
385.29	350.54
385.67	361.61
386.049	352.8
386.429	338.56
386.809	337.89
387.189	357.77
387.568	355.51
387.948	366.81
388.328	359.35
388.707	333.14
389.087	349.41
389.466	357.55
389.846	354.16
390.225	354.38
390.605	348.96
390.984	353.93
391.363	349.19
391.743	359.13
392.122	373.37
392.501	373.37
392.881	384.44
393.26	360.71
393.639	365.91
394.018	382.41
394.397	356.64
394.776	370.43
395.155	357.32
395.534	368.39
395.913	360.94
396.292	371.56
396.671	387.6
397.05	381.73
397.429	391.22
397.808	371.56
398.186	401.16
398.565	376.53
398.944	369.75
399.323	383.08
399.701	379.92
400.08	405.68
400.458	398.22
400.837	374.04
401.215	397.32
401.594	400.03
401.972	420.6
402.351	403.42
402.729	408.62
403.107	403.65
403.486	398.45
403.864	393.7
404.242	393.7
404.62	427.83
404.999	401.16
405.377	398.22
405.755	410.65
406.133	423.76
406.511	415.85
406.889	422.86
407.267	425.34
407.645	420.37
408.023	402.97
408.401	413.36
408.779	403.87
409.156	422.18
409.534	445.91
409.912	453.36
410.29	449.75
410.667	423.31
411.045	455.62
411.422	435.51
411.8	439.35
412.178	437.09
412.555	425.79
412.933	452.01
413.31	450.88
413.687	449.3
414.065	453.36
414.442	470.99
414.819	474.61
415.197	485
415.574	462.18
415.951	473.7
416.328	471.89
416.705	480.26
417.082	479.8
417.46	479.8
417.837	485.45
418.214	481.61
418.591	485.45
418.967	485.45
419.344	488.17
419.721	490.65
420.098	478.9
420.475	483.65
420.852	502.4
421.228	507.15
421.605	523.64
421.982	501.27
422.358	498.11
422.735	517.77
423.111	530.2
423.488	543.3
423.864	537.2
424.241	535.62
424.617	529.75
424.994	532.46
425.37	546.24
425.746	558.9
426.123	539.46
426.499	566.81
426.875	562.06
427.251	519.8
427.627	544.43
428.003	553.02
428.379	595.05
428.756	574.49
429.132	581.72
429.507	590.08
429.883	564.77
430.259	579.24
430.635	591.21
431.011	572.68
431.387	607.48
431.763	613.36
432.138	601.16
432.514	617.43
432.89	622.4
433.265	628.05
433.641	633.47
434.016	635.28
434.392	630.31
434.767	668.73
435.143	639.12
435.518	641.16
435.894	656.97
436.269	645.9
436.644	654.71
437.02	668.27
437.395	676.41
437.77	696.52
438.145	685
438.52	697.65
438.895	699.46
439.271	701.72
439.646	720.7
440.021	729.97
440.395	725
440.77	715.96
441.145	718.22
441.52	736.07
441.895	722.96
442.27	739.68
442.645	736.29
443.019	752.56
443.394	720.7
443.769	734.49
444.143	769.29
444.518	744.43
444.892	745.79
445.267	751.66
445.641	782.17
446.016	777.2
446.39	764.32
446.764	785.11
447.139	783.07
447.513	792.34
447.887	790.98
448.262	780.36
448.636	800.25
449.01	822.85
449.384	811.32
449.758	817.42
450.132	828.27
450.506	819.23
450.88	840.92
451.254	810.19
451.628	842.96
452.002	844.77
452.376	834.82
452.75	853.13
453.123	847.03
453.497	876.4
453.871	898.32
454.244	920.47
454.618	917.98
454.992	930.87
455.365	904.88
455.739	925.67
456.112	948.72
456.486	959.57
456.859	943.07
457.232	971.99
457.606	986.01
457.979	1022.39
458.352	1027.36
458.725	1008.6
459.099	1023.29
459.472	1050.41
459.845	1033.46
460.218	1050.18
460.591	1057.42
460.964	1061.94
461.337	1087.02
461.71	1110.52
462.083	1114.14
462.456	1133.35
462.829	1137.19
463.201	1148.94
463.574	1164.53
463.947	1169.28
464.32	1215.6
464.692	1224.87
465.065	1212.44
465.438	1240.91
465.81	1258.09
466.183	1295.15
466.555	1301.93
466.928	1294.47
467.3	1323.85
467.672	1331.98
468.045	1361.81
468.417	1393.68
468.789	1408.59
469.161	1439.55
469.534	1443.39
469.906	1522.94
470.278	1503.96
470.65	1503.51
471.022	1569.72
471.394	1585.09
471.766	1582.37
472.138	1636.16
472.51	1660.34
472.882	1709.6
473.253	1746.21
473.625	1759.54
473.997	1839.77
474.369	1839.09
474.74	1863.5
475.112	1941.91
475.484	1966.77
475.855	2043.6
476.227	2051.51
476.598	2123.6
476.97	2143.94
477.341	2235.92
477.713	2313.2
478.084	2338.96
478.455	2395.69
478.827	2443.37
479.198	2556.13
479.569	2605.4
479.94	2702.57
480.311	2738.5
480.682	2833.64
481.053	2900.53
481.424	3009
481.795	3114.31
482.166	3144.37
482.537	3292.39
482.908	3324.7
483.279	3431.82
483.65	3557.69
484.021	3592.04
484.391	3731.7
484.762	3826.83
485.133	3914.06
485.503	4032.03
485.874	4153.38
486.244	4254.62
486.615	4396.08
486.985	4516.99
487.356	4630.2
487.726	4734.83
488.097	4867.03
488.467	4936.64
488.837	5151.09
489.207	5275.84
489.578	5385.89
489.948	5556.96
490.318	5685.54
490.688	5783.39
491.058	5941.81
491.428	6017.96
491.798	6193.78
492.168	6438.07
492.538	6467.89
492.908	6648.23
493.278	6836.25
493.648	6904.04
494.017	7026.52
494.387	7236.24
494.757	7290.47
495.126	7465.38
495.496	7524.82
495.866	7754.19
496.235	7882.55
496.605	7999.38
496.974	8135.42
497.344	8274.85
497.713	8322.99
498.082	8467.62
498.452	8673.03
498.821	8768.4
499.19	8905.34
499.559	8996.19
499.928	9151.89
500.298	9243.64
500.667	9354.6
501.036	9474.82
501.405	9634.59
501.774	9759.33
502.143	9875.49
502.512	9931.08
502.88	10116.39
503.249	10119.55
503.618	10232.32
503.987	10358.64
504.356	10475.25
504.724	10574.68
505.093	10624.17
505.462	10757.73
505.83	10882.92
506.199	11008.57
506.567	11168.11
506.936	11153.87
507.304	11319.29
507.672	11372.4
508.041	11458.95
508.409	11601.32
508.777	11738.04
509.145	11825.04
509.514	11907.07
509.882	12008.54
510.25	12011.7
510.618	12114.07
510.986	12128.54
511.354	12393.39
511.722	12394.52
512.09	12537.57
512.458	12585.02
512.826	12615.53
513.193	12841.06
513.561	12773.94
513.929	12926.26
514.297	13021.39
514.664	13155.4
515.032	13194.5
515.4	13225.68
515.767	13336.19
516.135	13431.55
516.502	13325.79
516.869	13574.83
517.237	13644.43
517.604	13567.82
517.972	13761.71
518.339	13767.82
518.706	13786.8
519.073	13951.09
519.44	14055.04
519.808	14052.78
520.175	13966.68
520.542	14184.98
520.909	14278.09
521.276	14343.85
521.643	14389.72
522.009	14420.23
522.376	14526.67
522.743	14575.48
523.11	14716.27
523.477	14768.47
523.843	14810.95
524.21	15044.84
524.577	15064.28
524.943	15059.08
525.31	15175.69
525.676	15211.62
526.043	15257.27
526.409	15393.99
526.776	15505.4
527.142	15471.73
527.508	15509.47
527.874	15553.31
528.241	15619.29
528.607	15650.48
528.973	15793.3
529.339	15746.3
529.705	15821.55
530.071	15960.98
530.437	15943.8
530.803	16059.73
531.169	15990.13
531.535	15991.49
531.901	15998.72
532.267	16104.03
532.632	16067.19
532.998	16153.29
533.364	16193.74
533.73	16191.26
534.095	16260.63
534.461	16193.06
534.826	16316
535.192	16279.61
535.557	16373.17
535.923	16363.91
536.288	16370.46
536.653	16501.76
537.019	16344.02
537.384	16395.54
537.749	16414.75
538.114	16420.85
538.479	16407.75
538.845	16441.64
539.21	16440.97
539.575	16416.56
539.94	16429.44
540.305	16515.77
540.67	16325.26
541.034	16473.28
541.399	16436.45
541.764	16454.98
542.129	16497.91
542.494	16414.75
542.858	16427.18
543.223	16409.1
543.587	16468.54
543.952	16338.14
544.316	16447.97
544.681	16295.89
545.045	16436.22
545.41	16493.85
545.774	16401.65
546.138	16400.97
546.503	16473.73
546.867	16294.53
547.231	16430.12
547.595	16421.08
547.959	16378.82
548.324	16358.71
548.688	16430.8
549.052	16458.37
549.416	16294.53
549.779	16242.33
550.143	16349.67
550.507	16416.79
550.871	16434.64
551.235	16389.44
551.599	16420.4
551.962	16380.18
552.326	16290.69
552.689	16379.27
553.053	16347.18
553.417	16424.24
553.78	16503.56
554.143	16363.45
554.507	16487.97
554.87	16433.96
555.234	16506.95
555.597	16339.27
555.96	16411.59
556.323	16521.64
556.686	16426.05
557.05	16530.23
557.413	16499.95
557.776	16482.77
558.139	16566.61
558.502	16513.28
558.865	16434.64
559.228	16582.21
559.59	16590.79
559.953	16628.98
560.316	16740.62
560.679	16675.31
561.041	16782.43
561.404	16791.69
561.767	16867.4
562.129	16778.81
562.492	16841.18
562.854	16909.88
563.217	16876.21
563.579	16812.26
563.941	16971.12
564.304	16977
564.666	17032.81
565.028	16929.54
565.39	17098.8
565.753	17132.47
566.115	17132.47
566.477	17139.7
566.839	17280.27
567.201	17283.43
567.563	17240.49
567.925	17231.68
568.287	17254.5
568.648	17262.41
569.01	17342.19
569.372	17495.18
569.734	17350.09
570.095	17373.6
570.457	17480.03
570.819	17488.85
571.18	17541.95
571.542	17600.48
571.903	17602.07
572.265	17669.18
572.626	17761.84
572.987	17693.59
573.349	17748.05
573.71	17751.21
574.071	17730.65
574.432	17905.79
574.794	17871.66
575.155	17933.13
575.516	17858.1
575.877	17893.58
576.238	17925.9
576.599	17902.62
576.96	17960.47
577.32	17979.46
577.681	17984.2
578.042	18072.11
578.403	17954.6
578.763	17972
579.124	18056.74
579.485	18022.85
579.845	18115.95
580.206	18091.54
580.566	18159.11
580.927	18005.22
581.287	18100.13
581.648	17974.94
582.008	18126.12
582.368	18124.76
582.728	18064.88
583.089	18029.4
583.449	18035.5
583.809	18085.67
584.169	18108.04
584.529	18058.55
584.889	18159.56
585.249	17923.41
585.609	17989.4
585.969	18066.91
586.329	18064.65
586.688	18010.87
587.048	18046.12
587.408	18027.59
587.768	17964.54
588.127	18028.04
588.487	18009.29
588.846	17990.08
589.206	17920.48
589.565	17903.53
589.925	17950.08
590.284	17958.67
590.643	17916.86
591.003	18075.05
591.362	18027.36
591.721	17977.87
592.08	17921.83
592.44	18031.66
592.799	18093.35
593.158	18007.03
593.517	17923.19
593.876	17942.17
594.235	17922.06
594.593	17916.63
594.952	17995.95
595.311	17950.76
595.67	17890.87
596.029	17934.49
596.387	17995.28
596.746	18007.93
597.104	17843.19
597.463	17961.6
597.822	18000.7
598.18	17942.4
598.538	17854.26
598.897	17988.95
599.255	17829.63
599.613	18057.87
599.972	17919.12
600.33	18044.99
600.688	17920.7
601.046	17927.03
601.404	18078.66
601.762	17977.2
602.12	18137.87
602.478	18139.9
602.836	18095.84
603.194	18030.98
603.552	18039.79
603.91	17926.35
604.268	18035.05
604.625	17998.67
604.983	18060.13
605.341	17929.74
605.698	18082.28
606.056	18106.01
606.413	18119.57
606.771	18131.99
607.128	18131.32
607.485	18022.39
607.843	18069.85
608.2	18168.38
608.557	18233.01
608.914	18113.24
609.272	18139.45
609.629	18220.13
609.986	18329.28
610.343	18144.88
610.7	18240.69
611.057	18272.78
611.414	18275.95
611.771	18251.31
612.127	18327.7
612.484	18312.78
612.841	18340.35
613.198	18367.02
613.554	18384.19
613.911	18454.02
614.267	18341.71
614.624	18399.56
614.98	18425.32
615.337	18509.84
615.693	18379.45
616.05	18490.4
616.406	18564.53
616.762	18522.04
617.118	18517.07
617.475	18589.61
617.831	18621.02
618.187	18613.34
618.543	18664.64
618.899	18713.67
619.255	18600.68
619.611	18633.9
619.967	18659.21
620.323	18807.91
620.678	18691.98
621.034	18653.11
621.39	18628.25
621.746	18665.54
622.101	18849.72
622.457	18662.6
622.812	18726.56
623.168	18765.2
623.523	18738.31
623.879	18904.86
624.234	18662.6
624.589	18828.7
624.945	18831.64
625.3	18912.77
625.655	18723.62
626.01	18880
626.365	18808.59
626.72	18692.43
627.075	18833.9
627.43	18662.6
627.785	18794.35
628.14	18937.62
628.495	18816.95
628.85	18728.36
629.205	18779.89
629.559	18875.7
629.914	18757.97
630.269	18704.64
630.623	18635.48
630.978	18621.47
631.332	18657.86
631.687	18690.85
632.041	18653.11
632.396	18658.08
632.75	18575.83
633.104	18664.64
633.459	18514.13
633.813	18517.52
634.167	18484.75
634.521	18559.1
634.875	18556.39
635.229	18531.08
635.583	18396.17
635.937	18426.45
636.291	18293.57
636.645	18347.58
636.999	18306.91
637.352	18369.28
637.706	18314.82
638.06	18308.49
638.413	18304.87
638.767	18273.46
639.121	18344.64
639.474	18293.57
639.828	18255.38
640.181	18202.28
640.534	18290.86
640.888	18209.96
641.241	18156.18
641.594	18139.23
641.947	18263.97
642.301	18117.76
642.654	18143.29
643.007	18245.21
643.36	18141.71
643.713	18186
644.066	18148.49
644.419	18014.71
644.771	17819.46
645.124	17692.91
645.477	17683.42
645.83	17609.3
646.182	17651.78
646.535	17573.59
646.888	17539.92
647.24	17429.19
647.593	17535.85
647.945	17454.5
648.298	17437.78
648.65	17397.78
649.002	17377.21
649.355	17440.71
649.707	17292.47
650.059	17481.62
650.411	17733.36
650.763	17738.11
651.115	17915.5
651.467	17809.52
651.819	17856.75
652.171	17944.88
652.523	17873.02
652.875	17768.16
653.227	17787.6
653.578	17811.55
653.93	17787.15
654.282	17802.06
654.633	17784.66
654.985	17884.09
655.337	17705.11
655.688	17746.47
656.039	17920.93
656.391	17685.68
656.742	17751.44
657.094	17777.88
657.445	17870.31
657.796	17736.07
658.147	17775.62
658.498	17791.66
658.849	17804.77
659.2	17791.44
659.551	17777.88
659.902	17813.36
660.253	17760.25
660.604	17869.85
660.955	17832.79
661.306	17892.91
661.656	17761.38
662.007	17774.49
662.358	17840.7
662.708	17824.88
663.059	17891.78
663.409	17686.58
663.76	17905.33
664.11	17872.11
664.461	17849.97
664.811	17955.95
665.161	17878.67
665.511	17764.55
665.862	17873.47
666.212	17873.02
666.562	17934.49
666.912	17863.98
667.262	17935.16
667.612	17859.46
667.962	17858.56
668.312	17911.66
668.662	17909.18
669.011	17848.84
669.361	17767.71
669.711	17732.01
670.06	17864.66
670.41	17783.76
670.76	17820.36
671.109	17889.74
671.459	17873.92
671.808	17732.23
672.157	17904.88
672.507	17681.84
672.856	17722.74
673.205	17784.89
673.554	17820.36
673.904	17671.67
674.253	17844.09
674.602	17807.94
674.951	17514.38
675.3	17434.61
675.649	17645.68
675.998	17755.06
676.346	17609.52
676.695	17711.89
677.044	17537.43
677.393	17625.79
677.741	17616.75
678.09	17522.52
678.438	17523.88
678.787	17552.8
679.135	17601.16
679.484	17377.21
679.832	17485.91
680.181	17336.99
680.529	17410.66
680.877	17369.3
681.225	17322.75
681.573	17324.33
681.922	17277.78
682.27	17199.82
682.618	17171.57
682.966	17110.1
683.314	17208.18
683.661	17138.35
684.009	17016.09
684.357	17011.35
684.705	16987.39
685.053	17078.92
685.4	17080.5
685.748	16874.63
686.095	16937.68
686.443	16849.54
686.79	16847.06
687.138	16891.12
687.485	16925.7
687.832	16746.49
688.18	16781.07
688.527	16715.54
688.874	16632.6
689.221	16592.15
689.568	16435.99
689.915	16500.85
690.262	16453.85
690.609	16376.11
690.956	16301.31
691.303	16302.66
691.65	16180.41
691.997	16221.31
692.344	16185.83
692.69	16186.74
693.037	16109.9
693.383	15991.26
693.73	16106.96
694.077	15944.03
694.423	15874.43
694.769	15830.13
695.116	15786.52
695.462	15669.46
695.808	15736.35
696.155	15708.1
696.501	15607.32
696.847	15593.3
697.193	15460.65
697.539	15438.05
697.885	15358.28
698.231	15263.14
698.577	15279.87
698.923	15146.99
699.269	15248.91
699.614	15137.27
699.96	15045.75
700.306	15092.07
700.651	15011.85
700.997	14898.86
701.342	14857.73
701.688	14799.65
702.033	14739.32
702.379	14743.38
702.724	14671.07
703.069	14654.8
703.415	14464.52
703.76	14535.03
704.105	14480.34
704.45	14472.2
704.795	14436.95
705.14	14318.99
705.485	14319.21
705.83	14280.8
706.175	14328.71
706.52	14226.79
706.865	14095.72
707.209	14122.83
707.554	14051.65
707.899	14106.79
708.243	14022.5
708.588	13989.28
708.932	13900.92
709.277	13867.93
709.621	13819.34
709.966	13751.55
710.31	13836.29
710.654	13703.64
710.998	13645.79
711.342	13669.29
711.687	13606.01
712.031	13568.05
712.375	13537.77
712.719	13545.45
713.063	13495.05
713.407	13521.27
713.75	13457.09
714.094	13426.81
714.438	13402.85
714.782	13425.45
715.125	13339.58
715.469	13375.28
715.812	13284.66
716.156	13198.34
716.499	13175.97
716.843	13170.77
717.186	13130.09
717.53	13196.31
717.873	13209.19
718.216	13080.38
718.559	13080.83
718.902	13055.74
719.246	13060.04
719.589	12971.45
719.932	13013.49
720.275	12898.23
720.617	12984.79
720.96	12857.33
721.303	12961.74
721.646	12901.85
721.989	12808.75
722.331	12921.74
722.674	12912.25
723.016	12834.96
723.359	12866.82
723.701	12846.94
724.044	12683.1
724.386	12659.14
724.729	12811.91
725.071	12665.02
725.413	12743.21
725.755	12821.85
726.097	12549.54
726.439	12582.99
726.782	12607.62
727.124	12720.61
727.465	12644.91
727.807	12622.54
728.149	12550.9
728.491	12567.17
728.833	12547.28
729.175	12522.88
729.516	12551.8
729.858	12479.49
730.199	12558.36
730.541	12550.22
730.882	12591.58
731.224	12590.67
731.565	12554.74
731.906	12530.56
732.248	12519.26
732.589	12484.23
732.93	12498.24
733.271	12474.74
733.612	12508.87
733.953	12498.47
734.294	12368.53
734.635	12435.2
734.976	12498.7
735.317	12401.07
735.658	12428.42
735.999	12484.69
736.339	12413.05
736.68	12424.12
737.021	12451.69
737.361	12433.61
737.702	12503.89
738.042	12413.5
738.383	12431.81
738.723	12581.18
739.063	12519.04
739.404	12511.35
739.744	12510.45
740.084	12472.48
740.424	12586.6
740.764	12474.06
741.104	12611.46
741.444	12535.53
741.784	12481.52
742.124	12599.03
742.464	12556.32
742.804	12512.26
743.143	12562.88
743.483	12604.46
743.823	12552.71
744.162	12656.66
744.502	12608.07
744.841	12710.44
745.181	12728.97
745.52	12714.06
745.86	12786.15
746.199	12764
746.538	12814.85
746.877	12881.51
747.216	12939.59
747.556	12997.21
747.895	13028.63
748.234	12950.44
748.573	13050.32
748.911	13094.39
749.25	13132.13
749.589	13174.16
749.928	13265.68
750.267	13345.23
750.605	13392.68
750.944	13495.96
751.283	13565.56
751.621	13566.47
751.96	13643.07
752.298	13771.43
752.636	13817.98
752.975	13937.08
753.313	13956.51
753.651	14152.21
753.989	14159.22
754.327	14298.42
754.666	14271.98
755.004	14446.44
755.342	14509.27
755.679	14645.08
756.017	14776.83
756.355	14842.82
756.693	14937.5
757.031	15120.55
757.368	15177.04
757.706	15181.34
758.044	15433.53
758.381	15570.48
758.719	15607.99
759.056	15697.03
759.394	15806.86
759.731	15821.77
760.068	15970.47
760.405	16063.12
760.743	16199.16
761.08	16364.13
761.417	16368.2
761.754	16480.29
762.091	16679.38
762.428	16603.22
762.765	16715.31
763.102	16914.63
763.438	16942.87
763.775	17041.85
764.112	17102.87
764.449	17324.56
764.785	17285.24
765.122	17294.73
765.458	17359.36
765.795	17516.19
766.131	17613.59
766.467	17720.25
766.804	17663.31
767.14	17687.26
767.476	17814.26
767.812	17828.73
768.148	17946.24
768.485	17952.11
768.821	18036.63
769.157	18023.52
769.492	18134.48
769.828	18167.7
770.164	18087.25
770.5	18167.02
770.836	18256.06
771.171	18179.23
771.507	18233.01
771.842	18263.29
772.178	18253.8
772.513	18298.09
772.849	18408.15
773.184	18326.79
773.519	18354.59
773.855	18396.17
774.19	18306.23
774.525	18326.34
774.86	18436.17
775.195	18448.82
775.53	18330.41
775.865	18348.49
776.2	18222.39
776.535	18243.63
776.87	18272.33
777.205	18190.75
777.539	18219.68
777.874	18322.72
778.209	18167.47
778.543	18168.83
778.878	18131.54
779.212	18088.61
779.547	18010.87
779.881	18123.41
780.215	18065.78
780.55	18071.21
780.884	18015.39
781.218	18003.86
781.552	18059.91
781.886	17908.05
782.22	17871.44
782.554	17868.27
782.888	17715.28
783.222	17652.01
783.556	17630.77
783.889	17579.69
784.223	17512.12
784.557	17526.81
784.89	17494.27
785.224	17485.91
785.557	17435.29
785.891	17380.6
786.224	17334.28
786.558	17410.88
786.891	17249.98
787.224	17164.34
787.557	17128.41
787.891	17029.43
788.224	17113.72
788.557	17125.02
788.89	16980.84
789.223	17037.11
789.556	16977.22
789.888	16960.05
790.221	16864.91
790.554	16695.87
790.887	16719.83
791.219	16715.54
791.552	16713.5
791.884	16597.57
792.217	16524.81
792.549	16527.97
792.882	16541.3
793.214	16445.94
793.546	16326.62
793.879	16253.17
794.211	16200.75
794.543	16273.96
794.875	16163.69
795.207	16230.12
795.539	16181.31
795.871	16164.36
796.203	15959.17
796.535	15965.05
796.867	15934.99
797.198	15930.02
797.53	15878.04
797.862	15797.37
798.193	15828.55
798.525	15687.99
798.856	15844.6
799.188	15576.81
799.519	15542.23
799.85	15452.52
800.182	15467.88
800.513	15473.76
800.844	15333.2
801.175	15396.93
801.506	15426.76
801.837	15343.59
802.168	15336.14
802.499	15222.69
802.83	15108.35
803.161	15091.4
803.491	15048.01
803.822	15098.63
804.153	15035.81
804.483	14910.61
804.814	14872.19
805.145	14819.31
805.475	14843.72
805.805	14754.23
806.136	14779.09
806.466	14723.27
806.796	14711.75
807.126	14625.87
807.457	14560.11
807.787	14578.42
808.117	14520.79
808.447	14445.31
808.777	14549.26
809.107	14486.44
809.436	14413.45
809.766	14394.47
810.096	14398.53
810.426	14263.4
810.755	14329.84
811.085	14272.89
811.414	14236.96
811.744	14200.35
812.073	14071.08
812.403	14136.62
812.732	14060.69
813.061	14062.95
813.39	13959
813.719	13872.45
814.049	13995.15
814.378	13954.48
814.707	13838.32
815.036	13861.82
815.365	13746.8
815.693	13672
816.022	13710.64
816.351	13686.91
816.68	13550.19
817.008	13676.74
817.337	13481.5
817.665	13487.6
817.994	13572.57
818.322	13469.52
818.651	13444.89
818.979	13381.16
819.307	13433.59
819.636	13365.57
819.964	13303.65
820.292	13297.77
820.62	13318.11
820.948	13319.24
821.276	13320.37
821.604	13232.69
821.932	13236.98
822.259	13273.82
822.587	13336.87
822.915	13241.28
823.243	13197.66
823.57	13201.73
823.898	13196.31
824.225	13187.04
824.553	13228.4
824.88	13186.36
825.207	13216.19
825.535	13172.8
825.862	13221.62
826.189	13170.54
826.516	13169.19
826.843	13241.95
827.17	13312.91
827.497	13282.63
827.824	13228.62
828.151	13259.58
828.478	13187.04
828.805	13312.23
829.131	13210.54
829.458	13199.24
829.785	13111.79
830.111	13183.2
830.438	13256.87
830.764	13210.09
831.09	13244.67
831.417	13113.14
831.743	13226.81
832.069	13212.35
832.395	13139.36
832.722	13162.18
833.048	13122.41
833.374	13133.71
833.7	13074.05
834.026	13115.63
834.351	13131.45
834.677	13131
835.003	13081.96
835.329	13008.51
835.654	13049.42
835.98	13001.73
836.306	12958.57
836.631	12966.48
836.956	13128.96
837.282	13020.49
837.607	12973.03
837.932	12864.11
838.258	12934.39
838.583	12867.5
838.908	12782.98
839.233	12901.17
839.558	12813.26
839.883	12765.36
840.208	12717.45
840.533	12721.74
840.858	12721.52
841.182	12693.95
841.507	12727.84
841.832	12624.8
842.156	12549.09
842.481	12609.43
842.805	12591.58
843.13	12589.32
843.454	12576.66
843.778	12456.44
844.103	12424.35
844.427	12426.83
844.751	12399.04
845.075	12317.91
845.399	12329.89
845.723	12316.78
846.047	12268.87
846.371	12241.75
846.695	12203.11
847.019	12167.86
847.343	11953.4
847.666	11997.69
847.99	11954.08
848.313	12032.72
848.637	11812.39
848.96	11862.78
849.284	11776.23
849.607	11694.65
849.931	11662.79
850.254	11573.07
850.577	11548.44
850.9	11475.45
851.223	11484.49
851.546	11411.04
851.869	11299.63
852.192	11347.31
852.515	11280.42
852.838	11300.99
853.161	11254.66
853.483	11207.88
853.806	11136.25
854.129	11058.96
854.451	11046.53
854.774	11059.41
855.096	11025.74
855.419	10988.91
855.741	10933.54
856.063	10914.56
856.385	10902.58
856.708	10869.14
857.03	10846.08
857.352	10842.02
857.674	10777.39
857.996	10748.46
858.318	10705.3
858.64	10692.19
858.961	10649.25
859.283	10543.27
859.605	10549.82
859.926	10581.91
860.248	10468.47
860.57	10435.25
860.891	10488.58
861.212	10421.46
861.534	10405.19
861.855	10310.28
862.176	10311.41
862.498	10336.27
862.819	10333.1
863.14	10264.63
863.461	10268.25
863.782	10227.8
864.103	10249.04
864.424	10180.57
864.745	10185.54
865.065	10138.08
865.386	10213.33
865.707	10132.88
866.027	10103.51
866.348	10047.46
866.668	10054.92
866.989	10046.78
867.309	10034.81
867.63	9978.76
867.95	10025.32
868.27	9941.93
868.59	9949.39
868.91	9989.16
869.23	9911.87
869.55	9915.94
869.87	9997.29
870.19	9891.08
870.51	9840.91
870.83	9902.15
871.15	9772.67
871.469	9879.1
871.789	9895.15
872.109	9835.04
872.428	9767.24
872.748	9848.15
873.067	9764.08
873.386	9771.99
873.706	9724.76
874.025	9684.99
874.344	9679.34
874.663	9734.25
874.982	9656.96
875.301	9669.62
875.62	9605.67
875.939	9596.17
876.258	9550.3
876.577	9603.86
876.896	9581.71
877.214	9579.45
877.533	9517.98
877.852	9552.56
878.17	9513.92
878.489	9589.17
878.807	9479.79
879.125	9494.03
879.444	9331.55
879.762	9425.78
880.08	9418.1
880.398	9380.81
880.716	9341.72
881.034	9371.1
881.352	9288.39
881.67	9269.86
881.988	9332.23
882.306	9291.78
882.624	9284.09
882.941	9137.2
883.259	9193.47
883.577	9132.01
883.894	9109.86
884.212	9160.71
884.529	9117.09
884.846	9115.96
885.164	9076.87
885.481	8985.34
885.798	9053.82
886.115	9023.99
886.432	8997.77
886.75	8987.15
887.067	8998.22
887.383	8901.96
887.7	8896.53
888.017	8882.97
888.334	8836.65
888.651	8861.73
888.967	8838.68
889.284	8771.56
889.6	8791
889.917	8674.84
890.233	8672.58
890.55	8620.15
890.866	8634.17
891.182	8676.65
891.498	8609.99
891.815	8592.58
892.131	8537.45
892.447	8513.04
892.763	8501.29
893.079	8467.62
893.395	8443.44
893.71	8464.23
894.026	8483.44
894.342	8427.39
894.657	8346.26
894.973	8313.04
895.289	8312.37
895.604	8286.38
895.92	8228.98
896.235	8210.45
896.55	8234.18
896.865	8198.92
897.181	8182.43
897.496	8233.05
897.811	8116.44
898.126	8026.5
898.441	7979.72
898.756	8045.93
899.071	7971.81
899.386	7948.08
899.7	7920.74
900.015	7832.38
900.33	7799.16
900.644	7812.72
900.959	7848.88
901.273	7811.14
901.588	7770.23
901.902	7711.03
902.216	7674.64
902.531	7641.65
902.845	7619.73
903.159	7577.92
903.473	7605.94
903.787	7549.9
904.101	7452.05
904.415	7518.71
904.729	7459.96
905.042	7321.88
905.356	7403.01
905.67	7318.72
905.984	7396.46
906.297	7335.44
906.611	7303.35
906.924	7286.86
907.237	7226.75
907.551	7217.48
907.864	7158.5
908.177	7186.07
908.491	7137.93
908.804	7114.43
909.117	7059.74
909.43	7068.56
909.743	7021.78
910.056	6949.01
910.368	6950.82
910.681	6878.73
910.994	6908.56
911.307	6878.96
911.619	6805.29
911.932	6868.56
912.244	6821.11
912.557	6759.41
912.869	6729.81
913.181	6672.64
913.494	6678.28
913.806	6657.27
914.118	6639.19
914.43	6634.9
914.742	6598.74
915.054	6550.83
915.366	6538.63
915.678	6502.24
915.99	6483.71
916.302	6505.41
916.613	6444.17
916.925	6398.97
917.236	6447.56
917.548	6395.58
917.859	6367.11
918.171	6305.87
918.482	6245.53
918.794	6245.53
919.105	6235.36
919.416	6153.33
919.727	6258.86
920.038	6237.84
920.349	6154.68
920.66	6096.38
920.971	6074.01
921.282	6041.01
921.593	6009.15
921.903	5954.91
922.214	5931.64
922.525	5941.81
922.835	5902.03
923.146	5881.24
923.456	5904.29
923.767	5839.66
924.077	5851.64
924.387	5789.04
924.697	5754.69
925.008	5745.65
925.318	5694.36
925.628	5734.58
925.938	5661.36
926.248	5652.78
926.558	5609.61
926.867	5570.74
927.177	5572.78
927.487	5544.53
927.796	5464.08
928.106	5505.21
928.416	5488.71
928.725	5474.02
929.034	5426.34
929.344	5441.26
929.653	5393.8
929.962	5322.61
930.271	5366.68
930.581	5327.36
930.89	5237.19
931.199	5332.33
931.508	5227.93
931.817	5247.14
932.125	5231.32
932.434	5248.49
932.743	5162.17
933.051	5103.64
933.36	5097.08
933.669	5113.81
933.977	5046.24
934.286	5055.28
934.594	5012.34
934.902	5013.47
935.21	4975.96
935.519	4973.02
935.827	4941.16
936.135	4942.74
936.443	4898.22
936.751	4840.37
937.059	4841.5
937.367	4875.39
937.674	4827.03
937.982	4783.19
938.29	4799.01
938.597	4805.34
938.905	4736.42
939.213	4721.95
939.52	4705.46
939.827	4692.57
940.135	4654.84
940.442	4656.64
940.749	4647.15
941.056	4678.11
941.363	4594.05
941.67	4586.81
941.977	4502.75
942.284	4545.46
942.591	4516.53
942.898	4552.92
943.205	4546.14
943.511	4427.5
943.818	4455.97
944.125	4399.7
944.431	4418.68
944.738	4392.24
945.044	4417.1
945.35	4355.63
945.657	4339.59
945.963	4305.24
946.269	4329.42
946.575	4282.42
946.881	4278.12
947.187	4251.68
947.493	4236.54
947.799	4207.16
948.105	4202.64
948.41	4138.01
948.716	4199.25
949.022	4181.4
949.327	4128.52
949.633	4068.18
949.938	4099.6
950.244	4081.74
950.549	4040.84
950.854	4050.11
951.16	4042.2
951.465	4009.88
951.77	3966.27
952.075	3927.4
952.38	3926.04
952.685	3955.42
952.99	3913.16
953.294	3938.7
953.599	3879.26
953.904	3828.64
954.209	3813.05
954.513	3840.85
954.818	3846.49
955.122	3821.86
955.426	3746.16
955.731	3791.13
956.035	3754.07
956.339	3720.17
956.643	3674.52
956.948	3693.28
957.252	3674.3
957.556	3680.17
957.86	3682.88
958.163	3593.39
958.467	3622.77
958.771	3609.44
959.075	3571.25
959.378	3587.74
959.682	3583.45
959.985	3551.59
960.289	3493.96
960.592	3538.93
960.896	3489.22
961.199	3467.97
961.502	3494.41
961.805	3460.97
962.108	3465.49
962.411	3428.88
962.714	3394.76
963.017	3381.87
963.32	3398.82
963.623	3381.87
963.926	3363.34
964.228	3321.31
964.531	3295.32
964.833	3326.51
965.136	3307.07
965.438	3296.45
965.741	3237.02
966.043	3273.4
966.345	3256.23
966.648	3229.11
966.95	3219.17
967.252	3226.4
967.554	3181.88
967.856	3169.45
968.158	3159.96
968.46	3147.76
968.761	3123.8
969.063	3130.36
969.365	3104.37
969.666	3096.46
969.968	3082.22
970.269	3057.82
970.571	3027.31
970.872	3058.72
971.174	3014.88
971.475	3004.94
971.776	2949.34
972.077	2986.4
972.378	3024.14
972.679	2979.17
972.98	2983.92
973.281	2954.77
973.582	2880.42
973.883	2919.74
974.183	2883.36
974.484	2913.86
974.785	2886.29
975.085	2873.41
975.386	2877.71
975.686	2858.95
975.986	2830.7
976.287	2811.49
976.587	2806.97
976.887	2779.18
977.187	2766.07
977.487	2782.34
977.787	2727.65
978.087	2729.69
978.387	2718.16
978.687	2751.16
978.987	2674.55
979.286	2715
979.586	2689.92
979.885	2665.06
980.185	2651.05
980.484	2679.75
980.784	2652.18
981.083	2639.52
981.382	2600.2
981.682	2626.41
981.981	2584.83
982.28	2597.71
982.579	2558.39
982.878	2544.38
983.177	2537.38
983.475	2514.33
983.774	2503.25
984.073	2476.14
984.372	2485.85
984.67	2504.61
984.969	2484.04
985.267	2479.98
985.566	2450.15
985.864	2451.5
986.162	2423.26
986.461	2421.67
986.759	2422.8
987.057	2396.14
987.355	2371.28
987.653	2359.53
987.951	2350.26
988.249	2350.26
988.547	2348
988.844	2347.33
989.142	2334.67
989.44	2302.58
989.737	2301.68
990.035	2273.65
990.332	2288.34
990.63	2271.4
990.927	2268.46
991.224	2296.03
991.521	2256.03
991.819	2231.85
992.116	2214.45
992.413	2213.77
992.71	2152.08
993.006	2170.83
993.303	2146.65
993.6	2149.59
993.897	2203.6
994.193	2157.27
994.49	2165.18
994.787	2109.14
995.083	2141.23
995.379	2105.98
995.676	2111.4
995.972	2101.46
996.268	2098.07
996.565	2043.83
996.861	2084.28
997.157	2028.92
997.453	2058.97
997.749	2035.7
998.044	2044.28
998.34	2019.88
998.636	2002.02
998.932	1983.49
999.227	1989.82
999.523	1968.58
999.818	1950.95
1000.114	1963.15
1000.409	1923.83
1000.704	1958.63
1001	1923.38
1001.295	1892.42
1001.59	1898.98
1001.885	1897.85
1002.18	1892.42
1002.475	1902.37
1002.77	1884.06
1003.065	1847.45
1003.359	1819.66
1003.654	1844.51
1003.949	1796.83
1004.243	1795.93
1004.538	1789.83
1004.832	1802.25
1005.127	1781.01
1005.421	1788.24
1005.715	1766.55
1006.009	1763.61
1006.304	1746.89
1006.598	1744.18
1006.892	1727
1007.186	1721.13
1007.48	1708.47
1007.773	1680.68
1008.067	1696.72
1008.361	1687.46
1008.655	1712.09
1008.948	1645.87
1009.242	1644.07
1009.535	1654.91
1009.829	1647.46
1010.122	1653.56
1010.415	1617.17
1010.708	1597.51
1011.001	1584.18
1011.295	1633.9
1011.588	1586.44
1011.881	1579.89
1012.173	1562.49
1012.466	1527.01
1012.759	1541.92
1013.052	1539.21
1013.344	1537.63
1013.637	1523.17
1013.93	1508.25
1014.222	1467.35
1014.514	1500.12
1014.807	1464.18
1015.099	1477.29
1015.391	1467.8
1015.683	1467.12
1015.976	1449.72
1016.268	1459.21
1016.56	1468.48
1016.851	1421.7
1017.143	1414.47
1017.435	1417.63
1017.727	1419.67
1018.018	1400.46
1018.31	1373.79
1018.602	1392.1
1018.893	1393.23
1019.185	1360.46
1019.476	1323.62
1019.767	1326.79
1020.058	1315.04
1020.35	1337.63
1020.641	1335.83
1020.932	1298.99
1021.223	1295.6
1021.514	1281.82
1021.804	1292.89
1022.095	1275.26
1022.386	1229.39
1022.677	1247.92
1022.967	1262.83
1023.258	1260.57
1023.548	1247.92
1023.839	1213.8
1024.129	1230.97
1024.419	1217.64
1024.709	1210.86
1025	1184.19
1025.29	1172.89
1025.58	1196.17
1025.87	1199.33
1026.16	1164.76
1026.449	1164.98
1026.739	1166.11
1027.029	1142.16
1027.319	1145.55
1027.608	1129.05
1027.898	1108.94
1028.187	1133.8
1028.477	1107.81
1028.766	1103.74
1029.055	1061.48
1029.344	1085.89
1029.634	1073.46
1029.923	1090.18
1030.212	1082.27
1030.501	1062.39
1030.79	1062.16
1031.078	1056.51
1031.367	1044.76
1031.656	1026.46
1031.945	1029.39
1032.233	1016.74
1032.522	1039.11
1032.81	1021.48
1033.099	999.56
1033.387	988.04
1033.675	1010.64
1033.963	974.93
1034.251	968.83
1034.54	988.94
1034.828	965.44
1035.116	968.83
1035.403	959.57
1035.691	930.41
1035.979	950.98
1036.267	965.67
1036.554	928.83
1036.842	906.91
1037.129	932.9
1037.417	897.65
1037.704	910.3
1037.992	913.01
1038.279	898.55
1038.566	898.55
1038.853	898.55
1039.14	898.55
