Data from hue_330_FLMS001491_39.txt Node
Date: Mon Feb 06 15:45:19 GMT 2017
User: dcchb
Spectrometer: FLMS00149
Trigger mode: 0
Integration Time (sec): 2.000000E-2
Scans to average: 10
Electric dark correction enabled: true
Nonlinearity correction enabled: false
Boxcar width: 0
XAxis mode: Wavelengths
Number of Pixels in Spectrum: 2048
>>>>>Begin Spectral Data<<<<<
341.393	-28.88
341.776	-28.88
342.16	-28.88
342.543	-55.1
342.927	-68.88
343.31	-77.24
343.693	-65.72
344.077	-52.84
344.46	-38.15
344.843	-58.04
345.226	-34.08
345.61	-32.27
345.993	-13.52
346.376	-8.54
346.759	28.97
347.142	-3.57
347.525	46.59
347.908	52.47
348.291	77.78
348.674	62.41
349.057	115.75
349.44	118.46
349.823	160.49
350.206	166.14
350.588	198
350.971	188.06
351.354	211.79
351.737	246.36
352.119	266.48
352.502	255.63
352.884	265.57
353.267	293.82
353.65	294.05
354.032	296.08
354.414	309.41
354.797	315.29
355.179	327.94
355.562	297.89
355.944	311.9
356.326	334.04
356.709	337.21
357.091	315.51
357.473	331.79
357.855	337.66
358.238	328.17
358.62	339.69
359.002	318.68
359.384	351.67
359.766	348.06
360.148	342.63
360.53	341.5
360.912	343.08
361.294	344.67
361.676	342.86
362.057	313.25
362.439	317.1
362.821	318.45
363.203	324.1
363.584	320.26
363.966	312.58
364.348	309.41
364.729	313.93
365.111	320.03
365.493	310.54
365.874	322.29
366.256	288.85
366.637	288.4
367.019	306.7
367.4	320.03
367.781	298.79
368.163	341.5
368.544	328.17
368.925	300.37
369.306	320.94
369.688	287.72
370.069	327.72
370.45	286.14
370.831	304.67
371.212	310.99
371.593	326.81
371.974	303.31
372.355	310.99
372.736	314.38
373.117	320.03
373.498	321.16
373.879	310.32
374.26	325.68
374.641	293.82
375.021	300.6
375.402	298.11
375.783	319.13
376.163	312.8
376.544	301.5
376.925	323.65
377.305	311.22
377.686	310.32
378.066	305.35
378.447	317.1
378.827	312.8
379.208	322.52
379.588	334.95
379.968	338.56
380.349	324.1
380.729	325.01
381.109	336.98
381.489	322.75
381.87	325.68
382.25	324.55
382.63	324.33
383.01	345.12
383.39	328.85
383.77	318.68
384.15	332.69
384.53	315.51
384.91	330.66
385.29	359.81
385.67	347.38
386.049	333.82
386.429	321.62
386.809	333.59
387.189	360.03
387.568	325.91
387.948	351.9
388.328	358.45
388.707	349.64
389.087	356.64
389.466	346.02
389.846	337.21
390.225	372.69
390.605	363.65
390.984	361.39
391.363	352.12
391.743	365
392.122	350.54
392.501	370.43
392.881	360.03
393.26	352.35
393.639	363.42
394.018	367.26
394.397	377.43
394.776	372.69
395.155	363.65
395.534	356.19
395.913	370.88
396.292	376.76
396.671	363.2
397.05	388.51
397.429	353.25
397.808	352.8
398.186	386.25
398.565	376.3
398.944	371.56
399.323	381.73
399.701	379.02
400.08	374.72
400.458	369.3
400.837	391.67
401.215	382.41
401.594	376.08
401.972	392.57
402.351	391.44
402.729	412.91
403.107	398
403.486	403.2
403.864	376.53
404.242	393.7
404.62	416.75
404.999	415.62
405.377	428.05
405.755	412.69
406.133	401.39
406.511	434.38
406.889	402.74
407.267	416.53
407.645	427.6
408.023	426.7
408.401	426.7
408.779	438.22
409.156	440.26
409.534	449.3
409.912	438.9
410.29	442.06
410.667	459.69
411.045	489.75
411.422	481.39
411.8	467.83
412.178	481.16
412.555	473.48
412.933	499.46
413.31	485.68
413.687	502.18
414.065	511.22
414.442	501.05
414.819	486.81
415.197	522.97
415.574	513.7
415.951	528.39
416.328	520.25
416.705	569.29
417.082	507.37
417.46	539.24
417.837	569.97
418.214	559.8
418.591	563.64
418.967	602.51
419.344	569.74
419.721	568.61
420.098	579.91
420.475	601.16
420.852	583.3
421.228	592.57
421.605	619.69
421.982	592.34
422.358	594.83
422.735	612.46
423.111	611.1
423.488	637.31
423.864	636.41
424.241	635.96
424.617	635.05
424.994	638.67
425.37	666.92
425.746	657.2
426.123	678.67
426.499	663.53
426.875	673.92
427.251	699.68
427.627	706.01
428.003	715.5
428.379	701.04
428.756	706.69
429.132	731.55
429.507	757.54
429.883	739.91
430.259	742.17
430.635	767.48
431.011	762.51
431.387	783.98
431.763	825.78
432.138	782.39
432.514	804.09
432.89	779.23
433.265	821.26
433.641	826.46
434.016	828.04
434.392	840.02
434.767	863.97
435.143	834.37
435.518	849.96
435.894	842.51
436.269	884.09
436.644	899
437.02	895.61
437.395	893.35
437.77	914.82
438.145	925.44
438.52	918.21
438.895	932
439.271	916.18
439.646	953.46
440.021	945.1
440.395	946.91
440.77	940.81
441.145	984.88
441.52	990.75
441.895	1004.08
442.27	984.42
442.645	972.9
443.019	1006.57
443.394	983.52
443.769	1001.6
444.143	1000.47
444.518	1008.38
444.892	995.04
445.267	1014.48
445.641	1049.28
446.016	1009.28
446.39	1052.67
446.764	1033.69
447.139	1060.81
447.513	1051.09
447.887	1050.86
448.262	1037.3
448.636	1039.11
449.01	1066.23
449.384	1073.91
449.758	1068.04
450.132	1090.18
450.506	1073.46
450.88	1099.45
451.254	1099
451.628	1097.87
452.002	1127.02
452.376	1112.1
452.75	1120.92
453.123	1115.72
453.497	1119.11
453.871	1113.91
454.244	1110.75
454.618	1146.9
454.992	1157.3
455.365	1143.97
455.739	1189.84
456.112	1198.2
456.486	1169.28
456.859	1194.81
457.232	1204.98
457.606	1217.64
457.979	1213.12
458.352	1246.56
458.725	1222.61
459.099	1258.09
459.472	1234.59
459.845	1272.33
460.218	1259.22
460.591	1299.44
460.964	1293.57
461.337	1308.03
461.71	1319.56
462.083	1342.15
462.456	1335.15
462.829	1322.72
463.201	1363.17
463.574	1352.1
463.947	1377.63
464.32	1420.8
464.692	1393.45
465.065	1389.84
465.438	1432.32
465.81	1452.66
466.183	1433.45
466.555	1485.65
466.928	1463.05
467.3	1490.85
467.672	1523.84
468.045	1492.88
468.417	1497.63
468.789	1535.6
469.161	1519.55
469.534	1534.47
469.906	1605.65
470.278	1592.09
470.65	1618.08
471.022	1612.2
471.394	1644.97
471.766	1658.53
472.138	1667.57
472.51	1691.98
472.882	1738.98
473.253	1722.03
473.625	1756.15
473.997	1760.45
474.369	1766.55
474.74	1802.93
475.112	1821.92
475.484	1835.93
475.855	1897.17
476.227	1888.81
476.598	1917.73
476.97	1947.11
477.341	1965.64
477.713	1990.72
478.084	1997.28
478.455	2017.39
478.827	2044.73
479.198	2096.94
479.569	2116.6
479.94	2112.76
480.311	2118.63
480.682	2182.13
481.053	2222.81
481.424	2242.47
481.795	2254.9
482.166	2300.77
482.537	2320.66
482.908	2346.42
483.279	2343.03
483.65	2397.49
484.021	2459.41
484.391	2425.29
484.762	2446.98
485.133	2450.83
485.503	2539.18
485.874	2571.95
486.244	2550.48
486.615	2623.93
486.985	2634.32
487.356	2633.87
487.726	2697.15
488.097	2707.99
488.467	2762.91
488.837	2766.07
489.207	2783.02
489.578	2848.78
489.948	2874.09
490.318	2869.8
490.688	2889.91
491.058	2955.22
491.428	2987.31
491.798	2990.7
492.168	3030.02
492.538	3049.45
492.908	3027.53
493.278	3127.64
493.648	3142.11
494.017	3158.15
494.387	3191.6
494.757	3210.13
495.126	3213.97
495.496	3211.48
495.866	3239.28
496.235	3227.53
496.605	3262.1
496.974	3297.36
497.344	3336
497.713	3311.14
498.082	3365.38
498.452	3361.76
498.821	3412.83
499.19	3407.18
499.559	3470.23
499.928	3420.07
500.298	3485.83
500.667	3497.13
501.036	3465.94
501.405	3507.75
501.774	3519.5
502.143	3557.01
502.512	3562.66
502.88	3601.98
503.249	3530.57
503.618	3566.05
503.987	3592.94
504.356	3616.67
504.724	3600.85
505.093	3587.97
505.462	3598.59
505.83	3676.56
506.199	3652.6
506.567	3714.29
506.936	3693.05
507.304	3714.52
507.672	3760.4
508.041	3749.1
508.409	3759.94
508.777	3768.76
509.145	3796.33
509.514	3784.12
509.882	3842.43
510.25	3799.49
510.618	3843.78
510.986	3858.25
511.354	3882.2
511.722	3903.44
512.09	3901.86
512.458	3889.43
512.826	3912.26
513.193	3958.81
513.561	3943.44
513.929	3969.88
514.297	3975.53
514.664	3969.66
515.032	3984.8
515.4	3979.15
515.767	3996.32
516.135	4030.22
516.502	4003.78
516.869	4052.14
517.237	4041.29
517.604	4036.77
517.972	4048.75
518.339	4098.01
518.706	4112.48
519.073	4093.49
519.44	4145.02
519.808	4140.5
520.175	4119.48
520.542	4169.88
520.909	4170.55
521.276	4220.5
521.643	4252.36
522.009	4209.88
522.376	4218.24
522.743	4228.63
523.11	4271.12
523.477	4301.4
523.843	4265.24
524.21	4338.69
524.577	4327.84
524.943	4345.01
525.31	4357.22
525.676	4365.58
526.043	4414.62
526.409	4405.12
526.776	4425.91
527.142	4455.07
527.508	4489.87
527.874	4506.14
528.241	4500.04
528.607	4584.33
528.973	4574.16
529.339	4567.83
529.705	4594.05
530.071	4631.33
530.437	4655.74
530.803	4656.87
531.169	4695.29
531.535	4714.49
531.901	4707.72
532.267	4741.39
532.632	4767.6
532.998	4754.95
533.364	4822.97
533.73	4810.99
534.095	4810.31
534.461	4839.69
534.826	4865.68
535.192	4886.47
535.557	4911.78
535.923	4941.16
536.288	4966.92
536.653	4982.06
537.019	4893.7
537.384	4969.86
537.749	5038.33
538.114	5047.37
538.479	5079.91
538.845	5056.18
539.21	5079.91
539.575	5109.06
539.94	5116.97
540.305	5141.6
540.67	5169.85
541.034	5202.84
541.399	5214.59
541.764	5233.35
542.129	5264.31
542.494	5275.84
542.858	5269.96
543.223	5253.01
543.587	5320.81
543.952	5347.7
544.316	5385.66
544.681	5380.01
545.045	5449.39
545.41	5471.31
545.774	5499.78
546.138	5456.17
546.503	5501.59
546.867	5497.07
547.231	5523.96
547.595	5539.56
547.959	5563.96
548.324	5554.02
548.688	5555.38
549.052	5632.44
549.416	5647.58
549.779	5633.11
550.143	5643.74
550.507	5700.91
550.871	5730.97
551.235	5740
551.599	5790.85
551.962	5763.51
552.326	5787.23
552.689	5833.11
553.053	5847.57
553.417	5831.08
553.78	5900.45
554.143	5858.42
554.507	5873.33
554.87	5892.32
555.234	5967.34
555.597	5993.56
555.96	5958.76
556.323	5960.79
556.686	5999.88
557.05	6012.31
557.413	6029.26
557.776	6050.5
558.139	6124.63
558.502	6118.3
558.865	6130.73
559.228	6220.9
559.59	6146.77
559.953	6185.64
560.316	6151.97
560.679	6172.76
561.041	6238.97
561.404	6260.22
561.767	6261.12
562.129	6224.51
562.492	6317.84
562.854	6321.23
563.217	6311.74
563.579	6335.69
563.941	6351.06
564.304	6375.69
564.666	6409.37
565.028	6400.1
565.39	6448.01
565.753	6496.14
566.115	6511.28
566.477	6507.89
566.839	6522.13
567.201	6573.43
567.563	6592.86
567.925	6649.13
568.287	6584.95
568.648	6631.96
569.01	6669.7
569.372	6705.63
569.734	6724.16
570.095	6749.24
570.457	6830.37
570.819	6789.47
571.18	6834.21
571.542	6903.59
571.903	6890.71
572.265	6917.6
572.626	7024.94
572.987	7031.5
573.349	7063.81
573.71	7089.12
574.071	7149.23
574.432	7163.92
574.794	7292.73
575.155	7349.68
575.516	7321.88
575.877	7401.43
576.238	7398.04
576.599	7566.17
576.96	7589.22
577.32	7663.12
577.681	7740.4
578.042	7859.72
578.403	7888.65
578.763	7954.41
579.124	8028.76
579.485	8106.95
579.845	8200.05
580.206	8381.06
580.566	8409.99
580.927	8537.45
581.287	8678.91
581.648	8773.15
582.008	8927.94
582.368	9087.94
582.728	9198.22
583.089	9344.2
583.449	9477.99
583.809	9618.55
584.169	9802.27
584.529	9969.27
584.889	10203.39
585.249	10332.65
585.609	10494.91
585.969	10828.91
586.329	10919.08
586.688	11115.91
587.048	11332.17
587.408	11508.89
587.768	11807.87
588.127	11999.5
588.487	12248.99
588.846	12459.15
589.206	12703.89
589.565	12934.17
589.925	13232.69
590.284	13445.11
590.643	13691.66
591.003	13994.7
591.362	14272.21
591.721	14555.59
592.08	14799.88
592.44	15143.15
592.799	15393.54
593.158	15571.38
593.517	15920.08
593.876	16240.97
594.235	16465.37
594.593	16689.77
594.952	17120.72
595.311	17304.9
595.67	17585.12
596.029	18022.85
596.387	18269.17
596.746	18582.15
597.104	18690.85
597.463	19005.19
597.822	19430.72
598.18	19593.65
598.538	19973.3
598.897	20340.75
599.255	20440.18
599.613	21056.89
599.972	21133.27
600.33	21406.03
600.688	21603.99
601.046	22015.73
601.404	22366.91
601.762	22531.88
602.12	22852.32
602.478	23228.36
602.836	23391.29
603.194	23500.22
603.552	23796.93
603.91	24044.16
604.268	24351.72
604.625	24636.68
604.983	24959.39
605.341	24996.22
605.698	25369.54
606.056	25722.08
606.413	25937.44
606.771	26212.91
607.128	26408.39
607.485	26510.76
607.843	26673.01
608.2	27054.25
608.557	27356.39
608.914	27489.72
609.272	27810.84
609.629	28072.52
609.986	28463.47
610.343	28438.16
610.7	28803.13
611.057	28879.06
611.414	29116.56
611.771	29307.97
612.127	29593.39
612.484	29652.14
612.841	29944.57
613.198	29999.71
613.554	30300.94
613.911	30642.63
614.267	30654.83
614.624	30777.54
614.98	30902.96
615.337	31205.78
615.693	31409.84
616.05	31481.7
616.406	31767.34
616.762	31773.67
617.118	31973.89
617.475	32077.17
617.831	32336.14
618.187	32391.96
618.543	32618.62
618.899	32862.23
619.255	32908.1
619.611	32974.99
619.967	33300.64
620.323	33346.96
620.678	33397.81
621.034	33434.64
621.39	33414.08
621.746	33597.58
622.101	34083.44
622.457	33933.39
622.812	33998.7
623.168	34238.69
623.523	34255.86
623.879	34383.55
624.234	34231.23
624.589	34525.69
624.945	34667.15
625.3	34854.95
625.655	34721.62
626.01	34775.63
626.365	34923.42
626.72	34994.83
627.075	35038.67
627.43	35030.31
627.785	35076.63
628.14	35246.57
628.495	35289.28
628.85	35339.9
629.205	35292.45
629.559	35655.6
629.914	35418.55
630.269	35507.36
630.623	35406.8
630.978	35526.57
631.332	35690.63
631.687	35862.83
632.041	35559.11
632.396	35797.97
632.75	35712.32
633.104	35704.41
633.459	35681.59
633.813	35798.42
634.167	35679.33
634.521	35734.92
634.875	35737.41
635.229	35806.78
635.583	35703.06
635.937	35761.36
636.291	35622.16
636.645	35730.85
636.999	35689.73
637.352	35848.82
637.706	35767.24
638.06	35917.06
638.413	35735.37
638.767	35770.4
639.121	35769.72
639.474	35678.2
639.828	35734.24
640.181	35776.05
640.534	35879.32
640.888	35789.16
641.241	35596.62
641.594	35652.21
641.947	35812.66
642.301	35833.22
642.654	35692.66
643.007	35769.05
643.36	35633.23
643.713	35711.65
644.066	35730.85
644.419	35490.86
644.771	35410.41
645.124	35113.02
645.477	35046.58
645.83	34887.26
646.182	34760.71
646.535	34724.55
646.888	34763.87
647.24	34612.24
647.593	34841.61
647.945	34753.48
648.298	34520.26
648.65	34725.68
649.002	34298.8
649.355	34576.08
649.707	34516.2
650.059	34809.75
650.411	35056.97
650.763	35113.92
651.115	35455.61
651.467	35430.07
651.819	35331.77
652.171	35351.88
652.523	35295.61
652.875	35172.9
653.227	35121.83
653.578	35480.92
653.93	35316.85
654.282	35081.38
654.633	34986.24
654.985	35192.11
655.337	35225.78
655.688	35226.69
656.039	35346.23
656.391	35008.61
656.742	35010.2
657.094	35046.58
657.445	35166.8
657.796	35126.12
658.147	35143.53
658.498	35034.83
658.849	35115.5
659.2	35104.43
659.551	34996.64
659.902	35115.28
660.253	35146.91
660.604	35082.74
660.955	34905.79
661.306	34953.7
661.656	34904.66
662.007	35056.52
662.358	34971.1
662.708	35150.3
663.059	34976.98
663.409	34798.22
663.76	35079.35
664.11	34986.02
664.461	35120.47
664.811	34935.62
665.161	34921.16
665.511	34899.24
665.862	34901.5
666.212	35090.19
666.562	35045.22
666.912	34898.33
667.262	34804.32
667.612	34859.92
667.962	35045.45
668.312	34865.34
668.662	35066.01
669.011	35009.97
669.361	34743.99
669.711	34898.33
670.06	34872.57
670.41	34881.16
670.76	34820.82
671.109	34878
671.459	34832.12
671.808	34790.54
672.157	34982.17
672.507	34722.75
672.856	34710.32
673.205	34928.16
673.554	34903.76
673.904	34645.01
674.253	34807.26
674.602	34755.29
674.951	34280.04
675.3	34124.34
675.649	34677.77
675.998	34708.28
676.346	34522.07
676.695	34813.36
677.044	34459.02
677.393	34646.81
677.741	34678.9
678.09	34677.32
678.438	34456.76
678.787	34456.09
679.135	34426.48
679.484	34129.77
679.832	34442.3
680.181	34139.71
680.529	34415.63
680.877	34159.37
681.225	34138.58
681.573	34390.32
681.922	34153.04
682.27	33973.16
682.618	34146.72
682.966	34008.19
683.314	34044.57
683.661	33899.49
684.009	33731.13
684.357	33813.84
684.705	33758.93
685.053	33725.71
685.4	33660.85
685.748	33520.52
686.095	33443.46
686.443	33388.09
686.79	33337.92
687.138	33573.62
687.485	33374.76
687.832	33293.4
688.18	33390.12
688.527	33196.01
688.874	33194.42
689.221	33063.13
689.568	33128.21
689.915	32855.68
690.262	32967.31
690.609	32798.05
690.956	32778.84
691.303	32631.95
691.65	32573.65
691.997	32515.57
692.344	32248.69
692.69	32415.91
693.037	32312.19
693.383	32238.06
693.73	32244.84
694.077	32078.07
694.423	32104.96
694.769	31949.03
695.116	31810.05
695.462	31829.94
695.808	31770.96
696.155	31909.03
696.501	31614.58
696.847	31611.64
697.193	31352.89
697.539	31305.66
697.885	31186.57
698.231	31110.41
698.577	31084.87
698.923	31033.8
699.269	30968.95
699.614	30802.62
699.96	30734.15
700.306	30842.62
700.651	30599.01
700.997	30587.03
701.342	30522.4
701.688	30428.62
702.033	30461.84
702.379	30283.31
702.724	30236.54
703.069	30356.08
703.415	29917
703.76	30025.47
704.105	29989.08
704.45	29845.36
704.795	29726.94
705.14	29674.52
705.485	29660.96
705.83	29645.14
706.175	29565.14
706.52	29514.29
706.865	29401.76
707.209	29434.97
707.554	29221.87
707.899	29321.53
708.243	29117.69
708.588	29087.87
708.932	28996.57
709.277	28803.35
709.621	28890.13
709.966	28837.7
710.31	28886.97
710.654	28517.71
710.998	28643.58
711.342	28556.58
711.687	28550.25
712.031	28363.82
712.375	28379.64
712.719	28331.5
713.063	28256.93
713.407	28435.45
713.75	28235.68
714.094	28175.35
714.438	28035.69
714.782	28123.6
715.125	27872.3
715.469	28006.31
715.812	27823.49
716.156	27589.15
716.499	27682.93
716.843	27685.87
717.186	27496.49
717.53	27661.91
717.873	27628.24
718.216	27623.72
718.559	27414.24
718.902	27269.83
719.246	27256.27
719.589	27282.49
719.932	27105.54
720.275	27094.92
720.617	27086.11
720.96	27144.87
721.303	27130.18
721.646	26973.57
721.989	26907.58
722.331	26925.89
722.674	26903.52
723.016	26910.97
723.359	26751.43
723.701	26915.27
724.044	26728.15
724.386	26521.6
724.729	26607.7
725.071	26515.28
725.413	26621.49
725.755	26569.06
726.097	26407.48
726.439	26308.05
726.782	26317.54
727.124	26436.18
727.465	26309.63
727.807	26322.51
728.149	26173.14
728.491	26162.97
728.833	26237.54
729.175	26120.03
729.516	26021.05
729.858	25993.03
730.199	26090.2
730.541	25951.68
730.882	25909.87
731.224	26029.64
731.565	25725.24
731.906	25770.44
732.248	25889.31
732.589	25786.48
732.93	25536.09
733.271	25656.09
733.612	25650.67
733.953	25570.67
734.294	25587.84
734.635	25494.74
734.976	25563.44
735.317	25406.38
735.658	25389.21
735.999	25370.9
736.339	25365.7
736.68	25345.14
737.021	25303.78
737.361	25134.3
737.702	25247.74
738.042	25245.25
738.383	25042.55
738.723	25121.19
739.063	25038.03
739.404	25172.04
739.744	24995.77
740.084	24951.93
740.424	24884.13
740.764	24849.11
741.104	25020.63
741.444	24800.52
741.784	24719.84
742.124	24849.56
742.464	24734.31
742.804	24680.75
743.143	24655.44
743.483	24699.05
743.823	24461.32
744.162	24365.73
744.502	24607.98
744.841	24418.38
745.181	24540.19
745.52	24359.85
745.86	24395.79
746.199	24298.16
746.538	24269.46
746.877	24306.52
747.216	24302
747.556	24257.71
747.895	24152.63
748.234	24066.08
748.573	23989.92
748.911	24010.71
749.25	23978.17
749.589	23860.88
749.928	23953.99
750.267	23892.97
750.605	23917.83
750.944	23950.15
751.283	23631.29
751.621	23784.28
751.96	23544.06
752.298	23584.96
752.636	23651.4
752.975	23440.78
753.313	23341.8
753.651	23502.93
753.989	23370.73
754.327	23347.45
754.666	23147.23
755.004	23221.58
755.342	23291.86
755.679	23178.64
756.017	23089.83
756.355	23132.09
756.693	22957.86
757.031	22935.71
757.368	22785.66
757.706	22856.16
758.044	22794.92
758.381	22813.68
758.719	22671.99
759.056	22671.76
759.394	22707.02
759.731	22544.76
760.068	22456.4
760.405	22312.9
760.743	22260.25
761.08	22408.27
761.417	22275.61
761.754	22198.1
762.091	22059.12
762.428	21936.19
762.765	21829.07
763.102	21982.06
763.438	21765.57
763.775	21693.26
764.112	21663.43
764.449	21706.59
764.785	21643.54
765.122	21475.18
765.458	21427.05
765.795	21420.95
766.131	21300.05
766.467	21292.36
766.804	21124.91
767.14	21052.82
767.476	21115.19
767.812	20973.95
768.148	21060.96
768.485	20789.78
768.821	20744.58
769.157	20730.12
769.492	20570.57
769.828	20677.01
770.164	20462.56
770.5	20440.41
770.836	20419.17
771.171	20287.64
771.507	20313.63
771.842	20033.19
772.178	20080.87
772.513	20074.77
772.849	19977.14
773.184	19884.94
773.519	19994.77
773.855	19769.01
774.19	19704.38
774.525	19655.12
774.86	19636.14
775.195	19539.87
775.53	19511.85
775.865	19405.18
776.2	19193.44
776.535	19079.77
776.87	19144.4
777.205	18972.88
777.539	18856.95
777.874	18919.77
778.209	18886.55
778.543	18704.64
778.878	18590.97
779.212	18616.05
779.547	18472.1
779.881	18506
780.215	18389.16
780.55	18483.4
780.884	18294.7
781.218	18224.42
781.552	18329.28
781.886	18149.4
782.22	18090.41
782.554	18037.53
782.888	17887.48
783.222	17812.91
783.556	17696.53
783.889	17689.52
784.223	17577.43
784.557	17511.45
784.89	17553.03
785.224	17459.47
785.557	17430.54
785.891	17339.7
786.224	17266.71
786.558	17240.04
786.891	17092.7
787.224	17098.35
787.557	16947.85
787.891	16975.87
788.224	16932.7
788.557	16970.67
788.89	16889.54
789.223	16778.13
789.556	16632.6
789.888	16657.46
790.221	16570.23
790.554	16527.07
790.887	16530
791.219	16439.38
791.552	16365.26
791.884	16219.95
792.217	16367.07
792.549	16141.54
792.882	16056.12
793.214	15997.81
793.546	16076.68
793.879	15959.62
794.211	15897.25
794.543	15952.84
794.875	15812.73
795.207	15837.59
795.539	15709.69
795.871	15803.24
796.203	15581.1
796.535	15518.73
796.867	15501.1
797.198	15457.94
797.53	15417.94
797.862	15258.17
798.193	15318.51
798.525	15246.42
798.856	15181.11
799.188	15021.12
799.519	15052.3
799.85	14914
800.182	14995.58
800.513	15024.73
800.844	14893.89
801.175	14897.96
801.506	14899.76
801.837	14733.67
802.168	14727.34
802.499	14762.14
802.83	14664.97
803.161	14558.3
803.491	14676.04
803.822	14684.18
804.153	14489.83
804.483	14363.28
804.814	14330.96
805.145	14323.06
805.475	14297.75
805.805	14242.61
806.136	14227.69
806.466	14186.34
806.796	14257.97
807.126	14097.3
807.457	14036.06
807.787	14061.59
808.117	13956.96
808.447	13825.67
808.777	13901.82
809.107	13937.98
809.436	13806.01
809.766	13857.53
810.096	13714.94
810.426	13690.53
810.755	13735.95
811.085	13662.73
811.414	13638.33
811.744	13498.9
812.073	13541.61
812.403	13405.34
812.732	13501.16
813.061	13439.01
813.39	13357.88
813.719	13375.28
814.049	13342.06
814.378	13305.68
814.707	13261.39
815.036	13201.28
815.365	13148.85
815.693	13014.62
816.022	13069.3
816.351	13066.37
816.68	12989.76
817.008	13036.99
817.337	12998.8
817.665	12934.17
817.994	12883.32
818.322	12817.56
818.651	12801.29
818.979	12732.59
819.307	12834.96
819.636	12780.95
819.964	12714.28
820.292	12797.9
820.62	12757.67
820.948	12593.38
821.276	12710.89
821.604	12603.78
821.932	12613.5
822.259	12634.06
822.587	12611.69
822.915	12604.46
823.243	12675.42
823.57	12637.22
823.898	12618.47
824.225	12548.19
824.553	12547.28
824.88	12565.14
825.207	12533.05
825.535	12584.57
825.862	12677.68
826.189	12507.51
826.516	12621.41
826.843	12624.34
827.17	12687.39
827.497	12627.51
827.824	12637.22
828.151	12575.3
828.478	12518.36
828.805	12623.67
829.131	12537.79
829.458	12491.47
829.785	12492.6
830.111	12525.36
830.438	12575.3
830.764	12516.55
831.09	12604.46
831.417	12527.85
831.743	12542.54
832.069	12511.35
832.395	12487.17
832.722	12512.93
833.048	12425.93
833.374	12479.94
833.7	12349.77
834.026	12412.82
834.351	12439.49
834.677	12465.93
835.003	12434.29
835.329	12428.19
835.654	12371.92
835.98	12308.42
836.306	12419.15
836.631	12328.98
836.956	12357.68
837.282	12347.97
837.607	12279.27
837.932	12216.67
838.258	12276.33
838.583	12278.14
838.908	12216.44
839.233	12211.7
839.558	12164.69
839.883	12062.32
840.208	12079.27
840.533	11995.21
840.858	12123.11
841.182	12138.93
841.507	12079.05
841.832	11957.69
842.156	11930.8
842.481	11897.13
842.805	11962.21
843.13	11835.44
843.454	11819.84
843.778	11785.5
844.103	11829.34
844.427	11833.18
844.751	11791.82
845.075	11700.53
845.399	11620.3
845.723	11652.39
846.047	11589.57
846.371	11492.62
846.695	11493.53
847.019	11431.61
847.343	11355.68
847.666	11316.81
847.99	11298.95
848.313	11365.17
848.637	11180.54
848.96	11164.04
849.284	11144.38
849.607	11119.07
849.931	11104.38
850.254	11017.61
850.577	10913.2
850.9	10887.89
851.223	10849.25
851.546	10794.56
851.869	10700.33
852.192	10781.68
852.515	10632.98
852.838	10622.81
853.161	10583.49
853.483	10599.31
853.806	10548.24
854.129	10588.01
854.451	10479.31
854.774	10409.71
855.096	10332.65
855.419	10350.05
855.741	10298.75
856.063	10296.95
856.385	10241.81
856.708	10224.41
857.03	10190.51
857.352	10173.56
857.674	10186.67
857.996	10161.58
858.318	10019.44
858.64	10159.55
858.961	10051.76
859.283	9975.15
859.605	9952.1
859.926	10008.14
860.248	9941.25
860.57	9894.25
860.891	9904.41
861.212	9894.47
861.534	9822.83
861.855	9798.43
862.176	9877.75
862.498	9824.87
862.819	9790.29
863.14	9663.97
863.461	9674.14
863.782	9679.11
864.103	9664.2
864.424	9697.87
864.745	9643.86
865.065	9540.13
865.386	9557.76
865.707	9582.16
866.027	9543.75
866.348	9516.18
866.668	9557.76
866.989	9516.85
867.309	9431.21
867.63	9436.18
867.95	9419.68
868.27	9383.07
868.59	9451.09
868.91	9468.95
869.23	9322.74
869.55	9337.42
869.87	9381.94
870.19	9333.13
870.51	9337.88
870.83	9337.65
871.15	9269.63
871.469	9258.33
871.789	9299.68
872.109	9295.39
872.428	9247.71
872.748	9212.68
873.067	9204.77
873.386	9249.06
873.706	9192.12
874.025	9143.98
874.344	9125.23
874.663	9163.19
874.982	9091.33
875.301	9110.54
875.62	9107.15
875.939	9062.85
876.258	9080.26
876.577	8988.96
876.896	9037.32
877.214	8940.37
877.533	9016.75
877.852	9012.23
878.17	8962.74
878.489	8975.17
878.807	8976.98
879.125	8909.19
879.444	8906.7
879.762	8875.06
880.08	8835.74
880.398	8837.32
880.716	8844.33
881.034	8828.96
881.352	8748.29
881.67	8720.72
881.988	8811.79
882.306	8757.1
882.624	8712.58
882.941	8757.33
883.259	8654.73
883.577	8611.57
883.894	8634.62
884.212	8636.43
884.529	8589.42
884.846	8560.5
885.164	8560.95
885.481	8558.91
885.798	8634.84
886.115	8504.45
886.432	8477.79
886.75	8501.29
887.067	8512.59
887.383	8446.15
887.7	8450.44
888.017	8375.42
888.334	8357.34
888.651	8323.67
888.967	8337.9
889.284	8319.15
889.6	8280.95
889.917	8194.86
890.233	8303.78
890.55	8276.66
890.866	8150.56
891.182	8160.05
891.498	8138.13
891.815	8146.27
892.131	8100.62
892.447	8066.04
892.763	8038.93
893.079	8041.41
893.395	7993.73
893.71	8017.23
894.026	7930.23
894.342	7919.83
894.657	7906.05
894.973	7870.8
895.289	7849.55
895.604	7788.54
895.92	7850.23
896.235	7804.36
896.55	7735.66
896.865	7718.94
897.181	7667.19
897.496	7762.78
897.811	7690.24
898.126	7652.27
898.441	7631.71
898.756	7608.2
899.071	7541.31
899.386	7559.84
899.7	7486.17
900.015	7451.15
900.33	7428.1
900.644	7357.59
900.959	7361.2
901.273	7342.9
901.588	7291.6
901.902	7262.9
902.216	7236.24
902.531	7252.28
902.845	7191.04
903.159	7124.83
903.473	7087.77
903.787	7106.97
904.101	7082.57
904.415	7144.71
904.729	7056.35
905.042	7015.45
905.356	6993.76
905.67	6953.31
905.984	6973.64
906.297	6917.83
906.611	6884.38
906.924	6886.41
907.237	6860.65
907.551	6851.16
907.864	6818.39
908.177	6792.41
908.491	6772.75
908.804	6753.99
909.117	6673.31
909.43	6666.53
909.743	6638.06
910.056	6602.58
910.368	6618.17
910.681	6566.2
910.994	6554.22
911.307	6523.26
911.619	6466.76
911.932	6434
912.244	6403.04
912.557	6431.51
912.869	6371.63
913.181	6319.42
913.494	6333.66
913.806	6324.4
914.118	6308.8
914.43	6291.63
914.742	6268.58
915.054	6174.8
915.366	6159.65
915.678	6151.97
915.99	6154.68
916.302	6128.69
916.613	6031.3
916.925	6077.85
917.236	6059.09
917.548	6015.25
917.859	5941.58
918.171	5895.93
918.482	5965.99
918.794	5915.82
919.105	5889.61
919.416	5867.91
919.727	5833.56
920.038	5790.17
920.349	5774.58
920.66	5739.78
920.971	5726.67
921.282	5711.98
921.593	5699.55
921.903	5652.1
922.214	5680.34
922.525	5576.39
922.835	5638.09
923.146	5584.75
923.456	5551.08
923.767	5534.81
924.077	5530.29
924.387	5508.37
924.697	5449.16
925.008	5461.14
925.318	5426.34
925.628	5442.16
925.938	5446.68
926.248	5372.56
926.558	5279.45
926.867	5361.26
927.177	5286.01
927.487	5271.54
927.796	5164.43
928.106	5216.85
928.416	5200.81
928.725	5205.78
929.034	5136.18
929.344	5197.87
929.653	5118.55
929.962	5124.2
930.271	5096.86
930.581	5026.12
930.89	5060.47
931.199	4967.82
931.508	4987.71
931.817	4982.06
932.125	4930.76
932.434	4963.3
932.743	4873.13
933.051	4864.1
933.36	4858.67
933.669	4856.41
933.977	4825.45
934.286	4787.94
934.594	4737.32
934.902	4719.47
935.21	4728.28
935.519	4759.92
935.827	4714.72
936.135	4706.59
936.443	4626.81
936.751	4613.93
937.059	4611.22
937.367	4604.44
937.674	4582.97
937.982	4572.35
938.29	4548.17
938.597	4509.98
938.905	4496.2
939.213	4489.87
939.52	4448.29
939.827	4456.2
940.135	4413.26
940.442	4394.05
940.749	4366.71
941.056	4408.29
941.363	4312.02
941.67	4356.31
941.977	4336.65
942.284	4300.04
942.591	4271.79
942.898	4282.87
943.205	4241.51
943.511	4208.75
943.818	4159.93
944.125	4211.68
944.431	4164.23
944.738	4166.71
945.044	4135.3
945.35	4106.38
945.657	4077.45
945.963	4079.48
946.269	4095.53
946.575	4068.86
946.881	4034.96
947.187	4026.15
947.493	3953.38
947.799	3989.09
948.105	3968.98
948.41	3903.67
948.716	3954.97
949.022	3892.14
949.327	3923.1
949.633	3899.15
949.938	3841.07
950.244	3877.68
950.549	3814.18
950.854	3825.03
951.16	3766.05
951.465	3787.97
951.77	3794.74
952.075	3780.73
952.38	3736.22
952.685	3731.7
952.99	3668.19
953.294	3682.21
953.599	3657.57
953.904	3598.82
954.209	3601.98
954.513	3618.25
954.818	3606.5
955.122	3546.16
955.426	3567.18
955.731	3543
956.035	3533.51
956.339	3501.19
956.643	3492.83
956.948	3493.06
957.252	3487.86
957.556	3482.66
957.86	3450.8
958.163	3462.1
958.467	3444.47
958.771	3408.99
959.075	3380.52
959.378	3417.13
959.682	3373.06
959.985	3390.46
960.289	3347.75
960.592	3337.13
960.896	3325.38
961.199	3270.01
961.502	3289.9
961.805	3284.25
962.108	3252.39
962.411	3231.82
962.714	3216.68
963.017	3186.4
963.32	3203.57
963.623	3180.3
963.926	3180.75
964.228	3168.09
964.531	3130.58
964.833	3093.75
965.136	3137.81
965.438	3081.32
965.741	3075.89
966.043	3091.26
966.345	3081.77
966.648	3039.51
966.95	3041.09
967.252	3031.6
967.554	3028.21
967.856	2981.66
968.158	2982.34
968.46	2934.2
968.761	2966.29
969.063	2923.13
969.365	2929.91
969.666	2923.81
969.968	2899.18
970.269	2886.07
970.571	2869.35
970.872	2872.96
971.174	2849.68
971.475	2846.75
971.776	2866.86
972.077	2793.19
972.378	2816.47
972.679	2807.65
972.98	2763.36
973.281	2744.15
973.582	2779.63
973.883	2752.06
974.183	2743.93
974.484	2717.94
974.785	2695.56
975.085	2714.55
975.386	2710.48
975.686	2658.5
975.986	2658.73
976.287	2619.18
976.587	2637.71
976.887	2643.14
977.187	2645.62
977.487	2644.49
977.787	2609.92
978.087	2584.38
978.387	2589.13
978.687	2584.83
978.987	2537.38
979.286	2545.51
979.586	2531.5
979.885	2496.7
980.185	2508.9
980.484	2511.61
980.784	2491.05
981.083	2467.55
981.382	2471.84
981.682	2436.14
981.981	2453.99
982.28	2444.27
982.579	2430.03
982.878	2394.56
983.177	2434.78
983.475	2399.3
983.774	2415.12
984.073	2400.88
984.372	2348.23
984.67	2347.33
984.969	2322.47
985.267	2313.43
985.566	2305.97
985.864	2337.83
986.162	2313.65
986.461	2302.35
986.759	2277.04
987.057	2300.55
987.355	2245.18
987.653	2265.07
987.951	2244.5
988.249	2259.64
988.547	2228.68
988.844	2190.72
989.142	2208.12
989.44	2193.21
989.737	2180.32
990.035	2183.49
990.332	2183.71
990.63	2122.47
990.927	2183.94
991.224	2143.26
991.521	2127.22
991.819	2115.24
992.116	2121.34
992.413	2103.94
992.71	2096.03
993.006	2090.83
993.303	2037.28
993.6	2056.94
993.897	2041.8
994.193	2060.78
994.49	2029.82
994.787	2014.9
995.083	2042.25
995.379	1989.59
995.676	2046.54
995.972	1971.29
996.268	1996.83
996.565	1973.1
996.861	1980.1
997.157	1938.52
997.453	1934.91
997.749	1959.54
998.044	1921.57
998.34	1890.61
998.636	1910.73
998.932	1888.58
999.227	1879.09
999.523	1862.82
999.818	1886.77
1000.114	1903.5
1000.409	1823.95
1000.704	1842.71
1001	1798.41
1001.295	1818.98
1001.59	1789.83
1001.885	1795.7
1002.18	1808.36
1002.475	1780.33
1002.77	1785.76
1003.065	1738.98
1003.359	1757.51
1003.654	1755.02
1003.949	1753.44
1004.243	1738.98
1004.538	1722.26
1004.832	1711.64
1005.127	1697.17
1005.421	1678.19
1005.715	1694.24
1006.009	1686.33
1006.304	1670.51
1006.598	1645.65
1006.892	1666.89
1007.186	1620.56
1007.48	1612.43
1007.773	1606.78
1008.067	1610.85
1008.361	1599.55
1008.655	1593.45
1008.948	1586.89
1009.242	1576.05
1009.535	1570.4
1009.829	1558.19
1010.122	1551.64
1010.415	1536.73
1010.708	1527.23
1011.001	1523.84
1011.295	1521.13
1011.588	1517.97
1011.881	1505.77
1012.173	1494.47
1012.466	1475.71
1012.759	1442.26
1013.052	1462.38
1013.344	1448.59
1013.637	1444.3
1013.93	1442.94
1014.222	1453.11
1014.514	1412.21
1014.807	1434.81
1015.099	1433.45
1015.391	1410.17
1015.683	1411.08
1015.976	1386.22
1016.268	1385.99
1016.56	1383.51
1016.851	1394.58
1017.143	1357.52
1017.435	1327.24
1017.727	1314.13
1018.018	1308.26
1018.31	1352.32
1018.602	1322.49
1018.893	1279.78
1019.185	1297.41
1019.476	1294.92
1019.767	1274.59
1020.058	1271.2
1020.35	1285.43
1020.641	1241.14
1020.932	1238.43
1021.223	1234.81
1021.514	1210.18
1021.804	1219.67
1022.095	1202.5
1022.386	1189.84
1022.677	1191.65
1022.967	1212.67
1023.258	1188.49
1023.548	1174.7
1023.839	1167.24
1024.129	1153.01
1024.419	1160.24
1024.709	1146.45
1025	1124.31
1025.29	1128.15
1025.58	1122.5
1025.87	1124.08
1026.16	1116.62
1026.449	1108.26
1026.739	1101.03
1027.029	1091.09
1027.319	1078.21
1027.608	1110.52
1027.898	1064.2
1028.187	1054.25
1028.477	1052.9
1028.766	1084.76
1029.055	1048.15
1029.344	1061.48
1029.634	1043.18
1029.923	1011.32
1030.212	1007.25
1030.501	1019
1030.79	995.27
1031.078	1002.95
1031.367	988.72
1031.656	990.75
1031.945	982.62
1032.233	985.55
1032.522	965.21
1032.81	967.93
1033.099	978.55
1033.387	960.24
1033.675	945.33
1033.963	943.29
1034.251	965.67
1034.54	947.36
1034.828	910.53
1035.116	919.57
1035.403	928.61
1035.691	914.37
1035.979	902.17
1036.267	873.92
1036.554	921.6
1036.842	889.74
1037.129	886.12
1037.417	882.96
1037.704	882.73
1037.992	875.95
1038.279	866.46
1038.566	869.62
1038.853	869.62
1039.14	869.62
