Data from hue_110_FLMS001491_00087.txt Node
Date: Tue Feb 07 17:01:57 GMT 2017
User: dcchb
Spectrometer: FLMS00149
Trigger mode: 0
Integration Time (sec): 2.000000E-2
Scans to average: 10
Electric dark correction enabled: true
Nonlinearity correction enabled: false
Boxcar width: 0
XAxis mode: Wavelengths
Number of Pixels in Spectrum: 2048
>>>>>Begin Spectral Data<<<<<
341.393	-11.51
341.776	-11.51
342.16	-11.51
342.543	-68.68
342.927	-56.48
343.31	-55.13
343.693	-79.53
344.077	-74.79
344.46	-65.52
344.843	-47.44
345.226	-33.43
345.61	-35.24
345.993	-5.86
346.376	-3.38
346.759	3.18
347.142	33.69
347.525	42.5
347.908	54.7
348.291	75.72
348.674	78.43
349.057	112.1
349.44	132.89
349.823	151.87
350.206	150.07
350.588	197.98
350.971	213.12
351.354	223.96
351.737	239.33
352.119	226.9
352.502	258.31
352.884	272.1
353.267	279.33
353.65	300.35
354.032	291.53
354.414	293.79
354.797	298.09
355.179	333.11
355.562	320.68
355.944	322.04
356.326	338.99
356.709	348.48
357.091	347.8
357.473	342.15
357.855	347.35
358.238	334.69
358.62	318.65
359.002	323.62
359.384	324.3
359.766	335.15
360.148	353.68
360.53	327.46
360.912	345.32
361.294	313
361.676	334.47
362.057	330.4
362.439	334.47
362.821	312.32
363.203	309.61
363.584	318.65
363.966	317.97
364.348	308.25
364.729	334.02
365.111	308.48
365.493	307.35
365.874	312.32
366.256	332.43
366.637	297.41
367.019	313.68
367.4	304.86
367.781	312.32
368.163	327.46
368.544	304.86
368.925	306.9
369.306	308.48
369.688	296.05
370.069	290.85
370.45	309.16
370.831	295.37
371.212	308.25
371.593	325.88
371.974	301.93
372.355	299.89
372.736	301.48
373.117	310.06
373.498	285.66
373.879	315.03
374.26	330.85
374.641	324.98
375.021	296.05
375.402	320.91
375.783	308.71
376.163	327.24
376.544	336.05
376.925	336.28
377.305	333.11
377.686	321.81
378.066	314.36
378.447	308.93
378.827	335.15
379.208	331.53
379.588	333.79
379.968	325.88
380.349	335.15
380.729	341.93
381.109	332.66
381.489	339.89
381.87	319.33
382.25	325.43
382.63	333.11
383.01	335.82
383.39	348.03
383.77	334.92
384.15	343.96
384.53	363.85
384.91	341.47
385.29	346.67
385.67	334.47
386.049	355.94
386.429	345.99
386.809	360
387.189	354.58
387.568	344.41
387.948	348.03
388.328	326.56
388.707	353.9
389.087	361.59
389.466	334.92
389.846	350.51
390.225	347.58
390.605	355.71
390.984	354.36
391.363	357.74
391.743	369.27
392.122	362.04
392.501	373.79
392.881	382.38
393.26	369.5
393.639	385.09
394.018	374.69
394.397	372.43
394.776	362.72
395.155	391.19
395.534	385.99
395.913	360
396.292	385.31
396.671	368.37
397.05	373.79
397.429	397.29
397.808	380.8
398.186	374.02
398.565	397.74
398.944	407.24
399.323	405.65
399.701	379.89
400.08	406.33
400.458	405.43
400.837	398.87
401.215	383.73
401.594	384.86
401.972	395.94
402.351	400.91
402.729	408.82
403.107	395.71
403.486	440.45
403.864	439.32
404.242	411.3
404.62	406.78
404.999	424.41
405.377	424.18
405.755	440
406.133	440.45
406.511	413.34
406.889	437.06
407.267	435.93
407.645	433.9
408.023	430.96
408.401	436.16
408.779	450.4
409.156	451.53
409.534	430.29
409.912	454.92
410.29	464.86
410.667	441.13
411.045	455.14
411.422	442.71
411.8	448.59
412.178	457.63
412.555	463.96
412.933	478.42
413.31	463.28
413.687	460.34
414.065	463.05
414.442	480.68
414.819	487.68
415.197	487.91
415.574	486.78
415.951	502.37
416.328	490.62
416.705	505.54
417.082	496.5
417.46	526.33
417.837	501.24
418.214	508.02
418.591	520
418.967	508.93
419.344	519.55
419.721	528.36
420.098	525.42
420.475	522.26
420.852	525.65
421.228	527.46
421.605	529.04
421.982	539.21
422.358	555.03
422.735	544.41
423.111	549.83
423.488	549.6
423.864	559.32
424.241	555.25
424.617	587.57
424.994	553.45
425.37	547.34
425.746	564.52
426.123	585.54
426.499	562.03
426.875	598.87
427.251	555.48
427.627	606.78
428.003	587.34
428.379	600.45
428.756	615.14
429.132	624.18
429.507	616.27
429.883	631.86
430.259	637.29
430.635	620.56
431.011	637.74
431.387	657.4
431.763	654.46
432.138	640.9
432.514	684.74
432.89	660.34
433.265	668.47
433.641	668.7
434.016	661.69
434.392	698.75
434.767	702.14
435.143	698.3
435.518	724.29
435.894	714.57
436.269	726.1
436.644	713.89
437.02	721.58
437.395	735.59
437.77	742.14
438.145	752.08
438.52	725.42
438.895	776.26
439.271	744.4
439.646	775.81
440.021	769.71
440.395	785.98
440.77	796.15
441.145	792.76
441.52	808.58
441.895	795.7
442.27	805.42
442.645	793.67
443.019	812.65
443.394	816.72
443.769	822.82
444.143	797.96
444.518	817.85
444.892	854.23
445.267	848.13
445.641	845.64
446.016	852.65
446.39	856.26
446.764	864.85
447.139	866.66
447.513	868.24
447.887	886.54
448.262	869.82
448.636	898.97
449.01	880.89
449.384	895.81
449.758	916.6
450.132	896.26
450.506	906.2
450.88	927.9
451.254	923.61
451.628	924.28
452.002	950.72
452.376	959.76
452.75	967.9
453.123	960.67
453.497	988.01
453.871	965.64
454.244	1026.65
454.618	1019.2
454.992	1022.13
455.365	1014.68
455.739	1047.9
456.112	1058.52
456.486	1051.29
456.859	1090.61
457.232	1077.73
457.606	1081.79
457.979	1093.77
458.352	1110.49
458.725	1156.14
459.099	1140.32
459.472	1169.02
459.845	1162.02
460.218	1168.12
460.591	1184.16
460.964	1192.98
461.337	1244.28
461.71	1243.15
462.083	1287.21
462.456	1297.16
462.829	1261.9
463.201	1312.97
463.574	1301
463.947	1306.42
464.32	1341.22
464.692	1369.02
465.065	1362.92
465.438	1402.69
465.81	1432.07
466.183	1429.58
466.555	1451.5
466.928	1465.51
467.3	1492.86
467.672	1517.94
468.045	1597.71
468.417	1559.97
468.789	1568.11
469.161	1622.8
469.534	1651.27
469.906	1683.81
470.278	1712.74
470.65	1738.73
471.022	1752.06
471.394	1796.58
471.766	1828.89
472.138	1842.45
472.51	1896.69
472.882	1954.09
473.253	1969.68
473.625	2039.28
473.997	2093.74
474.369	2067.08
474.74	2132.39
475.112	2202.44
475.484	2221.88
475.855	2265.72
476.227	2337.35
476.598	2408.76
476.97	2467.29
477.341	2521.3
477.713	2583.9
478.084	2660.74
478.455	2699.6
478.827	2751.35
479.198	2901.63
479.569	2918.58
479.94	3034.74
480.311	3056.2
480.682	3176.65
481.053	3276.31
481.424	3381.85
481.795	3456.87
482.166	3535.29
482.537	3618.68
482.908	3738.22
483.279	3799.01
483.65	3900.25
484.021	4067.7
484.391	4140.7
484.762	4238.77
485.133	4325.32
485.503	4358.32
485.874	4554.7
486.244	4653.45
486.615	4796.05
486.985	4908.59
487.356	5030.84
487.726	5150.39
488.097	5320.1
488.467	5443.94
488.837	5527.1
489.207	5709.47
489.578	5842.8
489.948	5944.72
490.318	6073.98
490.688	6210.92
491.058	6333.18
491.428	6498.15
491.798	6582.89
492.168	6786.28
492.538	6920.06
492.908	7075.08
493.278	7192.14
493.648	7260.61
494.017	7475.98
494.387	7596.65
494.757	7654.28
495.126	7865.12
495.496	7939.69
495.866	8085.23
496.235	8227.82
496.605	8355.95
496.974	8482.73
497.344	8581.26
497.713	8706.9
498.082	8760.91
498.452	8890.4
498.821	8993
499.19	9114.58
499.559	9287.68
499.928	9335.81
500.298	9466.21
500.667	9614.45
501.036	9595.24
501.405	9765.18
501.774	9789.81
502.143	9974.44
502.512	10043.14
502.88	10181.44
503.249	10220.31
503.618	10327.43
503.987	10362
504.356	10440.64
504.724	10529.91
505.093	10602.45
505.462	10729.22
505.83	10804.02
506.199	10846.06
506.567	11027.07
506.936	11004.92
507.304	11200.4
507.672	11267.06
508.041	11361.75
508.409	11399.94
508.777	11450.56
509.145	11574.4
509.514	11565.59
509.882	11669.31
510.25	11678.8
510.618	11751.12
510.986	11820.04
511.354	11912.92
511.722	12030.43
512.09	12069.53
512.458	12086.25
512.826	12252.35
513.193	12293.93
513.561	12274.72
513.929	12322.18
514.297	12396.52
514.664	12429.52
515.032	12546.35
515.4	12689.85
515.767	12628.83
516.135	12660.25
516.502	12602.85
516.869	12850.75
517.237	12818.89
517.604	12760.13
517.972	12925.78
518.339	12974.59
518.706	12912.89
519.073	12921.48
519.44	13016.62
519.808	13105.21
520.175	13052.33
520.542	13213.45
520.909	13217.29
521.276	13189.5
521.643	13250.74
522.009	13318.31
522.376	13401.24
522.743	13419.55
523.11	13475.82
523.477	13602.82
523.843	13643.95
524.21	13662.93
524.577	13682.59
524.943	13769.6
525.31	13779.99
525.676	13832.87
526.043	13897.05
526.409	13848.01
526.776	13972.98
527.142	13994.9
527.508	13997.84
527.874	14015.69
528.241	14034.67
528.607	14017.5
528.973	14113.54
529.339	13989.48
529.705	14167.55
530.071	14207.78
530.437	14111.06
530.803	14213.65
531.169	14227.21
531.535	14068.34
531.901	14126.87
532.267	14158.74
532.632	14200.54
532.998	14294.33
533.364	14176.36
533.73	14105.18
534.095	14242.35
534.461	14200.54
534.826	14188.12
535.192	14265.18
535.557	14262.01
535.923	14153.09
536.288	14240.09
536.653	14129.13
537.019	14076.71
537.384	14174.56
537.749	14145.18
538.114	14053.66
538.479	14088.68
538.845	13977.05
539.21	13922.81
539.575	14041.45
539.94	13986.99
540.305	13914
540.67	13831.74
541.034	13877.39
541.399	13912.42
541.764	13786.77
542.129	13782.7
542.494	13801.91
542.858	13849.82
543.223	13824.06
543.587	13849.59
543.952	13673.55
544.316	13731.86
544.681	13633.1
545.045	13717.17
545.41	13676.49
545.774	13702.48
546.138	13551.3
546.503	13545.42
546.867	13505.2
547.231	13517.17
547.595	13504.97
547.959	13530.96
548.324	13396.05
548.688	13399.89
549.052	13357.18
549.416	13342.71
549.779	13294.81
550.143	13365.31
550.507	13375.71
550.871	13267.69
551.235	13186.79
551.599	13260.91
551.962	13197.86
552.326	13198.76
552.689	13215.03
553.053	13137.52
553.417	13092.33
553.78	13187.69
554.143	13055.04
554.507	13189.72
554.87	13120.8
555.234	13256.39
555.597	13038.54
555.96	13038.32
556.323	13051.42
556.686	13032.21
557.05	13094.13
557.413	13111.53
557.776	12990.63
558.139	13024.76
558.502	13017.07
558.865	12957.41
559.228	13005.32
559.59	13088.48
559.953	12944.98
560.316	13070.63
560.679	13092.33
561.041	13065.21
561.404	13000.58
561.767	13096.84
562.129	13009.62
562.492	13131.19
562.854	13210.97
563.217	13077.86
563.579	13158.31
563.941	13126.22
564.304	13205.77
564.666	13191.08
565.028	13180.01
565.39	13212.32
565.753	13199.22
566.115	13185.88
566.477	13209.16
566.839	13231.53
567.201	13304.98
567.563	13193.79
567.925	13235.6
568.287	13265.43
568.648	13245.54
569.01	13341.58
569.372	13380.45
569.734	13315.37
570.095	13414.35
570.457	13339.78
570.819	13363.96
571.18	13453.22
571.542	13452.77
571.903	13458.42
572.265	13461.36
572.626	13423.16
572.987	13512.43
573.349	13490.51
573.71	13507.46
574.071	13565.31
574.432	13558.53
574.794	13585.42
575.155	13560.11
575.516	13500.68
575.877	13582.93
576.238	13677.17
576.599	13584.52
576.96	13513.56
577.32	13603.05
577.681	13598.53
578.042	13662.03
578.403	13619.09
578.763	13665.87
579.124	13592.43
579.485	13622.25
579.845	13679.2
580.206	13670.16
580.566	13602.59
580.927	13600.79
581.287	13656.83
581.648	13636.94
582.008	13690.05
582.368	13664.06
582.728	13606.66
583.089	13589.94
583.449	13675.13
583.809	13645.53
584.169	13600.11
584.529	13618.87
584.889	13651.41
585.249	13530.96
585.609	13539.09
585.969	13579.54
586.329	13553.33
586.688	13554.01
587.048	13582.48
587.408	13431.53
587.768	13456.61
588.127	13403.96
588.487	13467.91
588.846	13557.4
589.206	13427.23
589.565	13479.89
589.925	13552.88
590.284	13455.93
590.643	13485.31
591.003	13476.04
591.362	13481.47
591.721	13451.41
592.08	13400.57
592.44	13447.12
592.799	13483.95
593.158	13404.41
593.517	13426.78
593.876	13371.87
594.235	13368.48
594.593	13350.62
594.952	13381.58
595.311	13342.26
595.67	13328.7
596.029	13478.08
596.387	13441.69
596.746	13391.3
597.104	13339.55
597.463	13234.69
597.822	13375.03
598.18	13374.8
598.538	13314.92
598.897	13371.41
599.255	13241.93
599.613	13483.5
599.972	13352.43
600.33	13390.85
600.688	13396.27
601.046	13337.29
601.404	13460.45
601.762	13321.7
602.12	13483.28
602.478	13433.56
602.836	13397.85
603.194	13319.89
603.552	13327.8
603.91	13269.04
604.268	13353.79
604.625	13323.28
604.983	13377.06
605.341	13369.15
605.698	13408.02
606.056	13374.13
606.413	13387.91
606.771	13414.8
607.128	13411.19
607.485	13380
607.843	13376.84
608.2	13452.54
608.557	13463.16
608.914	13414.58
609.272	13476.72
609.629	13510.62
609.986	13512.88
610.343	13465.65
610.7	13465.2
611.057	13502.71
611.414	13394.01
611.771	13447.8
612.127	13535.48
612.484	13549.94
612.841	13572.99
613.198	13522.82
613.554	13584.52
613.911	13609.83
614.267	13678.52
614.624	13608.24
614.98	13622.71
615.337	13695.25
615.693	13624.06
616.05	13715.59
616.406	13714.91
616.762	13631.07
617.118	13676.26
617.475	13706.32
617.831	13719.65
618.187	13739.54
618.543	13777.05
618.899	13839.88
619.255	13716.49
619.611	13684.85
619.967	13784.74
620.323	13884.85
620.678	13764.17
621.034	13694.57
621.39	13725.53
621.746	13767.11
622.101	13854.79
622.457	13740.9
622.812	13863.38
623.168	13792.65
623.523	13828.8
623.879	13922.13
624.234	13710.61
624.589	13807.33
624.945	13783.15
625.3	13784.51
625.655	13795.36
626.01	13765.08
626.365	13730.95
626.72	13728.01
627.075	13725.75
627.43	13655.25
627.785	13774.12
628.14	13760.33
628.495	13797.39
628.85	13738.64
629.205	13738.64
629.559	13734.57
629.914	13801.91
630.269	13667.45
630.623	13661.12
630.978	13661.35
631.332	13648.69
631.687	13760.56
632.041	13689.82
632.396	13714.23
632.75	13594.01
633.104	13630.62
633.459	13646.43
633.813	13643.05
634.167	13569.6
634.521	13647.11
634.875	13620.45
635.229	13631.07
635.583	13503.84
635.937	13498.64
636.291	13561.47
636.645	13512.65
636.999	13382.71
637.352	13491.64
637.706	13383.17
638.06	13501.35
638.413	13363.05
638.767	13434.69
639.121	13442.6
639.474	13294.13
639.828	13298.65
640.181	13326.22
640.534	13300.68
640.888	13333.45
641.241	13222.72
641.594	13321.92
641.947	13331.19
642.301	13283.96
642.654	13322.15
643.007	13254.35
643.36	13243.51
643.713	13281.7
644.066	13276.95
644.419	13271.3
644.771	13207.12
645.124	13078.31
645.477	12944.53
645.83	12968.49
646.182	12879.9
646.535	12822.28
646.888	12835.38
647.24	12759.68
647.593	12807.81
647.945	12833.8
648.298	12673.35
648.65	12695.27
649.002	12690.75
649.355	12707.48
649.707	12692.56
650.059	12838.32
650.411	12962.16
650.763	13010.29
651.115	13040.35
651.467	13010.07
651.819	12993.12
652.171	12998.77
652.523	13011.2
652.875	13030.41
653.227	12994.02
653.578	13049.61
653.93	13010.75
654.282	13039.45
654.633	13032.67
654.985	12977.3
655.337	13012.55
655.688	13044.42
656.039	13106.11
656.391	13017.07
656.742	13029.05
657.094	13019.11
657.445	13135.04
657.796	12997.86
658.147	13088.71
658.498	13053.23
658.849	13045.09
659.2	13019.78
659.551	12967.81
659.902	13080.8
660.253	13087.81
660.604	13099.1
660.955	13016.85
661.306	13053.23
661.656	13077.41
662.007	13092.33
662.358	13006.45
662.708	13112.89
663.059	13169.16
663.409	13080.8
663.76	13141.36
664.11	13156.73
664.461	13185.66
664.811	13104.08
665.161	13052.33
665.511	13060.91
665.862	13078.54
666.212	13144.53
666.562	13107.24
666.912	13149.72
667.262	13105.21
667.612	13135.04
667.962	13140.23
668.312	13118.54
668.662	13213
669.011	13121.7
669.361	13154.92
669.711	13203.28
670.06	13081.48
670.41	13070.63
670.76	13006.23
671.109	13110.86
671.459	13049.16
671.808	13074.7
672.157	13073.57
672.507	12999.67
672.856	13079.44
673.205	13008.49
673.554	13018.2
673.904	13021.59
674.253	13059.78
674.602	13007.81
674.951	12786.12
675.3	12784.54
675.649	13006.68
675.998	12901.14
676.346	12925.1
676.695	12905.89
677.044	12840.58
677.393	12901.6
677.741	12867.47
678.09	12938.66
678.438	12843.07
678.787	12873.8
679.135	12896.62
679.484	12798.1
679.832	12753.8
680.181	12657.08
680.529	12768.72
680.877	12729.62
681.225	12646.91
681.573	12749.06
681.922	12698.66
682.27	12564.2
682.618	12704.31
682.966	12577.31
683.314	12595.16
683.661	12580.25
684.009	12513.58
684.357	12511.78
684.705	12526.24
685.053	12466.58
685.4	12461.61
685.748	12326.47
686.095	12399.91
686.443	12336.41
686.79	12260.03
687.138	12312.23
687.485	12309.97
687.832	12218
688.18	12365.79
688.527	12159.02
688.874	12138.68
689.221	12095.29
689.568	12091.22
689.915	12075.63
690.262	11961.28
690.609	12007.16
690.956	11994.5
691.303	11871.11
691.65	11865.92
691.997	11924.9
692.344	11799.25
692.69	11725.81
693.037	11750.67
693.383	11635.87
693.73	11671.8
694.077	11621.86
694.423	11555.42
694.769	11491.24
695.116	11493.72
695.462	11521.97
695.808	11356.78
696.155	11424.8
696.501	11379.38
696.847	11379.83
697.193	11323.11
697.539	11351.81
697.885	11217.12
698.231	11214.18
698.577	11119.95
698.923	11055.77
699.269	11070.68
699.614	10980.52
699.96	10989.56
700.306	11012.15
700.651	10945.04
700.997	10881.76
701.342	10788.66
701.688	10804.25
702.033	10778.04
702.379	10750.69
702.724	10735.78
703.069	10688.55
703.415	10620.98
703.76	10601.09
704.105	10578.95
704.45	10470.25
704.795	10484.26
705.14	10459.85
705.485	10371.27
705.83	10322.91
706.175	10368.56
706.52	10344.6
706.865	10300.08
707.209	10235.45
707.554	10237.26
707.899	10276.13
708.243	10159.07
708.588	10111.16
708.932	10108.45
709.277	10079.98
709.621	10049.69
709.966	10002.01
710.31	10098.05
710.654	9924.27
710.998	9980.32
711.342	10002.91
711.687	10018.06
712.031	9886.99
712.375	9886.99
712.719	9870.72
713.063	9794.56
713.407	9791.85
713.75	9781.45
714.094	9764.73
714.438	9666.43
714.782	9743.71
715.125	9651.51
715.469	9752.53
715.812	9679.76
716.156	9632.3
716.499	9681.57
716.843	9647.22
717.186	9630.95
717.53	9623.49
717.873	9595.69
718.216	9593.21
718.559	9539.65
718.902	9492.42
719.246	9504.62
719.589	9562.47
719.932	9466.21
720.275	9451.52
720.617	9465.3
720.96	9459.43
721.303	9444.96
721.646	9426.21
721.989	9366.77
722.331	9430.05
722.674	9418.3
723.016	9336.04
723.359	9357.73
723.701	9325.64
724.044	9287.91
724.386	9291.07
724.729	9337.17
725.071	9347.34
725.413	9346.66
725.755	9347.34
726.097	9266.89
726.439	9248.36
726.782	9252.2
727.124	9223.05
727.465	9254.91
727.807	9263.27
728.149	9191.64
728.491	9238.64
728.833	9254.23
729.175	9183.73
729.516	9243.61
729.858	9195.7
730.199	9256.95
730.541	9093.56
730.882	9201.58
731.224	9141.02
731.565	9113.67
731.906	9132.2
732.248	9188.25
732.589	9175.59
732.93	9108.02
733.271	9123.16
733.612	9150.96
733.953	9143.95
734.294	9140.34
734.635	9117.06
734.976	9141.69
735.317	9034.13
735.658	9142.15
735.999	9163.16
736.339	9112.09
736.68	9233.44
737.021	9100.79
737.361	9133.11
737.702	9159.1
738.042	9174.01
738.383	9192.99
738.723	9141.69
739.063	9256.04
739.404	9213.56
739.744	9247.91
740.084	9126.55
740.424	9191.41
740.764	9236.83
741.104	9214.91
741.444	9204.97
741.784	9189.83
742.124	9337.62
742.464	9291.97
742.804	9292.88
743.143	9282.26
743.483	9331.97
743.823	9390.73
744.162	9345.31
744.502	9406.32
744.841	9346.44
745.181	9476.15
745.52	9443.83
745.86	9485.19
746.199	9548.01
746.538	9571.97
746.877	9616.71
747.216	9728.57
747.556	9700.32
747.895	9778.74
748.234	9809.25
748.573	9853.09
748.911	9896.7
749.25	9912.52
749.589	9969.24
749.928	10096.25
750.267	10195
750.605	10240.87
750.944	10306.86
751.283	10279.29
751.621	10444.26
751.96	10493.07
752.298	10604.48
752.636	10716.34
752.975	10753.63
753.313	10779.84
753.651	11046.96
753.989	11070.68
754.327	11153.17
754.666	11243.79
755.004	11282.43
755.342	11537.11
755.679	11712.47
756.017	11780.04
756.355	11914.73
756.693	11967.38
757.031	12130.32
757.368	12165.8
757.706	12411.44
758.044	12525.79
758.381	12688.04
758.719	12836.06
759.056	12966.9
759.394	13125.54
759.731	13176.84
760.068	13412.09
760.405	13469.72
760.743	13650.28
761.08	13796.94
761.417	13942.92
761.754	14043.94
762.091	14281.45
762.428	14377.26
762.765	14441.89
763.102	14735.9
763.438	14771.6
763.775	14891.6
764.112	15155.32
764.449	15297.24
764.785	15421.3
765.122	15537.01
765.458	15629.89
765.795	15791.92
766.131	15900.84
766.467	16059.7
766.804	16132.02
767.14	16255.41
767.476	16372.46
767.812	16483.42
768.148	16656.53
768.485	16662.4
768.821	16817.2
769.157	16921.15
769.492	17052.22
769.828	17282.72
770.164	17191.2
770.5	17395.49
770.836	17384.64
771.171	17489.27
771.507	17554.81
771.842	17530.85
772.178	17648.82
772.513	17671.19
772.849	17779.89
773.184	17783.5
773.519	18004.51
773.855	17982.82
774.19	18053.1
774.525	18072.08
774.86	18115.7
775.195	18148.46
775.53	18196.82
775.865	18203.6
776.2	18182.81
776.535	18122.7
776.87	18268.23
777.205	18182.13
777.539	18263.26
777.874	18265.07
778.209	18412.41
778.543	18338.74
778.878	18286.76
779.212	18366.76
779.547	18336.71
779.881	18470.71
780.215	18281.57
780.55	18431.17
780.884	18383.03
781.218	18421.22
781.552	18439.53
781.886	18378.51
782.22	18267.56
782.554	18383.26
782.888	18221.46
783.222	18308.91
783.556	18289.25
783.889	18141.01
784.223	18122.02
784.557	18201.34
784.89	18252.19
785.224	18184.85
785.557	18109.59
785.891	18069.14
786.224	18191.17
786.558	18121.12
786.891	18131.29
787.224	18060.56
787.557	17953.67
787.891	18009.48
788.224	18075.92
788.557	18069.6
788.89	18000.67
789.223	18030.73
789.556	17918.19
789.888	17882.26
790.221	17758.42
790.554	17669.83
790.887	17756.38
791.219	17727.91
791.552	17726.78
791.884	17564.07
792.217	17615.82
792.549	17555.71
792.882	17515.94
793.214	17342.83
793.546	17488.37
793.879	17298.77
794.211	17238.66
794.543	17317.07
794.875	17298.32
795.207	17295.15
795.539	17202.27
795.871	17192.56
796.203	17071.88
796.535	17030.53
796.867	16997.99
797.198	17020.58
797.53	17040.7
797.862	16927.7
798.193	16930.87
798.525	16806.13
798.856	16824.43
799.188	16672.34
799.519	16680.71
799.85	16570.2
800.182	16574.27
800.513	16552.8
800.844	16486.36
801.175	16573.82
801.506	16510.54
801.837	16381.96
802.168	16435.74
802.499	16302.86
802.83	16361.17
803.161	16229.64
803.491	16309.64
803.822	16272.58
804.153	16215.86
804.483	16003.89
804.814	16061.29
805.145	16040.5
805.475	16015.64
805.805	15935.87
806.136	15932.48
806.466	15934.96
806.796	15906.26
807.126	15818.13
807.457	15833.27
807.787	15796.66
808.117	15783.78
808.447	15575.65
808.777	15693.39
809.107	15615.87
809.436	15630.11
809.766	15562.77
810.096	15481.64
810.426	15395.77
810.755	15538.14
811.085	15475.77
811.414	15495.88
811.744	15375.66
812.073	15333.62
812.403	15313.51
812.732	15219.05
813.061	15203.46
813.39	15099.28
813.719	15134.76
814.049	15118.03
814.378	15061.76
814.707	15126.4
815.036	15068.32
815.365	14951.03
815.693	14822.68
816.022	14976.12
816.351	14817.93
816.68	14720.76
817.008	14845.27
817.337	14673.07
817.665	14753.3
817.994	14713.98
818.322	14710.14
818.651	14572.51
818.979	14586.07
819.307	14546.3
819.636	14591.95
819.964	14506.53
820.292	14648.22
820.62	14504.94
820.948	14515.56
821.276	14521.21
821.604	14457.04
821.932	14544.49
822.259	14518.5
822.587	14390.6
822.915	14521.67
823.243	14559.63
823.57	14391.27
823.898	14426.98
824.225	14453.19
824.553	14409.35
824.88	14448.9
825.207	14500.65
825.535	14429.47
825.862	14510.37
826.189	14360.31
826.516	14440.54
826.843	14562.8
827.17	14487.77
827.497	14509.69
827.824	14459.97
828.151	14614.32
828.478	14458.84
828.805	14566.41
829.131	14485.06
829.458	14538.84
829.785	14404.16
830.111	14557.15
830.438	14507.2
830.764	14492.06
831.09	14498.84
831.417	14521.44
831.743	14500.42
832.069	14532.74
832.395	14507.66
832.722	14464.04
833.048	14362.57
833.374	14455
833.7	14358.28
834.026	14356.7
834.351	14376.59
834.677	14397.83
835.003	14360.54
835.329	14353.99
835.654	14406.19
835.98	14315.34
836.306	14248.23
836.631	14205.74
836.956	14327.77
837.282	14280.54
837.607	14145.63
837.932	14174.33
838.258	14184.05
838.583	14087.55
838.908	14066.31
839.233	14080.55
839.558	14076.71
839.883	14013.43
840.208	13994
840.533	13967.33
840.858	14020.44
841.182	13956.71
841.507	13928.91
841.832	13824.51
842.156	13819.54
842.481	13879.88
842.805	13796.49
843.13	13720.33
843.454	13760.1
843.778	13657.28
844.103	13721.01
844.427	13652.76
844.751	13667
845.075	13700.67
845.399	13591.75
845.723	13495.93
846.047	13580.22
846.371	13418.87
846.695	13385.42
847.019	13306.33
847.343	13217.07
847.666	13140.91
847.99	13136.17
848.313	13069.73
848.637	12947.02
848.96	13024.98
849.284	12965.32
849.607	12860.92
849.931	12862.5
850.254	12848.72
850.577	12739.57
850.9	12723.75
851.223	12633.58
851.546	12568.5
851.869	12516.97
852.192	12613.02
852.515	12364.89
852.838	12294.61
853.161	12422.96
853.483	12271.56
853.806	12331.67
854.129	12223.42
854.451	12114.27
854.774	12097.78
855.096	12052.8
855.419	12050.32
855.741	11997.89
856.063	11970.32
856.385	11963.99
856.708	11964.22
857.03	11799.7
857.352	11905.24
857.674	11852.58
857.996	11739.37
858.318	11696.43
858.64	11738.69
858.961	11643.78
859.283	11693.49
859.605	11545.7
859.926	11605.13
860.248	11584.57
860.57	11463.89
860.891	11461.41
861.212	11411.47
861.534	11470
861.855	11404.69
862.176	11373.5
862.498	11364.46
862.819	11398.13
863.14	11356.78
863.461	11387.74
863.782	11288.08
864.103	11282.66
864.424	11234.97
864.745	11241.3
865.065	11187.29
865.386	11124.24
865.707	11158.59
866.027	11185.93
866.348	11109.55
866.668	11104.35
866.989	11114.52
867.309	10947.97
867.63	11089.44
867.95	11072.72
868.27	10944.36
868.59	11023.23
868.91	10907.52
869.23	10910.46
869.55	10817.58
869.87	10907.52
870.19	10807.41
870.51	10883.57
870.83	10923.79
871.15	10820.97
871.469	10829.11
871.789	10725.83
872.109	10745.95
872.428	10760.41
872.748	10771.71
873.067	10766.28
873.386	10696.46
873.706	10734.2
874.025	10543.92
874.344	10625.95
874.663	10630.24
874.982	10646.29
875.301	10674.99
875.62	10519.29
875.939	10420.76
876.258	10515.9
876.577	10518.61
876.896	10527.65
877.214	10538.95
877.533	10499.63
877.852	10502.79
878.17	10403.36
878.489	10415.33
878.807	10411.04
879.125	10412.85
879.444	10451.72
879.762	10337.6
880.08	10364.04
880.398	10322.68
880.716	10307.99
881.034	10293.53
881.352	10290.82
881.67	10233.87
881.988	10239.97
882.306	10253.08
882.624	10191.61
882.941	10134.44
883.259	10102.8
883.577	10103.03
883.894	10049.69
884.212	10039.07
884.529	10133.08
884.846	10020.09
885.164	9956.81
885.481	9988.23
885.798	9969.47
886.115	9907.55
886.432	9885.63
886.75	9893.77
887.067	9876.36
887.383	9811.96
887.7	9837.72
888.017	9751.62
888.334	9747.78
888.651	9714.56
888.967	9721.57
889.284	9734.67
889.6	9601.34
889.917	9600.89
890.233	9616.71
890.55	9510.72
890.866	9579.2
891.182	9556.82
891.498	9452.65
891.815	9448.13
892.131	9408.58
892.447	9351.41
892.763	9404.96
893.079	9329.49
893.395	9325.87
893.71	9316.61
894.026	9263.05
894.342	9260.79
894.657	9186.67
894.973	9180.34
895.289	9120.23
895.604	9118.19
895.92	9073
896.235	8995.48
896.55	8989.83
896.865	9008.59
897.181	8989.16
897.496	8986.67
897.811	8926.79
898.126	8879.1
898.441	8825.77
898.756	8844.08
899.071	8680.01
899.386	8753.68
899.7	8668.49
900.015	8674.14
900.33	8594.82
900.644	8545.55
900.959	8581.94
901.273	8536.74
901.588	8484.54
901.902	8462.62
902.216	8472.11
902.531	8466.46
902.845	8408.15
903.159	8357.76
903.473	8306.24
903.787	8353.47
904.101	8260.59
904.415	8200.93
904.729	8157.09
905.042	8106.69
905.356	8150.76
905.67	8127.26
905.984	8184.88
906.297	8041.16
906.611	8023.98
906.924	8002.97
907.237	8005.91
907.551	7936.08
907.864	7937.88
908.177	7855.4
908.491	7847.94
908.804	7805.01
909.117	7821.28
909.43	7703.77
909.743	7705.8
910.056	7672.13
910.368	7620.38
910.681	7629.19
910.994	7615.63
911.307	7579.48
911.619	7520.04
911.932	7467.16
912.244	7456.54
912.557	7448.41
912.869	7397.79
913.181	7387.62
913.494	7341.52
913.806	7254.29
914.118	7268.52
914.43	7187.4
914.742	7238.69
915.054	7229.65
915.366	7162.76
915.678	7148.3
915.99	7099.71
916.302	7071.92
916.613	7021.98
916.925	7021.3
917.236	7005.71
917.548	6913.5
917.859	6965.71
918.171	6931.58
918.482	6896.78
918.794	6808.2
919.105	6846.39
919.416	6814.98
919.727	6782.43
920.038	6795.54
920.349	6692.04
920.66	6677.13
920.971	6716.45
921.282	6630.35
921.593	6595.32
921.903	6505.61
922.214	6612.04
922.525	6506.51
922.835	6470.58
923.146	6408.89
923.456	6433.07
923.767	6372.95
924.077	6347.64
924.387	6385.38
924.697	6323.46
925.008	6288.21
925.318	6322.11
925.628	6232.39
925.938	6234.2
926.248	6214.09
926.558	6140.42
926.867	6163.24
927.177	6123.24
927.487	6060.42
927.796	6052.74
928.106	6021.32
928.416	5983.59
928.725	6009.57
929.034	5906.53
929.344	5978.84
929.653	5897.94
929.962	5871.27
930.271	5815.23
930.581	5784.72
930.89	5786.75
931.199	5766.87
931.508	5727.1
931.817	5784.04
932.125	5764.38
932.434	5695.91
932.743	5691.39
933.051	5673.09
933.36	5668.79
933.669	5613.43
933.977	5634.67
934.286	5544.28
934.594	5558.96
934.902	5521.9
935.21	5526.2
935.519	5500.21
935.827	5495.91
936.135	5450.04
936.443	5364.39
936.751	5434.45
937.059	5348.12
937.367	5325.75
937.674	5315.58
937.982	5308.8
938.29	5285.98
938.597	5272.19
938.905	5182.02
939.213	5236.49
939.52	5211.18
939.827	5204.4
940.135	5140.22
940.442	5161.23
940.749	5125.76
941.056	5037.85
941.363	5017.96
941.67	5041.01
941.977	4966.21
942.284	4925.53
942.591	4965.99
942.898	4958.75
943.205	4971.41
943.511	4898.42
943.818	4884.63
944.125	4904.97
944.431	4884.41
944.738	4837.85
945.044	4786.78
945.35	4748.36
945.657	4749.95
945.963	4737.74
946.269	4746.1
946.575	4682.15
946.881	4690.96
947.187	4664.07
947.493	4630.4
947.799	4569.16
948.105	4592.89
948.41	4609.38
948.716	4560.57
949.022	4557.41
949.327	4534.13
949.633	4515.83
949.938	4457.52
950.244	4453.91
950.549	4451.87
950.854	4434.25
951.16	4413.91
951.465	4398.32
951.77	4387.47
952.075	4374.59
952.38	4342.72
952.685	4291.2
952.99	4248.49
953.294	4263.4
953.599	4217.08
953.904	4204.42
954.209	4194.03
954.513	4219.34
954.818	4189.51
955.122	4151.09
955.426	4170.3
955.731	4090.53
956.035	4122.62
956.339	4092.11
956.643	4061.38
956.948	4045.33
957.252	4051.21
957.556	4025.45
957.86	4032.22
958.163	4006.91
958.467	3947.25
958.771	3962.85
959.075	3943.41
959.378	3950.19
959.682	3898.67
959.985	3893.02
960.289	3888.27
960.592	3858.22
960.896	3826.58
961.199	3824.55
961.502	3782.06
961.805	3776.19
962.108	3728.96
962.411	3736.41
962.714	3758.11
963.017	3705.68
963.32	3685.11
963.623	3665
963.926	3647.6
964.228	3653.93
964.531	3634.27
964.833	3608.51
965.136	3617.09
965.438	3566.7
965.741	3606.47
966.043	3556.3
966.345	3547.94
966.648	3517.44
966.95	3547.94
967.252	3486.25
967.554	3494.16
967.856	3477.89
968.158	3489.41
968.46	3441.51
968.761	3431.11
969.063	3427.27
969.365	3376.65
969.666	3389.98
969.968	3350.21
970.269	3366.71
970.571	3343.88
970.872	3364.45
971.174	3287.16
971.475	3278.8
971.776	3277.89
972.077	3227.27
972.378	3206.03
972.679	3237.22
972.98	3260.27
973.281	3236.99
973.582	3212.81
973.883	3142.76
974.183	3159.03
974.484	3155.64
974.785	3147.95
975.085	3142.76
975.386	3142.3
975.686	3119.25
975.986	3113.38
976.287	3072.02
976.587	3069.09
976.887	3072.02
977.187	3053.49
977.487	2995.87
977.787	3006.49
978.087	2996.09
978.387	2982.31
978.687	2999.48
978.987	2959.48
979.286	2939.6
979.586	2955.42
979.885	2907.73
980.185	2885.81
980.484	2896.21
980.784	2871.13
981.083	2868.87
981.382	2890.11
981.682	2849.2
981.981	2846.72
982.28	2779.83
982.579	2809.88
982.878	2782.99
983.177	2767.85
983.475	2758.59
983.774	2737.12
984.073	2728.53
984.372	2705.03
984.67	2733.5
984.969	2691.47
985.267	2682.2
985.566	2682.43
985.864	2655.99
986.162	2661.41
986.461	2633.84
986.759	2643.56
987.057	2606.95
987.355	2598.82
987.653	2566.95
987.951	2593.17
988.249	2612.6
988.547	2577.57
988.844	2597.46
989.142	2558.59
989.44	2526.95
989.737	2495.99
990.035	2521.3
990.332	2484.69
990.63	2472.27
990.927	2455.32
991.224	2440.18
991.521	2441.08
991.819	2427.29
992.116	2394.98
992.413	2409.22
992.71	2380.97
993.006	2367.64
993.303	2381.65
993.6	2347.3
993.897	2361.76
994.193	2373.06
994.49	2351.82
994.787	2341.42
995.083	2293.97
995.379	2324.25
995.676	2309.33
995.972	2265.72
996.268	2261.88
996.565	2249.22
996.861	2255.55
997.157	2218.03
997.453	2234.08
997.749	2191.37
998.044	2169
998.34	2181.2
998.636	2161.77
998.932	2150.24
999.227	2160.18
999.523	2168.77
999.818	2119.73
1000.114	2110.92
1000.409	2112.05
1000.704	2104.82
1001	2093.07
1001.295	2112.95
1001.59	2070.92
1001.885	2094.42
1002.18	2051.49
1002.475	2027.31
1002.77	1998.61
1003.065	2006.74
1003.359	2014.65
1003.654	2007.64
1003.949	1964.48
1004.243	1977.82
1004.538	1976.23
1004.832	1937.59
1005.127	1939.62
1005.421	1944.14
1005.715	1919.29
1006.009	1903.47
1006.304	1876.35
1006.598	1866.18
1006.892	1846.97
1007.186	1841.32
1007.48	1857.82
1007.773	1828.67
1008.067	1824.15
1008.361	1795.67
1008.655	1764.49
1008.948	1782.34
1009.242	1774.88
1009.535	1783.47
1009.829	1777.59
1010.122	1731.04
1010.415	1778.27
1010.708	1742.57
1011.001	1748.44
1011.295	1697.37
1011.588	1679.29
1011.881	1700.76
1012.173	1674.32
1012.466	1672.29
1012.759	1674.55
1013.052	1672.96
1013.344	1671.83
1013.637	1682
1013.93	1620.99
1014.222	1617.37
1014.514	1632.51
1014.807	1590.71
1015.099	1563.36
1015.391	1566.75
1015.683	1565.17
1015.976	1545.74
1016.268	1531.95
1016.56	1527.21
1016.851	1521.1
1017.143	1514.78
1017.435	1526.08
1017.727	1501.44
1018.018	1491.05
1018.31	1461.9
1018.602	1491.95
1018.893	1457.83
1019.185	1445.85
1019.476	1429.58
1019.767	1449.92
1020.058	1431.61
1020.35	1425.97
1020.641	1423.93
1020.932	1394.1
1021.223	1408.34
1021.514	1396.36
1021.804	1372.41
1022.095	1349.36
1022.386	1348.68
1022.677	1354.55
1022.967	1320.66
1023.258	1327.21
1023.548	1355.46
1023.839	1319.98
1024.129	1315.46
1024.419	1312.3
1024.709	1285.86
1025	1285.4
1025.29	1290.15
1025.58	1282.47
1025.87	1257.83
1026.16	1257.61
1026.449	1234.56
1026.739	1227.1
1027.029	1238.63
1027.319	1205.86
1027.608	1229.81
1027.898	1183.71
1028.187	1191.85
1028.477	1211.51
1028.766	1177.16
1029.055	1166.31
1029.344	1147.78
1029.634	1167.67
1029.923	1162.92
1030.212	1122.92
1030.501	1158.85
1030.79	1122.02
1031.078	1108.01
1031.367	1124.73
1031.656	1088.8
1031.945	1093.54
1032.233	1069.82
1032.522	1072.53
1032.81	1064.39
1033.099	1046.31
1033.387	1060.33
1033.675	1060.55
1033.963	1062.13
1034.251	1041.12
1034.54	1057.16
1034.828	1038.4
1035.116	1021.23
1035.403	1036.6
1035.691	1015.58
1035.979	993.89
1036.267	1015.35
1036.554	1003.83
1036.842	987.78
1037.129	993.21
1037.417	974
1037.704	956.15
1037.992	964.73
1038.279	977.16
1038.566	940.33
1038.853	940.33
1039.14	940.33
