Data from hue_180_FLMS001491_00012.txt Node
Date: Tue Feb 07 16:46:37 GMT 2017
User: dcchb
Spectrometer: FLMS00149
Trigger mode: 0
Integration Time (sec): 2.000000E-2
Scans to average: 10
Electric dark correction enabled: true
Nonlinearity correction enabled: false
Boxcar width: 0
XAxis mode: Wavelengths
Number of Pixels in Spectrum: 2048
>>>>>Begin Spectral Data<<<<<
341.393	-8.47
341.776	-8.47
342.16	-8.47
342.543	-52.99
342.927	-51.64
343.31	-71.75
343.693	-68.81
344.077	-81.69
344.46	-63.84
344.843	-59.55
345.226	-31.3
345.61	-21.58
345.993	-15.25
346.376	0.79
346.759	13.22
347.142	10.28
347.525	44.18
347.908	57.96
348.291	79.21
348.674	88.02
349.057	120.11
349.44	92.77
349.823	148.36
350.206	155.59
350.588	197.62
350.971	197.17
351.354	228.81
351.737	244.63
352.119	257.06
352.502	267.22
352.884	298.86
353.267	282.14
353.65	304.29
354.032	285.3
354.414	290.5
354.797	303.16
355.179	321.69
355.562	323.72
355.944	325.75
356.326	328.01
356.709	341.35
357.091	331.63
357.473	341.35
357.855	347
358.238	348.58
358.62	340.89
359.002	337.96
359.384	341.57
359.766	349.26
360.148	348.8
360.53	344.06
360.912	328.01
361.294	317.17
361.676	324.17
362.057	336.6
362.439	327.11
362.821	327.34
363.203	307.45
363.584	337.28
363.966	354.91
364.348	335.7
364.729	312.65
365.111	337.05
365.493	318.97
365.874	337.28
366.256	328.24
366.637	325.53
367.019	312.65
367.4	318.97
367.781	316.04
368.163	307
368.544	315.36
368.925	296.15
369.306	333.44
369.688	309.94
370.069	310.84
370.45	331.18
370.831	317.17
371.212	309.03
371.593	306.09
371.974	314.68
372.355	296.83
372.736	299.77
373.117	304.29
373.498	319.65
373.879	308.58
374.26	322.36
374.641	308.81
375.021	319.2
375.402	311.07
375.783	341.35
376.163	329.37
376.544	325.53
376.925	325.75
377.305	334.34
377.686	335.02
378.066	328.47
378.447	324.17
378.827	326.21
379.208	324.4
379.588	328.47
379.968	325.53
380.349	321.46
380.729	351.52
381.109	317.17
381.489	335.25
381.87	344.51
382.25	348.58
382.63	333.89
383.01	357.84
383.39	347.22
383.77	347.45
384.15	351.97
384.53	335.47
384.91	347.45
385.29	355.81
385.67	343.83
386.049	348.8
386.429	354.23
386.809	347.67
387.189	352.65
387.568	350.61
387.948	378.86
388.328	370.27
388.707	361.69
389.087	361.91
389.466	358.97
389.846	367.56
390.225	385.19
390.605	368.46
390.984	369.14
391.363	368.92
391.743	389.93
392.122	392.65
392.501	361.01
392.881	377.73
393.26	409.37
393.639	380.22
394.018	360.33
394.397	375.02
394.776	374.79
395.155	385.19
395.534	397.84
395.913	396.71
396.292	392.65
396.671	397.16
397.05	388.35
397.429	378.86
397.808	400.78
398.186	406.66
398.565	391.06
398.944	405.3
399.323	391.97
399.701	403.49
400.08	412.31
400.458	405.3
400.837	423.15
401.215	419.31
401.594	425.19
401.972	404.17
402.351	424.51
402.729	417.96
403.107	422.47
403.486	434.23
403.864	422.7
404.242	430.38
404.62	437.62
404.999	448.01
405.377	454.34
405.755	458.41
406.133	455.47
406.511	466.99
406.889	450.5
407.267	467.67
407.645	464.28
408.023	480.55
408.401	477.39
408.779	496.82
409.156	468.35
409.534	504.51
409.912	498.86
410.29	503.38
410.667	543.38
411.045	524.62
411.422	535.24
411.8	528.91
412.178	533.88
412.555	555.13
412.933	539.76
413.31	578.4
413.687	583.83
414.065	594.67
414.442	583.6
414.819	605.07
415.197	618.85
415.574	607.33
415.951	617.27
416.328	627.44
416.705	631.96
417.082	601.45
417.46	636.71
417.837	667.89
418.214	655.46
418.591	669.47
418.967	658.4
419.344	657.5
419.721	670.83
420.098	687.78
420.475	673.99
420.852	699.53
421.228	733.43
421.605	725.52
421.982	734.56
422.358	737.27
422.735	732.75
423.111	766.87
423.488	792.41
423.864	805.52
424.241	822.01
424.617	814.78
424.994	812.3
425.37	822.46
425.746	842.12
426.123	843.93
426.499	849.36
426.875	873.31
427.251	880.77
427.627	906.76
428.003	888.9
428.379	906.98
428.756	919.41
429.132	953.31
429.507	949.01
429.883	957.15
430.259	964.16
430.635	959.18
431.011	958.96
431.387	1015.68
431.763	1016.36
432.138	1034.89
432.514	1042.57
432.89	1030.14
433.265	1040.31
433.641	1075.56
434.016	1116.02
434.392	1099.97
434.767	1148.56
435.143	1135.68
435.518	1158.5
435.894	1176.35
436.269	1198.73
436.644	1240.53
437.02	1257.71
437.395	1252.51
437.77	1250.48
438.145	1294.54
438.52	1325.05
438.895	1311.72
439.271	1345.39
439.646	1344.48
440.021	1363.24
440.395	1391.04
440.77	1370.92
441.145	1403.92
441.52	1449.79
441.895	1443.92
442.27	1468.32
442.645	1471.49
443.019	1482.11
443.394	1495.21
443.769	1511.94
444.143	1504.71
444.518	1542.67
444.892	1533.18
445.267	1573.18
445.641	1614.31
446.016	1615.66
446.39	1612.73
446.764	1598.72
447.139	1623.57
447.513	1613.63
447.887	1642.78
448.262	1640.07
448.636	1678.49
449.01	1699.96
449.384	1708.77
449.758	1730.46
450.132	1750.12
450.506	1737.02
450.88	1754.42
451.254	1790.8
451.628	1784.02
452.002	1810.23
452.376	1816.79
452.75	1830.8
453.123	1842.55
453.497	1866.73
453.871	1906.05
454.244	1954.41
454.618	1968.87
454.992	1977.91
455.365	1978.37
455.739	2049.55
456.112	2040.74
456.486	2063.34
456.859	2106.27
457.232	2116.22
457.606	2123.67
457.979	2151.69
458.352	2193.73
458.725	2264.01
459.099	2262.43
459.472	2297.68
459.845	2327.96
460.218	2331.8
460.591	2379.26
460.964	2392.82
461.337	2442.99
461.71	2495.87
462.083	2527.5
462.456	2511.23
462.829	2535.41
463.201	2585.13
463.574	2632.59
463.947	2607.5
464.32	2685.47
464.692	2698.57
465.065	2729.53
465.438	2806.14
465.81	2852.02
466.183	2880.94
466.555	2907.16
466.928	2938.34
467.3	2951.22
467.672	3006.36
468.045	3090.2
468.417	3090.2
468.789	3125.91
469.161	3178.79
469.534	3217.43
469.906	3293.36
470.278	3355.73
470.65	3370.65
471.022	3438.67
471.394	3513.24
471.766	3548.49
472.138	3580.13
472.51	3649.96
472.882	3730.41
473.253	3811.31
473.625	3839.79
473.997	3911.87
474.369	3943.29
474.74	4002.27
475.112	4117.29
475.484	4179.44
475.855	4267.12
476.227	4305.76
476.598	4429.38
476.97	4525.19
477.341	4567
477.713	4636.83
478.084	4681.57
478.455	4819.42
478.827	4912.3
479.198	5092.86
479.569	5107.32
479.94	5256.92
480.311	5294.66
480.682	5421.89
481.053	5585.95
481.424	5676.35
481.795	5672.05
482.166	5803.8
482.537	5895.33
482.908	6043.8
483.279	6140.06
483.65	6254.41
484.021	6373.5
484.391	6455.31
484.762	6545.7
485.133	6599.49
485.503	6719.26
485.874	6878.8
486.244	6954.73
486.615	7108.63
486.985	7222.07
487.356	7319.47
487.726	7400.82
488.097	7641.49
488.467	7585.45
488.837	7803.07
489.207	7926.91
489.578	8055.95
489.948	8081.71
490.318	8213.91
490.688	8279.22
491.058	8453.68
491.428	8544.3
491.798	8649.83
492.168	8779.54
492.538	8811.18
492.908	8906.09
493.278	9012.53
493.648	9136.37
494.017	9204.62
494.387	9280.55
494.757	9389.24
495.126	9505.4
495.496	9498.85
495.866	9508.11
496.235	9673.3
496.605	9739.52
496.974	9804.83
497.344	9876.46
497.713	9949
498.082	10038.27
498.452	10116.68
498.821	10165.04
499.19	10177.7
499.559	10309.22
499.928	10348.54
500.298	10481.42
500.667	10489.33
501.036	10436.22
501.405	10547.63
501.774	10580.63
502.143	10641.19
502.512	10706.05
502.88	10802.09
503.249	10760.51
503.618	10800.51
503.987	10870.11
504.356	10902.43
504.724	10953.95
505.093	11000.05
505.462	10983.33
505.83	11047.96
506.199	11169.54
506.567	11289.76
506.936	11247.05
507.304	11270.78
507.672	11341.51
508.041	11399.36
508.409	11438.23
508.777	11544.67
509.145	11506.03
509.514	11554.61
509.882	11543.99
510.25	11543.31
510.618	11609.75
510.986	11636.64
511.354	11687.26
511.722	11779.01
512.09	11795.06
512.458	11727.04
512.826	11852.91
513.193	11814.49
513.561	11783.08
513.929	11912.34
514.297	11995.96
514.664	12024.88
515.032	12048.61
515.4	12040.7
515.767	12120.47
516.135	12059.68
516.502	11927.93
516.869	12173.8
517.237	12159.57
517.604	12044.09
517.972	12201.83
518.339	12196.4
518.706	12185.78
519.073	12218.32
519.44	12219.45
519.808	12355.49
520.175	12231.2
520.542	12378.32
520.909	12273.24
521.276	12435.72
521.643	12320.47
522.009	12458.09
522.376	12475.27
522.743	12431.2
523.11	12420.58
523.477	12538.77
523.843	12559.78
524.21	12610.4
524.577	12646.56
524.943	12681.14
525.31	12625.54
525.676	12733.56
526.043	12704.64
526.409	12777.63
526.776	12724.3
527.142	12775.82
527.508	12746.22
527.874	12771.3
528.241	12750.06
528.607	12756.84
528.973	12809.04
529.339	12751.42
529.705	12759.33
530.071	12766.11
530.437	12758.2
530.803	12714.13
531.169	12728.59
531.535	12721.13
531.901	12684.53
532.267	12687.01
532.632	12588.71
532.998	12616.28
533.364	12653.34
533.73	12593.23
534.095	12648.59
534.461	12585.54
534.826	12560.69
535.192	12492.44
535.557	12587.8
535.923	12462.84
536.288	12450.63
536.653	12341.48
537.019	12402.5
537.384	12263.97
537.749	12371.77
538.114	12296.51
538.479	12287.93
538.845	12182.62
539.21	12139.68
539.575	12139.68
539.94	12172
540.305	12149.17
540.67	12004.09
541.034	12017.2
541.399	12036.41
541.764	11938.1
542.129	11885.9
542.494	11917.77
542.858	11868.05
543.223	11794.61
543.587	11774.94
543.952	11714.61
544.316	11701.95
544.681	11588.73
545.045	11711.9
545.41	11625.8
545.774	11523.65
546.138	11444.33
546.503	11487.95
546.867	11404.11
547.231	11371.34
547.595	11361.85
547.959	11354.84
548.324	11200.5
548.688	11267.84
549.052	11193.49
549.416	11118.01
549.779	11118.69
550.143	11135.19
550.507	11095.87
550.871	10972.25
551.235	10959.6
551.599	10925.7
551.962	10940.84
552.326	10924.35
552.689	10918.02
553.053	10769.77
553.417	10812.03
553.78	10854.74
554.143	10776.1
554.507	10753.05
554.87	10724.8
555.234	10795.31
555.597	10650.91
555.96	10585.82
556.323	10572.26
556.686	10573.17
557.05	10559.61
557.413	10571.13
557.776	10483.68
558.139	10513.96
558.502	10484.58
558.865	10457.01
559.228	10549.44
559.59	10446.39
559.953	10416.11
560.316	10548.76
560.679	10465.6
561.041	10444.13
561.404	10367.75
561.767	10424.02
562.129	10381.99
562.492	10450.91
562.854	10503.34
563.217	10399.39
563.579	10436.22
563.941	10339.73
564.304	10413.4
564.666	10388.77
565.028	10366.17
565.39	10367.3
565.753	10450.69
566.115	10433.51
566.477	10399.84
566.839	10424.92
567.201	10374.08
567.563	10380.41
567.925	10443.23
568.287	10425.6
568.648	10440.06
569.01	10440.74
569.372	10501.53
569.734	10453.4
570.095	10447.3
570.457	10475.09
570.819	10494.3
571.18	10534.98
571.542	10480.74
571.903	10468.31
572.265	10534.75
572.626	10535.66
572.987	10580.63
573.349	10462.89
573.71	10465.15
574.071	10485.49
574.432	10466.05
574.794	10542.89
575.155	10539.5
575.516	10445.71
575.877	10495.66
576.238	10499.05
576.599	10509.44
576.96	10522.32
577.32	10468.76
577.681	10525.94
578.042	10538.59
578.403	10498.37
578.763	10542.66
579.124	10573.62
579.485	10520.97
579.845	10533.62
580.206	10553.96
580.566	10582.43
580.927	10569.33
581.287	10480.97
581.648	10474.19
582.008	10581.98
582.368	10520.74
582.728	10480.06
583.089	10473.06
583.449	10420.86
583.809	10572.94
584.169	10432.38
584.529	10525.71
584.889	10414.98
585.249	10362.55
585.609	10401.2
585.969	10444.36
586.329	10379.05
586.688	10453.85
587.048	10436.9
587.408	10405.04
587.768	10399.16
588.127	10358.71
588.487	10347.19
588.846	10362.1
589.206	10274.65
589.565	10337.92
589.925	10321.42
590.284	10278.94
590.643	10335.43
591.003	10307.41
591.362	10326.4
591.721	10351.93
592.08	10331.37
592.44	10299.28
592.799	10246.17
593.158	10308.09
593.517	10280.97
593.876	10213.4
594.235	10250.24
594.593	10247.53
594.952	10243.46
595.311	10156.68
595.67	10246.4
596.029	10283.01
596.387	10160.07
596.746	10250.01
597.104	10190.35
597.463	10187.87
597.822	10204.36
598.18	10175.21
598.538	10134.08
598.897	10191.71
599.255	10094.54
599.613	10297.24
599.972	10167.76
600.33	10172.27
600.688	10120.75
601.046	10230.8
601.404	10188.77
601.762	10187.42
602.12	10193.97
602.478	10221.54
602.836	10219.51
603.194	10143.35
603.552	10186.96
603.91	10172.5
604.268	10191.48
604.625	10131.15
604.983	10146.96
605.341	10106.06
605.698	10106.74
606.056	10194.65
606.413	10076.01
606.771	10161.43
607.128	10181.09
607.485	10120.3
607.843	10158.72
608.2	10123.91
608.557	10254.31
608.914	10238.94
609.272	10158.94
609.629	10141.32
609.986	10204.59
610.343	10228.54
610.7	10221.54
611.057	10226.51
611.414	10197.81
611.771	10181.31
612.127	10200.07
612.484	10269.22
612.841	10251.14
613.198	10266.74
613.554	10233.74
613.911	10247.98
614.267	10285.94
614.624	10322.78
614.98	10278.03
615.337	10335.43
615.693	10272.61
616.05	10326.62
616.406	10340.63
616.762	10301.31
617.118	10270.58
617.475	10317.36
617.831	10309.22
618.187	10348.09
618.543	10318.03
618.899	10384.47
619.255	10370.69
619.611	10378.37
619.967	10450.91
620.323	10485.94
620.678	10396.68
621.034	10331.14
621.39	10333.85
621.746	10361.2
622.101	10397.13
622.457	10387.41
622.812	10443.23
623.168	10400.29
623.523	10425.38
623.879	10441.42
624.234	10328.43
624.589	10418.82
624.945	10363.46
625.3	10388.54
625.655	10388.54
626.01	10441.87
626.365	10349.22
626.72	10349.22
627.075	10336.34
627.43	10339.73
627.785	10329.56
628.14	10380.18
628.495	10302.21
628.85	10341.31
629.205	10315.32
629.559	10356.9
629.914	10273.97
630.269	10289.56
630.623	10251.14
630.978	10231.03
631.332	10316
631.687	10318.71
632.041	10250.46
632.396	10297.24
632.75	10196.46
633.104	10213.86
633.459	10216.12
633.813	10173.4
634.167	10158.72
634.521	10263.57
634.875	10173.86
635.229	10190.35
635.583	10139.06
635.937	10106.74
636.291	10074.65
636.645	10085.95
636.999	10046.85
637.352	10095.89
637.706	10049.79
638.06	10010.92
638.413	10021.32
638.767	10034.88
639.121	10053.18
639.474	9918.5
639.828	9994.2
640.181	9983.58
640.534	10000.75
640.888	9945.84
641.241	9929.34
641.594	9885.28
641.947	9978.38
642.301	9878.5
642.654	9942.22
643.007	9902
643.36	9884.6
643.713	9901.32
644.066	9939.96
644.419	9817.26
644.771	9794.66
645.124	9715.34
645.477	9752.4
645.83	9585.85
646.182	9594.21
646.535	9578.39
646.888	9643.7
647.24	9535.23
647.593	9566.19
647.945	9534.55
648.298	9522.35
648.65	9521.44
649.002	9441.9
649.355	9549.69
649.707	9488.9
650.059	9594.89
650.411	9629.46
650.763	9674.66
651.115	9706.98
651.467	9796.01
651.819	9734.32
652.171	9759.63
652.523	9695
652.875	9732.96
653.227	9707.88
653.578	9800.76
653.93	9704.94
654.282	9710.37
654.633	9709.01
654.985	9710.59
655.337	9730.25
655.688	9749.01
656.039	9801.44
656.391	9712.17
656.742	9742.91
657.094	9796.92
657.445	9814.32
657.796	9786.97
658.147	9778.84
658.498	9765.05
658.849	9739.29
659.2	9739.52
659.551	9727.54
659.902	9761.21
660.253	9776.58
660.604	9819.74
660.955	9758.95
661.306	9777.26
661.656	9771.83
662.007	9816.8
662.358	9846.86
662.708	9760.31
663.059	9831.04
663.409	9745.85
663.76	9827.43
664.11	9764.6
664.461	9797.82
664.811	9831.04
665.161	9850.48
665.511	9787.43
665.862	9801.21
666.212	9906.97
666.562	9839.4
666.912	9762.34
667.262	9796.24
667.612	9829.91
667.962	9843.24
668.312	9810.7
668.662	9865.84
669.011	9796.01
669.361	9727.09
669.711	9737.03
670.06	9740.65
670.41	9800.99
670.76	9782
671.109	9805.5
671.459	9765.73
671.808	9765.51
672.157	9720.31
672.507	9705.85
672.856	9673.76
673.205	9734.77
673.554	9722.57
673.904	9687.77
674.253	9717.6
674.602	9695.9
674.951	9615
675.3	9566.64
675.649	9677.82
675.998	9675.11
676.346	9644.61
676.695	9630.14
677.044	9600.09
677.393	9646.64
677.741	9585.4
678.09	9612.06
678.438	9559.64
678.787	9612.06
679.135	9537.26
679.484	9528.45
679.832	9504.04
680.181	9512.18
680.529	9549.01
680.877	9444.61
681.225	9441.9
681.573	9536.81
681.922	9403.03
682.27	9423.37
682.618	9412.52
682.966	9427.89
683.314	9407.1
683.661	9408.91
684.009	9346.76
684.357	9352.64
684.705	9343.82
685.053	9226.54
685.4	9271.51
685.748	9207.1
686.095	9203.03
686.443	9124.62
686.79	9144.28
687.138	9149.48
687.485	9206.42
687.832	9166.43
688.18	9147.44
688.527	9057.5
688.874	9043.04
689.221	9069.03
689.568	8942.02
689.915	8960.1
690.262	8994
690.609	8920.78
690.956	8876.94
691.303	8846.66
691.65	8797.62
691.997	8830.16
692.344	8742.26
692.69	8761.69
693.037	8721.69
693.383	8651.64
693.73	8702.48
694.077	8589.49
694.423	8646.89
694.769	8558.98
695.116	8542.04
695.462	8569.15
695.808	8457.74
696.155	8559.89
696.501	8481.92
696.847	8388.59
697.193	8406.67
697.539	8413.9
697.885	8332.78
698.231	8299.33
698.577	8285.32
698.923	8289.39
699.269	8257.07
699.614	8171.2
699.96	8170.07
700.306	8132.33
700.651	8113.12
700.997	8064.53
701.342	8039
701.688	7978.21
702.033	7993.12
702.379	8015.72
702.724	7996.06
703.069	7919.68
703.415	7907.48
703.76	7856.18
704.105	7829.74
704.45	7872.67
704.795	7728.05
705.14	7781.15
705.485	7690.31
705.83	7694.37
706.175	7712.45
706.52	7648.5
706.865	7622.51
707.209	7613.92
707.554	7572.12
707.899	7608.73
708.243	7523.08
708.588	7490.99
708.932	7405.12
709.277	7479.24
709.621	7487.6
709.966	7457.09
710.31	7400.14
710.654	7356.3
710.998	7372.12
711.342	7384.78
711.687	7337.1
712.031	7245.35
712.375	7274.05
712.719	7272.24
713.063	7232.47
713.407	7192.24
713.75	7235.85
714.094	7177.33
714.438	7161.28
714.782	7242.18
715.125	7095.75
715.469	7168.74
715.812	7118.8
716.156	7100.94
716.499	7037.67
716.843	7119.25
717.186	7024.11
717.53	7119.7
717.873	7119.7
718.216	7020.04
718.559	7037.44
718.902	6975.52
719.246	7024.56
719.589	7010.55
719.932	6994.96
720.275	6956.77
720.617	6942.76
720.96	6959.7
721.303	6926.03
721.646	6927.16
721.989	6925.13
722.331	6957.44
722.674	6924.68
723.016	6949.99
723.359	6925.35
723.701	6930.1
724.044	6899.59
724.386	6883.32
724.729	6871.57
725.071	6854.17
725.413	6886.03
725.755	6908.18
726.097	6848.97
726.439	6795.19
726.782	6875.64
727.124	6856.43
727.465	6808.3
727.807	6848.07
728.149	6793.38
728.491	6845.36
728.833	6817.33
729.175	6822.08
729.516	6802.65
729.858	6790.44
730.199	6772.82
730.541	6787.05
730.882	6792.93
731.224	6781.18
731.565	6776.43
731.906	6727.85
732.248	6836.54
732.589	6763.78
732.93	6767.62
733.271	6750.44
733.612	6800.84
733.953	6736.43
734.294	6801.97
734.635	6725.36
734.976	6811.91
735.317	6740.05
735.658	6754.74
735.999	6787.51
736.339	6778.92
736.68	6841.06
737.021	6786.38
737.361	6801.29
737.702	6789.31
738.042	6798.13
738.383	6826.6
738.723	6884.45
739.063	6780.5
739.404	6855.75
739.744	6900.72
740.084	6873.38
740.424	6859.82
740.764	6854.17
741.104	6838.13
741.444	6920.83
741.784	6852.59
742.124	6926.71
742.464	6956.99
742.804	6963.77
743.143	6990.44
743.483	6966.48
743.823	6982.3
744.162	7061.85
744.502	7080.15
744.841	7097.33
745.181	7159.25
745.52	7168.51
745.86	7189.75
746.199	7179.13
746.538	7342.97
746.877	7353.14
747.216	7366.47
747.556	7367.6
747.895	7428.84
748.234	7423.42
748.573	7460.03
748.911	7533.25
749.25	7617.09
749.589	7717.65
749.928	7774.15
750.267	7778.67
750.605	7876.29
750.944	7958.1
751.283	7936.4
751.621	8138.43
751.96	8144.53
752.298	8307.24
752.636	8280.57
752.975	8434.24
753.313	8535.48
753.651	8599.89
753.989	8699.32
754.327	8793.1
754.666	8939.99
755.004	9069.25
755.342	9139.31
755.679	9265.18
756.017	9339.08
756.355	9494.78
756.693	9586.75
757.031	9723.02
757.368	9911.49
757.706	10012.05
758.044	10168.66
758.381	10292.95
758.719	10432.16
759.056	10659.95
759.394	10703.56
759.731	10865.36
760.068	11058.35
760.405	11216.77
760.743	11339.25
761.08	11516.65
761.417	11624.67
761.754	11799.8
762.091	12004.77
762.428	12085.67
762.765	12316.85
763.102	12521.37
763.438	12583.51
763.775	12774.01
764.112	12960.68
764.449	13172.65
764.785	13283.61
765.122	13386.2
765.458	13532.64
765.795	13763.59
766.131	13913.42
766.467	13957.49
766.804	14100.08
767.14	14240.19
767.476	14439.51
767.812	14491.48
768.148	14726.51
768.485	14811.7
768.821	14955.65
769.157	15037.68
769.492	15248.75
769.828	15315.64
770.164	15427.73
770.5	15491.91
770.836	15664.33
771.171	15714.95
771.507	15792.01
771.842	15923.76
772.178	16003.31
772.513	16039.92
772.849	16165.56
773.184	16266.58
773.519	16393.81
773.855	16405.78
774.19	16459.79
774.525	16587.47
774.86	16693.91
775.195	16647.58
775.53	16798.09
775.865	16786.11
776.2	16829.28
776.535	16812.78
776.87	16941.81
777.205	16955.6
777.539	17075.14
777.874	16977.97
778.209	17009.84
778.543	17112.88
778.878	17153.79
779.212	17166.89
779.547	17078.31
779.881	17264.29
780.215	17238.3
780.55	17318.53
780.884	17305.65
781.218	17239.43
781.552	17268.81
781.886	17301.35
782.22	17242.6
782.554	17217.29
782.888	17186.78
783.222	17192.66
783.556	17178.64
783.889	17211.86
784.223	17068.14
784.557	17170.73
784.89	17225.87
785.224	17139.78
785.557	17199.89
785.891	17072.66
786.224	17059.78
786.558	17214.58
786.891	17050.51
787.224	17119.66
787.557	17158.76
787.891	17066.33
788.224	17059.1
788.557	17159.89
788.89	17138.87
789.223	17115.14
789.556	17006.9
789.888	17025.43
790.221	17009.84
790.554	16892.32
790.887	16933.45
791.219	16795.15
791.552	16909.5
791.884	16770.29
792.217	16784.53
792.549	16790.18
792.882	16592.67
793.214	16590.64
793.546	16649.39
793.879	16561.94
794.211	16526.91
794.543	16522.16
794.875	16669.51
795.207	16598.77
795.539	16455.05
795.871	16510.41
796.203	16400.13
796.535	16326.24
796.867	16384.31
797.198	16279.23
797.53	16309.97
797.862	16185.9
798.193	16280.36
798.525	16090.31
798.856	16264.32
799.188	15992.23
799.519	15995.17
799.85	15942.97
800.182	16016.19
800.513	16022.06
800.844	15832.47
801.175	15930.77
801.506	16027.94
801.837	15917.43
802.168	15885.12
802.499	15728.29
802.83	15692.36
803.161	15572.36
803.491	15710.43
803.822	15644.22
804.153	15598.57
804.483	15484.9
804.814	15415.07
805.145	15438.58
805.475	15410.78
805.805	15355.87
806.136	15357.45
806.466	15360.61
806.796	15326.72
807.126	15227.06
807.457	15249.66
807.787	15185.7
808.117	15159.94
808.447	15174.18
808.777	15198.58
809.107	15110
809.436	14964.92
809.766	14980.28
810.096	14996.1
810.426	14970.79
810.755	14959.72
811.085	14922.21
811.414	14851.02
811.744	14757.01
812.073	14817.12
812.403	14760.63
812.732	14620.07
813.061	14681.53
813.39	14656
813.719	14609.67
814.049	14657.35
814.378	14594.98
814.707	14520.41
815.036	14603.8
815.365	14409.23
815.693	14323.13
816.022	14446.74
816.351	14438.15
816.68	14331.71
817.008	14376.91
817.337	14219.63
817.665	14300.53
817.994	14238.83
818.322	14190.47
818.651	14185.73
818.979	14090.59
819.307	14260.08
819.636	14107.99
819.964	14119.29
820.292	14155.45
820.62	14065.28
820.948	14037.48
821.276	14051.72
821.604	14031.16
821.932	14142.11
822.259	14082
822.587	13977.82
822.915	14069.8
823.243	14049.91
823.57	14085.84
823.898	14108.44
824.225	13960.42
824.553	14040.42
824.88	14030.25
825.207	14071.61
825.535	14083.36
825.862	13999.07
826.189	14038.84
826.516	14098.95
826.843	14127.88
827.17	14117.71
827.497	14080.19
827.824	14091.95
828.151	14117.03
828.478	14044.04
828.805	14108.67
829.131	14147.09
829.458	14119.29
829.785	14028.44
830.111	14056.01
830.438	14122
830.764	14140.53
831.09	14131.72
831.417	13981.89
831.743	14159.29
832.069	14091.27
832.395	13958.84
832.722	14090.82
833.048	13992.29
833.374	14070.25
833.7	14044.04
834.026	13976.02
834.351	14006.52
834.677	13928.79
835.003	14047.2
835.329	13992.97
835.654	13949.8
835.98	13870.71
836.306	13912.06
836.631	13797.72
836.956	13834.78
837.282	13924.27
837.607	13777.6
837.932	13743.25
838.258	13811.73
838.583	13814.67
838.908	13686.08
839.233	13776.93
839.558	13646.53
839.883	13629.59
840.208	13656.03
840.533	13662.58
840.858	13620.09
841.182	13560.21
841.507	13551.17
841.832	13615.8
842.156	13498.97
842.481	13436.37
842.805	13459.19
843.13	13444.28
843.454	13408.8
843.778	13337.62
844.103	13333.55
844.427	13290.84
844.751	13319.99
845.075	13241.35
845.399	13206.77
845.723	13113.67
846.047	13173.1
846.371	13082.93
846.695	13040
847.019	12973.56
847.343	12903.28
847.666	12840.91
847.99	12836.16
848.313	12816.73
848.637	12711.19
848.96	12660.12
849.284	12607.24
849.607	12571.76
849.931	12460.35
850.254	12457.41
850.577	12430.29
850.9	12330.41
851.223	12383.29
851.546	12270.3
851.869	12177.19
852.192	12160.02
852.515	12066.01
852.838	12020.59
853.161	12092.22
853.483	12005.45
853.806	11934.49
854.129	11859.69
854.451	11819.01
854.774	11795.06
855.096	11787.15
855.419	11753.48
855.741	11736.08
856.063	11648.62
856.385	11668.51
856.708	11541.05
857.03	11545.8
857.352	11512.13
857.674	11500.6
857.996	11463.31
858.318	11424.22
858.64	11492.47
858.961	11376.76
859.283	11366.37
859.605	11327.5
859.926	11322.75
860.248	11262.42
860.57	11239.82
860.891	11192.59
861.212	11125.7
861.534	11114.4
861.855	11033.5
862.176	11143.32
862.498	11087.96
862.819	11041.18
863.14	11000.5
863.461	11026.04
863.782	10977
864.103	10961.18
864.424	10916.66
864.745	10887.96
865.065	10886.61
865.386	10901.52
865.707	10902.2
866.027	10859.94
866.348	10798.25
866.668	10824.01
866.989	10833.73
867.309	10793.28
867.63	10807.29
867.95	10723.67
868.27	10660.62
868.59	10608.2
868.91	10712.37
869.23	10669.89
869.55	10629.44
869.87	10678.48
870.19	10568.65
870.51	10705.14
870.83	10637.8
871.15	10569.55
871.469	10576.78
871.789	10583.11
872.109	10585.82
872.428	10485.71
872.748	10509.22
873.067	10499.95
873.386	10512.83
873.706	10436.67
874.025	10328.65
874.344	10384.25
874.663	10406.39
874.982	10416.56
875.301	10322.1
875.62	10312.61
875.939	10269.45
876.258	10304.93
876.577	10305.6
876.896	10306.06
877.214	10297.47
877.533	10263.8
877.852	10241.43
878.17	10184.03
878.489	10233.29
878.807	10108.1
879.125	10178.15
879.444	10172.95
879.762	10143.12
880.08	10121.65
880.398	10101.32
880.716	10099.28
881.034	10013.18
881.352	10016.57
881.67	9990.13
881.988	9934.32
882.306	9986.29
882.624	9928.89
882.941	9859.74
883.259	9872.17
883.577	9878.27
883.894	9790.82
884.212	9769.35
884.529	9813.64
884.846	9778.16
885.164	9734.32
885.481	9698.84
885.798	9722.12
886.115	9635.34
886.432	9678.95
886.75	9591.27
887.067	9652.97
887.383	9584.95
887.7	9600.54
888.017	9564.83
888.334	9583.59
888.651	9480.09
888.967	9475.57
889.284	9449.13
889.6	9378.85
889.917	9330.26
890.233	9322.35
890.55	9328.46
890.866	9405.97
891.182	9310.15
891.498	9199.19
891.815	9256.14
892.131	9226.54
892.447	9202.81
892.763	9156.26
893.079	9146.31
893.395	9168.46
893.71	9045.75
894.026	9078.97
894.342	8980.89
894.657	8958.07
894.973	9023.38
895.289	8993.1
895.604	8903.83
895.92	8870.84
896.235	8825.19
896.55	8843.5
896.865	8796.27
897.181	8811.63
897.496	8783.16
897.811	8687.79
898.126	8638.76
898.441	8647.8
898.756	8605.08
899.071	8560.11
899.386	8504.52
899.7	8445.31
900.015	8415.26
900.33	8387.46
900.644	8396.73
900.959	8419.1
901.273	8363.51
901.588	8337.29
901.902	8228.37
902.216	8163.74
902.531	8253.23
902.845	8215.04
903.159	8143.18
903.473	8102.05
903.787	8098.66
904.101	8056.17
904.415	8080.8
904.729	8078.32
905.042	7945.67
905.356	7969.62
905.67	7952.22
905.984	7960.36
906.297	7840.13
906.611	7854.37
906.924	7845.33
907.237	7875.39
907.551	7754.94
907.864	7714.26
908.177	7689.18
908.491	7646.01
908.804	7598.78
909.117	7568.05
909.43	7438.79
909.743	7495.51
910.056	7482.4
910.368	7431.33
910.681	7461.61
910.994	7374.38
911.307	7373.7
911.619	7299.58
911.932	7303.88
912.244	7240.37
912.557	7191.11
912.869	7184.56
913.181	7188.17
913.494	7199.92
913.806	7133.03
914.118	7088.06
914.43	7003.09
914.742	7019.36
915.054	6972.81
915.366	6980.49
915.678	6959.03
915.99	6926.71
916.302	6848.75
916.613	6857.79
916.925	6815.75
917.236	6860.95
917.548	6808.3
917.859	6770.78
918.171	6823.89
918.482	6682.42
918.794	6655.98
919.105	6631.13
919.416	6594.06
919.727	6674.97
920.038	6598.81
920.349	6512.03
920.66	6530.79
920.971	6494.86
921.282	6429.77
921.593	6460.06
921.903	6439.49
922.214	6392.49
922.525	6397.68
922.835	6302.55
923.146	6266.16
923.456	6291.25
923.767	6240.4
924.077	6247.41
924.387	6226.39
924.697	6181.19
925.008	6147.07
925.318	6122.89
925.628	6102.78
925.938	6065.04
926.248	6049.22
926.558	5983.46
926.867	5955.21
927.177	5976
927.487	5978.03
927.796	5882.22
928.106	5874.99
928.416	5840.41
928.725	5861.2
929.034	5819.62
929.344	5819.85
929.653	5790.92
929.962	5760.41
930.271	5739.17
930.581	5658.27
930.89	5664.14
931.199	5620.76
931.508	5653.98
931.817	5652.62
932.125	5624.6
932.434	5562.9
932.743	5576.46
933.051	5546.86
933.36	5534.66
933.669	5462.79
933.977	5482.23
934.286	5485.39
934.594	5464.83
934.902	5397.49
935.21	5372.18
935.519	5413.76
935.827	5359.97
936.135	5284.04
936.443	5277.71
936.751	5267.55
937.059	5295.79
937.367	5192.29
937.674	5205.17
937.982	5195.68
938.29	5144.38
938.597	5160.2
938.905	5076.59
939.213	5062.58
939.52	5074.78
939.827	5072.75
940.135	5029.59
940.442	5034.56
940.749	5010.38
941.056	4977.38
941.363	4947.33
941.67	4950.49
941.977	4902.13
942.284	4854.45
942.591	4844.96
942.898	4869.36
943.205	4796.15
943.511	4797.27
943.818	4807.9
944.125	4734.68
944.431	4717.05
944.738	4690.61
945.044	4708.92
945.35	4686.09
945.657	4686.54
945.963	4635.25
946.269	4606.77
946.575	4586.21
946.881	4585.08
947.187	4581.46
947.493	4585.53
947.799	4510.73
948.105	4545.3
948.41	4528.36
948.716	4447.91
949.022	4432.54
949.327	4447.91
949.633	4386.44
949.938	4385.76
950.244	4342.6
950.549	4300.34
950.854	4331.07
951.16	4286.1
951.465	4313.67
951.77	4271.41
952.075	4278.42
952.38	4233.45
952.685	4220.79
952.99	4187.12
953.294	4195.48
953.599	4166.56
953.904	4181.02
954.209	4170.85
954.513	4113
954.818	4091.53
955.122	4083.62
955.426	4074.36
955.731	4082.72
956.035	4081.14
956.339	4028.71
956.643	4011.76
956.948	3962.27
957.252	3967.92
957.556	3950.97
957.86	3933.79
958.163	3956.62
958.467	3894.02
958.771	3891.76
959.075	3899.22
959.378	3844.76
959.682	3842.05
959.985	3843.4
960.289	3776.96
960.592	3799.79
960.896	3795.27
961.199	3745.1
961.502	3737.19
961.805	3715.04
962.108	3674.59
962.411	3655.16
962.714	3666.46
963.017	3626.01
963.32	3611.09
963.623	3619.23
963.926	3637.98
964.228	3576.97
964.531	3565.89
964.833	3588.04
965.136	3517.99
965.438	3522.05
965.741	3472.34
966.043	3516.63
966.345	3454.26
966.648	3458.1
966.95	3455.62
967.252	3424.2
967.554	3414.26
967.856	3401.15
968.158	3381.72
968.46	3351.89
968.761	3359.35
969.063	3355.5
969.365	3360.02
969.666	3323.87
969.968	3303.53
970.269	3292.68
970.571	3288.61
970.872	3293.13
971.174	3245.45
971.475	3247.94
971.776	3223.98
972.077	3190.76
972.378	3206.58
972.679	3215.17
972.98	3127.04
973.281	3144.89
973.582	3156.87
973.883	3139.47
974.183	3125.68
974.484	3094.27
974.785	3058.79
975.085	3075.96
975.386	3078.45
975.686	3028.96
975.986	3057.43
976.287	3051.33
976.587	2972.01
976.887	2924.56
977.187	2964.78
977.487	3000.03
977.787	2967.72
978.087	2954.39
978.387	2910.54
978.687	2926.36
978.987	2896.31
979.286	2887.27
979.586	2861.28
979.885	2864.22
980.185	2835.52
980.484	2832.13
980.784	2838.46
981.083	2793.26
981.382	2800.04
981.682	2773.6
981.981	2787.16
982.28	2787.61
982.579	2754.62
982.878	2772.24
983.177	2707.61
983.475	2746.03
983.774	2713.71
984.073	2667.84
984.372	2689.31
984.67	2683.66
984.969	2674.17
985.267	2639.59
985.566	2628.74
985.864	2611.57
986.162	2623.55
986.461	2602.3
986.759	2572.7
987.057	2560.05
987.355	2553.49
987.653	2551.46
987.951	2544.45
988.249	2548.75
988.547	2521.18
988.844	2541.97
989.142	2478.47
989.44	2470.33
989.737	2469.88
990.035	2430.11
990.332	2418.13
990.63	2422.42
990.927	2419.48
991.224	2422.65
991.521	2445.02
991.819	2389.88
992.116	2385.59
992.413	2369.77
992.71	2373.38
993.006	2373.38
993.303	2302.2
993.6	2330
993.897	2320.28
994.193	2286.83
994.49	2269.43
994.787	2271.24
995.083	2270.56
995.379	2247.74
995.676	2264.01
995.972	2253.16
996.268	2252.71
996.565	2224.01
996.861	2239.15
997.157	2221.3
997.453	2190.34
997.749	2170.68
998.044	2168.42
998.34	2171.36
998.636	2196.44
998.932	2120.28
999.227	2106.72
999.523	2129.55
999.818	2071.02
1000.114	2092.94
1000.409	2035.77
1000.704	2071.24
1001	2049.55
1001.295	2042.09
1001.59	2028.31
1001.885	2023.79
1002.18	2009.78
1002.475	2000.96
1002.77	2007.52
1003.065	1952.15
1003.359	1952.38
1003.654	1971.13
1003.949	1941.3
1004.243	1922.32
1004.538	1922.1
1004.832	1929.33
1005.127	1909.44
1005.421	1901.08
1005.715	1881.42
1006.009	1874.19
1006.304	1882.78
1006.598	1808.88
1006.892	1860.86
1007.186	1823.79
1007.48	1799.16
1007.773	1836.67
1008.067	1786.96
1008.361	1795.55
1008.655	1790.35
1008.948	1745.6
1009.242	1762.1
1009.535	1760.97
1009.829	1743.8
1010.122	1721.2
1010.415	1742.67
1010.708	1737.47
1011.001	1669.67
1011.295	1699.5
1011.588	1679.62
1011.881	1708.54
1012.173	1652.72
1012.466	1630.13
1012.759	1640.75
1013.052	1652.5
1013.344	1644.82
1013.637	1622.22
1013.93	1619.96
1014.222	1600.52
1014.514	1603.69
1014.807	1576.79
1015.099	1564.37
1015.391	1586.51
1015.683	1532.95
1015.976	1550.58
1016.268	1527.08
1016.56	1543.12
1016.851	1491.6
1017.143	1529.79
1017.435	1522.11
1017.727	1487.98
1018.018	1500.86
1018.31	1480.07
1018.602	1480.75
1018.893	1449.11
1019.185	1453.41
1019.476	1418.38
1019.767	1408.89
1020.058	1410.02
1020.35	1389.23
1020.641	1384.26
1020.932	1403.69
1021.223	1393.07
1021.514	1356.24
1021.804	1354.43
1022.095	1340.87
1022.386	1342
1022.677	1345.61
1022.967	1347.42
1023.258	1325.73
1023.548	1290.25
1023.839	1312.17
1024.129	1311.49
1024.419	1309.23
1024.709	1278.05
1025	1266.29
1025.29	1257.93
1025.58	1266.29
1025.87	1253.19
1026.16	1250.48
1026.449	1236.92
1026.739	1200.08
1027.029	1186.52
1027.319	1194.43
1027.608	1191.04
1027.898	1179.97
1028.187	1171.38
1028.477	1163.02
1028.766	1145.39
1029.055	1154.88
1029.344	1155.79
1029.634	1142.46
1029.923	1144.49
1030.212	1140.65
1030.501	1110.59
1030.79	1109.91
1031.078	1116.92
1031.367	1112.63
1031.656	1106.98
1031.945	1062.46
1032.233	1084.6
1032.522	1084.83
1032.81	1064.72
1033.099	1072.18
1033.387	1058.16
1033.675	1056.58
1033.963	1036.7
1034.251	1023.81
1034.54	1034.89
1034.828	1005.06
1035.116	1001.67
1035.403	1013.42
1035.691	1016.36
1035.979	1015.23
1036.267	949.92
1036.554	985.85
1036.842	979.07
1037.129	1000.31
1037.417	963.25
1037.704	960.54
1037.992	946.53
1038.279	963.25
1038.566	949.92
1038.853	949.92
1039.14	949.92
