Data from hue_300_FLMS001491_00029.txt Node
Date: Tue Feb 07 15:50:31 GMT 2017
User: dcchb
Spectrometer: FLMS00149
Trigger mode: 0
Integration Time (sec): 2.000000E-2
Scans to average: 10
Electric dark correction enabled: true
Nonlinearity correction enabled: false
Boxcar width: 0
XAxis mode: Wavelengths
Number of Pixels in Spectrum: 2048
>>>>>Begin Spectral Data<<<<<
341.393	-22.94
341.776	-22.94
342.16	-22.94
342.543	-60.68
342.927	-76.95
343.31	-67.46
343.693	-81.01
344.077	-62.48
344.46	-62.71
344.843	-42.37
345.226	-53.67
345.61	-31.3
345.993	-14.12
346.376	-31.52
346.759	10.06
347.142	19.55
347.525	60.9
347.908	64.74
348.291	94.12
348.674	95.7
349.057	101.58
349.44	116.72
349.823	123.5
350.206	167.11
350.588	211.18
350.971	187.45
351.354	191.75
351.737	235.14
352.119	245.98
352.502	285.76
352.884	258.86
353.267	267.9
353.65	268.35
354.032	312.65
354.414	280.56
354.797	285.76
355.179	298.18
355.562	326.66
355.944	310.84
356.326	329.14
356.709	300.67
357.091	329.14
357.473	317.17
357.855	343.61
358.238	353.78
358.62	328.69
359.002	312.42
359.384	329.37
359.766	344.28
360.148	328.24
360.53	308.13
360.912	323.27
361.294	337.05
361.676	326.21
362.057	316.26
362.439	321.01
362.821	331.4
363.203	325.3
363.584	306.55
363.966	307
364.348	321.69
364.729	310.84
365.111	304.51
365.493	304.06
365.874	328.01
366.256	308.81
366.637	310.84
367.019	305.87
367.4	294.34
367.781	308.81
368.163	306.77
368.544	297.05
368.925	289.37
369.306	300.9
369.688	306.77
370.069	311.97
370.45	301.8
370.831	317.62
371.212	293.21
371.593	325.08
371.974	321.91
372.355	300.67
372.736	311.52
373.117	304.06
373.498	309.94
373.879	301.57
374.26	309.26
374.641	292.31
375.021	320.1
375.402	311.52
375.783	305.19
376.163	297.28
376.544	324.62
376.925	320.1
377.305	321.91
377.686	319.65
378.066	320.78
378.447	320.56
378.827	315.58
379.208	335.92
379.588	327.56
379.968	329.82
380.349	328.01
380.729	319.43
381.109	331.86
381.489	323.49
381.87	338.41
382.25	341.35
382.63	332.08
383.01	330.95
383.39	313.78
383.77	332.76
384.15	327.11
384.53	332.53
384.91	327.34
385.29	362.14
385.67	329.37
386.049	351.29
386.429	327.56
386.809	360.33
387.189	339.99
387.568	350.61
387.948	372.76
388.328	337.96
388.707	324.85
389.087	338.64
389.466	354.68
389.846	349.48
390.225	375.24
390.605	363.04
390.984	351.29
391.363	362.36
391.743	369.37
392.122	374.11
392.501	356.94
392.881	355.13
393.26	363.04
393.639	359.65
394.018	375.24
394.397	378.41
394.776	403.49
395.155	362.82
395.534	365.75
395.913	378.41
396.292	379.99
396.671	380.89
397.05	385.64
397.429	375.47
397.808	388.35
398.186	371.4
398.565	382.93
398.944	401.23
399.323	391.06
399.701	413.44
400.08	419.54
400.458	412.53
400.837	421.8
401.215	423.38
401.594	398.52
401.972	408.69
402.351	432.42
402.729	409.59
403.107	423.6
403.486	430.16
403.864	415.92
404.242	424.73
404.62	429.48
404.999	449.14
405.377	415.47
405.755	430.84
406.133	445.53
406.511	454.11
406.889	459.08
407.267	440.55
407.645	459.54
408.023	463.6
408.401	480.78
408.779	493.89
409.156	502.02
409.534	487.11
409.912	502.7
410.29	515.81
410.667	508.57
411.045	521.46
411.422	542.92
411.8	536.6
412.178	516.71
412.555	543.15
412.933	547.67
413.31	568.91
413.687	549.93
414.065	568.23
414.442	579.08
414.819	605.07
415.197	601.91
415.574	608.01
415.951	598.97
416.328	626.99
416.705	618.4
417.082	643.26
417.46	645.52
417.837	669.93
418.214	663.37
418.591	667.44
418.967	703.6
419.344	680.55
419.721	719.19
420.098	716.48
420.475	733.88
420.852	756.93
421.228	719.42
421.605	759.64
421.982	739.53
422.358	761
422.735	780.88
423.111	763.93
423.488	784.5
423.864	774.33
424.241	799.87
424.617	823.37
424.994	818.62
425.37	816.36
425.746	838.96
426.123	830.83
426.499	864.95
426.875	864.95
427.251	870.82
427.627	876.47
428.003	897.94
428.379	917.38
428.756	918.96
429.132	947.66
429.507	944.49
429.883	947.43
430.259	968
430.635	997.6
431.011	983.14
431.387	1004.83
431.763	1015.68
432.138	1013.65
432.514	1021.78
432.89	1033.76
433.265	1055
433.641	1075.56
434.016	1077.37
434.392	1105.62
434.767	1142
435.143	1099.97
435.518	1109.91
435.894	1156.01
436.269	1125.51
436.644	1162.12
437.02	1176.58
437.395	1176.13
437.77	1184.71
438.145	1205.96
438.52	1215
438.895	1211.61
439.271	1240.31
439.646	1291.6
440.021	1272.85
440.395	1264.49
440.77	1267.2
441.145	1270.59
441.52	1278.05
441.895	1297.25
442.27	1327.76
442.645	1290.93
443.019	1323.02
443.394	1300.87
443.769	1332.73
444.143	1304.03
444.518	1334.99
444.892	1350.36
445.267	1340.87
445.641	1369.57
446.016	1333.41
446.39	1364.6
446.764	1342.45
447.139	1333.19
447.513	1370.02
447.887	1351.26
448.262	1378.38
448.636	1376.57
449.01	1376.35
449.384	1395.33
449.758	1415.67
450.132	1413.18
450.506	1378.38
450.88	1419.96
451.254	1426.06
451.628	1405.95
452.002	1475.1
452.376	1447.76
452.75	1451.15
453.123	1485.27
453.497	1474.2
453.871	1501.32
454.244	1498.6
454.618	1507.64
454.992	1546.74
455.365	1545.16
455.739	1577.47
456.112	1566.85
456.486	1556.23
456.859	1586.29
457.232	1605.72
457.606	1605.72
457.979	1602.56
458.352	1605.27
458.725	1664.48
459.099	1628.32
459.472	1628.32
459.845	1643.46
460.218	1677.36
460.591	1683.23
460.964	1713.97
461.337	1734.53
461.71	1768.43
462.083	1748.77
462.456	1744.93
462.829	1734.3
463.201	1761.2
463.574	1795.32
463.947	1806.39
464.32	1817.69
464.692	1850.23
465.065	1827.64
465.438	1851.36
465.81	1881.42
466.183	1889.78
466.555	1920.06
466.928	1932.72
467.3	1905.6
467.672	1912.38
468.045	1977.69
468.417	1951.93
468.789	1955.54
469.161	1999.61
469.534	2033.28
469.906	2054.97
470.278	2060.17
470.65	2067.86
471.022	2094.75
471.394	2135.88
471.766	2135.88
472.138	2154.41
472.51	2184.91
472.882	2202.77
473.253	2199.83
473.625	2252.48
473.997	2254.52
474.369	2255.65
474.74	2272.6
475.112	2329.77
475.484	2321.41
475.855	2374.29
476.227	2390.33
476.598	2413.83
476.97	2410.67
477.341	2480.27
477.713	2507.17
478.084	2531.57
478.455	2532.02
478.827	2560.72
479.198	2593.04
479.569	2639.82
479.94	2642.08
480.311	2641.4
480.682	2699.03
481.053	2709.19
481.424	2757.33
481.795	2790.32
482.166	2824.22
482.537	2857.21
482.908	2859.47
483.279	2907.38
483.65	2926.36
484.021	3002.07
484.391	2995.74
484.762	3004.55
485.133	3026.7
485.503	3062.63
485.874	3078.22
486.244	3102.18
486.615	3127.49
486.985	3186.7
487.356	3205.45
487.726	3234.6
488.097	3277.77
488.467	3280.48
488.837	3355.96
489.207	3338.1
489.578	3386.92
489.948	3439.57
490.318	3453.81
490.688	3451.32
491.058	3456.29
491.428	3495.16
491.798	3543.07
492.168	3571.32
492.538	3595.27
492.908	3647.47
493.278	3609.74
493.648	3663.75
494.017	3734.25
494.387	3734.7
494.757	3709.62
495.126	3775.83
495.496	3735.38
495.866	3748.26
496.235	3797.3
496.605	3790.3
496.974	3838.43
497.344	3866.45
497.713	3855.15
498.082	3908.26
498.452	3924.53
498.821	3955.49
499.19	3901.48
499.559	3955.04
499.928	3973.34
500.298	3991.65
500.667	4032.32
501.036	4015.37
501.405	4065.09
501.774	3972.66
502.143	4059.22
502.512	4081.14
502.88	4079.78
503.249	4114.36
503.618	4110.97
503.987	4136.73
504.356	4189.16
504.724	4175.6
505.093	4161.59
505.462	4184.86
505.83	4228.02
506.199	4192.77
506.567	4228.48
506.936	4260.79
507.304	4313.67
507.672	4326.55
508.041	4294.01
508.409	4298.08
508.777	4367
509.145	4356.16
509.514	4338.3
509.882	4369.26
510.25	4370.17
510.618	4372.65
510.986	4413.56
511.354	4415.82
511.722	4437.96
512.09	4490.39
512.458	4408.36
512.826	4466.89
513.193	4462.82
513.561	4486.1
513.929	4483.16
514.297	4574.91
514.664	4531.75
515.032	4536.72
515.4	4552.08
515.767	4587.11
516.135	4622.14
516.502	4600.9
516.869	4656.49
517.237	4634.34
517.604	4623.72
517.972	4712.76
518.339	4725.86
518.706	4708.69
519.073	4670.27
519.44	4668.92
519.808	4738.29
520.175	4703.27
520.542	4751.4
520.909	4748.46
521.276	4747.11
521.643	4800.44
522.009	4844.28
522.376	4839.76
522.743	4841.57
523.11	4887.44
523.477	4869.82
523.843	4933.99
524.21	4952.75
524.577	4959.53
524.943	5029.36
525.31	5012.41
525.676	5028
526.043	5084.05
526.409	5029.36
526.776	5102.8
527.142	5111.84
527.508	5171.95
527.874	5229.13
528.241	5201.33
528.607	5201.11
528.973	5277.94
529.339	5259.64
529.705	5291.05
530.071	5335.57
530.437	5348.22
530.803	5369.92
531.169	5413.08
531.535	5385.96
531.901	5370.14
532.267	5409.01
532.632	5481.32
532.998	5478.84
533.364	5486.52
533.73	5559.97
534.095	5559.74
534.461	5594.32
534.826	5621.43
535.192	5602.9
535.557	5686.97
535.923	5641.77
536.288	5715.22
536.653	5719.96
537.019	5694.88
537.384	5693.52
537.749	5737.36
538.114	5812.16
538.479	5776.68
538.845	5898.49
539.21	5824.82
539.575	5887.19
539.94	5907.53
540.305	5867.98
540.67	5949.79
541.034	5957.7
541.399	5968.54
541.764	6010.8
542.129	6006.73
542.494	6066.62
542.858	6094.42
543.223	6069.33
543.587	6154.53
543.952	6128.31
544.316	6181.42
544.681	6207.41
545.045	6197.69
545.41	6251.25
545.774	6238.37
546.138	6261.87
546.503	6363.79
546.867	6349.1
547.231	6368.76
547.595	6371.7
547.959	6392.71
548.324	6421.41
548.688	6519.94
549.052	6435.65
549.416	6476.1
549.779	6488.98
550.143	6474.29
550.507	6523.78
550.871	6581.18
551.235	6574.18
551.599	6613.05
551.962	6562.65
552.326	6682.88
552.689	6699.6
553.053	6657.34
553.417	6642.42
553.78	6724.68
554.143	6741.18
554.507	6769.65
554.87	6735.76
555.234	6820.95
555.597	6772.59
555.96	6788.86
556.323	6892.81
556.686	6889.42
557.05	6916.99
557.413	6916.99
557.776	6933.49
558.139	6969.2
558.502	7006.71
558.865	6962.64
559.228	7042.19
559.59	7033.37
559.953	7048.97
560.316	7107.04
560.679	7138.68
561.041	7090.32
561.404	7173.94
561.767	7226.36
562.129	7200.15
562.492	7297.77
562.854	7226.36
563.217	7296.42
563.579	7250.77
563.941	7294.61
564.304	7341.84
564.666	7394.04
565.028	7403.99
565.39	7409.41
565.753	7473.59
566.115	7452.8
566.477	7431.1
566.839	7492.12
567.201	7559.46
567.563	7549.29
567.925	7684.43
568.287	7624.55
568.648	7630.65
569.01	7673.36
569.372	7704.77
569.734	7731.89
570.095	7783.41
570.457	7842.62
570.819	7850.3
571.18	7880.58
571.542	7872.45
571.903	7923.97
572.265	8025.89
572.626	8055.04
572.987	8063.18
573.349	8120.35
573.71	8191.08
574.071	8219.56
574.432	8241.7
574.794	8322.61
575.155	8365.09
575.516	8440.34
575.877	8416.84
576.238	8536.84
576.599	8640.79
576.96	8675.82
577.32	8764.4
577.681	8861.8
578.042	8947
578.403	9052.08
578.763	9088.24
579.124	9151.51
579.485	9291.17
579.845	9420.43
580.206	9517.83
580.566	9634.21
580.927	9722.8
581.287	9886.41
581.648	10019.28
582.008	10179.73
582.368	10365.26
582.728	10464.92
583.089	10672.83
583.449	10831.69
583.809	10988.07
584.169	11235.98
584.529	11396.2
584.889	11607.04
585.249	11738.34
585.609	11881.38
585.969	12110.98
586.329	12342.16
586.688	12654.7
587.048	12824.41
587.408	12993.67
587.768	13264.4
588.127	13506.88
588.487	13762.01
588.846	14167.42
589.206	14345.72
589.565	14524.93
589.925	14882.43
590.284	15076.1
590.643	15418.92
591.003	15681.51
591.362	16073.36
591.721	16268.84
592.08	16482.84
592.44	16836.73
592.799	17149.72
593.158	17353.56
593.517	17739.99
593.876	18053.42
594.235	18346.3
594.593	18684.82
594.952	19014.53
595.311	19173.62
595.67	19613.61
596.029	20035.29
596.387	20228.73
596.746	20605.67
597.104	20800.47
597.463	21105.55
597.822	21478.87
598.18	21738.75
598.538	22006.31
598.897	22297.83
599.255	22476.58
599.613	23166.28
599.972	23197.24
600.33	23521.75
600.688	23709.32
601.046	24054.85
601.404	24529.41
601.762	24773.02
602.12	25062.28
602.478	25369.16
602.836	25723.05
603.194	25721.7
603.552	26134.57
603.91	26222.93
604.268	26584.5
604.625	26670.6
604.983	27218.38
605.341	27160.08
605.698	27698.82
606.056	27882.77
606.413	28012.48
606.771	28465.81
607.128	28654.95
607.485	28791.9
607.843	28943.53
608.2	29467.13
608.557	29760.01
608.914	29838.2
609.272	30147.34
609.629	30372.42
609.986	30632.53
610.343	30722.02
610.7	31025.29
611.057	31231.38
611.414	31277.71
611.771	31587.08
612.127	31885.83
612.484	32023.68
612.841	32294.63
613.198	32401.75
613.554	32441.75
613.911	32847.16
614.267	32977.78
614.624	33087.15
614.98	33322.85
615.337	33611.21
615.693	33598.78
616.05	33679.68
616.406	34103.17
616.762	34017.07
617.118	34336.84
617.475	34395.59
617.831	34686.88
618.187	34730.73
618.543	34951.74
618.899	35148.57
619.255	35226.98
619.611	35299.52
619.967	35610.48
620.323	35706.07
620.678	35594.43
621.034	35698.84
621.39	35845.5
621.746	35953.29
622.101	36292.72
622.457	36057.02
622.812	36350.57
623.168	36429.21
623.523	36565.93
623.879	36645.7
624.234	36575.65
624.589	36756.89
624.945	36875.08
625.3	37054.05
625.655	37067.61
626.01	37195.29
626.365	37182.19
626.72	37132.47
627.075	37315.29
627.43	37367.04
627.785	37329.3
628.14	37418.34
628.495	37570.42
628.85	37558.67
629.205	37597.09
629.559	37782.17
629.914	37684.55
630.269	37666.02
630.623	37691.33
630.978	37624.43
631.332	37987.36
631.687	37892.9
632.041	37897.42
632.396	37917.53
632.75	37767.93
633.104	37921.15
633.459	37847.48
633.813	37875.5
634.167	37944.2
634.521	37825.33
634.875	37955.5
635.229	37973.8
635.583	37912.11
635.937	37861.72
636.291	37910.98
636.645	37954.6
636.999	37894.48
637.352	38123.63
637.706	37758.44
638.06	38010.19
638.413	37940.36
638.767	38032.56
639.121	38004.09
639.474	37761.83
639.828	37782.17
640.181	37963.63
640.534	37939.23
640.888	37917.08
641.241	37836.41
641.594	37755.5
641.947	37924.09
642.301	37788.5
642.654	37956.18
643.007	37885.9
643.36	37806.12
643.713	37755.28
644.066	37968.83
644.419	37592.34
644.771	37566.81
645.124	37228.29
645.477	37125.01
645.83	36873.72
646.182	36800.73
646.535	36664.69
646.888	36788.07
647.24	36713.27
647.593	36861.06
647.945	36885.7
648.298	36685.93
648.65	36672.37
649.002	36577.91
649.355	36774.97
649.707	36614.97
650.059	36866.94
650.411	37259.25
650.763	37246.37
651.115	37661.95
651.467	37515.28
651.819	37572.68
652.171	37470.77
652.523	37461.27
652.875	37505.34
653.227	37249.76
653.578	37519.35
653.93	37556.19
654.282	37337.21
654.633	37160.04
654.985	37353.93
655.337	37285.23
655.688	37208.17
656.039	37495.4
656.391	37208.85
656.742	37246.59
657.094	37229.42
657.445	37354.16
657.796	37372.46
658.147	37230.55
658.498	37283.2
658.849	37282.3
659.2	37262.18
659.551	37184.67
659.902	37244.33
660.253	37181.73
660.604	37259.7
660.955	37121.4
661.306	37230.09
661.656	37249.08
662.007	37150.55
662.358	37218.57
662.708	37125.69
663.059	37281.84
663.409	37074.62
663.76	37152.13
664.11	37183.77
664.461	37328.4
664.811	37312.35
665.161	37179.93
665.511	37062.42
665.862	37248.63
666.212	37281.84
666.562	37264.9
666.912	37141.74
667.262	37096.09
667.612	37249.3
667.962	37063.55
668.312	37138.12
668.662	37335.18
669.011	37029.2
669.361	37216.99
669.711	37134.73
670.06	37040.72
670.41	37081.17
670.76	37016.77
671.109	37115.75
671.459	37052.47
671.808	36963.66
672.157	36935.41
672.507	36822.42
672.856	36836.88
673.205	36953.49
673.554	36982.19
673.904	36943.1
674.253	37051.34
674.602	37051.57
674.951	36415.43
675.3	36393.96
675.649	36734.51
675.998	36770.22
676.346	36819.03
676.695	36845.25
677.044	36595.53
677.393	36714.85
677.741	36957.56
678.09	36763.21
678.438	36515.31
678.787	36621.52
679.135	36717.57
679.484	36352.38
679.832	36382.43
680.181	36342.21
680.529	36446.84
680.877	36442.09
681.225	36370
681.573	36454.3
681.922	36246.62
682.27	36180.63
682.618	36297.69
682.966	36086.62
683.314	36230.35
683.661	36193.96
684.009	35950.58
684.357	35859.51
684.705	35785.16
685.053	35872.84
685.4	35772.96
685.748	35630.81
686.095	35625.16
686.443	35515.79
686.79	35371.39
687.138	35513.98
687.485	35434.66
687.832	35324.61
688.18	35426.98
688.527	35126.87
688.874	35113.54
689.221	35080.09
689.568	35012.3
689.915	34877.39
690.262	34857.73
690.609	34957.84
690.956	34766.66
691.303	34568.02
691.65	34456.16
691.997	34680.56
692.344	34385.42
692.69	34355.82
693.037	34216.39
693.383	34105.66
693.73	34221.59
694.077	33958.54
694.423	34115.83
694.769	33807.13
695.116	33831.77
695.462	33745.89
695.808	33718.77
696.155	33714.48
696.501	33538.21
696.847	33593.58
697.193	33295.73
697.539	33292.12
697.885	33243.08
698.231	33057.55
698.577	33126.47
698.923	33021.17
699.269	32717.44
699.614	32709.54
699.96	32646.49
700.306	32770.32
700.651	32456.21
700.997	32412.82
701.342	32505.92
701.688	32428.86
702.033	32159.49
702.379	32242.43
702.724	31946.62
703.069	32178.02
703.415	31819.62
703.76	31787.53
704.105	31869.33
704.45	31714.08
704.795	31616.68
705.14	31397.48
705.485	31450.81
705.83	31310.48
706.175	31289.01
706.52	31310.48
706.865	31223.92
707.209	31144.83
707.554	30978.28
707.899	31064.61
708.243	30899.41
708.588	30851.28
708.932	30682.24
709.277	30605.64
709.621	30704.16
709.966	30444.06
710.31	30585.52
710.654	30260.11
710.998	30270.28
711.342	30374
711.687	30225.76
712.031	30110.73
712.375	29964.52
712.719	30063.5
713.063	30070.96
713.407	30106.67
713.75	29938.76
714.094	29880.68
714.438	29702.16
714.782	29784.19
715.125	29616.51
715.469	29701.7
715.812	29356.18
716.156	29367.48
716.499	29308.72
716.843	29328.16
717.186	29179.23
717.53	29377.87
717.873	29355.05
718.216	29262.85
718.559	29142.62
718.902	28986.47
719.246	28940.82
719.589	28934.49
719.932	28765.46
720.275	28812.91
720.617	28783.08
720.96	28714.61
721.303	28736.08
721.646	28675.07
721.989	28504.67
722.331	28574.73
722.674	28522.53
723.016	28481.17
723.359	28378.12
723.701	28472.58
724.044	28290.67
724.386	28246.15
724.729	28262.19
725.071	28183.33
725.413	28190.78
725.755	28130.9
726.097	28077.79
726.439	27927.74
726.782	27951.24
727.124	27943.11
727.465	27862.88
727.807	27903.56
728.149	27838.48
728.491	27690.46
728.833	27875.99
729.175	27656.33
729.516	27662.89
729.858	27579.5
730.199	27545.38
730.541	27475.1
730.882	27533.4
731.224	27622.66
731.565	27405.72
731.906	27391.94
732.248	27374.99
732.589	27277.36
732.93	27270.13
733.271	27177.48
733.612	27337.93
733.953	27148.33
734.294	27119.17
734.635	27157.37
734.976	27095.22
735.317	26984.04
735.658	26958.73
735.999	27020.65
736.339	26900.2
736.68	27061.1
737.021	26999.63
737.361	26739.3
737.702	26898.16
738.042	26873.76
738.383	26794.89
738.723	26741.1
739.063	26698.85
739.404	26740.65
739.744	26672.86
740.084	26561.67
740.424	26501.79
740.764	26441.45
741.104	26588.34
741.444	26462.92
741.784	26389.93
742.124	26404.16
742.464	26318.29
742.804	26317.16
743.143	26337.27
743.483	26328.91
743.823	26142.02
744.162	26215.24
744.502	26186.32
744.841	26000.33
745.181	26109.48
745.52	26141.57
745.86	26167.11
746.199	26150.16
746.538	25970.05
746.877	26044.17
747.216	26073.1
747.556	25959.43
747.895	25949.49
748.234	25883.73
748.573	25743.62
748.911	25828.59
749.25	25796.95
749.589	25798.08
749.928	25770.28
750.267	25721.92
750.605	25578.65
750.944	25544.07
751.283	25520.57
751.621	25528.03
751.96	25483.06
752.298	25558.09
752.636	25425.43
752.975	25377.98
753.313	25187.7
753.651	25438.54
753.989	25300.01
754.327	25208.49
754.666	25109.28
755.004	25286.91
755.342	25131.43
755.679	25093.69
756.017	24973.69
756.355	25055.05
756.693	24987.93
757.031	24970.98
757.368	24804.88
757.706	24794.94
758.044	24745.9
758.381	24872
758.719	24770.76
759.056	24700.48
759.394	24557.66
759.731	24418.91
760.068	24508.85
760.405	24484.21
760.743	24426.36
761.08	24447.38
761.417	24294.39
761.754	24164
762.091	24199.02
762.428	24092.59
762.765	24023.21
763.102	24112.7
763.438	23983.66
763.775	23870.22
764.112	23890.11
764.449	23903.67
764.785	23803.55
765.122	23531.7
765.458	23658.7
765.795	23601.53
766.131	23569.44
766.467	23464.58
766.804	23314.08
767.14	23234.53
767.476	23253.74
767.812	22997.7
768.148	23072.27
768.485	22944.59
768.821	22813.98
769.157	22889.23
769.492	22767.2
769.828	22700.76
770.164	22546.19
770.5	22461.44
770.836	22516.13
771.171	22434.1
771.507	22334.67
771.842	22094
772.178	22178.29
772.513	22112.53
772.849	22040.21
773.184	21841.35
773.519	21981.68
773.855	21818.07
774.19	21769.03
774.525	21644.74
774.86	21644.06
775.195	21636.61
775.53	21567.91
775.865	21411.08
776.2	21269.38
776.535	21165.21
776.87	21223.74
777.205	21125.21
777.539	21001.59
777.874	20991.88
778.209	20769.96
778.543	20786.91
778.878	20632.11
779.212	20665.78
779.547	20596.63
779.881	20630.76
780.215	20471.44
780.55	20399.35
780.884	20296.75
781.218	20352.35
781.552	20252.24
781.886	20153.93
782.22	20107.15
782.554	19957.55
782.888	19871.68
783.222	19739.93
783.556	19809.08
783.889	19656.55
784.223	19524.35
784.557	19370.45
784.89	19494.29
785.224	19389.89
785.557	19242.09
785.891	19215.88
786.224	19189.66
786.558	19170
786.891	18984.92
787.224	18961.87
787.557	18881.42
787.891	18760.07
788.224	18740.86
788.557	18702.22
788.89	18788.55
789.223	18589.91
789.556	18534.09
789.888	18485.5
790.221	18402.57
790.554	18237.15
790.887	18225.85
791.219	18231.5
791.552	18139.3
791.884	18026.08
792.217	18001.45
792.549	17892.3
792.882	17841
793.214	17787.67
793.546	17763.71
793.879	17561.01
794.211	17497.05
794.543	17638.07
794.875	17510.39
795.207	17617.5
795.539	17455.47
795.871	17510.84
796.203	17294.12
796.535	17205.08
796.867	17148.59
797.198	17073.79
797.53	17021.36
797.862	16939.33
798.193	17077.4
798.525	16890.74
798.856	16946.33
799.188	16664.53
799.519	16641.48
799.85	16643.07
800.182	16614.14
800.513	16580.92
800.844	16540.47
801.175	16572.56
801.506	16534.82
801.837	16387.48
802.168	16406.91
802.499	16289.18
802.83	16324.66
803.161	16185.45
803.491	16070.88
803.822	16099.12
804.153	16078.11
804.483	15908.17
804.814	15908.62
805.145	15817.55
805.475	15876.76
805.805	15786.82
806.136	15847.61
806.466	15779.81
806.796	15660.49
807.126	15531.46
807.457	15575.52
807.787	15511.57
808.117	15491.68
808.447	15475.86
808.777	15437.9
809.107	15380.27
809.436	15357.68
809.766	15254.18
810.096	15232.71
810.426	15168.53
810.755	15164.01
811.085	15079.49
811.414	15162.88
811.744	15118.81
812.073	15009.21
812.403	15025.48
812.732	14990.68
813.061	14795.88
813.39	14803.11
813.719	14788.2
814.049	14863.23
814.378	14754.75
814.707	14705.26
815.036	14724.47
815.365	14660.07
815.693	14514.31
816.022	14569.67
816.351	14444.7
816.68	14413.52
817.008	14471.37
817.337	14324.93
817.665	14251.26
817.994	14395.44
818.322	14266.86
818.651	14238.61
818.979	14140.31
819.307	14217.37
819.636	14214.88
819.964	14070.48
820.292	14090.59
820.62	14057.14
820.948	14105.05
821.276	14038.16
821.604	14015.11
821.932	14057.82
822.259	14043.59
822.587	14038.39
822.915	14013.53
823.243	14058.27
823.57	14032.51
823.898	13968.11
824.225	13949.35
824.553	13832.97
824.88	13966.75
825.207	14042.23
825.535	13933.53
825.862	13964.04
826.189	13896.92
826.516	14076.35
826.843	14039.29
827.17	14011.72
827.497	13967.43
827.824	14025.51
828.151	13990.93
828.478	13988.45
828.805	14045.39
829.131	13874.32
829.458	13842.91
829.785	13909.58
830.111	13833.87
830.438	14008.56
830.764	13974.89
831.09	13900.54
831.417	13828
831.743	13984.6
832.069	13867.32
832.395	13777.15
832.722	13877.04
833.048	13813.08
833.374	13811.05
833.7	13791.39
834.026	13802.46
834.351	13828
834.677	13822.12
835.003	13862.12
835.329	13795.91
835.654	13640.21
835.98	13602.02
836.306	13719.98
836.631	13594.33
836.956	13670.49
837.282	13643.37
837.607	13522.24
837.932	13628
838.258	13613.54
838.583	13583.71
838.908	13418.74
839.233	13493.32
839.558	13470.72
839.883	13409.03
840.208	13394.56
840.533	13390.04
840.858	13344.17
841.182	13364.51
841.507	13341.01
841.832	13227.34
842.156	13204.29
842.481	13183.95
842.805	13278.18
843.13	13162.93
843.454	13131.52
843.778	13103.27
844.103	13049.04
844.427	13040
844.751	12987.57
845.075	13008.58
845.399	12922.71
845.723	12879.32
846.047	12887.46
846.371	12746.44
846.695	12769.95
847.019	12685.66
847.343	12664.41
847.666	12529.28
847.99	12431.2
848.313	12498.09
848.637	12465.55
848.96	12362.5
849.284	12367.47
849.607	12244.08
849.931	12205.22
850.254	12155.5
850.577	12182.39
850.9	11990.76
851.223	11986.24
851.546	11980.59
851.869	11912.12
852.192	11988.27
852.515	11837.77
852.838	11722.06
853.161	11823.08
853.483	11625.12
853.806	11647.72
854.129	11595.06
854.451	11622.63
854.774	11574.72
855.096	11470.55
855.419	11443.43
855.741	11501.73
856.063	11513.48
856.385	11344.9
856.708	11359.36
857.03	11368.85
857.352	11394.62
857.674	11304.45
857.996	11209.99
858.318	11154.85
858.64	11151.68
858.961	11110.33
859.283	11157.56
859.605	11024.91
859.926	11049.54
860.248	11073.49
860.57	10941.52
860.891	11015.64
861.212	10979.03
861.534	10866.04
861.855	10870.11
862.176	10814.07
862.498	10835.76
862.819	10918.02
863.14	10760.06
863.461	10735.2
863.782	10680.51
864.103	10708.08
864.424	10674.63
864.745	10668.99
865.065	10674.41
865.386	10681.19
865.707	10619.95
866.027	10650.45
866.348	10573.39
866.668	10585.37
866.989	10612.94
867.309	10543.11
867.63	10533.85
867.95	10479.39
868.27	10407.52
868.59	10404.36
868.91	10431.93
869.23	10472.15
869.55	10299.05
869.87	10394.42
870.19	10431.25
870.51	10371.59
870.83	10327.75
871.15	10265.15
871.469	10206.85
871.789	10264.93
872.109	10255.89
872.428	10188.55
872.748	10277.13
873.067	10210.01
873.386	10204.36
873.706	10188.09
874.025	10168.43
874.344	10104.71
874.663	10081.66
874.982	10127.08
875.301	10137.7
875.62	10002.34
875.939	10031.94
876.258	10032.39
876.577	10032.84
876.896	10040.98
877.214	9977.93
877.533	9958.04
877.852	9899.29
878.17	9955.33
878.489	9940.87
878.807	9911.26
879.125	9859.97
879.444	9839.18
879.762	9828.56
880.08	9815.22
880.398	9813.19
880.716	9843.02
881.034	9764.83
881.352	9755.56
881.67	9714.43
881.988	9696.81
882.306	9698.84
882.624	9617.26
882.941	9666.53
883.259	9667.2
883.577	9556.7
883.894	9564.16
884.212	9574.32
884.529	9557.15
884.846	9499.3
885.164	9506.3
885.481	9466.98
885.798	9495.68
886.115	9384.27
886.432	9350.38
886.75	9332.75
887.067	9455.68
887.383	9375.91
887.7	9331.85
888.017	9250.72
888.334	9303.15
888.651	9250.72
888.967	9254.78
889.284	9178.85
889.6	9192.19
889.917	9194.45
890.233	9105.86
890.55	9112.64
890.866	9113.77
891.182	9050.5
891.498	9015.47
891.815	9017.05
892.131	8934.79
892.447	8936.15
892.763	8910.61
893.079	8906.55
893.395	8916.94
893.71	8891.4
894.026	8817.06
894.342	8841.69
894.657	8772.31
894.973	8749.49
895.289	8728.02
895.604	8634.69
895.92	8647.12
896.235	8533.67
896.55	8607.57
896.865	8502.26
897.181	8492.32
897.496	8564.86
897.811	8497.29
898.126	8428.14
898.441	8368.25
898.756	8412.1
899.071	8351.98
899.386	8340.91
899.7	8238.77
900.015	8240.12
900.33	8156.06
900.644	8155.15
900.959	8158.99
901.273	8233.34
901.588	8094.59
901.902	8071.99
902.216	8047.13
902.531	8038.09
902.845	7960.81
903.159	7923.07
903.473	7946.57
903.787	7907.48
904.101	7868.61
904.415	7884.88
904.729	7841.26
905.042	7731.89
905.356	7797.42
905.67	7714.49
905.984	7748.38
906.297	7667.48
906.611	7594.72
906.924	7662.51
907.237	7635.62
907.551	7590.87
907.864	7518.33
908.177	7503.64
908.491	7504.55
908.804	7457.32
909.117	7443.53
909.43	7415.06
909.743	7365.8
910.056	7383.2
910.368	7330.32
910.681	7292.58
910.994	7246.25
911.307	7200.15
911.619	7178
911.932	7107.5
912.244	7082.19
912.557	7041.06
912.869	7066.82
913.181	7002.64
913.494	7060.27
913.806	6984.79
914.118	6919.03
914.43	6876.99
914.742	6902.08
915.054	6803.55
915.366	6841.52
915.678	6805.36
915.99	6798.13
916.302	6698.24
916.613	6714.29
916.925	6670.45
917.236	6703.44
917.548	6677
917.859	6622.76
918.171	6596.55
918.482	6570.56
918.794	6539.6
919.105	6526.5
919.416	6407.63
919.727	6465.93
920.038	6376.89
920.349	6343.68
920.66	6308.42
920.971	6350.68
921.282	6344.13
921.593	6300.96
921.903	6278.59
922.214	6225.26
922.525	6216.9
922.835	6182.55
923.146	6109.33
923.456	6096
923.767	6110.01
924.077	6130.35
924.387	6046.73
924.697	6033.63
925.008	6036.34
925.318	5894.42
925.628	5948.88
925.938	5926.28
926.248	5871.37
926.558	5884.25
926.867	5833.18
927.177	5785.05
927.487	5718.15
927.796	5736.91
928.106	5736.01
928.416	5727.19
928.725	5733.07
929.034	5698.95
929.344	5656.01
929.653	5629.12
929.962	5595.67
930.271	5596.12
930.581	5532.85
930.89	5516.58
931.199	5507.76
931.508	5512.28
931.817	5430.03
932.125	5435.9
932.434	5424.83
932.743	5392.29
933.051	5310.71
933.36	5373.98
933.669	5330.14
933.977	5270.93
934.286	5309.13
934.594	5288.56
934.902	5222.35
935.21	5201.78
935.519	5216.47
935.827	5138.51
936.135	5135.12
936.443	5140.32
936.751	5083.14
937.059	5100.32
937.367	5033.65
937.674	5044.05
937.982	5021.68
938.29	4975.12
938.597	4952.07
938.905	4879.98
939.213	4932.19
939.52	4896.48
939.827	4946.88
940.135	4880.21
940.442	4833.21
940.749	4812.64
941.056	4846.77
941.363	4799.08
941.67	4743.27
941.977	4698.97
942.284	4678.63
942.591	4717.05
942.898	4708.92
943.205	4660.1
943.511	4624.85
943.818	4577.62
944.125	4579.88
944.431	4564.74
944.738	4580.33
945.044	4550.28
945.35	4514.57
945.657	4480.22
945.963	4463.27
946.269	4468.7
946.575	4430.28
946.881	4381.01
947.187	4372.88
947.493	4346.67
947.799	4354.35
948.105	4325.2
948.41	4326.55
948.716	4316.84
949.022	4334.69
949.327	4257.63
949.633	4259.44
949.938	4228.7
950.244	4248.14
950.549	4214.47
950.854	4155.71
951.16	4156.84
951.465	4135.6
951.77	4116.84
952.075	4098.54
952.38	4091.98
952.685	4067.58
952.99	4013.79
953.294	4033.23
953.599	3977.86
953.904	3953.46
954.209	3943.51
954.513	3994.58
954.818	3938.31
955.122	3920.24
955.426	3898.32
955.731	3877.53
956.035	3861.03
956.339	3836.85
956.643	3855.15
956.948	3798.88
957.252	3808.6
957.556	3818.09
957.86	3753.23
958.163	3748.04
958.467	3753.69
958.771	3705.78
959.075	3736.74
959.378	3701.26
959.682	3703.74
959.985	3687.7
960.289	3650.41
960.592	3644.54
960.896	3647.7
961.199	3610.41
961.502	3579.91
961.805	3532
962.108	3532.68
962.411	3541.49
962.714	3542.17
963.017	3492
963.32	3492.68
963.623	3481.38
963.926	3467.37
964.228	3446.35
964.531	3430.08
964.833	3412.9
965.136	3413.58
965.438	3390.76
965.741	3365
966.043	3368.61
966.345	3325.9
966.648	3334.04
966.95	3322.29
967.252	3320.25
967.554	3292
967.856	3245.45
968.158	3222.63
968.46	3241.61
968.761	3209.97
969.063	3177.88
969.365	3183.98
969.666	3199.58
969.968	3154.38
970.269	3156.87
970.571	3156.41
970.872	3141.95
971.174	3116.19
971.475	3109.41
971.776	3102.63
972.077	3055.85
972.378	3070.31
972.679	3035.74
972.98	3018.56
973.281	3001.84
973.582	3010.88
973.883	3005.01
974.183	2978.11
974.484	2962.29
974.785	2946.93
975.085	2923.65
975.386	2939.47
975.686	2898.12
975.986	2919.13
976.287	2895.86
976.587	2891.79
976.887	2870.09
977.187	2844.11
977.487	2884.78
977.787	2815.41
978.087	2807.27
978.387	2796.42
978.687	2829.64
978.987	2779.93
979.286	2757.1
979.586	2732.92
979.885	2728.85
980.185	2735.41
980.484	2677.1
980.784	2701.28
981.083	2679.59
981.382	2671.46
981.682	2666.48
981.981	2641.17
982.28	2640.04
982.579	2601.17
982.878	2646.6
983.177	2627.84
983.475	2587.84
983.774	2597.33
984.073	2553.49
984.372	2547.39
984.67	2554.85
984.969	2535.41
985.267	2515.98
985.566	2541.29
985.864	2498.58
986.162	2493.61
986.461	2462.42
986.759	2465.58
987.057	2482.99
987.355	2424.46
987.653	2438.69
987.951	2389.88
988.249	2402.76
988.547	2392.37
988.844	2370.9
989.142	2382.2
989.44	2369.32
989.737	2368.41
990.035	2320.28
990.332	2309.66
990.63	2302.65
990.927	2311.69
991.224	2300.62
991.521	2269.88
991.819	2265.59
992.116	2284.35
992.413	2313.95
992.71	2281.86
993.006	2258.36
993.303	2265.36
993.6	2210
993.897	2198.02
994.193	2202.77
994.49	2172.26
994.787	2170.9
995.083	2154.86
995.379	2128.87
995.676	2179.72
995.972	2162.32
996.268	2121.87
996.565	2127.06
996.861	2090.91
997.157	2106.95
997.453	2107.63
997.749	2047.52
998.044	2053.62
998.34	2054.75
998.636	2038.48
998.932	2038.25
999.227	2016.78
999.523	2002.55
999.818	2017.46
1000.114	1966.61
1000.409	1984.47
1000.704	1981.76
1001	1966.39
1001.295	1944.02
1001.59	1942.66
1001.885	1950.8
1002.18	1895.88
1002.475	1909.89
1002.77	1891.81
1003.065	1919.84
1003.359	1866.73
1003.654	1891.59
1003.949	1849.1
1004.243	1849.56
1004.538	1814.75
1004.832	1802.1
1005.127	1822.44
1005.421	1786.73
1005.715	1760.52
1006.009	1790.57
1006.304	1775.89
1006.598	1770.91
1006.892	1764.59
1007.186	1747.41
1007.48	1748.54
1007.773	1728.66
1008.067	1731.82
1008.361	1735.89
1008.655	1702.89
1008.948	1679.84
1009.242	1671.26
1009.535	1664.25
1009.829	1640.07
1010.122	1653.18
1010.415	1656.79
1010.708	1653.85
1011.001	1631.71
1011.295	1614.08
1011.588	1591.94
1011.881	1586.96
1012.173	1599.17
1012.466	1593.97
1012.759	1605.04
1013.052	1552.61
1013.344	1546.06
1013.637	1559.39
1013.93	1531.6
1014.222	1531.15
1014.514	1506.29
1014.807	1525.5
1015.099	1497.93
1015.391	1509.68
1015.683	1504.71
1015.976	1462.45
1016.268	1450.02
1016.56	1445.5
1016.851	1450.24
1017.143	1422.22
1017.435	1411.83
1017.727	1424.03
1018.018	1426.06
1018.31	1389.45
1018.602	1398.04
1018.893	1409.12
1019.185	1394.43
1019.476	1373.64
1019.767	1362.79
1020.058	1334.32
1020.35	1336.8
1020.641	1313.07
1020.932	1303.81
1021.223	1324.6
1021.514	1320.53
1021.804	1301.55
1022.095	1313.98
1022.386	1302.45
1022.677	1278.72
1022.967	1283.7
1023.258	1265.16
1023.548	1246.41
1023.839	1205.73
1024.129	1212.28
1024.419	1228.78
1024.709	1191.27
1025	1192.62
1025.29	1226.52
1025.58	1172.96
1025.87	1185.17
1026.16	1184.94
1026.449	1171.61
1026.739	1142.91
1027.029	1153.53
1027.319	1168.67
1027.608	1151.27
1027.898	1129.8
1028.187	1122.8
1028.477	1108.56
1028.766	1100.65
1029.055	1137.03
1029.344	1101.1
1029.634	1092.74
1029.923	1082.8
1030.212	1069.69
1030.501	1069.01
1030.79	1072.63
1031.078	1046.87
1031.367	1048
1031.656	1040.54
1031.945	1049.8
1032.233	1027.2
1032.522	1009.35
1032.81	1005.28
1033.099	1022.68
1033.387	1018.17
1033.675	1001.89
1033.963	990.14
1034.251	980.65
1034.54	966.19
1034.828	992.4
1035.116	987.43
1035.403	964.83
1035.691	971.16
1035.979	944.49
1036.267	946.53
1036.554	948.11
1036.842	951.27
1037.129	945.85
1037.417	935.91
1037.704	904.27
1037.992	901.78
1038.279	905.63
1038.566	886.87
1038.853	886.87
1039.14	886.87
