Data from hue_330_FLMS001491_41.txt Node
Date: Mon Feb 06 15:45:26 GMT 2017
User: dcchb
Spectrometer: FLMS00149
Trigger mode: 0
Integration Time (sec): 2.000000E-2
Scans to average: 10
Electric dark correction enabled: true
Nonlinearity correction enabled: false
Boxcar width: 0
XAxis mode: Wavelengths
Number of Pixels in Spectrum: 2048
>>>>>Begin Spectral Data<<<<<
341.393	-36.4
341.776	-36.4
342.16	-36.4
342.543	-65.55
342.927	-68.71
343.31	-76.4
343.693	-57.64
344.077	-75.04
344.46	-63.29
344.843	-42.5
345.226	-43.85
345.61	-44.08
345.993	-21.93
346.376	-14.48
346.759	24.62
347.142	42.47
347.525	24.39
347.908	68.46
348.291	80.44
348.674	89.7
349.057	109.14
349.44	136.93
349.823	128.57
350.206	159.08
350.588	203.6
350.971	208.57
351.354	237.72
351.737	240.21
352.119	224.39
352.502	249.02
352.884	273.43
353.267	272.3
353.65	287.89
354.032	299.41
354.414	302.58
354.797	311.84
355.179	300.09
355.562	333.31
355.944	323.14
356.326	336.25
356.709	329.47
357.091	316.59
357.473	324.95
357.855	338.51
358.238	313.65
358.62	341.45
359.002	329.24
359.384	338.96
359.766	316.81
360.148	348
360.53	354.33
360.912	320.43
361.294	323.82
361.676	308.23
362.057	319.98
362.439	338.28
362.821	311.84
363.203	314.1
363.584	326.53
363.966	306.87
364.348	314.55
364.729	306.42
365.111	323.37
365.493	332.41
365.874	305.06
366.256	295.57
366.637	285.85
367.019	312.52
367.4	314.33
367.781	316.81
368.163	299.41
368.544	335.57
368.925	320.43
369.306	316.36
369.688	301.67
370.069	297.83
370.45	305.06
370.831	310.03
371.212	293.76
371.593	299.19
371.974	298.28
372.355	308.23
372.736	296.93
373.117	310.26
373.498	297.61
373.879	303.93
374.26	296.93
374.641	293.54
375.021	316.81
375.402	319.75
375.783	332.41
376.163	327.43
376.544	327.66
376.925	299.64
377.305	302.35
377.686	308.45
378.066	333.99
378.447	329.02
378.827	330.37
379.208	302.58
379.588	324.05
379.968	324.05
380.349	314.55
380.729	304.61
381.109	304.61
381.489	316.14
381.87	326.53
382.25	311.62
382.63	327.89
383.01	333.99
383.39	346.42
383.77	326.98
384.15	345.74
384.53	340.54
384.91	352.74
385.29	347.32
385.67	346.87
386.049	367.66
386.429	358.39
386.809	337.15
387.189	350.49
387.568	335.12
387.948	337.15
388.328	346.64
388.707	348.23
389.087	357.49
389.466	355.23
389.846	370.37
390.225	345.06
390.605	357.26
390.984	357.04
391.363	344.16
391.743	371.95
392.122	345.29
392.501	347.1
392.881	363.37
393.26	359.3
393.639	351.39
394.018	374.67
394.397	356.13
394.776	364.04
395.155	372.63
395.534	350.26
395.913	364.5
396.292	381.9
396.671	375.8
397.05	364.27
397.429	372.86
397.808	385.96
398.186	374.67
398.565	398.85
398.944	371.28
399.323	391.16
399.701	374.67
400.08	386.19
400.458	396.36
400.837	384.83
401.215	405.4
401.594	397.72
401.972	387.55
402.351	406.75
402.729	413.08
403.107	390.03
403.486	420.99
403.864	418.51
404.242	420.31
404.62	409.69
404.999	402.91
405.377	420.54
405.755	422.57
406.133	430.03
406.511	417.15
406.889	440.88
407.267	443.59
407.645	426.42
408.023	436.36
408.401	456.92
408.779	437.26
409.156	440.88
409.534	453.08
409.912	444.72
410.29	449.24
410.667	487.66
411.045	468.22
411.422	478.84
411.8	469.35
412.178	476.81
412.555	486.75
412.933	487.66
413.31	487.43
413.687	497.37
414.065	517.71
414.442	502.12
414.819	528.11
415.197	535.34
415.574	521.55
415.951	521.33
416.328	543.25
416.705	546.19
417.082	549.58
417.46	541.44
417.837	554.32
418.214	556.58
418.591	562
418.967	574.66
419.344	570.82
419.721	588.67
420.098	604.49
420.475	587.99
420.852	590.03
421.228	623.02
421.605	632.96
421.982	619.4
422.358	620.76
422.735	642
423.111	629.12
423.488	657.14
423.864	621.89
424.241	663.92
424.617	681.78
424.994	661.89
425.37	652.85
425.746	678.84
426.123	680.19
426.499	695.79
426.875	681.78
427.251	682.45
427.627	702.11
428.003	718.16
428.379	713.64
428.756	723.58
429.132	722.23
429.507	758.38
429.883	750.47
430.259	741.66
430.635	773.75
431.011	779.63
431.387	787.99
431.763	798.38
432.138	782.11
432.514	811.26
432.89	801.55
433.265	830.02
433.641	807.87
434.016	858.04
434.392	848.1
434.767	835.22
435.143	870.7
435.518	884.03
435.894	870.47
436.269	900.53
436.644	884.48
437.02	894.65
437.395	914.31
437.77	897.14
438.145	927.19
438.52	935.55
438.895	943.69
439.271	961.99
439.646	948.89
440.021	971.49
440.395	977.81
440.77	951.15
441.145	976.23
441.52	992.05
441.895	987.3
442.27	996.12
442.645	989.34
443.019	1009.45
443.394	978.49
443.769	997.25
444.143	1030.47
444.518	1039.51
444.892	1021.43
445.267	1030.69
445.641	1046.51
446.016	1022.33
446.39	1045.83
446.764	1054.42
447.139	1053.52
447.513	1057.13
447.887	1065.49
448.262	1045.16
448.636	1067.53
449.01	1068.43
449.384	1082.22
449.758	1082.22
450.132	1078.83
450.506	1073.4
450.88	1107.3
451.254	1133.97
451.628	1128.09
452.002	1126.51
452.376	1110.24
452.75	1126.74
453.123	1135.55
453.497	1140.97
453.871	1167.64
454.244	1147.98
454.618	1165.38
454.992	1185.72
455.365	1180.07
455.739	1200.86
456.112	1183.46
456.486	1230.46
456.859	1231.59
457.232	1229.11
457.606	1239.28
457.979	1258.94
458.352	1246.96
458.725	1275.66
459.099	1306.39
459.472	1294.87
459.845	1305.71
460.218	1330.8
460.591	1307.3
460.964	1320.18
461.337	1356.33
461.71	1360.4
462.083	1368.31
462.456	1388.65
462.829	1371.25
463.201	1392.94
463.574	1380.74
463.947	1405.82
464.32	1460.29
464.692	1445.15
465.065	1474.75
465.438	1482.43
465.81	1482.21
466.183	1490.79
466.555	1524.24
466.928	1529.21
467.3	1523.56
467.672	1543.45
468.045	1541.41
468.417	1571.02
468.789	1558.59
469.161	1599.04
469.534	1619.15
469.906	1657.57
470.278	1654.41
470.65	1658.02
471.022	1709.32
471.394	1702.31
471.766	1695.99
472.138	1733.5
472.51	1760.84
472.882	1825.7
473.253	1796.32
473.625	1823.21
473.997	1832.71
474.369	1885.81
474.74	1865.02
475.112	1897.34
475.484	1957.22
475.855	1945.02
476.227	1966.04
476.598	1985.92
476.97	2007.84
477.341	2034.06
477.713	2056.65
478.084	2081.74
478.455	2121.74
478.827	2149.99
479.198	2218.46
479.569	2185.69
479.94	2241.73
480.311	2284.9
480.682	2310.21
481.053	2340.26
481.424	2388.17
481.795	2393.14
482.166	2425.01
482.537	2431.56
482.908	2473.37
483.279	2525.57
483.65	2515.63
484.021	2596.98
484.391	2602.4
484.762	2612.57
485.133	2679.69
485.503	2651.89
485.874	2754.94
486.244	2719.69
486.615	2783.19
486.985	2811.44
487.356	2865.67
487.726	2864.32
488.097	2911.55
488.467	2971.21
488.837	2976.86
489.207	3018.66
489.578	3040.58
489.948	3052.79
490.318	3103.86
490.688	3123.52
491.058	3111.99
491.428	3196.51
491.798	3232.9
492.168	3267.92
492.538	3263.63
492.908	3295.04
493.278	3341.82
493.648	3356.51
494.017	3389.28
494.387	3440.12
494.757	3397.18
495.126	3445.32
495.496	3469.73
495.866	3492.55
496.235	3552.66
496.605	3522.38
496.974	3558.76
497.344	3577.74
497.713	3605.99
498.082	3621.59
498.452	3640.79
498.821	3648.93
499.19	3650.06
499.559	3698.42
499.928	3690.74
500.298	3734.58
500.667	3748.81
501.036	3751.07
501.405	3797.63
501.774	3832.43
502.143	3800.79
502.512	3793.11
502.88	3853.9
503.249	3856.61
503.618	3863.61
503.987	3914.01
504.356	3878.08
504.724	3913.78
505.093	3963.05
505.462	3959.88
505.83	3985.87
506.199	3984.06
506.567	4000.56
506.936	4027
507.304	4055.02
507.672	4080.56
508.041	4075.58
508.409	4065.42
508.777	4095.02
509.145	4167.33
509.514	4150.61
509.882	4150.84
510.25	4168.01
510.618	4166.2
510.986	4183.15
511.354	4207.56
511.722	4233.09
512.09	4268.35
512.458	4264.05
512.826	4283.26
513.193	4282.59
513.561	4290.95
513.929	4306.09
514.297	4312.87
514.664	4387.22
515.032	4395.8
515.4	4376.82
515.767	4372.3
516.135	4404.16
516.502	4331.62
516.869	4478.96
517.237	4436.93
517.604	4445.29
517.972	4454.78
518.339	4472.41
518.706	4462.47
519.073	4516.7
519.44	4511.73
519.808	4557.61
520.175	4561
520.542	4605.97
520.909	4570.71
521.276	4622.92
521.643	4634.67
522.009	4654.55
522.376	4639.41
522.743	4690.03
523.11	4713.31
523.477	4725.06
523.843	4757.83
524.21	4778.39
524.577	4773.65
524.943	4789.92
525.31	4850.71
525.676	4864.26
526.043	4888.22
526.409	4888.67
526.776	4987.43
527.142	4951.72
527.508	5053.86
527.874	5027.88
528.241	5033.53
528.607	5050.47
528.973	5069.68
529.339	5079.17
529.705	5096.12
530.071	5125.05
530.437	5187.42
530.803	5240.75
531.169	5237.81
531.535	5155.33
531.901	5173.64
532.267	5265.84
532.632	5299.96
532.998	5286.63
533.364	5349
533.73	5345.61
534.095	5384.93
534.461	5399.17
534.826	5445.94
535.192	5415.66
535.557	5502.44
535.923	5484.81
536.288	5505.38
536.653	5542.66
537.019	5520.97
537.384	5527.52
537.749	5551.03
538.114	5624.92
538.479	5645.71
538.845	5671.7
539.21	5644.36
539.575	5696.56
539.94	5692.72
540.305	5740.85
540.67	5735.88
541.034	5795.09
541.399	5784.24
541.764	5780.17
542.129	5845.48
542.494	5874.63
542.858	5918.02
543.223	5884.12
543.587	5930
543.952	5978.13
544.316	5979.72
544.681	5988.53
545.045	6025.14
545.41	6072.14
545.774	6048.41
546.138	6127.28
546.503	6146.49
546.867	6144.91
547.231	6192.82
547.595	6190.33
547.959	6239.6
548.324	6245.47
548.688	6201.4
549.052	6237.79
549.416	6296.32
549.779	6280.05
550.143	6321.85
550.507	6370.44
550.871	6358.24
551.235	6420.83
551.599	6466.48
551.962	6431.91
552.326	6437.56
552.689	6453.83
553.053	6496.09
553.417	6479.14
553.78	6582.19
554.143	6574.73
554.507	6586.25
554.87	6584.9
555.234	6648.4
555.597	6609.08
555.96	6617.44
556.323	6717.32
556.686	6708.74
557.05	6778.56
557.413	6788.73
557.776	6711.67
558.139	6796.19
558.502	6830.54
558.865	6806.59
559.228	6834.16
559.59	6831.22
559.953	6878
560.316	6954.83
560.679	6986.92
561.041	6946.24
561.404	6980.59
561.767	7061.5
562.129	7064.21
562.492	7121.15
562.854	7108.05
563.217	7089.97
563.579	7161.61
563.941	7141.04
564.304	7199.57
564.666	7245.67
565.028	7221.72
565.39	7207.03
565.753	7319.34
566.115	7335.84
566.477	7336.06
566.839	7328.61
567.201	7372.9
567.563	7422.39
567.925	7425.78
568.287	7432.11
568.648	7433.69
569.01	7513.91
569.372	7583.97
569.734	7531.09
570.095	7622.38
570.457	7577.19
570.819	7659.9
571.18	7654.93
571.542	7766.79
571.903	7784.19
572.265	7834.13
572.626	7849.27
572.987	7876.16
573.349	7937.63
573.71	8009.72
574.071	8061.02
574.432	8089.04
574.794	8155.03
575.155	8184.63
575.516	8219.43
575.877	8245.64
576.238	8296.72
576.599	8391.18
576.96	8453.55
577.32	8512.3
577.681	8582.59
578.042	8673.2
578.403	8721.11
578.763	8866.19
579.124	8962.91
579.485	9049.92
579.845	9121.55
580.206	9200.42
580.566	9272.74
580.927	9468.89
581.287	9663.91
581.648	9633.63
582.008	9893.06
582.368	9937.8
582.728	10130.11
583.089	10268.42
583.449	10416.66
583.809	10557.22
584.169	10736.43
584.529	10844.45
584.889	11056.42
585.249	11246.7
585.609	11434.49
585.969	11663.41
586.329	11751.09
586.688	12116.5
587.048	12256.39
587.408	12419.77
587.768	12711.52
588.127	12883.94
588.487	13085.74
588.846	13418.16
589.206	13659.97
589.565	13854.31
589.925	14130.91
590.284	14336.33
590.643	14627.17
591.003	14813.38
591.362	15205.69
591.721	15402.97
592.08	15661.27
592.44	16054.93
592.799	16234.81
593.158	16501.7
593.517	16732.88
593.876	17072.08
594.235	17334.22
594.593	17614.44
594.952	17855.34
595.311	18164.71
595.67	18611.7
596.029	18884.69
596.387	19144.12
596.746	19366.03
597.104	19662.29
597.463	19893.47
597.822	20269.28
598.18	20516.28
598.538	20647.58
598.897	21179.54
599.255	21267.45
599.613	21843.25
599.972	21999.41
600.33	22343.35
600.688	22397.36
601.046	22868.76
601.404	23106.72
601.762	23356.89
602.12	23697.44
602.478	23978.79
602.836	24309.4
603.194	24367.48
603.552	24714.14
603.91	24945.54
604.268	25270.73
604.625	25461.92
604.983	25734.22
605.341	25966.76
605.698	26371.5
606.056	26593.41
606.413	26750.69
606.771	27170.8
607.128	27225.94
607.485	27453.5
607.843	27541.86
608.2	27993.6
608.557	28207.61
608.914	28384.55
609.272	28553.81
609.629	28804.2
609.986	29177.3
610.343	29152.44
610.7	29744.97
611.057	29794.68
611.414	29932.31
611.771	30174.79
612.127	30423.37
612.484	30617.26
612.841	30907.2
613.198	30948.78
613.554	31052.5
613.911	31430.12
614.267	31438.48
614.624	31678.02
614.98	31756.21
615.337	32099.03
615.693	32150.1
616.05	32299.48
616.406	32573.37
616.762	32647.94
617.118	32787.6
617.475	32919.35
617.831	33070.3
618.187	33306
618.543	33349.84
618.899	33660.12
619.255	33755.71
619.611	33772.66
619.967	34082.71
620.323	34172.42
620.678	34143.04
621.034	34245.19
621.39	34324.96
621.746	34383.71
622.101	34884.72
622.457	34583.94
622.812	34782.12
623.168	34968.33
623.523	35105.28
623.879	35241.09
624.234	35049.69
624.589	35351.15
624.945	35405.16
625.3	35603.34
625.655	35519.28
626.01	35689.44
626.365	35642.21
626.72	35830.46
627.075	35853.51
627.43	35893.96
627.785	35928.08
628.14	36044.69
628.495	36089.66
628.85	36223.44
629.205	36038.13
629.559	36331.46
629.914	36260.28
630.269	36352.48
630.623	36196.77
630.978	36289.2
631.332	36348.63
631.687	36494.62
632.041	36279.26
632.396	36482.19
632.75	36360.61
633.104	36488.97
633.459	36418.92
633.813	36313.61
634.167	36469.99
634.521	36567.84
634.875	36545.01
635.229	36489.87
635.583	36484
635.937	36462.76
636.291	36396.77
636.645	36498.24
636.999	36446.26
637.352	36622.75
637.706	36262.31
638.06	36539.82
638.413	36561.74
638.767	36385.02
639.121	36548.4
639.474	36360.61
639.828	36416.2
640.181	36436.77
640.534	36549.31
640.888	36377.79
641.241	36303.21
641.594	36295.53
641.947	36437.9
642.301	36346.37
642.654	36356.54
643.007	36513.83
643.36	36365.81
643.713	36269.31
644.066	36506.6
644.419	36397.9
644.771	36171.92
645.124	35720.18
645.477	35717.92
645.83	35498.26
646.182	35506.4
646.535	35445.16
646.888	35365.84
647.24	35168.33
647.593	35399.73
647.945	35401.09
648.298	35155.9
648.65	35101.89
649.002	35051.49
649.355	35316.8
649.707	35281.77
650.059	35313.18
650.411	35723.79
650.763	35786.16
651.115	36155.87
651.467	36088.08
651.819	36043.78
652.171	35851.7
652.523	35936.89
652.875	35981.41
653.227	35791.36
653.578	36104.57
653.93	35935.31
654.282	35807.63
654.633	35816.45
654.985	35787.52
655.337	35888.99
655.688	35813.73
656.039	35923.79
656.391	35516.79
656.742	35740.29
657.094	35765.37
657.445	35882.88
657.796	35772.15
658.147	35716.79
658.498	35715.66
658.849	35899.83
659.2	35785.26
659.551	35650.12
659.902	35835.88
660.253	35603.8
660.604	35760.4
660.955	35527.41
661.306	35741.87
661.656	35503.69
662.007	35638.82
662.358	35576.68
662.708	35692.61
663.059	35563.34
663.409	35385.72
663.76	35648.09
664.11	35595.21
664.461	35719.05
664.811	35681.08
665.161	35642.89
665.511	35406.74
665.862	35552.27
666.212	35653.74
666.562	35711.36
666.912	35595.66
667.262	35479.73
667.612	35546.4
667.962	35574.42
668.312	35446.29
668.662	35669.78
669.011	35377.36
669.361	35447.19
669.711	35613.74
670.06	35470.47
670.41	35437.25
670.76	35333.29
671.109	35567.19
671.459	35388.66
671.808	35327.64
672.157	35431.14
672.507	35171.94
672.856	35335.33
673.205	35260.53
673.554	35359.06
673.904	35415.55
674.253	35433.18
674.602	35358.6
674.951	34813.99
675.3	34702.8
675.649	35244.26
675.998	35209.46
676.346	35127.65
676.695	35345.05
677.044	34988.44
677.393	35123.13
677.741	35078.84
678.09	35014.21
678.438	34844.49
678.787	35092.85
679.135	35128.78
679.484	34825.96
679.832	34956.35
680.181	34770.37
680.529	34830.26
680.877	34832.74
681.225	34815.34
681.573	34863.48
681.922	34607.44
682.27	34651.73
682.618	34533.77
682.966	34517.95
683.314	34532.41
683.661	34458.74
684.009	34197.5
684.357	34242.7
684.705	34179.88
685.053	34331.74
685.4	34225.98
685.748	34107.11
686.095	34151.18
686.443	33857.17
686.79	33881.35
687.138	33982.37
687.485	33889.26
687.832	33778.98
688.18	33956.38
688.527	33710.51
688.874	33711.42
689.221	33564.08
689.568	33490.86
689.915	33406.57
690.262	33520.23
690.609	33441.37
690.956	33230.75
691.303	33246.57
691.65	33106.91
691.997	33160.24
692.344	32953.7
692.69	32759.8
693.037	32781.95
693.383	32615.63
693.73	32765.9
694.077	32591.22
694.423	32562.07
694.769	32485.23
695.116	32472.8
695.462	32315.75
695.808	32252.47
696.155	32266.93
696.501	31937.9
696.847	32057.9
697.193	31748.76
697.539	31869.2
697.885	31721.64
698.231	31651.81
698.577	31698.59
698.923	31530.23
699.269	31407.97
699.614	31140.86
699.96	31290.01
700.306	31318.48
700.651	31154.87
700.997	31025.16
701.342	30937.7
701.688	30850.7
702.033	30924.14
702.379	30663.13
702.724	30709.69
703.069	30790.14
703.415	30410.49
703.76	30396.7
704.105	30432.63
704.45	30460.88
704.795	30318.06
705.14	30065.64
705.485	30013.66
705.83	29922.59
706.175	29940.67
706.52	29948.8
706.865	29804.17
707.209	29823.83
707.554	29604.41
707.899	29846.88
708.243	29540.9
708.588	29455.93
708.932	29233.79
709.277	29393.11
709.621	29346.33
709.966	29084.19
710.31	29295.49
710.654	28931.88
710.998	29055.49
711.342	29068.83
711.687	28996.29
712.031	28750.19
712.375	28739.57
712.719	28750.42
713.063	28654.37
713.407	28940.24
713.75	28618.67
714.094	28707.71
714.438	28529.86
714.782	28460.93
715.125	28419.58
715.469	28358.34
715.812	28192.24
716.156	28165.35
716.499	28239.47
716.843	28156.08
717.186	27918.57
717.53	28006.03
717.873	28105.01
718.216	28079.7
718.559	27873.38
718.902	27722.87
719.246	27733.27
719.589	27743.66
719.932	27565.14
720.275	27614.18
720.617	27521.52
720.96	27479.04
721.303	27427.29
721.646	27455.54
721.989	27289.21
722.331	27277.46
722.674	27275.88
723.016	27364.01
723.359	27266.84
723.701	27133.51
724.044	27109.78
724.386	26903.69
724.729	27002.67
725.071	26965.38
725.413	26895.1
725.755	26926.06
726.097	26833.4
726.439	26661.66
726.782	26643.13
727.124	26820.98
727.465	26705.27
727.807	26620.53
728.149	26546.86
728.491	26484.04
728.833	26549.57
729.175	26375.79
729.516	26327.88
729.858	26334.43
730.199	26347.09
730.541	26286.07
730.882	26228.67
731.224	26342.34
731.565	26098.51
731.906	26217.38
732.248	26164.5
732.589	25957.95
732.93	25942.81
733.271	25987.78
733.612	25973.09
733.953	25966.53
734.294	25969.47
734.635	25734.68
734.976	25849.93
735.317	25735.81
735.658	25701.68
735.999	25788.01
736.339	25635.92
736.68	25704.39
737.021	25576.49
737.361	25507.56
737.702	25573.78
738.042	25573.32
738.383	25462.82
738.723	25476.6
739.063	25324.07
739.404	25405.87
739.744	25334.69
740.084	25283.39
740.424	25258.3
740.764	25229.15
741.104	25327.46
741.444	25224.86
741.784	25042.27
742.124	25038.65
742.464	25068.25
742.804	25022.15
743.143	24894.7
743.483	24998.2
743.823	24830.52
744.162	24962.04
744.502	24990.52
744.841	24774.48
745.181	24811.54
745.52	24667.81
745.86	24698.55
746.199	24701.26
746.538	24712.33
746.877	24609.51
747.216	24527.7
747.556	24519.57
747.895	24480.02
748.234	24308.73
748.573	24422.17
748.911	24405.22
749.25	24375.62
749.589	24270.99
749.928	24235.51
750.267	24269.86
750.605	24185.79
750.944	24046.81
751.283	24055.85
751.621	23993.03
751.96	23936.08
752.298	23918.9
752.636	23865.57
752.975	23813.15
753.313	23703.77
753.651	23870.54
753.989	23703.54
754.327	23674.39
754.666	23521.18
755.004	23498.35
755.342	23482.08
755.679	23439.14
756.017	23286.38
756.355	23359.6
756.693	23236.44
757.031	23384.91
757.368	23094.75
757.706	23098.14
758.044	23052.71
758.381	23072.6
758.719	22974.52
759.056	22984.01
759.394	22845.94
759.731	22678.71
760.068	22822.44
760.405	22617.7
760.743	22577.92
761.08	22579.28
761.417	22453.86
761.754	22394.88
762.091	22360.53
762.428	22280.98
762.765	22128.9
763.102	22293.41
763.438	22026.98
763.775	21945.62
764.112	21992.85
764.449	21986.75
764.785	21830.82
765.122	21758.51
765.458	21631.06
765.795	21650.04
766.131	21554.45
766.467	21525.75
766.804	21377.73
767.14	21295.47
767.476	21265.19
767.812	21227
768.148	21222.03
768.485	21085.53
768.821	20994.91
769.157	20978.87
769.492	20972.09
769.828	20901.81
770.164	20733.23
770.5	20705.66
770.836	20615.04
771.171	20449.39
771.507	20463.18
771.842	20365.1
772.178	20419.34
772.513	20329.17
772.849	20219.57
773.184	20108.84
773.519	20072.9
773.855	20075.39
774.19	20009.63
774.525	19752.23
774.86	19881.27
775.195	19818
775.53	19721.73
775.865	19629.53
776.2	19446.93
776.535	19382.08
776.87	19401.06
777.205	19288.52
777.539	19250.33
777.874	19299.59
778.209	19118.35
778.543	19024.57
778.878	18935.31
779.212	18949.09
779.547	18817.8
779.881	18879.72
780.215	18643.11
780.55	18639.5
780.884	18561.76
781.218	18545.94
781.552	18428.2
781.886	18387.07
782.22	18268.21
782.554	18242.67
782.888	18110.92
783.222	18041.09
783.556	18004.03
783.889	17958.16
784.223	17793.19
784.557	17760.65
784.89	17786.86
785.224	17673.87
785.557	17611.05
785.891	17544.16
786.224	17433.65
786.558	17516.59
786.891	17373.31
787.224	17300.77
787.557	17218.52
787.891	17241.79
788.224	17168.57
788.557	17152.08
788.89	17009.03
789.223	17104.39
789.556	16985.98
789.888	16907.79
790.221	16871.86
790.554	16750.96
790.887	16732.2
791.219	16613.79
791.552	16595.03
791.884	16468.48
792.217	16519.33
792.549	16410.85
792.882	16251.31
793.214	16197.53
793.546	16235.72
793.879	16141.48
794.211	16043.86
794.543	16118.88
794.875	15940.58
795.207	16127.02
795.539	15902.62
795.871	15905.1
796.203	15815.16
796.535	15661.49
796.867	15597.54
797.198	15640.7
797.53	15635.05
797.862	15459.47
798.193	15488.62
798.525	15445.91
798.856	15479.8
799.188	15285.23
799.519	15236.2
799.85	15220.15
800.182	15218.79
800.513	15138.12
800.844	15035.3
801.175	15175.18
801.506	15026.03
801.837	15026.71
802.168	14937.67
802.499	14874.62
802.83	14760.95
803.161	14817.9
803.491	14757.11
803.822	14751.01
804.153	14604.12
804.483	14517.57
804.814	14514.18
805.145	14487.97
805.475	14511.02
805.805	14364.13
806.136	14408.19
806.466	14350.34
806.796	14396.44
807.126	14199.61
807.457	14233.74
807.787	14262.66
808.117	14166.39
808.447	14091.14
808.777	14105.38
809.107	14043.91
809.436	13996.68
809.766	14060.18
810.096	13917.81
810.426	13911.94
810.755	13803.01
811.085	13783.58
811.414	13860.41
811.744	13588.33
812.073	13677.37
812.403	13743.35
812.732	13606.18
813.061	13605.96
813.39	13477.82
813.719	13540.19
814.049	13563.7
814.378	13473.3
814.707	13398.05
815.036	13395.34
815.365	13335
815.693	13248.23
816.022	13249.81
816.351	13203.71
816.68	13131.39
817.008	13205.97
817.337	13044.61
817.665	13048
817.994	13055.46
818.322	13059.53
818.651	12956.03
818.979	12902.7
819.307	12998.97
819.636	12852.53
819.964	12807.56
820.292	12962.81
820.62	12878.97
820.948	12782.47
821.276	12894.79
821.604	12789.25
821.932	12883.49
822.259	12906.99
822.587	12840.78
822.915	12770.05
823.243	12767.56
823.57	12781.34
823.898	12817.05
824.225	12711.97
824.553	12720.56
824.88	12691.86
825.207	12790.16
825.535	12702.93
825.862	12708.13
826.189	12730.95
826.516	12744.96
826.843	12763.04
827.17	12814.34
827.497	12747.67
827.824	12746.54
828.151	12753.32
828.478	12640.33
828.805	12770.5
829.131	12660.22
829.458	12643.72
829.785	12632.87
830.111	12707.45
830.438	12695.02
830.764	12691.4
831.09	12734.11
831.417	12585.42
831.743	12687.34
832.069	12673.55
832.395	12579.54
832.722	12655.47
833.048	12619.32
833.374	12632.87
833.7	12598.52
834.026	12629.48
834.351	12546.32
834.677	12527.11
835.003	12574.34
835.329	12576.83
835.654	12513.33
835.98	12487.34
836.306	12485.08
836.631	12442.37
836.956	12471.3
837.282	12473.1
837.607	12423.39
837.932	12390.85
838.258	12335.03
838.583	12380
838.908	12225.65
839.233	12288.02
839.558	12279.89
839.883	12234.92
840.208	12161.02
840.533	12240.12
840.858	12241.47
841.182	12182.49
841.507	12133.23
841.832	12099.55
842.156	12065.21
842.481	12104.75
842.805	12011.2
843.13	12036.96
843.454	11949.05
843.778	11987.47
844.103	11876.96
844.427	11832.22
844.751	11901.14
845.075	11866.34
845.399	11708.83
845.723	11821.6
846.047	11806
846.371	11689.62
846.695	11684.88
847.019	11547.93
847.343	11589.74
847.666	11439.69
847.99	11467.03
848.313	11387.03
848.637	11406.01
848.96	11364.66
849.284	11334.15
849.607	11244.44
849.931	11212.12
850.254	11014.16
850.577	11001.05
850.9	11011
851.223	10999.02
851.546	10940.04
851.869	10827.72
852.192	10913.82
852.515	10762.19
852.838	10726.48
853.161	10763.77
853.483	10703.66
853.806	10602.42
854.129	10679.48
854.451	10579.59
854.774	10550.89
855.096	10457.56
855.419	10469.54
855.741	10447.85
856.063	10365.59
856.385	10389.32
856.708	10373.72
857.03	10342.54
857.352	10337.79
857.674	10319.49
857.996	10253.73
858.318	10212.82
858.64	10212.6
858.961	10125.14
859.283	10091.25
859.605	10027.52
859.926	10095.54
860.248	10108.65
860.57	9931.7
860.891	10032.04
861.212	9909.56
861.534	9892.83
861.855	9878.14
862.176	9907.52
862.498	9926.73
862.819	9877.24
863.14	9861.2
863.461	9851.7
863.782	9752.95
864.103	9765.6
864.424	9729
864.745	9734.42
865.065	9725.61
865.386	9633.86
865.707	9671.37
866.027	9622.56
866.348	9644.93
866.668	9614.42
866.989	9601.77
867.309	9523.13
867.63	9579.4
867.95	9511.83
868.27	9538.49
868.59	9539.17
868.91	9466.18
869.23	9543.46
869.55	9527.42
869.87	9474.54
870.19	9393.41
870.51	9414.43
870.83	9517.48
871.15	9346.86
871.469	9423.24
871.789	9355.22
872.109	9416.91
872.428	9320.19
872.748	9357.25
873.067	9340.31
873.386	9306.63
873.706	9337.59
874.025	9303.7
874.344	9254.66
874.663	9281.78
874.982	9246.75
875.301	9220.53
875.62	9235.45
875.939	9168.56
876.258	9180.76
876.577	9122.46
876.896	9111.38
877.214	9143.25
877.533	9131.5
877.852	9096.24
878.17	9082.68
878.489	9095.11
878.807	9020.77
879.125	9033.42
879.444	9018.05
879.762	8952.29
880.08	9027.32
880.398	9003.59
880.716	8986.19
881.034	8908.23
881.352	8894.22
881.67	8897.61
881.988	8896.48
882.306	8830.26
882.624	8813.09
882.941	8831.84
883.259	8773.09
883.577	8754.56
883.894	8738.06
884.212	8735.58
884.529	8659.65
884.846	8720.89
885.164	8741
885.481	8619.19
885.798	8644.28
886.115	8571.06
886.432	8599.31
886.75	8594.34
887.067	8538.29
887.383	8503.27
887.7	8522.25
888.017	8495.81
888.334	8516.37
888.651	8463.49
888.967	8415.13
889.284	8393.21
889.6	8383.04
889.917	8381.23
890.233	8397.73
890.55	8301.01
890.866	8385.08
891.182	8211.75
891.498	8221.24
891.815	8204.06
892.131	8214.01
892.447	8191.18
892.763	8127.91
893.079	8161.13
893.395	8058.08
893.71	8089.49
894.026	8046.55
894.342	7955.71
894.657	7983.73
894.973	7942.83
895.289	7967.23
895.604	7943.28
895.92	7887.46
896.235	7836.39
896.55	7884.52
896.865	7871.42
897.181	7851.08
897.496	7784.87
897.811	7773.11
898.126	7695.83
898.441	7666.45
898.756	7637.07
899.071	7583.52
899.386	7586
899.7	7566.11
900.015	7494.93
900.33	7496.06
900.644	7468.72
900.959	7560.69
901.273	7416.51
901.588	7448.83
901.902	7387.14
902.216	7353.24
902.531	7328.83
902.845	7285.44
903.159	7266.46
903.473	7221.04
903.787	7198.21
904.101	7169.74
904.415	7156.63
904.729	7157.09
905.042	7128.61
905.356	7122.51
905.67	7066.47
905.984	7142.62
906.297	7009.52
906.611	7002.74
906.924	6970.65
907.237	6985.56
907.551	6920.26
907.864	6888.62
908.177	6917.32
908.491	6887.04
908.804	6777.66
909.117	6812.46
909.43	6754.84
909.743	6716.65
910.056	6764.1
910.368	6666.7
910.681	6656.08
910.994	6648.4
911.307	6644.56
911.619	6569.76
911.932	6538.57
912.244	6480.04
912.557	6481.4
912.869	6471.68
913.181	6361.4
913.494	6419.7
913.806	6433.04
914.118	6326.15
914.43	6338.58
914.742	6317.33
915.054	6291.8
915.366	6257.22
915.678	6254.06
915.99	6214.96
916.302	6160.05
916.613	6169.32
916.925	6161.18
917.236	6105.14
917.548	6089.77
917.859	6105.14
918.171	5979.04
918.482	6017
918.794	5993.95
919.105	5964.12
919.416	5927.74
919.727	5949.21
920.038	5873.5
920.349	5880.28
920.66	5845.93
920.971	5823.56
921.282	5822.88
921.593	5732.72
921.903	5756.67
922.214	5700.17
922.525	5708.76
922.835	5715.09
923.146	5672.61
923.456	5645.26
923.767	5622.89
924.077	5617.69
924.387	5561.42
924.697	5506.28
925.008	5472.38
925.318	5513.06
925.628	5484.14
925.938	5445.72
926.248	5421.09
926.558	5386.51
926.867	5410.69
927.177	5403.23
927.487	5288.21
927.796	5298.15
928.106	5303.8
928.416	5250.24
928.725	5214.31
929.034	5222.67
929.344	5245.5
929.653	5186.29
929.962	5154.65
930.271	5177.02
930.581	5143.35
930.89	5099.74
931.199	5037.37
931.508	5090.02
931.817	5059.51
932.125	5015
932.434	5016.8
932.743	4978.39
933.051	4916.69
933.36	4914.21
933.669	4914.88
933.977	4882.34
934.286	4842.12
934.594	4816.58
934.902	4845.06
935.21	4802.12
935.519	4767.54
935.827	4733.19
936.135	4719.18
936.443	4711.27
936.751	4674.44
937.059	4666.76
937.367	4663.37
937.674	4645.06
937.982	4637.6
938.29	4560.32
938.597	4607.32
938.905	4528.91
939.213	4515.12
939.52	4493.2
939.827	4503.14
940.135	4443.26
940.442	4436.25
940.749	4441
941.056	4433.99
941.363	4377.05
941.67	4354
941.977	4327.78
942.284	4335.01
942.591	4324.62
942.898	4293.43
943.205	4271.74
943.511	4301.79
943.818	4269.7
944.125	4252.98
944.431	4190.16
944.738	4218.86
945.044	4174.79
945.35	4137.05
945.657	4163.27
945.963	4167.56
946.269	4129.37
946.575	4107
946.881	4074.46
947.187	4096.6
947.493	4087.79
947.799	4043.95
948.105	3968.24
948.41	3960.79
948.716	3974.57
949.022	3999.43
949.327	3968.7
949.633	3940.22
949.938	3922.59
950.244	3906.1
950.549	3845.08
950.854	3867.23
951.16	3834.46
951.465	3816.16
951.77	3801.02
952.075	3795.37
952.38	3805.54
952.685	3760.79
952.99	3675.82
953.294	3749.27
953.599	3732.32
953.904	3655.26
954.209	3648.48
954.513	3646.22
954.818	3657.29
955.122	3603.96
955.426	3634.47
955.731	3570.06
956.035	3589.72
956.339	3587.24
956.643	3557.41
956.948	3553.11
957.252	3529.61
957.556	3496.62
957.86	3490.29
958.163	3486.9
958.467	3476.28
958.771	3479.89
959.075	3464.98
959.378	3428.6
959.682	3424.3
959.985	3385.43
960.289	3356.28
960.592	3347.02
960.896	3324.19
961.199	3344.76
961.502	3324.42
961.805	3301.82
962.108	3307.47
962.411	3285.32
962.714	3265.66
963.017	3289.62
963.32	3240.13
963.623	3185.89
963.926	3210.52
964.228	3169.85
964.531	3168.26
964.833	3169.39
965.136	3156.97
965.438	3163.74
965.741	3124.2
966.043	3131.88
966.345	3091.43
966.648	3064.76
966.95	3099.11
967.252	3046.23
967.554	3040.13
967.856	3037.87
968.158	2966.24
968.46	2988.16
968.761	3018.44
969.063	3009.4
969.365	2957.65
969.666	2960.59
969.968	2932.79
970.269	2927.59
970.571	2931.89
970.872	2926.24
971.174	2885.33
971.475	2891.66
971.776	2895.95
972.077	2827.48
972.378	2843.75
972.679	2827.26
972.98	2832.91
973.281	2794.71
973.582	2779.8
973.883	2782.29
974.183	2749.07
974.484	2789.29
974.785	2746.13
975.085	2705.9
975.386	2751.1
975.686	2723.3
975.986	2709.75
976.287	2681.5
976.587	2665.9
976.887	2674.94
977.187	2638.33
977.487	2662.74
977.787	2646.47
978.087	2581.16
978.387	2614.61
978.687	2586.13
978.987	2576.19
979.286	2585.23
979.586	2579.35
979.885	2566.02
980.185	2496.19
980.484	2514.27
980.784	2553.14
981.083	2504.33
981.382	2521.5
981.682	2521.73
981.981	2455.74
982.28	2477.43
982.579	2426.81
982.878	2441.5
983.177	2421.17
983.475	2448.74
983.774	2394.27
984.073	2357.89
984.372	2357.89
984.67	2355.4
984.969	2370.32
985.267	2370.32
985.566	2353.37
985.864	2323.09
986.162	2299.13
986.461	2294.84
986.759	2309.53
987.057	2300.94
987.355	2292.13
987.653	2300.49
987.951	2248.97
988.249	2264.11
988.547	2270.43
988.844	2254.62
989.142	2252.58
989.44	2245.58
989.737	2216.2
990.035	2206.26
990.332	2180.95
990.63	2188.4
990.927	2156.77
991.224	2145.47
991.521	2173.71
991.819	2091
992.116	2103.66
992.413	2142.53
992.71	2112.7
993.006	2100.04
993.303	2075.86
993.6	2096.2
993.897	2054.62
994.193	2072.7
994.49	2058.69
994.787	2053.27
995.083	2024.57
995.379	2021.4
995.676	2020.5
995.972	2008.97
996.268	2037.45
996.565	1989.76
996.861	1987.73
997.157	1968.52
997.453	1940.05
997.749	1921.52
998.044	1921.52
998.34	1901.18
998.636	1904.34
998.932	1913.61
999.227	1919.48
999.523	1872.03
999.818	1894.4
1000.114	1881.29
1000.409	1865.47
1000.704	1863.89
1001	1839.94
1001.295	1870.22
1001.59	1793.61
1001.885	1802.2
1002.18	1799.94
1002.475	1793.61
1002.77	1784.12
1003.065	1813.27
1003.359	1780.28
1003.654	1759.26
1003.949	1772.59
1004.243	1763.33
1004.538	1709.77
1004.832	1700.28
1005.127	1721.52
1005.421	1712.71
1005.715	1659.83
1006.009	1688.76
1006.304	1691.01
1006.598	1642.65
1006.892	1655.76
1007.186	1658.02
1007.48	1667.51
1007.773	1615.08
1008.067	1635.42
1008.361	1624.58
1008.655	1610.56
1008.948	1580.06
1009.242	1569.66
1009.535	1578.02
1009.829	1583
1010.122	1566.5
1010.415	1551.13
1010.708	1536.44
1011.001	1546.84
1011.295	1505.93
1011.588	1507.52
1011.881	1498.03
1012.173	1480.4
1012.466	1480.85
1012.759	1506.84
1013.052	1492.38
1013.344	1469.78
1013.637	1488.31
1013.93	1447.18
1014.222	1441.3
1014.514	1443.11
1014.807	1450.34
1015.099	1415.54
1015.391	1401.3
1015.683	1412.15
1015.976	1405.15
1016.268	1382.77
1016.56	1357.69
1016.851	1377.35
1017.143	1344.58
1017.435	1345.26
1017.727	1364.92
1018.018	1355.43
1018.31	1359.5
1018.602	1323.11
1018.893	1320.63
1019.185	1329.44
1019.476	1287.86
1019.767	1283.79
1020.058	1284.47
1020.35	1294.42
1020.641	1266.85
1020.932	1271.82
1021.223	1234.3
1021.514	1249.67
1021.804	1229.11
1022.095	1231.82
1022.386	1216.68
1022.677	1204.02
1022.967	1220.97
1023.258	1211.93
1023.548	1186.17
1023.839	1185.27
1024.129	1168.99
1024.419	1193.63
1024.709	1136.91
1025	1144.14
1025.29	1122.22
1025.58	1135.1
1025.87	1129
1026.16	1112.95
1026.449	1132.39
1026.739	1096.23
1027.029	1104.82
1027.319	1125.38
1027.608	1081.09
1027.898	1080.18
1028.187	1085.38
1028.477	1075.44
1028.766	1076.12
1029.055	1057.81
1029.344	1044.93
1029.634	1051.48
1029.923	1036.12
1030.212	1043.57
1030.501	1021.43
1030.79	1041.09
1031.078	994.76
1031.367	1025.5
1031.656	1003.35
1031.945	1007.87
1032.233	967.42
1032.522	996.8
1032.81	977.14
1033.099	972.39
1033.387	970.81
1033.675	963.8
1033.963	950.7
1034.251	955.67
1034.54	964.25
1034.828	914.99
1035.116	949.57
1035.403	908.44
1035.691	900.08
1035.979	928.1
1036.267	920.64
1036.554	900.75
1036.842	861.66
1037.129	890.36
1037.417	860.53
1037.704	874.99
1037.992	869.79
1038.279	889
1038.566	860.75
1038.853	860.75
1039.14	860.75
