Data from hue_30_FLMS001491_74.txt Node
Date: Mon Feb 06 15:05:55 GMT 2017
User: dcchb
Spectrometer: FLMS00149
Trigger mode: 0
Integration Time (sec): 2.000000E-2
Scans to average: 10
Electric dark correction enabled: true
Nonlinearity correction enabled: false
Boxcar width: 0
XAxis mode: Wavelengths
Number of Pixels in Spectrum: 2048
>>>>>Begin Spectral Data<<<<<
341.393	-5.73
341.776	-5.73
342.16	-5.73
342.543	-79.86
342.927	-65.39
343.31	-55.9
343.693	-65.85
344.077	-71.27
344.46	-69.46
344.843	-33.3
345.226	-39.18
345.61	-33.53
345.993	-34.43
346.376	-17.49
346.759	-14.1
347.142	16.64
347.525	39.01
347.908	70.42
348.291	82.17
348.674	116.97
349.057	109.29
349.44	113.81
349.823	133.7
350.206	170.08
350.588	167.14
350.971	196.97
351.354	203.75
351.737	218.44
352.119	244.43
352.502	245.33
352.884	264.77
353.267	282.85
353.65	294.14
354.032	286.24
354.414	292.11
354.797	312.22
355.179	308.16
355.562	322.17
355.944	314.48
356.326	320.36
356.709	342.51
357.091	359.91
357.473	301.83
357.855	340.25
358.238	339.79
358.62	339.57
359.002	333.47
359.384	328.95
359.766	348.61
360.148	342.28
360.53	334.37
360.912	349.28
361.294	352.67
361.676	341.15
362.057	328.04
362.439	327.82
362.821	335.05
363.203	341.15
363.584	334.14
363.966	340.47
364.348	324.88
364.729	296.86
365.111	305.44
365.493	332.34
365.874	301.83
366.256	339.34
366.637	324.2
367.019	300.25
367.4	309.51
367.781	317.65
368.163	300.47
368.544	310.19
368.925	319.45
369.306	302.05
369.688	324.88
370.069	304.54
370.45	320.81
370.831	318.55
371.212	326.01
371.593	313.13
371.974	324.88
372.355	305.9
372.736	307.7
373.117	310.19
373.498	320.58
373.879	306.12
374.26	315.39
374.641	301.38
375.021	307.25
375.402	297.08
375.783	323.97
376.163	326.46
376.544	310.19
376.925	297.08
377.305	325.33
377.686	321.94
378.066	323.75
378.447	333.47
378.827	324.2
379.208	352.45
379.588	341.83
379.968	329.85
380.349	333.92
380.729	313.35
381.109	338.89
381.489	334.6
381.87	347.25
382.25	339.12
382.63	332.79
383.01	338.66
383.39	345.44
383.77	338.21
384.15	361.49
384.53	354.93
384.91	362.84
385.29	344.99
385.67	330.98
386.049	345.67
386.429	350.19
386.809	357.42
387.189	335.73
387.568	358.1
387.948	355.39
388.328	354.03
388.707	343.86
389.087	375.05
389.466	357.87
389.846	336.86
390.225	345.67
390.605	378.44
390.984	383.63
391.363	367.82
391.743	372.79
392.122	370.53
392.501	375.27
392.881	383.63
393.26	364.88
393.639	373.01
394.018	381.83
394.397	372.33
394.776	380.24
395.155	384.76
395.534	390.87
395.913	368.49
396.292	373.46
396.671	372.11
397.05	366.23
397.429	396.51
397.808	397.42
398.186	385.22
398.565	415.27
398.944	394.71
399.323	387.02
399.701	402.16
400.08	392.9
400.458	390.87
400.837	389.74
401.215	399.9
401.594	395.16
401.972	408.49
402.351	408.04
402.729	432.67
403.107	432.9
403.486	392.9
403.864	418.44
404.242	411.66
404.62	406.68
404.999	401.94
405.377	385.89
405.755	419.34
406.133	411.2
406.511	425.21
406.889	446.23
407.267	452.78
407.645	448.72
408.023	416.18
408.401	457.76
408.779	455.72
409.156	443.07
409.534	435.38
409.912	450.75
410.29	458.89
410.667	468.15
411.045	454.14
411.422	455.5
411.8	447.59
412.178	457.53
412.555	470.41
412.933	468.83
413.31	471.54
413.687	472.22
414.065	466.8
414.442	490.52
414.819	500.24
415.197	485.55
415.574	496.17
415.951	495.72
416.328	509.51
416.705	524.65
417.082	506.34
417.46	505.44
417.837	508.6
418.214	510.18
418.591	501.6
418.967	514.93
419.344	522.16
419.721	532.1
420.098	524.42
420.475	540.69
420.852	540.92
421.228	534.14
421.605	531.88
421.982	523.29
422.358	536.62
422.735	550.86
423.111	566.23
423.488	582.27
423.864	556.96
424.241	554.48
424.617	551.31
424.994	575.72
425.37	561.03
425.746	567.58
426.123	588.15
426.499	570.97
426.875	594.48
427.251	602.84
427.627	584.08
428.003	616.17
428.379	591.09
428.756	611.42
429.132	607.13
429.507	622.5
429.883	625.21
430.259	633.12
430.635	623.85
431.011	630.86
431.387	637.64
431.763	643.06
432.138	650.52
432.514	654.81
432.89	672.21
433.265	670.41
433.641	679.9
434.016	670.18
434.392	650.07
434.767	685.09
435.143	711.08
435.518	691.65
435.894	735.72
436.269	718.99
436.644	716.28
437.02	707.47
437.395	723.06
437.77	717.86
438.145	747.24
438.52	735.49
438.895	739.33
439.271	761.25
439.646	775.94
440.021	747.69
440.395	770.29
440.77	762.38
441.145	777.52
441.52	781.36
441.895	760.35
442.27	791.98
442.645	787.24
443.019	787.47
443.394	794.7
443.769	792.21
444.143	808.03
444.518	807.8
444.892	815.94
445.267	826.79
445.641	832.44
446.016	845.77
446.39	818.42
446.764	857.97
447.139	838.54
447.513	855.03
447.887	848.03
448.262	844.41
448.636	849.16
449.01	857.75
449.384	880.34
449.758	898.65
450.132	885.99
450.506	887.58
450.88	873.11
451.254	904.3
451.628	904.75
452.002	918.31
452.376	925.77
452.75	910.17
453.123	904.98
453.497	943.39
453.871	947.91
454.244	963.51
454.618	990.4
454.992	979.55
455.365	973
455.739	1026.78
456.112	1021.81
456.486	1001.47
456.859	1019.55
457.232	1041.02
457.606	1050.51
457.979	1053.22
458.352	1071.75
458.725	1076.95
459.099	1054.58
459.472	1118.3
459.845	1094.58
460.218	1122.15
460.591	1146.33
460.964	1147.91
461.337	1144.97
461.71	1175.03
462.083	1169.38
462.456	1194.23
462.829	1182.26
463.201	1214.8
463.574	1208.02
463.947	1269.26
464.32	1255.7
464.692	1269.49
465.065	1259.54
465.438	1311.29
465.81	1311.29
466.183	1303.16
466.555	1341.35
466.928	1376.83
467.3	1370.27
467.672	1378.86
468.045	1395.13
468.417	1435.13
468.789	1466.54
469.161	1477.39
469.534	1467.22
469.906	1500.21
470.278	1500.67
470.65	1550.61
471.022	1549.25
471.394	1581.12
471.766	1605.52
472.138	1621.79
472.51	1649.82
472.882	1694.33
473.253	1695.01
473.625	1745.86
473.997	1798.96
474.369	1812.07
474.74	1837.38
475.112	1861.56
475.484	1907.44
475.855	1912.63
476.227	1948.56
476.598	1994.67
476.97	2041.44
477.341	2070.37
477.713	2091.16
478.084	2123.48
478.455	2198.5
478.827	2213.87
479.198	2297.03
479.569	2284.6
479.94	2366.18
480.311	2370.25
480.682	2465.39
481.053	2531.15
481.424	2593.29
481.795	2613.86
482.166	2656.34
482.537	2712.61
482.908	2795.1
483.279	2867.86
483.65	2894.3
484.021	2948.76
484.391	2976.33
484.762	3035.77
485.133	3081.42
485.503	3142.66
485.874	3248.87
486.244	3336.55
486.615	3365.02
486.985	3378.13
487.356	3499.03
487.726	3515.98
488.097	3617.9
488.467	3621.06
488.837	3712.81
489.207	3789.65
489.578	3868.97
489.948	3947.16
490.318	4015.63
490.688	4081.16
491.058	4085.68
491.428	4180.6
491.798	4239.8
492.168	4330.65
492.538	4384.88
492.908	4455.39
493.278	4551.89
493.648	4561.15
494.017	4588.5
494.387	4667.59
494.757	4756.4
495.126	4836.4
495.496	4865.55
495.866	4871.2
496.235	4959.56
496.605	5059.22
496.974	5096.05
497.344	5136.05
497.713	5147.58
498.082	5256.95
498.452	5240.91
498.821	5334.69
499.19	5393.9
499.559	5398.19
499.928	5445.65
500.298	5534.68
500.667	5536.94
501.036	5617.85
501.405	5640.22
501.774	5643.61
502.143	5759.54
502.512	5737.17
502.88	5831.63
503.249	5813.32
503.618	5851.96
503.987	5917.95
504.356	5926.77
504.724	6045.18
505.093	6059.19
505.462	6079.53
505.83	6129.25
506.199	6168.79
506.567	6264.16
506.936	6244.27
507.304	6302.12
507.672	6349.58
508.041	6367.43
508.409	6423.02
508.777	6465.28
509.145	6503.25
509.514	6502.57
509.882	6567.88
510.25	6548.22
510.618	6635.9
510.986	6666.86
511.354	6704.82
511.722	6810.58
512.09	6825.95
512.458	6831.83
512.826	6832.96
513.193	6926.06
513.561	6930.81
513.929	6954.31
514.297	6998.38
514.664	7067.53
515.032	7039.96
515.4	7149.56
515.767	7209.22
516.135	7221.65
516.502	7219.84
516.869	7250.8
517.237	7311.59
517.604	7280.63
517.972	7361.08
518.339	7368.08
518.706	7380.06
519.073	7454.63
519.44	7488.76
519.808	7496.44
520.175	7487.63
520.542	7674.74
520.909	7745.93
521.276	7637.91
521.643	7732.14
522.009	7781.18
522.376	7818.47
522.743	7782.54
523.11	7859.37
523.477	7993.15
523.843	7971.01
524.21	7981.63
524.577	8107.5
524.943	8079.7
525.31	8165.12
525.676	8238.12
526.043	8272.24
526.409	8271.34
526.776	8371.22
527.142	8458
527.508	8412.8
527.874	8521.95
528.241	8557.43
528.607	8571.67
528.973	8627.94
529.339	8606.92
529.705	8723.3
530.071	8741.83
530.437	8843.3
530.803	8891.66
531.169	8946.12
531.535	8929.17
531.901	8950.64
532.267	8960.36
532.632	9080.35
532.998	9113.57
533.364	9176.62
533.73	9149.05
534.095	9230.86
534.461	9244.87
534.826	9234.25
535.192	9396.73
535.557	9384.53
535.923	9410.97
536.288	9459.1
536.653	9533
537.019	9505.43
537.384	9488.25
537.749	9627.46
538.114	9657.97
538.479	9645.31
538.845	9674.46
539.21	9714.46
539.575	9775.03
539.94	9827.23
540.305	9832.2
540.67	9909.03
541.034	9916.72
541.399	9897.28
541.764	9980.67
542.129	10082.59
542.494	10044.85
542.858	10060.44
543.223	10088.24
543.587	10184.51
543.952	10162.81
544.316	10265.86
544.681	10283.71
545.045	10326.88
545.41	10380.43
545.774	10444.39
546.138	10434.67
546.503	10495.68
546.867	10508.11
547.231	10586.3
547.595	10651.39
547.959	10682.12
548.324	10663.82
548.688	10676.02
549.052	10721.89
549.416	10796.02
549.779	10762.34
550.143	10859.29
550.507	10916.46
550.871	10933.64
551.235	10929.12
551.599	11108.32
551.962	11042.56
552.326	11144.48
552.689	11087.31
553.053	11091.6
553.417	11087.31
553.78	11280.3
554.143	11264.48
554.507	11313.52
554.87	11280.97
555.234	11458.37
555.597	11371.59
555.96	11384.47
556.323	11456.11
556.686	11485.04
557.05	11590.12
557.413	11590.8
557.776	11612.72
558.139	11718.93
558.502	11694.3
558.865	11679.61
559.228	11813.62
559.59	11838.02
559.953	11842.32
560.316	11979.49
560.679	11927.96
561.041	11966.38
561.404	12094.74
561.767	12144.23
562.129	12120.5
562.492	12209.99
562.854	12195.07
563.217	12219.71
563.579	12259.25
563.941	12286.6
564.304	12386.48
564.666	12414.05
565.028	12417.67
565.39	12488.63
565.753	12485.24
566.115	12602.97
566.477	12538.34
566.839	12673.48
567.201	12763.2
567.563	12840.71
567.925	12806.36
568.287	12930.2
568.648	12856.98
569.01	12960.25
569.372	13070.76
569.734	12967.94
570.095	13150.76
570.457	13131.77
570.819	13244.54
571.18	13276.18
571.542	13362.73
571.903	13319.57
572.265	13456.28
572.626	13493.57
572.987	13558.88
573.349	13687.69
573.71	13695.6
574.071	13751.87
574.432	13864.41
574.794	14043.61
575.155	14033.67
575.516	13975.59
575.877	14103.05
576.238	14177.85
576.599	14312.31
576.96	14404.28
577.32	14488.57
577.681	14661.45
578.042	14722.92
578.403	14804.95
578.763	14989.35
579.124	15002.68
579.485	15194.54
579.845	15285.84
580.206	15322.68
580.566	15622.33
580.927	15729.45
581.287	15927.63
581.648	15981.42
582.008	16179.83
582.368	16435.19
582.728	16554.51
583.089	16741.85
583.449	16846.48
583.809	17127.83
584.169	17257.77
584.529	17436.74
584.889	17840.58
585.249	17861.37
585.609	18114.92
585.969	18459.54
586.329	18525.53
586.688	18754.45
587.048	19032.64
587.408	19275.34
587.768	19593.98
588.127	19769.79
588.487	20029.9
588.846	20334.97
589.206	20417.23
589.565	20734.96
589.925	21034.62
590.284	21326.81
590.643	21608.39
591.003	21885.22
591.362	22141.25
591.721	22348.93
592.08	22623.28
592.44	23027.11
592.799	23316.36
593.158	23471.61
593.517	23807.42
593.876	24250.8
594.235	24505.71
594.593	24654.63
594.952	25104.34
595.311	25196.54
595.67	25505.01
596.029	26047.59
596.387	26235.38
596.746	26553.57
597.104	26643.06
597.463	26908.59
597.822	27306.32
598.18	27581.34
598.538	27801.44
598.897	28293.86
599.255	28342.67
599.613	28942.21
599.972	29015.65
600.33	29322.99
600.688	29536.99
601.046	29827.38
601.404	30307.14
601.762	30364.09
602.12	30773.8
602.478	31108.02
602.836	31236.83
603.194	31302.82
603.552	31576.71
603.91	31773.54
604.268	32140.77
604.625	32245.85
604.983	32751.37
605.341	32694.87
605.698	33172.6
606.056	33247.4
606.413	33593.83
606.771	34010.77
607.128	34096.87
607.485	33983.2
607.843	34323.53
608.2	34746.57
608.557	35046.68
608.914	35042.61
609.272	35401.7
609.629	35629.71
609.986	35847.56
610.343	35914.45
610.7	36184.73
611.057	36329.58
611.414	36538.16
611.771	36732.28
612.127	36817.48
612.484	36951.49
612.841	37298.14
613.198	37297.47
613.554	37506.5
613.911	37934.06
614.267	37816.32
614.624	38061.51
614.98	38301.96
615.337	38469.19
615.693	38585.12
616.05	38743.98
616.406	38978.33
616.762	38931.32
617.118	39055.84
617.475	39177.64
617.831	39476.39
618.187	39565.65
618.543	39738.53
618.899	39991.41
619.255	40017.85
619.611	40086.32
619.967	40361.57
620.323	40337.16
620.678	40199.08
621.034	40326.99
621.39	40445.41
621.746	40494.67
622.101	40929.46
622.457	40735.57
622.812	40949.8
623.168	41072.06
623.523	41081.09
623.879	41360.64
624.234	40980.31
624.589	41218.27
624.945	41456.45
625.3	41353.86
625.655	41562.66
626.01	41618.71
626.365	41653.51
626.72	41531.7
627.075	41681.76
627.43	41624.36
627.785	41591.59
628.14	41823.67
628.495	41757.69
628.85	41792.94
629.205	41747.74
629.559	42083.78
629.914	41997.46
630.269	42006.95
630.623	41844.24
630.978	41853.96
631.332	42064.12
631.687	42245.13
632.041	41959.04
632.396	42143.67
632.75	42064.8
633.104	42125.14
633.459	41953.16
633.813	42112.71
634.167	42001.07
634.521	41986.83
634.875	42120.16
635.229	41957.46
635.583	42096.66
635.937	41950
636.291	42022.31
636.645	42015.31
636.999	41912.49
637.352	42057.34
637.706	41876.55
638.06	42027.06
638.413	41997.46
638.767	41954.29
639.121	41960.62
639.474	41711.81
639.828	41818.25
640.181	41843.33
640.534	41967.63
640.888	41746.39
641.241	41711.13
641.594	41805.82
641.947	41877.01
642.301	41613.06
642.654	41892.83
643.007	41724.69
643.36	41706.39
643.713	41635.66
644.066	41880.62
644.419	41627.3
644.771	41247.64
645.124	40963.13
645.477	40898.27
645.83	40706.87
646.182	40550.49
646.535	40438.17
646.888	40597.72
647.24	40367.22
647.593	40681.33
647.945	40568.57
648.298	40342.81
648.65	40144.85
649.002	40239.99
649.355	40412.41
649.707	40399.76
650.059	40435.01
650.411	40971.27
650.763	40906.86
651.115	41295.33
651.467	41195.67
651.819	41165.39
652.171	41126.97
652.523	41069.8
652.875	41053.75
653.227	40950.25
653.578	41155.22
653.93	41068.67
654.282	40910.48
654.633	40859.63
654.985	40908.9
655.337	40915.45
655.688	40934.21
656.039	40962.45
656.391	40693.53
656.742	40736.47
657.094	40684.95
657.445	40855.79
657.796	40806.75
658.147	40704.16
658.498	40649.69
658.849	40862.8
659.2	40798.62
659.551	40684.04
659.902	40879.52
660.253	40761.56
660.604	40836.36
660.955	40561.11
661.306	40837.71
661.656	40630.71
662.007	40766.75
662.358	40688.11
662.708	40660.77
663.059	40800.65
663.409	40369.02
663.76	40702.35
664.11	40634.78
664.461	40567.66
664.811	40650.15
665.161	40599.53
665.511	40656.7
665.862	40626.42
666.212	40543.48
666.562	40644.72
666.912	40613.54
667.262	40562.92
667.612	40505.52
667.962	40601.79
668.312	40468.46
668.662	40650.82
669.011	40515.23
669.361	40478.85
669.711	40508.23
670.06	40393.43
670.41	40368.35
670.76	40331.06
671.109	40446.76
671.459	40368.12
671.808	40394.79
672.157	40255.35
672.507	40113.89
672.856	40251.96
673.205	40305.3
673.554	40377.38
673.904	40143.04
674.253	40502.13
674.602	40245.41
674.951	39776.95
675.3	39586.67
675.649	40105.53
675.998	40249.25
676.346	40232.76
676.695	40318.63
677.044	39998.41
677.393	40185.3
677.741	40044.29
678.09	39969.26
678.438	39865.53
678.787	40140.33
679.135	40023.04
679.484	39750.28
679.832	39901.46
680.181	39749.15
680.529	39774.69
680.877	39660.57
681.225	39477.3
681.573	39766.55
681.922	39398.88
682.27	39403.17
682.618	39374.7
682.966	39213.12
683.314	39350.07
683.661	39234.14
684.009	39002.51
684.357	38946.46
684.705	39033.47
685.053	39123.41
685.4	39049.74
685.748	38786.47
686.095	38899.91
686.443	38749.86
686.79	38639.8
687.138	38749.18
687.485	38679.35
687.832	38506.02
688.18	38665.11
688.527	38503.31
688.874	38296.99
689.221	38354.61
689.568	38074.85
689.915	38048.63
690.262	38166.6
690.609	37875.08
690.956	37749.21
691.303	37823.55
691.65	37570.9
691.997	37635.99
692.344	37338.14
692.69	37383.57
693.037	37382.66
693.383	37152.61
693.73	37295.88
694.077	37090.69
694.423	36978.15
694.769	37028.77
695.116	36905.16
695.462	36785.39
695.808	36632.62
696.155	36839.4
696.501	36413.65
696.847	36379.52
697.193	36189.25
697.539	36351.73
697.885	35915.36
698.231	35963.26
698.577	35990.61
698.923	35999.87
699.269	35611.18
699.614	35496.16
699.96	35474.24
700.306	35581.13
700.651	35384.97
700.997	35273.34
701.342	35214.36
701.688	35143.85
702.033	35030.86
702.379	35074.25
702.724	34870.64
703.069	35034.7
703.415	34517.2
703.76	34596.75
704.105	34666.8
704.45	34527.82
704.795	34440.82
705.14	34416.19
705.485	34243.53
705.83	34078.12
706.175	34304.1
706.52	34080.83
706.865	34059.58
707.209	33792.93
707.554	33788.86
707.899	33875.41
708.243	33619.82
708.588	33685.13
708.932	33424.35
709.277	33288.31
709.621	33381.41
709.966	33186.39
710.31	33230.91
710.654	32967.41
710.998	33071.81
711.342	33075.2
711.687	32860.07
712.031	32781.2
712.375	32760.18
712.719	32703.46
713.063	32653.07
713.407	32668.21
713.75	32501.66
714.094	32511.6
714.438	32404.03
714.782	32413.07
715.125	32244.49
715.469	32289.91
715.812	32100.77
716.156	31950.49
716.499	32004.05
716.843	32059.41
717.186	31824.62
717.53	31953.2
717.873	31857.61
718.216	31733.77
718.559	31738.52
718.902	31557.73
719.246	31526.54
719.589	31256.49
719.932	31411.07
720.275	31319.54
720.617	31281.13
720.96	31305.53
721.303	31209.26
721.646	31184.18
721.989	31130.17
722.331	31096.95
722.674	31008.37
723.016	31125.2
723.359	30876.84
723.701	30881.14
724.044	30680.92
724.386	30537.64
724.729	30785.32
725.071	30616.29
725.413	30486.57
725.755	30697.87
726.097	30439.79
726.439	30329.29
726.782	30397.08
727.124	30459.45
727.465	30262.85
727.807	30236.86
728.149	30138.11
728.491	30124.55
728.833	30071.89
729.175	30132.23
729.516	30018.56
729.858	29920.26
730.199	30027.15
730.541	29864.89
730.882	29944.44
731.224	29899.47
731.565	29833.71
731.906	29776.08
732.248	29780.83
732.589	29564.79
732.93	29544.45
733.271	29468.74
733.612	29525.69
733.953	29494.73
734.294	29346.26
734.635	29423.1
734.976	29354.62
735.317	29248.19
735.658	29233.04
735.999	29167.51
736.339	29134.52
736.68	29219.03
737.021	29103.56
737.361	28983.33
737.702	29190.33
738.042	28904.01
738.383	29042.09
738.723	28916.9
739.063	28776.56
739.404	28840.51
739.744	28841.42
740.084	28736.79
740.424	28692.72
740.764	28684.13
741.104	28802.1
741.444	28540.63
741.784	28600.29
742.124	28583.57
742.464	28565.94
742.804	28379.73
743.143	28430.58
743.483	28393.29
743.823	28158.95
744.162	28288.44
744.502	28355.1
744.841	28202.79
745.181	28211.38
745.52	28002.57
745.86	28191.72
746.199	28072.85
746.538	27981.1
746.877	28068.33
747.216	28033.08
747.556	27786.3
747.895	27942.23
748.234	27764.16
748.573	27751.73
748.911	27716.47
749.25	27677.15
749.589	27570.49
749.928	27564.39
750.267	27651.62
750.605	27510.83
750.944	27463.15
751.283	27418.18
751.621	27464.28
751.96	27343.15
752.298	27323.94
752.636	27276.71
752.975	27107.9
753.313	27104.06
753.651	27135.25
753.989	27087.79
754.327	27082.14
754.666	26812.32
755.004	26820
755.342	26909.94
755.679	26894.58
756.017	26672.43
756.355	26793.11
756.693	26691.87
757.031	26586.33
757.368	26497.98
757.706	26556.28
758.044	26268.6
758.381	26466.56
758.719	26295.04
759.056	26331.88
759.394	26219.56
759.731	26020.25
760.068	26061.15
760.405	25870.65
760.743	25927.14
761.08	25848.28
761.417	25777.99
761.754	25592.69
762.091	25482.86
762.428	25498.23
762.765	25414.84
763.102	25469.08
763.438	25334.62
763.775	25150.67
764.112	25284.45
764.449	25247.39
764.785	24976.43
765.122	24947.96
765.458	24789.32
765.795	24820.28
766.131	24836.32
766.467	24728.3
766.804	24518.37
767.14	24482.89
767.476	24404.25
767.812	24340.07
768.148	24399.73
768.485	24153.4
768.821	24156.57
769.157	24039.96
769.492	24025.27
769.828	23960.42
770.164	23748.67
770.5	23732.4
770.836	23755.67
771.171	23587.32
771.507	23542.12
771.842	23296.03
772.178	23404.72
772.513	23317.49
772.849	23286.31
773.184	23006.09
773.519	23001.34
773.855	23074.56
774.19	22947.56
774.525	22903.72
774.86	22835.92
775.195	22858.75
775.53	22510.51
775.865	22567.46
776.2	22418.31
776.535	22224.42
776.87	22275.71
777.205	22133.12
777.539	22054.25
777.874	22017.87
778.209	21922.95
778.543	21773.81
778.878	21712.79
779.212	21625.56
779.547	21550.54
779.881	21675.28
780.215	21436.41
780.55	21451.55
780.884	21357.32
781.218	21240.26
781.552	21259.7
781.886	21199.36
782.22	21054.73
782.554	21015.18
782.888	20779.48
783.222	20722.53
783.556	20667.17
783.889	20532.71
784.223	20440.28
784.557	20393.5
784.89	20415.88
785.224	20316.44
785.557	20173.85
785.891	20080.52
786.224	19978.15
786.558	20008.43
786.891	19913.52
787.224	19882.78
787.557	19791.26
787.891	19758.94
788.224	19628.55
788.557	19643.69
788.89	19653.86
789.223	19604.15
789.556	19322.12
789.888	19293.87
790.221	19249.13
790.554	19158.28
790.887	19137.49
791.219	19033.54
791.552	19011.62
791.884	18951.96
792.217	18962.35
792.549	18777.73
792.882	18659.31
793.214	18626.77
793.546	18697.5
793.879	18504.74
794.211	18356.27
794.543	18443.72
794.875	18349.94
795.207	18392.65
795.539	18381.13
795.871	18369.38
796.203	18102.26
796.535	18040.12
796.867	18023.17
797.198	18074.24
797.53	17912.89
797.862	17770.52
798.193	17791.54
798.525	17717.87
798.856	17780.46
799.188	17555.84
799.519	17550.87
799.85	17389.06
800.182	17474.03
800.513	17488.04
800.844	17323.08
801.175	17316.07
801.506	17259.35
801.837	17222.29
802.168	17168.05
802.499	17033.37
802.83	16986.36
803.161	16937.32
803.491	17078.11
803.822	17013.03
804.153	16827.04
804.483	16728.97
804.814	16640.16
805.145	16597.44
805.475	16604
805.805	16591.34
806.136	16588.86
806.466	16547.95
806.796	16392.93
807.126	16371.01
807.457	16354.74
807.787	16361.52
808.117	16235.42
808.447	16134.86
808.777	16198.36
809.107	16044.24
809.436	16085.59
809.766	16068.19
810.096	16030.68
810.426	15931.02
810.755	15980.96
811.085	15869.78
811.414	15818.71
811.744	15793.17
812.073	15745.94
812.403	15712.04
812.732	15621.43
813.061	15636.57
813.39	15519.06
813.719	15432.28
814.049	15548.43
814.378	15462.56
814.707	15338.49
815.036	15436.12
815.365	15295.33
815.693	15226.86
816.022	15254.66
816.351	15157.03
816.68	15113.19
817.008	15157.93
817.337	14993.87
817.665	14919.75
817.994	15056.69
818.322	14943.25
818.651	14918.62
818.979	14840.43
819.307	14828.9
819.636	14868.68
819.964	14679.76
820.292	14774.22
820.62	14690.15
820.948	14736.93
821.276	14775.57
821.604	14705.52
821.932	14748.23
822.259	14754.56
822.587	14751.62
822.915	14685.18
823.243	14739.64
823.57	14650.83
823.898	14625.29
824.225	14580.32
824.553	14565.41
824.88	14601.11
825.207	14588.46
825.535	14537.84
825.862	14631.17
826.189	14490.16
826.516	14649.93
826.843	14669.59
827.17	14589.59
827.497	14637.72
827.824	14679.76
828.151	14658.29
828.478	14574
828.805	14650.38
829.131	14642.24
829.458	14581
829.785	14555.92
830.111	14480.66
830.438	14642.69
830.764	14509.82
831.09	14557.95
831.417	14510.04
831.743	14602.47
832.069	14632.98
832.395	14446.99
832.722	14590.27
833.048	14437.28
833.374	14512.75
833.7	14398.63
834.026	14421.23
834.351	14523.38
834.677	14448.8
835.003	14455.35
835.329	14468.69
835.654	14431.17
835.98	14348.92
836.306	14303.49
836.631	14312.99
836.956	14397.28
837.282	14301.23
837.607	14173.33
837.932	14196.6
838.258	14229.6
838.583	14261.01
838.908	14156.38
839.233	14099.88
839.558	14092.43
839.883	14068.25
840.208	13965.65
840.533	14031.41
840.858	13997.74
841.182	13974.46
841.507	13941.02
841.832	13939.89
842.156	13924.75
842.481	13914.58
842.805	13883.39
843.13	13763.4
843.454	13726.33
843.778	13669.39
844.103	13760.46
844.427	13637.07
844.751	13558.88
845.075	13631.65
845.399	13498.54
845.723	13517.75
846.047	13549.39
846.371	13424.65
846.695	13423.29
847.019	13283.63
847.343	13270.98
847.666	13186.91
847.99	13084.32
848.313	13155.05
848.637	13033.7
848.96	13026.01
849.284	12913.93
849.607	12883.42
849.931	12760.26
850.254	12792.8
850.577	12694.04
850.9	12560.71
851.223	12564.78
851.546	12567.04
851.869	12413.83
852.192	12443.43
852.515	12334.28
852.838	12280.72
853.161	12361.17
853.483	12252.47
853.806	12163.66
854.129	12205.7
854.451	12151.01
854.774	12104
855.096	12050.67
855.419	12058.58
855.741	11997.34
856.063	11902.43
856.385	11956.89
856.708	11803.67
857.03	11821.98
857.352	11783.11
857.674	11754.18
857.996	11771.13
858.318	11726.84
858.64	11731.13
858.961	11688.2
859.283	11547.86
859.605	11495.21
859.926	11595.32
860.248	11559.39
860.57	11442.78
860.891	11473.96
861.212	11417.02
861.534	11394.19
861.855	11356
862.176	11328.43
862.498	11341.76
862.819	11351.93
863.14	11257.02
863.461	11214.99
863.782	11249.11
864.103	11260.64
864.424	11189.45
864.745	11146.97
865.065	11165.5
865.386	11029.91
865.707	11149
866.027	11067.87
866.348	11050.02
866.668	11081.21
866.989	11030.81
867.309	10939.51
867.63	10956.92
867.95	10996.91
868.27	10873.75
868.59	10957.59
868.91	10884.6
869.23	10893.19
869.55	10795.11
869.87	10912.62
870.19	10838.95
870.51	10787.65
870.83	10888.44
871.15	10762.57
871.469	10756.92
871.789	10844.83
872.109	10755.56
872.428	10609.35
872.748	10731.61
873.067	10662.69
873.386	10736.13
873.706	10712.85
874.025	10609.81
874.344	10584.72
874.663	10601.67
874.982	10593.54
875.301	10619.97
875.62	10496.14
875.939	10473.09
876.258	10527.1
876.577	10457.72
876.896	10424.05
877.214	10432.18
877.533	10453.65
877.852	10332.98
878.17	10314.22
878.489	10325.07
878.807	10261.57
879.125	10350.15
879.444	10272.87
879.762	10275.58
880.08	10280.1
880.398	10194.22
880.716	10287.33
881.034	10174.56
881.352	10237.84
881.67	10139.31
881.988	10192.19
882.306	10094.11
882.624	10135.92
882.941	10087.56
883.259	10022.93
883.577	10025.87
883.894	9994
884.212	9976.15
884.529	9953.1
884.846	9964.62
885.164	9905.19
885.481	9836.27
885.798	9873.55
886.115	9804.18
886.432	9862.03
886.75	9845.08
887.067	9811.18
887.383	9756.04
887.7	9781.8
888.017	9691.64
888.334	9715.14
888.651	9659.55
888.967	9633.56
889.284	9610.51
889.6	9583.62
889.917	9484.19
890.233	9487.35
890.55	9464.75
890.866	9451.42
891.182	9530.74
891.498	9418.88
891.815	9381.36
892.131	9370.52
892.447	9349.95
892.763	9208.94
893.079	9319.67
893.395	9222.72
893.71	9202.84
894.026	9190.86
894.342	9203.97
894.657	9143.63
894.973	9076.96
895.289	9067.93
895.604	9095.5
895.92	8969.85
896.235	8975.72
896.55	9008.94
896.865	8922.39
897.181	8883.52
897.496	8942.05
897.811	8918.32
898.126	8827.25
898.441	8771.89
898.756	8715.62
899.071	8711.32
899.386	8778.22
899.7	8627.26
900.015	8667.48
900.33	8581.16
900.644	8560.37
900.959	8603.98
901.273	8483.99
901.588	8481.05
901.902	8418.68
902.216	8442.63
902.531	8414.38
902.845	8358.57
903.159	8331.9
903.473	8307.72
903.787	8241.96
904.101	8192.24
904.415	8266.36
904.729	8209.87
905.042	8130.55
905.356	8070.44
905.67	8090.78
905.984	8141.85
906.297	8048.52
906.611	7986.82
906.924	7995.19
907.237	7999.7
907.551	7949.54
907.864	7879.26
908.177	7870.89
908.491	7904.57
908.804	7837.9
909.117	7736.89
909.43	7678.58
909.743	7602.88
910.056	7710.45
910.368	7643.56
910.681	7600.62
910.994	7560.39
911.307	7508.19
911.619	7504.8
911.932	7481.07
912.244	7464.35
912.557	7403.79
912.869	7388.2
913.181	7335.54
913.494	7320.85
913.806	7285.83
914.118	7247.63
914.43	7229.78
914.742	7263.68
915.054	7123.34
915.366	7101.88
915.678	7128.09
915.99	7103.68
916.302	6997.7
916.613	7027.98
916.925	7040.41
917.236	6973.97
917.548	6965.16
917.859	6965.16
918.171	6872.28
918.482	6853.97
918.794	6804.93
919.105	6836.35
919.416	6765.16
919.727	6740.3
920.038	6725.61
920.349	6663.47
920.66	6633.64
920.971	6603.36
921.282	6586.18
921.593	6557.93
921.903	6544.38
922.214	6496.47
922.525	6488.78
922.835	6489.46
923.146	6464.15
923.456	6405.85
923.767	6425.06
924.077	6405.4
924.387	6341.44
924.697	6216.02
925.008	6247.89
925.318	6259.64
925.628	6262.12
925.938	6210.6
926.248	6165.4
926.558	6127.66
926.867	6089.25
927.177	6065.29
927.487	6055.35
927.796	6037.5
928.106	5986.65
928.416	5976.48
928.725	5966.99
929.034	5943.04
929.344	5940.55
929.653	5905.52
929.962	5889.7
930.271	5904.62
930.581	5781.23
930.89	5809.93
931.199	5729.71
931.508	5758.18
931.817	5735.13
932.125	5666.21
932.434	5691.07
932.743	5651.97
933.051	5589.6
933.36	5576.49
933.669	5555.7
933.977	5542.59
934.286	5539.2
934.594	5481.58
934.902	5476.83
935.21	5394.8
935.519	5409.04
935.827	5395.25
936.135	5371.3
936.443	5321.36
936.751	5335.82
937.059	5311.64
937.367	5232.32
937.674	5264.18
937.982	5255.82
938.29	5273
938.597	5248.82
938.905	5156.16
939.213	5128.59
939.52	5110.29
939.827	5160.23
940.135	5092.44
940.442	5051.08
940.749	5048.37
941.056	5013.34
941.363	4961.59
941.67	4973.57
941.977	4946
942.284	4936.51
942.591	4884.53
942.898	4859
943.205	4866.23
943.511	4868.26
943.818	4825.1
944.125	4822.84
944.431	4762.5
944.738	4764.76
945.044	4768.6
945.35	4689.06
945.657	4726.34
945.963	4701.49
946.269	4692
946.575	4653.35
946.881	4586.91
947.187	4594.6
947.493	4541.49
947.799	4541.72
948.105	4479.8
948.41	4507.59
948.716	4523.19
949.022	4463.75
949.327	4460.81
949.633	4423.53
949.938	4436.63
950.244	4445.45
950.549	4380.37
950.854	4361.83
951.16	4321.16
951.465	4376.52
951.77	4297.2
952.075	4293.36
952.38	4271.44
952.685	4267.15
952.99	4225.57
953.294	4207.04
953.599	4163.65
953.904	4195.29
954.209	4155.06
954.513	4148.96
954.818	4117.32
955.122	4098.79
955.426	4146.25
955.731	4078.68
956.035	4011.34
956.339	4033.03
956.643	4050.88
956.948	4021.05
957.252	3963.43
957.556	3977.89
957.86	3958.68
958.163	3965.69
958.467	3928.85
958.771	3859.93
959.075	3914.61
959.378	3878.46
959.682	3868.74
959.985	3858.12
960.289	3797.33
960.592	3795.07
960.896	3796.88
961.199	3804.79
961.502	3705.35
961.805	3745.13
962.108	3720.5
962.411	3713.04
962.714	3689.08
963.017	3684.56
963.32	3659.71
963.623	3643.44
963.926	3630.55
964.228	3598.24
964.531	3606.15
964.833	3580.39
965.136	3540.84
965.438	3538.58
965.741	3516.66
966.043	3498.81
966.345	3517.79
966.648	3474.17
966.95	3467.62
967.252	3469.2
967.554	3442.31
967.856	3456.32
968.158	3408.41
968.46	3385.81
968.761	3342.88
969.063	3355.76
969.365	3351.24
969.666	3314.86
969.968	3285.25
970.269	3328.64
970.571	3293.16
970.872	3300.62
971.174	3304.91
971.475	3259.49
971.776	3264.91
972.077	3214.97
972.378	3179.49
972.679	3214.29
972.98	3144.69
973.281	3162.32
973.582	3209.32
973.883	3138.59
974.183	3134.52
974.484	3132.49
974.785	3083
975.085	3090.91
975.386	3081.42
975.686	3087.07
975.986	3049.1
976.287	3026.28
976.587	3003.68
976.887	3002.32
977.187	3026.73
977.487	2985.15
977.787	2929.33
978.087	2953.74
978.387	2965.26
978.687	2943.11
978.987	2904.25
979.286	2901.08
979.586	2855.66
979.885	2846.39
980.185	2871.7
980.484	2835.32
980.784	2856.11
981.083	2854.08
981.382	2830.12
981.682	2754.87
981.981	2782.67
982.28	2800.29
982.579	2782.89
982.878	2773.18
983.177	2715.1
983.475	2730.01
983.774	2700.86
984.073	2711.26
984.372	2651.82
984.67	2650.02
984.969	2674.2
985.267	2626.51
985.566	2636.46
985.864	2602.33
986.162	2611.15
986.461	2604.14
986.759	2578.83
987.057	2580.19
987.355	2603.01
987.653	2595.55
987.951	2539.28
988.249	2508.32
988.547	2548.55
988.844	2504.71
989.142	2486.18
989.44	2500.64
989.737	2456.57
990.035	2450.47
990.332	2433.3
990.63	2480.98
990.927	2431.04
991.224	2422.68
991.521	2424.26
991.819	2401.66
992.116	2369.12
992.413	2378.61
992.71	2365.05
993.006	2395.11
993.303	2352.4
993.6	2368.44
993.897	2312.4
994.193	2336.13
994.49	2324.6
994.787	2303.36
995.083	2271.49
995.379	2286.63
995.676	2262
995.972	2252.51
996.268	2231.04
996.565	2210.93
996.861	2214.09
997.157	2198.73
997.453	2198.73
997.749	2193.08
998.044	2165.51
998.34	2158.95
998.636	2132.51
998.932	2137.26
999.227	2124.61
999.523	2126.19
999.818	2109.69
1000.114	2067.43
1000.409	2050.03
1000.704	2069.01
1001	2051.84
1001.295	2058.17
1001.59	2083.02
1001.885	2043.25
1002.18	2034.89
1002.475	2042.35
1002.77	2019.75
1003.065	1986.76
1003.359	1959.19
1003.654	1930.49
1003.949	1964.16
1004.243	1962.12
1004.538	1927.32
1004.832	1941.56
1005.127	1913.99
1005.421	1886.19
1005.715	1868.79
1006.009	1868.34
1006.304	1897.27
1006.598	1880.77
1006.892	1845.06
1007.186	1854.33
1007.48	1830.15
1007.773	1815.01
1008.067	1827.21
1008.361	1803.71
1008.655	1778.17
1008.948	1793.31
1009.242	1753.99
1009.535	1751.51
1009.829	1748.12
1010.122	1711.28
1010.415	1717.38
1010.708	1742.47
1011.001	1718.29
1011.295	1712.86
1011.588	1696.37
1011.881	1695.69
1012.173	1696.59
1012.466	1689.36
1012.759	1675.13
1013.052	1670.15
1013.344	1646.2
1013.637	1624.28
1013.93	1645.52
1014.222	1624.96
1014.514	1605.3
1014.807	1608.69
1015.099	1575.69
1015.391	1551.51
1015.683	1558.74
1015.976	1540.67
1016.268	1554.68
1016.56	1542.7
1016.851	1538.63
1017.143	1521.91
1017.435	1471.74
1017.727	1490.5
1018.018	1457.96
1018.31	1472.42
1018.602	1471.06
1018.893	1450.95
1019.185	1488.01
1019.476	1430.16
1019.767	1429.71
1020.058	1438.3
1020.35	1428.8
1020.641	1382.93
1020.932	1408.24
1021.223	1394.45
1021.514	1377.96
1021.804	1363.95
1022.095	1395.81
1022.386	1348.35
1022.677	1337.73
1022.967	1329.82
1023.258	1331.63
1023.548	1295.02
1023.839	1333.67
1024.129	1291.41
1024.419	1284.18
1024.709	1271.97
1025	1267.68
1025.29	1283.72
1025.58	1271.07
1025.87	1272.88
1026.16	1260
1026.449	1224.74
1026.739	1219.32
1027.029	1228.13
1027.319	1224.06
1027.608	1252.31
1027.898	1203.05
1028.187	1211.63
1028.477	1169.15
1028.766	1157.17
1029.055	1174.12
1029.344	1164.63
1029.634	1153.78
1029.923	1158.08
1030.212	1123.28
1030.501	1120.34
1030.79	1142.03
1031.078	1130.51
1031.367	1106.55
1031.656	1107.23
1031.945	1104.52
1032.233	1082.15
1032.522	1110.62
1032.81	1076.72
1033.099	1046.89
1033.387	1056.38
1033.675	1055.93
1033.963	1066.55
1034.251	1019.78
1034.54	1022.94
1034.828	1023.17
1035.116	1021.58
1035.403	1024.52
1035.691	1005.09
1035.979	993.11
1036.267	990.4
1036.554	987.23
1036.842	998.31
1037.129	996.27
1037.417	960.34
1037.704	980
1037.992	933.68
1038.279	961.02
1038.566	963.51
1038.853	963.51
1039.14	963.51
