Data from hue_250_FLMS001491_00038.txt Node
Date: Tue Feb 07 16:00:54 GMT 2017
User: dcchb
Spectrometer: FLMS00149
Trigger mode: 0
Integration Time (sec): 2.000000E-2
Scans to average: 10
Electric dark correction enabled: true
Nonlinearity correction enabled: false
Boxcar width: 0
XAxis mode: Wavelengths
Number of Pixels in Spectrum: 2048
>>>>>Begin Spectral Data<<<<<
341.393	-11.98
341.776	-11.98
342.16	-11.98
342.543	-60.11
342.927	-47.68
343.31	-60.11
343.693	-59.89
344.077	-53.33
344.46	-71.64
344.843	-63.05
345.226	-52.2
345.61	-38.64
345.993	-3.84
346.376	4.52
346.759	4.75
347.142	13.78
347.525	51.98
347.908	58.3
348.291	76.83
348.674	102.14
349.057	90.39
349.44	118.64
349.823	141.01
350.206	154.8
350.588	177.17
350.971	190.5
351.354	219.66
351.737	225.76
352.119	256.94
352.502	240.22
352.884	269.15
353.267	265.76
353.65	273.67
354.032	280.67
354.414	268.02
354.797	306.66
355.179	315.02
355.562	291.07
355.944	303.27
356.326	334.68
356.709	318.86
357.091	330.84
357.473	320.9
357.855	347.34
358.238	323.61
358.62	341.91
359.002	320.22
359.384	334.23
359.766	306.21
360.148	319.77
360.53	334
360.912	335.13
361.294	324.06
361.676	322.93
362.057	319.54
362.439	314.79
362.821	317.73
363.203	300.11
363.584	296.49
363.966	320.9
364.348	315.25
364.729	298.98
365.111	320.22
365.493	335.81
365.874	318.41
366.256	301.91
366.637	324.06
367.019	302.14
367.4	309.6
367.781	303.95
368.163	304.17
368.544	315.92
368.925	293.55
369.306	316.83
369.688	318.86
370.069	293.1
370.45	292.2
370.831	284.06
371.212	301.24
371.593	305.98
371.974	285.42
372.355	298.75
372.736	333.78
373.117	289.94
373.498	308.92
373.879	293.1
374.26	296.49
374.641	311.63
375.021	294.68
375.402	322.7
375.783	306.43
376.163	324.74
376.544	335.58
376.925	308.24
377.305	310.05
377.686	332.19
378.066	313.44
378.447	324.06
378.827	333.32
379.208	333.1
379.588	310.95
379.968	313.44
380.349	329.48
380.729	319.31
381.109	307.11
381.489	334.91
381.87	315.7
382.25	330.84
382.63	338.75
383.01	322.25
383.39	324.29
383.77	332.65
384.15	348.69
384.53	322.93
384.91	322.93
385.29	351.63
385.67	344.62
386.049	358.63
386.429	346.88
386.809	360.22
387.189	355.47
387.568	340.1
387.948	336.26
388.328	332.65
388.707	350.27
389.087	350.95
389.466	339.43
389.846	352.08
390.225	345.75
390.605	353.21
390.984	364.51
391.363	367.22
391.743	364.51
392.122	363.61
392.501	367.67
392.881	379.2
393.26	365.87
393.639	369.93
394.018	374.68
394.397	385.07
394.776	385.3
395.155	391.18
395.534	371.97
395.913	386.88
396.292	371.97
396.671	388.46
397.05	373.1
397.429	401.12
397.808	383.72
398.186	387.33
398.565	401.57
398.944	398.86
399.323	392.98
399.701	389.37
400.08	387.79
400.458	400.44
400.837	401.35
401.215	434.56
401.594	428.46
401.972	423.04
402.351	405.41
402.729	425.53
403.107	384.62
403.486	422.36
403.864	415.36
404.242	416.94
404.62	421.91
404.999	449.93
405.377	439.99
405.755	450.38
406.133	442.7
406.511	437.28
406.889	461.46
407.267	456.26
407.645	451.29
408.023	469.59
408.401	476.15
408.779	470.27
409.156	480.67
409.534	477.5
409.912	479.08
410.29	515.69
410.667	506.43
411.045	502.36
411.422	507.56
411.8	496.03
412.178	509.59
412.555	545.3
412.933	526.99
413.31	522.7
413.687	528.35
414.065	562.25
414.442	560.89
414.819	569.93
415.197	584.62
415.574	577.16
415.951	583.04
416.328	592.98
416.705	590.27
417.082	618.29
417.46	601.34
417.837	604.73
418.214	614
418.591	612.19
418.967	636.82
419.344	667.33
419.721	665.29
420.098	663.49
420.475	660.32
420.852	656.93
421.228	681.79
421.605	689.25
421.982	684.05
422.358	692.86
422.735	724.73
423.111	716.82
423.488	737.38
423.864	737.61
424.241	774.22
424.617	768.12
424.994	750.26
425.37	763.37
425.746	783.93
426.123	799.98
426.499	803.37
426.875	805.85
427.251	843.82
427.627	842.92
428.003	809.7
428.379	831.62
428.756	855.34
429.132	887.89
429.507	883.37
429.883	919.3
430.259	872.29
430.635	908.22
431.011	928.56
431.387	955.68
431.763	946.64
432.138	968.79
432.514	960.88
432.89	979.41
433.265	998.39
433.641	958.17
434.016	1014.66
434.392	1052.18
434.767	1045.62
435.143	1065.96
435.518	1086.53
435.894	1100.76
436.269	1118.39
436.644	1115
437.02	1135.56
437.395	1143.02
437.77	1167.2
438.145	1177.14
438.52	1192.06
438.895	1225.28
439.271	1218.73
439.646	1245.84
440.021	1248.33
440.395	1268.67
440.77	1261.66
441.145	1298.27
441.52	1285.62
441.895	1324.71
442.27	1310.7
442.645	1338.72
443.019	1387.31
443.394	1355.67
443.769	1382.56
444.143	1354.99
444.518	1395.67
444.892	1392.05
445.267	1387.53
445.641	1428.44
446.016	1426.18
446.39	1415.1
446.764	1474.09
447.139	1460.53
447.513	1464.37
447.887	1480.19
448.262	1470.24
448.636	1498.04
449.01	1514.54
449.384	1504.82
449.758	1490.81
450.132	1540.07
450.506	1529.23
450.88	1550.47
451.254	1552.28
451.628	1579.39
452.002	1609.45
452.376	1606.06
452.75	1624.14
453.123	1627.08
453.497	1623.46
453.871	1669.33
454.244	1683.35
454.618	1707.98
454.992	1721.99
455.365	1747.3
455.739	1750.46
456.112	1802.66
456.486	1801.76
456.859	1840.18
457.232	1850.35
457.606	1815.77
457.979	1870.69
458.352	1879.95
458.725	1949.33
459.099	1930.34
459.472	1970.57
459.845	2015.77
460.218	2011.02
460.591	2037.01
460.964	2022.55
461.337	2097.57
461.71	2088.76
462.083	2088.98
462.456	2069.32
462.829	2086.72
463.201	2161.07
463.574	2152.49
463.947	2169.89
464.32	2215.31
464.692	2267.74
465.065	2262.31
465.438	2317
465.81	2337.11
466.183	2320.16
466.555	2425.47
466.928	2361.75
467.3	2371.46
467.672	2424.57
468.045	2489.43
468.417	2507.28
468.789	2494.85
469.161	2521.52
469.534	2580.5
469.906	2615.3
470.278	2653.49
470.65	2671.34
471.022	2705.69
471.394	2733.26
471.766	2758.8
472.138	2761.06
472.51	2845.57
472.882	2853.26
473.253	2925.8
473.625	2942.75
473.997	2970.09
474.369	3036.3
474.74	3048.06
475.112	3071.33
475.484	3156.3
475.855	3194.04
476.227	3204.21
476.598	3295.05
476.97	3305.45
477.341	3392.45
477.713	3382.06
478.084	3432.9
478.455	3500.02
478.827	3504.09
479.198	3558.78
479.569	3609.62
479.94	3694.14
480.311	3709.51
480.682	3767.81
481.053	3875.6
481.424	3913.8
481.795	3892.33
482.166	3997.41
482.537	4046.67
482.908	4093.9
483.279	4149.95
483.65	4191.3
484.021	4259.32
484.391	4365.53
484.762	4356.5
485.133	4416.83
485.503	4361.69
485.874	4510.84
486.244	4561.24
486.615	4616.83
486.985	4686.43
487.356	4725.53
487.726	4764.85
488.097	4856.6
488.467	4826.77
488.837	5010.49
489.207	4978.17
489.578	5062.47
489.948	5095.23
490.318	5144.5
490.688	5168.68
491.058	5241.44
491.428	5296.81
491.798	5350.37
492.168	5434.43
492.538	5456.58
492.908	5518.27
493.278	5519.63
493.648	5588.33
494.017	5598.27
494.387	5648.89
494.757	5724.37
495.126	5722.11
495.496	5749.68
495.866	5753.75
496.235	5846.85
496.605	5931.14
496.974	5991.48
497.344	5921.2
497.713	6009.11
498.082	5988.32
498.452	6044.13
498.821	6050.46
499.19	6055.21
499.559	6131.36
499.928	6163
500.298	6193.28
500.667	6285.26
501.036	6179.5
501.405	6301.98
501.774	6362.09
502.143	6343.34
502.512	6295.88
502.88	6357.35
503.249	6396.67
503.618	6485.25
503.987	6411.58
504.356	6494.74
504.724	6529.77
505.093	6525.48
505.462	6512.6
505.83	6555.99
506.199	6622.2
506.567	6655.19
506.936	6680.73
507.304	6720.28
507.672	6715.76
508.041	6724.79
508.409	6759.37
508.777	6797.79
509.145	6830.78
509.514	6815.41
509.882	6806.15
510.25	6849.76
510.618	6859.25
510.986	6903.55
511.354	6940.83
511.722	6953.04
512.09	7032.13
512.458	7045.24
512.826	7077.55
513.193	7074.16
513.561	7014.28
513.929	7105.8
514.297	7141.06
514.664	7096.99
515.032	7183.09
515.4	7223.76
515.767	7172.24
516.135	7221.28
516.502	7142.64
516.869	7251.56
517.237	7255.63
517.604	7269.87
517.972	7294.05
518.339	7335.4
518.706	7267.15
519.073	7304.44
519.44	7314.38
519.808	7425.12
520.175	7383.53
520.542	7458.79
520.909	7428.73
521.276	7469.63
521.643	7446.36
522.009	7539.91
522.376	7525.68
522.743	7531.1
523.11	7566.35
523.477	7663.53
523.843	7646.58
524.21	7675.05
524.577	7692.68
524.943	7777.2
525.31	7706.01
525.676	7752.34
526.043	7795.05
526.409	7794.82
526.776	7837.08
527.142	7847.93
527.508	7877.98
527.874	7862.17
528.241	7934.71
528.607	7851.32
528.973	7962.28
529.339	7889.74
529.705	7927.25
530.071	8015.61
530.437	8036.4
530.803	7979.23
531.169	8023.07
531.535	7980.36
531.901	8033.91
532.267	8021.26
532.632	8044.31
532.998	8064.42
533.364	8036.62
533.73	8073.91
534.095	8121.59
534.461	8036.62
534.826	8042.95
535.192	8076.62
535.557	8098.32
535.923	8070.97
536.288	8096.06
536.653	8065.32
537.019	8016.74
537.384	8063.74
537.749	8086.12
538.114	8044.99
538.479	8080.92
538.845	8102.84
539.21	7990.52
539.575	8020.58
539.94	8016.06
540.305	8034.59
540.67	7996.85
541.034	7985.55
541.399	8024.2
541.764	8037.98
542.129	8039.34
542.494	7984.42
542.858	8035.27
543.223	8043.4
543.587	8047.47
543.952	7989.39
544.316	8057.64
544.681	7964.99
545.045	7983.07
545.41	8099.9
545.774	7967.25
546.138	8040.69
546.503	8013.35
546.867	7983.52
547.231	7981.94
547.595	8058.77
547.959	8030.52
548.324	7994.59
548.688	7990.07
549.052	7992.33
549.416	7982.61
549.779	8004.76
550.143	7944.65
550.507	7981.71
550.871	7959.11
551.235	7941.03
551.599	7917.76
551.962	7921.37
552.326	7959.79
552.689	7908.27
553.053	7885.44
553.417	7949.4
553.78	7959.56
554.143	7965.21
554.507	7974.71
554.87	7979.9
555.234	8071.2
555.597	7988.72
555.96	7945.55
556.323	7934.71
556.686	7983.52
557.05	8014.03
557.413	8018.09
557.776	8004.99
558.139	8052.44
558.502	8077.08
558.865	8018.32
559.228	8069.39
559.59	8070.52
559.953	8135.61
560.316	8130.63
560.679	8113.23
561.041	8105.78
561.404	8114.59
561.767	8168.15
562.129	8148.26
562.492	8166.11
562.854	8152.1
563.217	8157.3
563.579	8206.34
563.941	8198.65
564.304	8251.08
564.666	8240.01
565.028	8354.81
565.39	8294.25
565.753	8324.07
566.115	8364.98
566.477	8385.09
566.839	8343.51
567.201	8454.69
567.563	8395.94
567.925	8490.4
568.287	8470.06
568.648	8488.59
569.01	8478.87
569.372	8529.72
569.734	8541.02
570.095	8554.8
570.457	8638.42
570.819	8566.78
571.18	8571.53
571.542	8683.16
571.903	8592.77
572.265	8743.5
572.626	8684.74
572.987	8688.81
573.349	8755.25
573.71	8743.27
574.071	8804.97
574.432	8839.09
574.794	8901.91
575.155	8883.16
575.516	8843.16
575.877	8919.54
576.238	8877.96
576.599	8827.34
576.96	8932.87
577.32	8938.07
577.681	9047.45
578.042	8976.94
578.403	8991.18
578.763	9046.09
579.124	9094.9
579.485	9071.85
579.845	9006.99
580.206	9101.91
580.566	9105.52
580.927	9063.94
581.287	9209.25
581.648	9138.06
582.008	9136.03
582.368	9158.4
582.728	9202.47
583.089	9195.69
583.449	9212.87
583.809	9250.83
584.169	9215.8
584.529	9263.03
584.889	9312.52
585.249	9241.34
585.609	9223.26
585.969	9298.96
586.329	9283.15
586.688	9300.55
587.048	9318.63
587.408	9280.89
587.768	9303.48
588.127	9340.09
588.487	9312.07
588.846	9326.76
589.206	9397.04
589.565	9327.66
589.925	9398.4
590.284	9420.09
590.643	9432.75
591.003	9442.01
591.362	9500.99
591.721	9470.94
592.08	9442.69
592.44	9503.93
592.799	9505.51
593.158	9426.42
593.517	9534.21
593.876	9477.26
594.235	9464.38
594.593	9500.32
594.952	9491.5
595.311	9465.06
595.67	9558.84
596.029	9598.62
596.387	9632.29
596.746	9594.1
597.104	9573.53
597.463	9543.48
597.822	9629.35
598.18	9559.52
598.538	9586.87
598.897	9641.55
599.255	9572.63
599.613	9644.27
599.972	9610.37
600.33	9622.57
600.688	9565.62
601.046	9622.8
601.404	9695.56
601.762	9643.36
602.12	9727.65
602.478	9670.71
602.836	9720.65
603.194	9633.87
603.552	9772.17
603.91	9699.18
604.268	9728.11
604.625	9649.01
604.983	9690.82
605.341	9680.42
605.698	9726.3
606.056	9761.55
606.413	9734.43
606.771	9732.17
607.128	9745.28
607.485	9719.52
607.843	9701.89
608.2	9811.04
608.557	9805.84
608.914	9812.85
609.272	9778.05
609.629	9813.98
609.986	9912.51
610.343	9819.85
610.7	9847.88
611.057	9850.81
611.414	9835
611.771	9844.03
612.127	9906.86
612.484	9881.1
612.841	9939.4
613.198	9914.09
613.554	9890.36
613.911	9915.45
614.267	9999.51
614.624	9865.96
614.98	9922.9
615.337	9926.07
615.693	10018.72
616.05	9958.38
616.406	9992.05
616.762	9945.28
617.118	10018.72
617.475	9941.43
617.831	10028.44
618.187	10041.54
618.543	10014.65
618.899	10030.7
619.255	10067.76
619.611	10084.03
619.967	10056.23
620.323	10114.99
620.678	10042.22
621.034	9993.41
621.39	10086.74
621.746	10080.64
622.101	10144.37
622.457	10016.46
622.812	10089.45
623.168	10084.48
623.523	10149.34
623.879	10142.78
624.234	10059.85
624.589	10092.62
624.945	10074.09
625.3	10032.28
625.655	10068.44
626.01	10062.79
626.365	10099.17
626.72	10124.03
627.075	10059.85
627.43	10073.18
627.785	10075.89
628.14	10062.33
628.495	10084.03
628.85	10079.73
629.205	10043.35
629.559	10076.57
629.914	9959.96
630.269	10021.21
630.623	9980.53
630.978	10011.71
631.332	9993.86
631.687	10053.07
632.041	9952.96
632.396	9996.35
632.75	9967.65
633.104	9997.03
633.459	9903.69
633.813	9886.29
634.167	9899.85
634.521	9943.69
634.875	9899.17
635.229	9853.53
635.583	9827.31
635.937	9885.62
636.291	9774.21
636.645	9816.92
636.999	9804.94
637.352	9839.52
637.706	9752.51
638.06	9763.81
638.413	9702.57
638.767	9758.61
639.121	9718.39
639.474	9708.45
639.828	9695.11
640.181	9732.85
640.534	9758.84
640.888	9605.85
641.241	9654.89
641.594	9656.7
641.947	9617.83
642.301	9668.67
642.654	9617.15
643.007	9567.43
643.36	9614.44
643.713	9631.39
644.066	9633.87
644.419	9636.81
644.771	9542.12
645.124	9390.26
645.477	9469.81
645.83	9376.48
646.182	9279.3
646.535	9278.63
646.888	9282.69
647.24	9268.46
647.593	9305.74
647.945	9304.16
648.298	9254.67
648.65	9144.39
649.002	9226.65
649.355	9239.53
649.707	9270.49
650.059	9256.93
650.411	9362.69
650.763	9431.39
651.115	9474.1
651.467	9464.38
651.819	9401.79
652.171	9422.35
652.523	9446.76
652.875	9488.11
653.227	9422.8
653.578	9430.49
653.93	9431.84
654.282	9372.41
654.633	9370.38
654.985	9347.1
655.337	9485.4
655.688	9486.53
656.039	9516.81
656.391	9357.49
656.742	9423.71
657.094	9416.48
657.445	9465.51
657.796	9330.38
658.147	9384.84
658.498	9421.67
658.849	9449.47
659.2	9381
659.551	9394.33
659.902	9424.16
660.253	9385.52
660.604	9474.1
660.955	9339.87
661.306	9408.57
661.656	9345.97
662.007	9401.11
662.358	9480.43
662.708	9439.53
663.059	9434.33
663.409	9337.16
663.76	9362.69
664.11	9433.88
664.461	9404.05
664.811	9477.26
665.161	9388.23
665.511	9379.41
665.862	9419.41
666.212	9442.01
666.562	9388.45
666.912	9468.9
667.262	9411.5
667.612	9416.7
667.962	9392.75
668.312	9445.85
668.662	9480.65
669.011	9406.31
669.361	9417.83
669.711	9392.52
670.06	9395.01
670.41	9332.18
670.76	9414.67
671.109	9418.06
671.459	9415.8
671.808	9429.36
672.157	9383.71
672.507	9330.6
672.856	9340.32
673.205	9311.17
673.554	9305.97
673.904	9321.34
674.253	9379.64
674.602	9308
674.951	9211.74
675.3	9120.89
675.649	9273.2
675.998	9296.48
676.346	9262.81
676.695	9242.24
677.044	9171.28
677.393	9197.95
677.741	9196.14
678.09	9263.71
678.438	9230.94
678.787	9294.22
679.135	9175.35
679.484	9128.12
679.832	9127.9
680.181	9086.09
680.529	9095.81
680.877	9171.51
681.225	9073.89
681.573	9115.69
681.922	9034.56
682.27	9014.68
682.618	9031.4
682.966	9006.54
683.314	9089.48
683.661	9034.56
684.009	8967.45
684.357	8905.75
684.705	8910.05
685.053	8907.11
685.4	8921.8
685.748	8839.77
686.095	8852.65
686.443	8769.49
686.79	8826.66
687.138	8842.93
687.485	8851.29
687.832	8878.64
688.18	8792.31
688.527	8726.78
688.874	8705.76
689.221	8783.95
689.568	8631.19
689.915	8644.74
690.262	8644.97
690.609	8605.42
690.956	8592.54
691.303	8547.57
691.65	8495.37
691.997	8522.04
692.344	8437.07
692.69	8474.58
693.037	8384.64
693.383	8379.21
693.73	8434.35
694.077	8278.2
694.423	8350.06
694.769	8247.24
695.116	8314.36
695.462	8255.6
695.808	8245.21
696.155	8286.56
696.501	8233.68
696.847	8263.06
697.193	8114.81
697.539	8093.35
697.885	8050.18
698.231	8015.16
698.577	8013.12
698.923	7973.8
699.269	7993.24
699.614	7931.54
699.96	7891.09
700.306	7903.52
700.651	7907.59
700.997	7909.4
701.342	7811.77
701.688	7784.43
702.033	7732.9
702.379	7763.86
702.724	7766.58
703.069	7729.06
703.415	7677.31
703.76	7650.65
704.105	7650.65
704.45	7600.93
704.795	7654.04
705.14	7593.25
705.485	7560.48
705.83	7421.05
706.175	7513.7
706.52	7438
706.865	7447.26
707.209	7475.28
707.554	7412.23
707.899	7419.69
708.243	7403.2
708.588	7305.8
708.932	7280.26
709.277	7316.64
709.621	7257.89
709.966	7225.57
710.31	7241.62
710.654	7196.42
710.998	7169.3
711.342	7172.47
711.687	7159.81
712.031	7140.15
712.375	7127.72
712.719	7169.98
713.063	7077.55
713.407	7156.65
713.75	7070.55
714.094	7120.72
714.438	7091.34
714.782	6995.52
715.125	6981.06
715.469	6975.18
715.812	6959.59
716.156	6987.16
716.499	6908.07
716.843	6992.13
717.186	6934.05
717.53	6989.65
717.873	6948.52
718.216	6901.06
718.559	6923.43
718.902	6926.37
719.246	6894.73
719.589	6806.37
719.932	6835.53
720.275	6824.91
720.617	6765.25
720.96	6810.22
721.303	6837.79
721.646	6806.83
721.989	6729.09
722.331	6797.56
722.674	6789.43
723.016	6755.98
723.359	6736.32
723.701	6755.3
724.044	6749.43
724.386	6703.1
724.729	6745.81
725.071	6690.67
725.413	6664.01
725.755	6644.8
726.097	6659.94
726.439	6647.51
726.782	6651.12
727.124	6735.64
727.465	6665.14
727.807	6695.64
728.149	6642.99
728.491	6643.44
728.833	6714.17
729.175	6589.21
729.516	6599.83
729.858	6577
730.199	6606.15
730.541	6607.51
730.882	6639.6
731.224	6646.38
731.565	6578.13
731.906	6591.69
732.248	6562.99
732.589	6558.02
732.93	6588.98
733.271	6600.28
733.612	6585.14
733.953	6574.06
734.294	6575.19
734.635	6540.17
734.976	6575.19
735.317	6557.79
735.658	6575.19
735.999	6602.31
736.339	6524.57
736.68	6586.04
737.021	6570.9
737.361	6545.14
737.702	6563.67
738.042	6552.6
738.383	6544.23
738.723	6583.78
739.063	6570.22
739.404	6624.01
739.744	6535.2
740.084	6568.19
740.424	6562.54
740.764	6555.99
741.104	6591.92
741.444	6600.05
741.784	6650.45
742.124	6616.55
742.464	6594.4
742.804	6601.18
743.143	6622.88
743.483	6684.57
743.823	6689.32
744.162	6679.15
744.502	6686.15
744.841	6659.49
745.181	6714.17
745.52	6716.89
745.86	6713.5
746.199	6770.67
746.538	6836.88
746.877	6814.96
747.216	6848.41
747.556	6885.47
747.895	6889.76
748.234	6918.69
748.573	6951.91
748.911	7021.28
749.25	7044.33
749.589	6992.58
749.928	7086.59
750.267	7152.81
750.605	7174.95
750.944	7209.53
751.283	7233.26
751.621	7266.48
751.96	7333.82
752.298	7417.21
752.636	7471.22
752.975	7500.37
753.313	7600.93
753.651	7715.96
753.989	7713.02
754.327	7746.46
754.666	7845.22
755.004	7887.93
755.342	8048.38
755.679	8091.31
756.017	8179.22
756.355	8248.37
756.693	8332.89
757.031	8425.99
757.368	8499.44
757.706	8590.96
758.044	8648.13
758.381	8765.87
758.719	8909.14
759.056	8989.37
759.394	9011.29
759.731	9127.44
760.068	9266.65
760.405	9378.96
760.743	9429.58
761.08	9557.94
761.417	9647.88
761.754	9710.48
762.091	9861.44
762.428	9920.19
762.765	10016.46
763.102	10127.87
763.438	10201.09
763.775	10252.61
764.112	10405.83
764.449	10566.05
764.785	10561.76
765.122	10723.33
765.458	10840.17
765.795	10875.87
766.131	10973.27
766.467	11048.75
766.804	11178.46
767.14	11179.82
767.476	11309.76
767.812	11263.66
768.148	11402.41
768.485	11439.47
768.821	11501.17
769.157	11591.79
769.492	11691.22
769.828	11755.4
770.164	11691.44
770.5	11811.44
770.836	11927.6
771.171	11925.34
771.507	12003.75
771.842	12035.16
772.178	12115.84
772.513	12121.49
772.849	12122.85
773.184	12136.63
773.519	12272.22
773.855	12233.58
774.19	12311.31
774.525	12253.69
774.86	12449.16
775.195	12370.97
775.53	12398.09
775.865	12392.89
776.2	12383.18
776.535	12379.79
776.87	12488.71
777.205	12415.27
777.539	12441.03
777.874	12486.9
778.209	12401.48
778.543	12511.99
778.878	12414.36
779.212	12508.6
779.547	12505.21
779.881	12570.29
780.215	12558.77
780.55	12545.21
780.884	12487.13
781.218	12520.8
781.552	12524.64
781.886	12475.6
782.22	12438.09
782.554	12480.12
782.888	12404.87
783.222	12431.09
783.556	12395.61
783.889	12281.03
784.223	12251.43
784.557	12314.7
784.89	12370.97
785.224	12316.06
785.557	12267.47
785.891	12284.42
786.224	12228.15
786.558	12288.04
786.891	12210.3
787.224	12178.66
787.557	12128.49
787.891	12140.02
788.224	12140.7
788.557	12240.13
788.89	12104.77
789.223	12115.61
789.556	12027.25
789.888	11974.6
790.221	12031.1
790.554	11912.68
790.887	11931.44
791.219	11924.66
791.552	11951.55
791.884	11948.61
792.217	11871.33
792.549	11912.91
792.882	11832.23
793.214	11830.88
793.546	11726.02
793.879	11608.51
794.211	11645.34
794.543	11679.01
794.875	11701.84
795.207	11674.04
795.539	11621.84
795.871	11614.16
796.203	11549.98
796.535	11492.81
796.867	11517.89
797.198	11455.52
797.53	11417.1
797.862	11396.54
798.193	11395.63
798.525	11409.19
798.856	11387.72
799.188	11229.08
799.519	11274.28
799.85	11188.18
800.182	11169.2
800.513	11263.66
800.844	11078.8
801.175	11187.5
801.506	11202.64
801.837	11066.38
802.168	11110.44
802.499	11050.33
802.83	11019.15
803.161	10989.54
803.491	11031.35
803.822	10973.04
804.153	10971.01
804.483	10950.22
804.814	10813.05
805.145	10780.96
805.475	10831.58
805.805	10737.57
806.136	10790.9
806.466	10778.7
806.796	10754.29
807.126	10679.72
807.457	10648.08
807.787	10647.18
808.117	10620.29
808.447	10559.5
808.777	10537.12
809.107	10559.95
809.436	10573.96
809.766	10525.82
810.096	10460.97
810.426	10450.57
810.755	10467.97
811.085	10416
811.414	10414.19
811.744	10370.57
812.073	10333.29
812.403	10381.42
812.732	10305.04
813.061	10324.7
813.39	10291.25
813.719	10229.79
814.049	10241.54
814.378	10223.46
814.707	10165.61
815.036	10132.16
815.365	10117.93
815.693	10034.54
816.022	10037.48
816.351	10007.65
816.68	9990.25
817.008	10031.83
817.337	9952.28
817.665	9950.47
817.994	9955.9
818.322	9930.81
818.651	9881.1
818.979	9869.35
819.307	9908.89
819.636	9877.03
819.964	9823.02
820.292	9796.35
820.62	9891.94
820.948	9792.51
821.276	9833.41
821.604	9771.49
821.932	9770.14
822.259	9804.04
822.587	9810.59
822.915	9761.1
823.243	9799.29
823.57	9754.77
823.898	9799.52
824.225	9706.64
824.553	9689.46
824.88	9792.28
825.207	9750.7
825.535	9778.5
825.862	9776.69
826.189	9717.94
826.516	9808.33
826.843	9823.02
827.17	9818.72
827.497	9824.37
827.824	9822.57
828.151	9864.83
828.478	9809.01
828.805	9797.93
829.131	9783.47
829.458	9788.22
829.785	9767.2
830.111	9779.18
830.438	9851.27
830.764	9759.97
831.09	9813.08
831.417	9825.73
831.743	9821.44
832.069	9786.86
832.395	9737.82
832.722	9817.14
833.048	9823.24
833.374	9837.71
833.7	9699.63
834.026	9719.29
834.351	9769.69
834.677	9760.87
835.003	9790.48
835.329	9738.05
835.654	9718.16
835.98	9719.74
836.306	9719.07
836.631	9597.49
836.956	9747.99
837.282	9672.29
837.607	9632.52
837.932	9664.38
838.258	9595.23
838.583	9623.48
838.908	9549.13
839.233	9508.45
839.558	9548.45
839.883	9503.7
840.208	9487.89
840.533	9489.02
840.858	9488.56
841.182	9377.83
841.507	9468
841.832	9373.09
842.156	9384.39
842.481	9447.89
842.805	9352.75
843.13	9444.95
843.454	9319.08
843.778	9351.17
844.103	9267.33
844.427	9223.03
844.751	9285.86
845.075	9197.5
845.399	9162.47
845.723	9155.92
846.047	9131.96
846.371	9052.42
846.695	9092.64
847.019	9011.97
847.343	8983.04
847.666	8927.45
847.99	8837.96
848.313	8885.87
848.637	8815.36
848.96	8821.24
849.284	8867.34
849.607	8743.95
849.931	8718.41
850.254	8664.63
850.577	8670.05
850.9	8618.76
851.223	8574.24
851.546	8550.51
851.869	8447.01
852.192	8552.32
852.515	8471.19
852.838	8427.12
853.161	8394.81
853.483	8362.94
853.806	8346.9
854.129	8355.26
854.451	8310.52
854.774	8271.65
855.096	8271.42
855.419	8235.72
855.741	8233.46
856.063	8201.37
856.385	8137.64
856.708	8089.73
857.03	8084.53
857.352	8107.58
857.674	8026.23
857.996	7999.56
858.318	8020.58
858.64	8021.26
858.961	7965.44
859.283	7924.54
859.605	7951.2
859.926	7904.88
860.248	7898.32
860.57	7850.87
860.891	7939.45
861.212	7812
861.534	7766.12
861.855	7783.07
862.176	7787.59
862.498	7798.89
862.819	7713.92
863.14	7737.2
863.461	7730.42
863.782	7656.3
864.103	7722.06
864.424	7658.33
864.745	7710.76
865.065	7654.49
865.386	7580.14
865.707	7645
866.027	7566.58
866.348	7579.24
866.668	7537.88
866.989	7583.53
867.309	7499.46
867.63	7563.64
867.95	7506.47
868.27	7506.7
868.59	7497.43
868.91	7487.26
869.23	7463.31
869.55	7449.97
869.87	7428.51
870.19	7456.75
870.51	7456.3
870.83	7463.98
871.15	7438.67
871.469	7430.09
871.789	7422.4
872.109	7367.72
872.428	7342.63
872.748	7406.13
873.067	7319.81
873.386	7334.95
873.706	7284.33
874.025	7321.16
874.344	7311.22
874.663	7325.91
874.982	7271.45
875.301	7261.28
875.62	7217.21
875.939	7214.95
876.258	7212.47
876.577	7187.61
876.896	7195.74
877.214	7177.89
877.533	7214.27
877.852	7207.72
878.17	7166.37
878.489	7216.08
878.807	7106.25
879.125	7093.6
879.444	7132.24
879.762	7118.46
880.08	7103.54
880.398	7031.68
880.716	7109.19
881.034	7044.33
881.352	6959.14
881.67	7034.39
881.988	6989.65
882.306	6975.86
882.624	7008.4
882.941	6932.25
883.259	6903.77
883.577	6883.21
883.894	6846.15
884.212	6904.45
884.529	6880.72
884.846	6912.59
885.164	6844.34
885.481	6817.9
885.798	6839.37
886.115	6765.92
886.432	6775.19
886.75	6720.28
887.067	6760.5
887.383	6744
887.7	6690.67
888.017	6695.87
888.334	6683.89
888.651	6719.6
888.967	6626.72
889.284	6672.37
889.6	6620.62
889.917	6585.14
890.233	6527.96
890.55	6542.65
890.866	6604.8
891.182	6473.73
891.498	6554.18
891.815	6497.91
892.131	6435.99
892.447	6436.44
892.763	6459.04
893.079	6393.73
893.395	6425.82
893.71	6424.01
894.026	6389.89
894.342	6328.87
894.657	6334.52
894.973	6311.25
895.289	6340.17
895.604	6318.48
895.92	6234.86
896.235	6188.99
896.55	6206.84
896.865	6172.95
897.181	6178.59
897.496	6185.83
897.811	6170.46
898.126	6148.09
898.441	6078.26
898.756	6055.21
899.071	6063.34
899.386	5999.16
899.7	5951.93
900.015	6006.85
900.33	5926.85
900.644	5922.33
900.959	5952.16
901.273	5889.34
901.588	5930.24
901.902	5868.77
902.216	5838.04
902.531	5776.35
902.845	5805.5
903.159	5750.58
903.473	5800.53
903.787	5706.52
904.101	5716.01
904.415	5735.22
904.729	5660.64
905.042	5652.51
905.356	5556.92
905.67	5644.6
905.984	5605.05
906.297	5598.5
906.611	5531.83
906.924	5535.22
907.237	5519.4
907.551	5497.03
907.864	5469.69
908.177	5455.68
908.491	5438.73
908.804	5366.86
909.117	5348.33
909.43	5321.67
909.743	5332.29
910.056	5255.23
910.368	5294.55
910.681	5293.87
910.994	5260.65
911.307	5212.29
911.619	5193.76
911.932	5215.46
912.244	5158.06
912.557	5157.6
912.869	5104.05
913.181	5115.8
913.494	5082.13
913.806	5080.32
914.118	5022.69
914.43	5002.81
914.742	4976.14
915.054	4977.5
915.366	4966.65
915.678	4931.17
915.99	4937.95
916.302	4876.71
916.613	4922.13
916.925	4879.42
917.236	4863.6
917.548	4804.39
917.859	4796.71
918.171	4763.26
918.482	4736.37
918.794	4746.99
919.105	4718.07
919.416	4684.62
919.727	4677.17
920.038	4702.93
920.349	4686.88
920.66	4617.51
920.971	4633.1
921.282	4602.59
921.593	4567.79
921.903	4585.64
922.214	4574.34
922.525	4537.96
922.835	4536.15
923.146	4486.66
923.456	4479.43
923.767	4475.59
924.077	4466.32
924.387	4446.66
924.697	4408.47
925.008	4369.15
925.318	4375.25
925.628	4353.33
925.938	4309.94
926.248	4299.32
926.558	4318.3
926.867	4311.07
927.177	4327.57
927.487	4273.33
927.796	4239.21
928.106	4195.37
928.416	4200.57
928.725	4199.21
929.034	4175.94
929.344	4158.53
929.653	4172.77
929.962	4133.68
930.271	4106.33
930.581	4072.21
930.89	4061.81
931.199	4057.97
931.508	4044.41
931.817	4040.57
932.125	4025.66
932.434	4042.83
932.743	3981.82
933.051	3961.03
933.36	3967.13
933.669	3940.01
933.977	3888.03
934.286	3926.9
934.594	3919.44
934.902	3874.47
935.21	3847.13
935.519	3852.78
935.827	3876.06
936.135	3801.03
936.443	3796.28
936.751	3794.48
937.059	3765.55
937.367	3747.92
937.674	3781.14
937.982	3731.43
938.29	3692.78
938.597	3677.19
938.905	3682.39
939.213	3678.32
939.52	3661.37
939.827	3639.68
940.135	3619.57
940.442	3623.18
940.749	3589.74
941.056	3597.19
941.363	3570.75
941.67	3549.29
941.977	3546.35
942.284	3503.86
942.591	3525.11
942.898	3512.22
943.205	3492.79
943.511	3483.07
943.818	3464.99
944.125	3417.31
944.431	3437.42
944.738	3424.32
945.044	3411.89
945.35	3364.43
945.657	3358.33
945.963	3373.47
946.269	3352.68
946.575	3346.13
946.881	3308.39
947.187	3327.6
947.493	3273.81
947.799	3290.99
948.105	3223.42
948.41	3250.76
948.716	3238.11
949.022	3203.08
949.327	3186.13
949.633	3159.01
949.938	3148.62
950.244	3168.28
950.549	3181.61
950.854	3137.09
951.16	3133.48
951.465	3144.32
951.77	3086.92
952.075	3083.08
952.38	3061.16
952.685	3080.15
952.99	3030.88
953.294	3022.29
953.599	3025.91
953.904	3029.75
954.209	2959.47
954.513	2980.94
954.818	2971.9
955.122	2911.11
955.426	2946.36
955.731	2934.16
956.035	2885.35
956.339	2933.26
956.643	2890.09
956.948	2852.13
957.252	2870.88
957.556	2895.07
957.86	2830.66
958.163	2832.69
958.467	2818
958.771	2792.47
959.075	2803.09
959.378	2765.58
959.682	2801.51
959.985	2740.72
960.289	2760.61
960.592	2748.18
960.896	2708.18
961.199	2685.81
961.502	2719.02
961.805	2671.12
962.108	2685.81
962.411	2673.6
962.714	2631.34
963.017	2675.18
963.32	2675.86
963.623	2629.76
963.926	2632.7
964.228	2585.24
964.531	2613.49
964.833	2588.63
965.136	2563.77
965.438	2586.37
965.741	2562.42
966.043	2520.16
966.345	2542.31
966.648	2493.49
966.95	2511.12
967.252	2515.19
967.554	2470.9
967.856	2486.49
968.158	2453.49
968.46	2484.91
968.761	2452.82
969.063	2445.81
969.365	2415.76
969.666	2411.91
969.968	2420.73
970.269	2416.89
970.571	2394.51
970.872	2356.32
971.174	2323.55
971.475	2363.1
971.776	2372.14
972.077	2325.36
972.378	2351.58
972.679	2340.05
972.98	2335.08
973.281	2343.22
973.582	2308.64
973.883	2290.56
974.183	2289.66
974.484	2273.61
974.785	2257.34
975.085	2252.6
975.386	2297.57
975.686	2215.99
975.986	2247.17
976.287	2204.01
976.587	2213.05
976.887	2199.94
977.187	2178.25
977.487	2173.73
977.787	2154.75
978.087	2144.35
978.387	2154.52
978.687	2144.12
978.987	2124.92
979.286	2126.05
979.586	2123.56
979.885	2131.24
980.185	2077.46
980.484	2054.86
980.784	2074.75
981.083	2064.8
981.382	2037.23
981.682	2058.25
981.981	2024.35
982.28	2023.22
982.579	2014.41
982.878	2013.05
983.177	2008.31
983.475	2011.92
983.774	2004.92
984.073	1984.58
984.372	1997.24
984.67	1977.8
984.969	1939.16
985.267	1930.12
985.566	1941.19
985.864	1929.44
986.162	1939.61
986.461	1908.2
986.759	1935.99
987.057	1887.41
987.355	1894.64
987.653	1853.96
987.951	1884.24
988.249	1869.56
988.547	1849.67
988.844	1874.3
989.142	1851.7
989.44	1789.78
989.737	1870.23
990.035	1802.66
990.332	1799.73
990.63	1788.2
990.927	1796.34
991.224	1761.31
991.521	1794.08
991.819	1772.38
992.116	1764.47
992.413	1753.4
992.71	1711.59
993.006	1763.12
993.303	1746.17
993.6	1738.03
993.897	1734.64
994.193	1713.18
994.49	1704.36
994.787	1700.07
995.083	1696.45
995.379	1653.29
995.676	1649.45
995.972	1653.97
996.268	1644.25
996.565	1630.01
996.861	1617.58
997.157	1609.22
997.453	1636.57
997.749	1633.4
998.044	1625.72
998.34	1621.65
998.636	1575.55
998.932	1579.17
999.227	1594.76
999.523	1582.78
999.818	1568.32
1000.114	1576.23
1000.409	1559.28
1000.704	1533.07
1001	1548.66
1001.295	1532.39
1001.59	1543.01
1001.885	1511.37
1002.18	1529.45
1002.475	1508.21
1002.77	1514.99
1003.065	1464.82
1003.359	1485.84
1003.654	1451.94
1003.949	1474.09
1004.243	1440.87
1004.538	1436.57
1004.832	1462.56
1005.127	1432.73
1005.421	1416.01
1005.715	1409.91
1006.009	1415.1
1006.304	1393.41
1006.598	1379.85
1006.892	1379.85
1007.186	1373.07
1007.48	1363.58
1007.773	1374.2
1008.067	1331.49
1008.361	1334.88
1008.655	1342.11
1008.948	1335.56
1009.242	1331.04
1009.535	1329.23
1009.829	1319.06
1010.122	1301.89
1010.415	1319.06
1010.708	1261.21
1011.001	1307.08
1011.295	1275.22
1011.588	1274.54
1011.881	1281.55
1012.173	1269.35
1012.466	1249.68
1012.759	1250.59
1013.052	1216.01
1013.344	1221.66
1013.637	1229.35
1013.93	1199.06
1014.222	1225.5
1014.514	1223.02
1014.807	1212.4
1015.099	1196.8
1015.391	1188.22
1015.683	1192.51
1015.976	1175.34
1016.268	1178.5
1016.56	1156.35
1016.851	1168.1
1017.143	1158.84
1017.435	1132.4
1017.727	1133.53
1018.018	1141.44
1018.31	1138.73
1018.602	1129.01
1018.893	1115.45
1019.185	1113.87
1019.476	1100.99
1019.767	1100.54
1020.058	1078.39
1020.35	1076.36
1020.641	1070.93
1020.932	1060.76
1021.223	1073.64
1021.514	1059.18
1021.804	1057.15
1022.095	1028.67
1022.386	1050.14
1022.677	1018.05
1022.967	1021.44
1023.258	1030.93
1023.548	1029.35
1023.839	1044.49
1024.129	1004.95
1024.419	998.17
1024.709	961.78
1025	987.09
1025.29	987.32
1025.58	958.17
1025.87	945.51
1026.16	974.44
1026.449	962.91
1026.739	923.14
1027.029	934.44
1027.319	938.28
1027.608	938.28
1027.898	909.81
1028.187	926.08
1028.477	917.26
1028.766	900.77
1029.055	911.39
1029.344	892.63
1029.634	921.78
1029.923	870.94
1030.212	893.54
1030.501	897.38
1030.79	873.2
1031.078	870.03
1031.367	877.49
1031.656	877.27
1031.945	856.93
1032.233	862.8
1032.522	857.15
1032.81	830.94
1033.099	819.64
1033.387	826.42
1033.675	817.83
1033.963	839.07
1034.251	827.77
1034.54	809.47
1034.828	797.95
1035.116	787.32
1035.403	797.49
1035.691	806.98
1035.979	790.71
1036.267	806.53
1036.554	786.42
1036.842	777.83
1037.129	776.48
1037.417	784.16
1037.704	768.34
1037.992	755.23
1038.279	762.47
1038.566	773.54
1038.853	773.54
1039.14	773.54
