Data from hue_40_FLMS001491_37.txt Node
Date: Mon Feb 06 15:07:49 GMT 2017
User: dcchb
Spectrometer: FLMS00149
Trigger mode: 0
Integration Time (sec): 2.000000E-2
Scans to average: 10
Electric dark correction enabled: true
Nonlinearity correction enabled: false
Boxcar width: 0
XAxis mode: Wavelengths
Number of Pixels in Spectrum: 2048
>>>>>Begin Spectral Data<<<<<
341.393	-12.71
341.776	-12.71
342.16	-12.71
342.543	-70.11
342.927	-88.19
343.31	-71.24
343.693	-74.63
344.077	-82.99
344.46	-64.69
344.843	-49.77
345.226	-52.48
345.61	-23.78
345.993	-3.67
346.376	-10.9
346.759	17.57
347.142	19.6
347.525	47.17
347.908	59.15
348.291	65.25
348.674	95.31
349.057	130.11
349.44	124.01
349.823	134.63
350.206	145.7
350.588	206.94
350.971	212.59
351.354	229.09
351.737	238.36
352.119	230.22
352.502	277.9
352.884	253.04
353.267	279.94
353.65	310.9
354.032	313.16
354.414	297.56
354.797	311.12
355.179	338.92
355.562	321.29
355.944	342.53
356.326	342.76
356.709	340.05
357.091	346.15
357.473	337.34
357.855	340.05
358.238	344.12
358.62	353.38
359.002	347.5
359.384	333.04
359.766	348.86
360.148	327.17
360.53	328.75
360.912	322.42
361.294	335.3
361.676	322.42
362.057	330.56
362.439	320.61
362.821	327.84
363.203	333.49
363.584	327.39
363.966	314.51
364.348	321.74
364.729	319.94
365.111	314.96
365.493	305.7
365.874	304.79
366.256	315.19
366.637	311.35
367.019	321.74
367.4	311.8
367.781	308.18
368.163	327.84
368.544	317.9
368.925	325.36
369.306	324.91
369.688	309.77
370.069	309.31
370.45	312.93
370.831	290.56
371.212	302.99
371.593	280.61
371.974	319.71
372.355	325.81
372.736	317.9
373.117	311.35
373.498	306.6
373.879	306.83
374.26	312.25
374.641	315.87
375.021	310.44
375.402	317.22
375.783	340.27
376.163	309.77
376.544	322.65
376.925	335.75
377.305	325.13
377.686	347.05
378.066	329.65
378.447	327.17
378.827	322.65
379.208	336.66
379.588	310.67
379.968	315.87
380.349	319.94
380.729	326.71
381.109	334.85
381.489	338.92
381.87	325.81
382.25	343.89
382.63	352.7
383.01	330.33
383.39	339.6
383.77	335.08
384.15	331.91
384.53	352.48
384.91	348.18
385.29	335.98
385.67	326.49
386.049	339.6
386.429	343.44
386.809	344.34
387.189	355.87
387.568	358.35
387.948	343.44
388.328	338.24
388.707	364.45
389.087	342.53
389.466	364.45
389.846	329.65
390.225	345.92
390.605	359.48
390.984	373.27
391.363	351.35
391.743	359.71
392.122	369.88
392.501	359.71
392.881	360.16
393.26	356.77
393.639	381.18
394.018	370.1
394.397	354.51
394.776	359.71
395.155	373.72
395.534	354.51
395.913	359.93
396.292	364
396.671	382.98
397.05	365.13
397.429	359.03
397.808	390.22
398.186	380.72
398.565	355.19
398.944	364.91
399.323	370.1
399.701	386.6
400.08	366.49
400.458	399.93
400.837	392.25
401.215	378.01
401.594	381.63
401.972	373.72
402.351	370.33
402.729	370.78
403.107	394.51
403.486	411.91
403.864	386.15
404.242	399.48
404.62	386.37
404.999	406.03
405.377	397.67
405.755	407.84
406.133	390.67
406.511	424.79
406.889	424.34
407.267	402.42
407.645	421.18
408.023	403.1
408.401	393.61
408.779	418.24
409.156	404.9
409.534	406.26
409.912	414.4
410.29	451.68
410.667	420.5
411.045	429.08
411.422	405.13
411.8	418.69
412.178	441.29
412.555	448.52
412.933	440.16
413.31	432.7
413.687	442.19
414.065	454.62
414.442	462.08
414.819	445.36
415.197	435.64
415.574	449.88
415.951	476.54
416.328	464.79
416.705	460.5
417.082	458.24
417.46	464.79
417.837	476.99
418.214	486.71
418.591	468.18
418.967	466.82
419.344	490.33
419.721	514.51
420.098	480.61
420.475	506.37
420.852	493.26
421.228	492.13
421.605	494.62
421.982	504.11
422.358	493.26
422.735	496.88
423.111	495.52
423.488	508.63
423.864	512.25
424.241	514.05
424.617	517.44
424.994	517.44
425.37	506.6
425.746	523.55
426.123	523.77
426.499	522.64
426.875	545.01
427.251	546.37
427.627	534.39
428.003	548.18
428.379	546.82
428.756	541.85
429.132	557.89
429.507	557.67
429.883	576.43
430.259	550.21
430.635	576.65
431.011	559.7
431.387	568.29
431.763	574.62
432.138	579.59
432.514	593.15
432.89	603.77
433.265	592.02
433.641	608.74
434.016	620.94
434.392	625.69
434.767	612.36
435.143	629.98
435.518	639.25
435.894	641.96
436.269	638.8
436.644	653.26
437.02	653.94
437.395	647.61
437.77	655.97
438.145	635.41
438.52	665.91
438.895	647.38
439.271	683.09
439.646	668.63
440.021	676.08
440.395	677.67
440.77	670.43
441.145	676.54
441.52	695.97
441.895	689.64
442.27	679.93
442.645	691.9
443.019	709.3
443.394	701.62
443.769	736.42
444.143	706.82
444.518	695.97
444.892	727.38
445.267	709.98
445.641	720.83
446.016	711.56
446.39	722.41
446.764	741.62
447.139	745.46
447.513	770.09
447.887	756.76
448.262	758.79
448.636	758.57
449.01	767.61
449.384	770.32
449.758	743.43
450.132	785.91
450.506	763.77
450.88	781.62
451.254	760.15
451.628	779.36
452.002	787.72
452.376	835.18
452.75	815.29
453.123	787.49
453.497	842.63
453.871	834.05
454.244	816.87
454.618	834.72
454.992	856.19
455.365	837.21
455.739	857.77
456.112	862.29
456.486	890.32
456.859	892.12
457.232	908.62
457.606	908.39
457.979	917.89
458.352	903.87
458.725	908.85
459.099	948.17
459.472	944.33
459.845	944.1
460.218	940.03
460.591	955.17
460.964	957.66
461.337	998.34
461.71	996.53
462.083	1020.03
462.456	988.17
462.829	1008.28
463.201	1047.37
463.574	1036.98
463.947	1077.66
464.32	1054.38
464.692	1059.8
465.065	1083.08
465.438	1134.38
465.81	1124.21
466.183	1137.31
466.555	1181.38
466.928	1159.01
467.3	1173.02
467.672	1191.32
468.045	1208.73
468.417	1243.98
468.789	1233.13
469.161	1251.21
469.534	1297.31
469.906	1293.47
470.278	1290.08
470.65	1354.03
471.022	1354.71
471.394	1390.19
471.766	1383.64
472.138	1422.73
472.51	1458.89
472.882	1466.57
473.253	1515.16
473.625	1542.28
473.997	1574.59
474.369	1607.36
474.74	1613.69
475.112	1639.45
475.484	1673.8
475.855	1744.3
476.227	1754.7
476.598	1828.37
476.97	1858.88
477.341	1885.32
477.713	1940.91
478.084	1990.4
478.455	2038.08
478.827	2053.67
479.198	2151.3
479.569	2156.72
479.94	2238.53
480.311	2273.78
480.682	2336.83
481.053	2398.98
481.424	2449.14
481.795	2505.64
482.166	2620.67
482.537	2607.11
482.908	2726.43
483.279	2784.05
483.65	2867.89
484.021	2937.49
484.391	3018.4
484.762	3067.21
485.133	3133.87
485.503	3227.66
485.874	3304.49
486.244	3346.97
486.615	3465.39
486.985	3557.36
487.356	3624.93
487.726	3725.95
488.097	3849.11
488.467	3894.3
488.837	4003.91
489.207	4113.06
489.578	4186.73
489.948	4229.89
490.318	4368.19
490.688	4434.18
491.058	4543.55
491.428	4685.02
491.798	4754.85
492.168	4900.83
492.538	5001.85
492.908	4993.94
493.278	5159.13
493.648	5204.55
494.017	5377.66
494.387	5413.59
494.757	5514.15
495.126	5621.04
495.496	5656.52
495.866	5800.47
496.235	5886.79
496.605	5964.31
496.974	6021.25
497.344	6110.74
497.713	6180.35
498.082	6368.36
498.452	6411.98
498.821	6505.08
499.19	6542.37
499.559	6674.8
499.928	6802.48
500.298	6793.89
500.667	6859.2
501.036	6931.06
501.405	7036.14
501.774	7082.7
502.143	7213.99
502.512	7259.64
502.88	7346.42
503.249	7387.77
503.618	7512.97
503.987	7584.83
504.356	7625.28
504.724	7735.56
505.093	7712.74
505.462	7884.03
505.83	7888.78
506.199	8000.86
506.567	8104.14
506.936	8137.58
507.304	8224.59
507.672	8277.24
508.041	8388.65
508.409	8436.78
508.777	8494.41
509.145	8627.06
509.514	8638.59
509.882	8763.55
510.25	8803.55
510.618	8812.37
510.986	8845.81
511.354	8964.23
511.722	9042.42
512.09	9151.34
512.458	9194.28
512.826	9229.08
513.193	9302.52
513.561	9351.56
513.929	9394.72
514.297	9538.22
514.664	9596.75
515.032	9553.59
515.4	9699.8
515.767	9700.25
516.135	9807.6
516.502	9800.36
516.869	9944.99
517.237	9957.2
517.604	9998.32
517.972	10144.76
518.339	10231.09
518.706	10205.32
519.073	10286.45
519.44	10348.6
519.808	10428.82
520.175	10474.02
520.542	10639.89
520.909	10582.04
521.276	10655.03
521.643	10785.87
522.009	10793.78
522.376	10824.97
522.743	10954.23
523.11	11035.13
523.477	11075.36
523.843	11206.2
524.21	11288.01
524.577	11387.21
524.943	11447.33
525.31	11481.9
525.676	11652.74
526.043	11686.19
526.409	11691.16
526.776	11843.47
527.142	11892.96
527.508	11911.27
527.874	12088.67
528.241	12128.66
528.607	12113.52
528.973	12214.54
529.339	12227.42
529.705	12328.43
530.071	12453.4
530.437	12552.16
530.803	12570.46
531.169	12688.2
531.535	12683.68
531.901	12757.57
532.267	12809.1
532.632	12864.46
532.998	12930.68
533.364	13044.35
533.73	13040.5
534.095	13125.02
534.461	13190.33
534.826	13329.54
535.192	13373.6
535.557	13421.74
535.923	13394.85
536.288	13515.97
536.653	13566.59
537.019	13497.89
537.384	13545.35
537.749	13695.85
538.114	13767.72
538.479	13746.02
538.845	13791.22
539.21	13825.57
539.575	13912.12
539.94	13925.23
540.305	14112.11
540.67	13973.14
541.034	14072.12
541.399	14131.1
541.764	14250.42
542.129	14307.14
542.494	14304.43
542.858	14358.89
543.223	14399.34
543.587	14409.28
543.952	14488.15
544.316	14572.44
544.681	14536.06
545.045	14645.21
545.41	14675.49
545.774	14759.1
546.138	14722.49
546.503	14871.19
546.867	14930.85
547.231	15043.39
547.595	14988.93
547.959	15082.94
548.324	15148.25
548.688	15222.82
549.052	15203.39
549.416	15258.98
549.779	15256.04
550.143	15375.58
550.507	15375.36
550.871	15537.84
551.235	15528.35
551.599	15638.18
551.962	15625.52
552.326	15627.33
552.689	15754.56
553.053	15764.5
553.417	15824.84
553.78	16022.57
554.143	15878.62
554.507	16048.11
554.87	16087.43
555.234	16218.95
555.597	16137.82
555.96	16237.26
556.323	16292.17
556.686	16342.11
557.05	16485.39
557.413	16496.46
557.776	16445.61
558.139	16603.12
558.502	16686.96
558.865	16617.81
559.228	16840.4
559.59	16869.56
559.953	16894.19
560.316	17135.09
560.679	17016.45
561.041	17051.7
561.404	17149.55
561.767	17326.72
562.129	17237.46
562.492	17427.51
562.854	17408.75
563.217	17531.46
563.579	17580.5
563.941	17607.16
564.304	17727.61
564.666	17894.84
565.028	17763.77
565.39	17881.28
565.753	17944.56
566.115	18064.1
566.477	18190.65
566.839	18128.05
567.201	18343.64
567.563	18363.53
567.925	18389.97
568.287	18417.76
568.648	18518.1
569.01	18574.37
569.372	18756.74
569.734	18676.06
570.095	18702.05
570.457	18949.28
570.819	18983.85
571.18	18963.96
571.542	19042.15
571.903	19157.18
572.265	19148.14
572.626	19360.34
572.987	19350.4
573.349	19428.81
573.71	19577.06
574.071	19696.15
574.432	19739.54
574.794	19941.79
575.155	19953.32
575.516	19890.95
575.877	20115.57
576.238	20182.69
576.599	20175.46
576.96	20293.87
577.32	20464.26
577.681	20563.02
578.042	20628.55
578.403	20752.62
578.763	20799.62
579.124	20993.74
579.485	21033.97
579.845	21192.61
580.206	21295.65
580.566	21281.42
580.927	21558.7
581.287	21810.22
581.648	21752.59
582.008	21967.5
582.368	22049.08
582.728	22176.76
583.089	22343.99
583.449	22466.47
583.809	22517.77
584.169	22755.5
584.529	22820.59
584.889	23266.22
585.249	23235.72
585.609	23341.25
585.969	23569.49
586.329	23793.89
586.688	23917.96
587.048	24114.79
587.408	24275.92
587.768	24418.28
588.127	24493.08
588.487	24571.95
588.846	24943.24
589.206	24978.72
589.565	25117.02
589.925	25414.42
590.284	25500.74
590.643	25682.43
591.003	25907.28
591.362	26250.1
591.721	26349.53
592.08	26552.92
592.44	26698.45
592.799	26902.96
593.158	27016.18
593.517	27236.52
593.876	27498.66
594.235	27495.04
594.593	27777.52
594.952	28086.44
595.311	27998.76
595.67	28365.98
596.029	28597.38
596.387	28821.11
596.746	29027.43
597.104	28964.15
597.463	29049.35
597.822	29430.58
598.18	29399.17
598.538	29732.72
598.897	29927.29
599.255	29782.44
599.613	30284.12
599.972	30344.91
600.33	30529.54
600.688	30500.38
601.046	30709.87
601.404	31064.44
601.762	31206.58
602.12	31310.76
602.478	31413.13
602.836	31591.43
603.194	31595.5
603.552	31984.87
603.91	31811.99
604.268	32138.76
604.625	32208.81
604.983	32188.02
605.341	32328.36
605.698	32605.87
606.056	32674.79
606.413	32736.94
606.771	33074.55
607.128	33194.78
607.485	33004.05
607.843	33288.79
608.2	33385.05
608.557	33727.87
608.914	33624.82
609.272	33851.26
609.629	33918.15
609.986	34247.63
610.343	34094.41
610.7	34416.21
611.057	34451.69
611.414	34442.65
611.771	34647.85
612.127	34796.54
612.484	34827.05
612.841	35069.53
613.198	34996.09
613.554	35143.88
613.911	35328.96
614.267	35383.19
614.624	35335.74
614.98	35585.45
615.337	35693.24
615.693	35636.75
616.05	35834.26
616.406	35985.89
616.762	35953.35
617.118	35965.55
617.475	36171.87
617.831	36260.91
618.187	36289.38
618.543	36274.47
618.899	36521.92
619.255	36589.26
619.611	36587.46
619.967	36831.74
620.323	36855.92
620.678	36840.33
621.034	36802.14
621.39	36844.85
621.746	36799.65
622.101	37298.4
622.457	36947.22
622.812	37085.07
623.168	37192.41
623.523	37375.91
623.879	37436.7
624.234	37131.62
624.589	37381.11
624.945	37470.6
625.3	37551.05
625.655	37467.43
626.01	37699.74
626.365	37633.08
626.72	37605.73
627.075	37729.57
627.43	37604.38
627.785	37615.23
628.14	37888.44
628.495	37760.31
628.85	37614.77
629.205	37591.27
629.559	37828.33
629.914	37806.63
630.269	37943.35
630.623	37795.56
630.978	37721.44
631.332	37838.04
631.687	38021.32
632.041	37848.44
632.396	37952.84
632.75	37769.57
633.104	37840.53
633.459	37735.22
633.813	37774.09
634.167	37696.58
634.521	37785.84
634.875	37826.52
635.229	37646.41
635.583	37507.43
635.937	37727.31
636.291	37591.05
636.645	37563.02
636.999	37556.92
637.352	37704.71
637.706	37404.16
638.06	37600.99
638.413	37482.8
638.767	37568.22
639.121	37435.57
639.474	37339.53
639.828	37401.67
640.181	37445.06
640.534	37466.3
640.888	37231.05
641.241	37199.87
641.594	37201.9
641.947	37490.03
642.301	37198.29
642.654	37309.47
643.007	37224.5
643.36	37150.83
643.713	37222.92
644.066	37380.66
644.419	37107.89
644.771	36913.55
645.124	36465.88
645.477	36462.26
645.83	36243.51
646.182	36198.54
646.535	36122.61
646.888	36122.16
647.24	35918.32
647.593	36281.93
647.945	36083.74
648.298	35928.49
648.65	35952.9
649.002	35798.32
649.355	35902.05
649.707	35810.3
650.059	36078.99
650.411	36466.1
650.763	36508.81
651.115	36903.15
651.467	36675.14
651.819	36647.57
652.171	36694.35
652.523	36626.78
652.875	36431.3
653.227	36458.19
653.578	36587.46
653.93	36660.67
654.282	36504.29
654.633	36384.98
654.985	36480.11
655.337	36480.34
655.688	36443.51
656.039	36527.34
656.391	36322.38
656.742	36324.41
657.094	36442.83
657.445	36544.52
657.796	36391.98
658.147	36458.42
658.498	36259.33
658.849	36435.6
659.2	36303.62
659.551	36189.5
659.902	36344.52
660.253	36276.73
660.604	36287.8
660.955	36295.03
661.306	36373
661.656	36047.81
662.007	36212.55
662.358	36325.09
662.708	36001.26
663.059	36140.24
663.409	35894.14
663.76	36234.92
664.11	36237.63
664.461	36168.94
664.811	36102.27
665.161	36145.89
665.511	36111.99
665.862	36106.11
666.212	36168.26
666.562	36241.7
666.912	36127.36
667.262	36020.24
667.612	36140.91
667.962	36025.66
668.312	36099.33
668.662	36189.73
669.011	36049.39
669.361	36032.67
669.711	36048.71
670.06	36038.54
670.41	36026.79
670.76	35998.77
671.109	36046.45
671.459	36010.07
671.808	35924.42
672.157	36014.14
672.507	35787.93
672.856	35829.28
673.205	35831.09
673.554	35917.64
673.904	35773.01
674.253	35917.87
674.602	35910.19
674.951	35308.39
675.3	35251.22
675.649	35852.79
675.998	35719.91
676.346	35623.19
676.695	35884.65
677.044	35659.57
677.393	35645.79
677.741	35702.28
678.09	35667.03
678.438	35527.14
678.787	35611.66
679.135	35573.92
679.484	35340.94
679.832	35596.3
680.181	35344.1
680.529	35355.85
680.877	35442.4
681.225	35258
681.573	35580.02
681.922	35220.49
682.27	35158.79
682.618	35100.26
682.966	35112.01
683.314	35145.91
683.661	34911.57
684.009	34819.14
684.357	34718.13
684.705	34759.71
685.053	34738.24
685.4	34730.33
685.748	34463.67
686.095	34509.32
686.443	34488.08
686.79	34419.15
687.138	34505.48
687.485	34500.96
687.832	34281.98
688.18	34325.14
688.527	34181.64
688.874	33990.91
689.221	34105.49
689.568	33864.59
689.915	33882.44
690.262	33787.53
690.609	33781.43
690.956	33642
691.303	33636.12
691.65	33351.16
691.997	33497.37
692.344	33371.5
692.69	33379.18
693.037	33395
693.383	32987.32
693.73	33145.74
694.077	33066.42
694.423	32967.66
694.769	32909.81
695.116	32721.79
695.462	32686.09
695.808	32683.6
696.155	32860.55
696.501	32405.19
696.847	32520.44
697.193	32225.99
697.539	32270.51
697.885	32081.36
698.231	32007.92
698.577	32010.63
698.923	31906.68
699.269	31789.62
699.614	31706.45
699.96	31658.32
700.306	31573.12
700.651	31490.19
700.997	31320.02
701.342	31385.33
701.688	31310.08
702.033	31232.57
702.379	31185.79
702.724	31106.47
703.069	31135.62
703.415	30796.42
703.76	30745.12
704.105	30725.01
704.45	30751
704.795	30507.39
705.14	30551.68
705.485	30464.23
705.83	30275.31
706.175	30365.92
706.52	30311.91
706.865	30243.44
707.209	30150.34
707.554	30029.44
707.899	30138.13
708.243	29950.79
708.588	29939.04
708.932	29633.06
709.277	29608.66
709.621	29726.17
709.966	29513.29
710.31	29621.31
710.654	29337.03
710.998	29453.18
711.342	29318.49
711.687	29375.89
712.031	29142.23
712.375	29148.33
712.719	29067.65
713.063	28986.3
713.407	29047.32
713.75	29001.44
714.094	28928.22
714.438	28719.19
714.782	28780.43
715.125	28751.5
715.469	28764.16
715.812	28615.69
716.156	28365.53
716.499	28507.22
716.843	28568.46
717.186	28285.08
717.53	28500.66
717.873	28394
718.216	28325.3
718.559	28218.64
718.902	27974.12
719.246	28126.44
719.589	28005.76
719.932	28026.33
720.275	27900.45
720.617	27906.33
720.96	27851.41
721.303	27840.12
721.646	27760.57
721.989	27693
722.331	27794.24
722.674	27523.51
723.016	27689.61
723.359	27633.57
723.701	27593.57
724.044	27472.22
724.386	27407.13
724.729	27445.78
725.071	27185.22
725.413	27236.06
725.755	27199.45
726.097	27179.57
726.439	27046.69
726.782	27094.6
727.124	27129.4
727.465	26903.64
727.807	27090.08
728.149	26895.28
728.491	26810.76
728.833	26941.61
729.175	26843.08
729.516	26691.22
729.858	26732.35
730.199	26778
730.541	26658.23
730.882	26627.49
731.224	26690.54
731.565	26516.53
731.906	26498.46
732.248	26505.24
732.589	26366.48
732.93	26195.41
733.271	26244
733.612	26305.24
733.953	26219.59
734.294	26096.21
734.635	26197.45
734.976	26200.38
735.317	26009.88
735.658	26081.29
735.999	26001.52
736.339	25963.1
736.68	25976.66
737.021	25844.24
737.361	25906.38
737.702	25950.67
738.042	25843.11
738.383	25766.72
738.723	25816.67
739.063	25634.52
739.404	25677.46
739.744	25538.03
740.084	25572.83
740.424	25488.54
740.764	25563.34
741.104	25628.2
741.444	25371.48
741.784	25336.45
742.124	25268.43
742.464	25247.19
742.804	25196.8
743.143	25232.05
743.483	25252.84
743.823	25142.33
744.162	25102.56
744.502	25122.22
744.841	24996.8
745.181	25076.35
745.52	24938.04
745.86	25033.64
746.199	24975.56
746.538	24913.64
746.877	24998.61
747.216	24815.56
747.556	24792.96
747.895	24787.77
748.234	24697.83
748.573	24717.49
748.911	24615.12
749.25	24579.41
749.589	24486.76
749.928	24509.36
750.267	24458.28
750.605	24426.42
750.944	24445.85
751.283	24387.1
751.621	24369.47
751.96	24230.04
752.298	24239.98
752.636	24198.4
752.975	24109.59
753.313	24032.31
753.651	24233.66
753.989	24009.93
754.327	23960.9
754.666	23777.17
755.004	23930.84
755.342	23847
755.679	23769.71
756.017	23656.04
756.355	23652.43
756.693	23531.3
757.031	23620.11
757.368	23511.87
757.706	23440.46
758.044	23330.4
758.381	23439.33
758.719	23254.47
759.056	23220.35
759.394	23255.83
759.731	23072.78
760.068	23053.35
760.405	22905.1
760.743	22905.1
761.08	22968.61
761.417	22763.19
761.754	22862.39
762.091	22691.1
762.428	22640.48
762.765	22518.45
763.102	22523.65
763.438	22417.21
763.775	22350.54
764.112	22358.23
764.449	22315.74
764.785	22149.64
765.122	22155.97
765.458	21986.48
765.795	21998.01
766.131	21912.14
766.467	21864.23
766.804	21772.7
767.14	21649.77
767.476	21716.43
767.812	21551.69
768.148	21533.61
768.485	21448.87
768.821	21325.26
769.157	21231.02
769.492	21197.8
769.828	21263.11
770.164	20994.42
770.5	20950.81
770.836	21024.7
771.171	20792.17
771.507	20856.12
771.842	20698.16
772.178	20731.6
772.513	20547.65
772.849	20462.23
773.184	20449.58
773.519	20385.4
773.855	20351.95
774.19	20271.5
774.525	20245.29
774.86	20222.91
775.195	20003.26
775.53	20099.98
775.865	19878.97
776.2	19806.2
776.535	19754
776.87	19590.39
777.205	19618.86
777.539	19492.76
777.874	19507.68
778.209	19334.58
778.543	19353.56
778.878	19255.93
779.212	19147.91
779.547	19141.81
779.881	19112.66
780.215	18949.28
780.55	19089.39
780.884	18886.45
781.218	18794.7
781.552	18815.95
781.886	18641.49
782.22	18643.52
782.554	18569.4
782.888	18398.1
783.222	18329.63
783.556	18192.23
783.889	18116.53
784.223	18022.97
784.557	18139.58
784.89	18063.88
785.224	17932.35
785.557	17840.6
785.891	17774.17
786.224	17783.66
786.558	17660.72
786.891	17571.91
787.224	17545.47
787.557	17433.61
787.891	17436.1
788.224	17425.02
788.557	17391.35
788.89	17297.34
789.223	17371.92
789.556	17133.05
789.888	17144.8
790.221	17029.55
790.554	16859.16
790.887	16936
791.219	16899.16
791.552	16801.76
791.884	16695.55
792.217	16710.46
792.549	16656.68
792.882	16502.11
793.214	16471.6
793.546	16495.1
793.879	16385.28
794.211	16386.41
794.543	16357.25
794.875	16246.3
795.207	16313.19
795.539	16219.18
795.871	16185.28
796.203	15981.22
796.535	16010.37
796.867	15886.53
797.198	15852.63
797.53	15836.36
797.862	15775.57
798.193	15781.45
798.525	15697.16
798.856	15644.96
799.188	15544.62
799.519	15511.85
799.85	15385.98
800.182	15438.86
800.513	15361.8
800.844	15328.35
801.175	15325.64
801.506	15354.57
801.837	15200.22
802.168	15181.92
802.499	15206.1
802.83	15025.99
803.161	15036.61
803.491	14904.41
803.822	14993.67
804.153	14926.78
804.483	14775.6
804.814	14725.66
805.145	14714.58
805.475	14715.94
805.805	14598.2
806.136	14678.65
806.466	14665.09
806.796	14604.53
807.126	14512.33
807.457	14425.55
807.787	14345.1
808.117	14360.7
808.447	14333.13
808.777	14351.43
809.107	14324.99
809.436	14190.98
809.766	14181.72
810.096	14177.65
810.426	14101.27
810.755	14110.76
811.085	14144.2
811.414	13995.28
811.744	13858.79
812.073	13790.99
812.403	13942.18
812.732	13756.19
813.061	13795.06
813.39	13686.82
813.719	13652.47
814.049	13685.69
814.378	13630.55
814.707	13602.07
815.036	13612.47
815.365	13546.25
815.693	13483.43
816.022	13447.5
816.351	13397.33
816.68	13266.04
817.008	13320.27
817.337	13221.52
817.665	13261.06
817.994	13226.49
818.322	13172.7
818.651	13086.15
818.979	13105.59
819.307	13148.07
819.636	13099.71
819.964	13031.69
820.292	13046.61
820.62	13093.16
820.948	12974.07
821.276	13056.1
821.604	12979.49
821.932	13078.47
822.259	12958.47
822.587	12979.94
822.915	12910.34
823.243	12962.99
823.57	12984.46
823.898	12891.58
824.225	12926.61
824.553	12947.63
824.88	12921.41
825.207	12984.01
825.535	12896.1
825.862	12874.41
826.189	12865.59
826.516	12949.21
826.843	12954.41
827.17	12951.92
827.497	12943.78
827.824	12921.64
828.151	12952.82
828.478	12868.53
828.805	12992.14
829.131	12875.76
829.458	12889.32
829.785	12831.02
830.111	12853.16
830.438	12928.64
830.764	12927.74
831.09	12948.76
831.417	12789.21
831.743	12899.04
832.069	12813.39
832.395	12795.31
832.722	12913.73
833.048	12782.66
833.374	12841.87
833.7	12742.21
834.026	12746.95
834.351	12787.18
834.677	12725.26
835.003	12743.11
835.329	12798.48
835.654	12687.07
835.98	12740.17
836.306	12612.04
836.631	12693.62
836.956	12576.34
837.282	12657.01
837.607	12654.75
837.932	12615.88
838.258	12529.33
838.583	12518.94
838.908	12460.63
839.233	12499.95
839.558	12410.92
839.883	12419.96
840.208	12442.78
840.533	12381.31
840.858	12396.45
841.182	12423.8
841.507	12353.74
841.832	12273.97
842.156	12300.19
842.481	12287.3
842.805	12295.67
843.13	12156.46
843.454	12180.87
843.778	12063.36
844.103	12086.41
844.427	12043.02
844.751	12082.11
845.075	12065.61
845.399	12023.13
845.723	11891.61
846.047	11960.76
846.371	11806.86
846.695	11837.15
847.019	11772.97
847.343	11693.2
847.666	11644.84
847.99	11608.45
848.313	11588.57
848.637	11487.33
848.96	11575.46
849.284	11491.62
849.607	11311.96
849.931	11351.74
850.254	11332.3
850.577	11243.04
850.9	11175.02
851.223	11161.01
851.546	11019.54
851.869	10988.13
852.192	11065.64
852.515	10946.32
852.838	10913.1
853.161	10957.62
853.483	10870.17
853.806	10787.46
854.129	10824.07
854.451	10775.25
854.774	10710.62
855.096	10698.19
855.419	10665.43
855.741	10622.49
856.063	10619.1
856.385	10613.9
856.708	10563.51
857.03	10521.47
857.352	10514.92
857.674	10448.93
857.996	10401.25
858.318	10341.14
858.64	10413.68
858.961	10294.81
859.283	10314.02
859.605	10231.76
859.926	10293.23
860.248	10145.89
860.57	10172.78
860.891	10194.25
861.212	10092.33
861.534	10101.15
861.855	10099.34
862.176	10060.7
862.498	10047.36
862.819	10094.37
863.14	9984.54
863.461	10015.27
863.782	9897.08
864.103	9966.01
864.424	9932.56
864.745	9931.43
865.065	9836.75
865.386	9771.89
865.707	9819.12
866.027	9885.33
866.348	9814.6
866.668	9793.58
866.989	9708.16
867.309	9684.89
867.63	9769.63
867.95	9754.94
868.27	9716.3
868.59	9671.55
868.91	9627.94
869.23	9625.68
869.55	9596.3
869.87	9696.19
870.19	9667.49
870.51	9568.28
870.83	9486.7
871.15	9550.65
871.469	9488.73
871.789	9495.51
872.109	9588.17
872.428	9409.87
872.748	9490.32
873.067	9446.93
873.386	9487.15
873.706	9451.9
874.025	9374.84
874.344	9386.59
874.663	9412.35
874.982	9380.49
875.301	9402.63
875.62	9268.63
875.939	9333.26
876.258	9296.87
876.577	9296.87
876.896	9300.72
877.214	9233.6
877.533	9209.87
877.852	9239.47
878.17	9212.36
878.489	9179.59
878.807	9217.33
879.125	9147.95
879.444	9184.33
879.762	9116.54
880.08	9143.21
880.398	9083.32
880.716	9095.52
881.034	9100.72
881.352	9079.03
881.67	9079.03
881.988	9088.97
882.306	8979.59
882.624	9013.72
882.941	8944.79
883.259	8913.83
883.577	8929.88
883.894	8888.52
884.212	8846.04
884.529	8844.91
884.846	8808.3
885.164	8731.69
885.481	8837
885.798	8772.37
886.115	8721.97
886.432	8768.07
886.75	8690.11
887.067	8721.97
887.383	8623.9
887.7	8642.88
888.017	8621.86
888.334	8660.51
888.651	8588.19
888.967	8559.94
889.284	8488.53
889.6	8479.72
889.917	8390.01
890.233	8411.47
890.55	8435.43
890.866	8389.78
891.182	8395.88
891.498	8353.4
891.815	8359.95
892.131	8355.2
892.447	8284.47
892.763	8291.7
893.079	8234.76
893.395	8247.41
893.71	8138.71
894.026	8235.43
894.342	8160.41
894.657	8100.52
894.973	8029.56
895.289	8045.16
895.604	8120.63
895.92	7938.49
896.235	7961.32
896.55	7952.05
896.865	7923.58
897.181	7950.92
897.496	7895.56
897.811	7839.29
898.126	7853.75
898.441	7829.34
898.756	7825.95
899.071	7750.47
899.386	7765.62
899.7	7695.79
900.015	7641.32
900.33	7610.82
900.644	7604.26
900.959	7557.26
901.273	7533.76
901.588	7530.59
901.902	7568.56
902.216	7412.4
902.531	7429.8
902.845	7448.79
903.159	7343.93
903.473	7335.57
903.787	7361.78
904.101	7308.45
904.415	7340.54
904.729	7263.03
905.042	7249.7
905.356	7217.83
905.67	7162.69
905.984	7245.4
906.297	7142.13
906.611	7083.83
906.924	7117.5
907.237	7080.89
907.551	7037.95
907.864	6968.12
908.177	6999.53
908.491	6956.82
908.804	6924.28
909.117	6872.98
909.43	6878.18
909.743	6859.65
910.056	6747.34
910.368	6828.24
910.681	6741.91
910.994	6721.12
911.307	6655.81
911.619	6634.8
911.932	6700.56
912.244	6586.89
912.557	6582.6
912.869	6576.49
913.181	6601.8
913.494	6505.08
913.806	6483.16
914.118	6475.71
914.43	6397.97
914.742	6411.07
915.054	6380.11
915.366	6315.26
915.678	6296.95
915.99	6309.61
916.302	6269.84
916.613	6254.47
916.925	6235.03
917.236	6216.28
917.548	6210.85
917.859	6187.58
918.171	6140.35
918.482	6082.27
918.794	6043.17
919.105	6096.05
919.416	6059.45
919.727	6020.12
920.038	5951.2
920.349	5963.63
920.66	5916.17
920.971	5961.14
921.282	5860.35
921.593	5835.72
921.903	5849.28
922.214	5769.96
922.525	5752.56
922.835	5783.52
923.146	5733.13
923.456	5741.94
923.767	5672.79
924.077	5610.19
924.387	5640.47
924.697	5612.23
925.008	5626.24
925.318	5577.65
925.628	5555.96
925.938	5523.19
926.248	5530.19
926.558	5455.85
926.867	5492.23
927.177	5468.95
927.487	5393.93
927.796	5358.67
928.106	5393.7
928.416	5330.65
928.725	5285.68
929.034	5264.66
929.344	5317.09
929.653	5226.02
929.962	5213.82
930.271	5171.33
930.581	5192.35
930.89	5142.18
931.199	5129.75
931.508	5077.1
931.817	5126.14
932.125	5101.5
932.434	5058.34
932.743	5002.52
933.051	5016.99
933.36	4961.17
933.669	4913.71
933.977	4943.99
934.286	4895.86
934.594	4930.89
934.902	4878.46
935.21	4856.99
935.519	4867.16
935.827	4859.02
936.135	4807.73
936.443	4779.7
936.751	4762.3
937.059	4728.41
937.367	4678.24
937.674	4679.59
937.982	4664.91
938.29	4620.16
938.597	4652.93
938.905	4581.07
939.213	4595.53
939.52	4601.4
939.827	4569.99
940.135	4549.2
940.442	4483.89
940.749	4502.42
941.056	4439.6
941.363	4422.2
941.67	4438.92
941.977	4334.07
942.284	4370.68
942.591	4379.72
942.898	4332.26
943.205	4329.32
943.511	4321.41
943.818	4332.03
944.125	4275.09
944.431	4262.66
944.738	4269.21
945.044	4186.05
945.35	4201.19
945.657	4184.24
945.963	4181.08
946.269	4160.96
946.575	4157.12
946.881	4129.55
947.187	4133.39
947.493	4074.86
947.799	4081.64
948.105	4077.58
948.41	4021.98
948.716	4074.41
949.022	4058.82
949.327	3984.7
949.633	3942.21
949.938	3967.3
950.244	3948.99
950.549	3926.17
950.854	3907.86
951.16	3901.54
951.465	3854.98
951.77	3844.59
952.075	3853.18
952.38	3784.93
952.685	3812.95
952.99	3805.72
953.294	3752.84
953.599	3745.61
953.904	3738.38
954.209	3745.61
954.513	3723.46
954.818	3688.43
955.122	3697.25
955.426	3661.99
955.731	3611.6
956.035	3656.34
956.339	3599.85
956.643	3673.97
956.948	3581.54
957.252	3506.29
957.556	3598.49
957.86	3538.16
958.163	3565.05
958.467	3492.96
958.771	3498.83
959.075	3511.94
959.378	3464.03
959.682	3437.82
959.985	3438.72
960.289	3395.79
960.592	3390.81
960.896	3393.53
961.199	3381.78
961.502	3312.4
961.805	3353.3
962.108	3350.59
962.411	3275.56
962.714	3287.54
963.017	3316.01
963.32	3279.18
963.623	3279.86
963.926	3256.58
964.228	3224.04
964.531	3226.3
964.833	3211.38
965.136	3185.4
965.438	3172.97
965.741	3178.62
966.043	3148.11
966.345	3168.9
966.648	3134.55
966.95	3125.96
967.252	3085.29
967.554	3083.48
967.856	3074.44
968.158	3062.46
968.46	3021.11
968.761	3026.08
969.063	3069.24
969.365	2971.62
969.666	2994.67
969.968	2995.34
970.269	2959.19
970.571	2936.36
970.872	2938.85
971.174	2909.7
971.475	2958.28
971.776	2902.01
972.077	2902.69
972.378	2873.99
972.679	2889.81
972.98	2861.11
973.281	2812.07
973.582	2866.08
973.883	2810.04
974.183	2805.52
974.484	2822.69
974.785	2792.19
975.085	2780.66
975.386	2762.58
975.686	2757.61
975.986	2742.02
976.287	2744.73
976.587	2716.71
976.887	2733.88
977.187	2696.14
977.487	2682.13
977.787	2652.53
978.087	2677.39
978.387	2679.2
978.687	2629.03
978.987	2639.87
979.286	2598.07
979.586	2606.65
979.885	2551.51
980.185	2614.11
980.484	2564.17
980.784	2563.94
981.083	2522.14
981.382	2535.02
981.682	2496.83
981.981	2515.36
982.28	2500.22
982.579	2459.54
982.878	2497.05
983.177	2456.38
983.475	2431.29
983.774	2444.17
984.073	2457.73
984.372	2432.65
984.67	2389.03
984.969	2434.23
985.267	2401.46
985.566	2398.3
985.864	2400.78
986.162	2374.57
986.461	2353.78
986.759	2328.92
987.057	2351.29
987.355	2304.97
987.653	2323.05
987.951	2295.02
988.249	2323.05
988.547	2302.93
988.844	2244.18
989.142	2267
989.44	2241.24
989.737	2244.63
990.035	2257.96
990.332	2206.21
990.63	2234.24
990.927	2208.02
991.224	2198.53
991.521	2151.07
991.819	2155.14
992.116	2149.49
992.413	2170.96
992.71	2135.93
993.006	2112.43
993.303	2141.58
993.6	2097.52
993.897	2120.34
994.193	2111.3
994.49	2085.76
994.787	2069.72
995.083	2078.98
995.379	2048.25
995.676	2070.17
995.972	2054.58
996.268	2000.57
996.565	2003.28
996.861	2020.68
997.157	1990.17
997.453	1985.43
997.749	1955.82
998.044	1958.08
998.34	1986.11
998.636	1954.69
998.932	1940.91
999.227	1959.67
999.523	1910.63
999.818	1880.8
1000.114	1906.56
1000.409	1888.26
1000.704	1851.42
1001	1866.79
1001.295	1862.27
1001.59	1853.45
1001.885	1858.2
1002.18	1843.74
1002.475	1811.2
1002.77	1786.11
1003.065	1813.91
1003.359	1774.59
1003.654	1783.63
1003.949	1765.32
1004.243	1796.96
1004.538	1748.37
1004.832	1712.89
1005.127	1735.49
1005.421	1734.36
1005.715	1743.17
1006.009	1720.12
1006.304	1717.19
1006.598	1660.46
1006.892	1664.53
1007.186	1650.3
1007.48	1679.67
1007.773	1674.02
1008.067	1641.93
1008.361	1596.06
1008.655	1623.63
1008.948	1622.05
1009.242	1609.84
1009.535	1607.81
1009.829	1607.36
1010.122	1572.33
1010.415	1576.4
1010.708	1522.16
1011.001	1556.74
1011.295	1554.48
1011.588	1555.83
1011.881	1520.13
1012.173	1524.65
1012.466	1497.98
1012.759	1508.38
1013.052	1469.51
1013.344	1493.92
1013.637	1480.36
1013.93	1486.01
1014.222	1468.15
1014.514	1508.6
1014.807	1452.79
1015.099	1396.52
1015.391	1436.97
1015.683	1421.38
1015.976	1409.85
1016.268	1395.16
1016.56	1405.78
1016.851	1410.53
1017.143	1384.77
1017.435	1387.03
1017.727	1384.31
1018.018	1346.8
1018.31	1334.82
1018.602	1338.44
1018.893	1313.58
1019.185	1300.02
1019.476	1319
1019.767	1307.71
1020.058	1297.31
1020.35	1298.89
1020.641	1265.67
1020.932	1282.62
1021.223	1274.03
1021.514	1275.39
1021.804	1262.28
1022.095	1247.82
1022.386	1247.37
1022.677	1222.51
1022.967	1237.88
1023.258	1212.12
1023.548	1203.75
1023.839	1210.76
1024.129	1196.97
1024.419	1198.33
1024.709	1170.53
1025	1181.38
1025.29	1152.46
1025.58	1147.26
1025.87	1124.66
1026.16	1149.52
1026.449	1141.83
1026.739	1126.24
1027.029	1148.16
1027.319	1104.55
1027.608	1109.29
1027.898	1112.68
1028.187	1117.88
1028.477	1090.31
1028.766	1074.49
1029.055	1080.37
1029.344	1070.88
1029.634	1053.7
1029.923	1074.27
1030.212	1040.59
1030.501	1012.8
1030.79	1041.5
1031.078	1021.16
1031.367	1010.09
1031.656	1013.7
1031.945	1002.4
1032.233	985.23
1032.522	978.45
1032.81	975.96
1033.099	975.74
1033.387	971.44
1033.675	977.54
1033.963	962.18
1034.251	955.4
1034.54	955.85
1034.828	933.93
1035.116	924.66
1035.403	927.15
1035.691	940.71
1035.979	930.77
1036.267	912.01
1036.554	894.16
1036.842	924.21
1037.129	903.87
1037.417	913.14
1037.704	904.55
1037.992	906.59
1038.279	878.56
1038.566	882.86
1038.853	882.86
1039.14	882.86
