Data from hue_260_FLMS001491_00020.txt Node
Date: Tue Feb 07 15:58:40 GMT 2017
User: dcchb
Spectrometer: FLMS00149
Trigger mode: 0
Integration Time (sec): 2.000000E-2
Scans to average: 10
Electric dark correction enabled: true
Nonlinearity correction enabled: false
Boxcar width: 0
XAxis mode: Wavelengths
Number of Pixels in Spectrum: 2048
>>>>>Begin Spectral Data<<<<<
341.393	-31.62
341.776	-31.62
342.16	-31.62
342.543	-46.31
342.927	-52.87
343.31	-58.97
343.693	-75.46
344.077	-56.48
344.46	-62.81
344.843	-36.37
345.226	-52.19
345.61	-41.34
345.993	-2.92
346.376	-11.96
346.759	7.02
347.142	31.2
347.525	40.92
347.908	48.83
348.291	63.52
348.674	107.13
349.057	99.9
349.44	117.98
349.823	133.8
350.206	163.4
350.588	173.79
350.971	198.2
351.354	210.4
351.737	216.73
352.119	240.69
352.502	244.08
352.884	268.71
353.267	277.75
353.65	271.42
354.032	274.58
354.414	295.15
354.797	311.42
355.179	289.27
355.562	293.11
355.944	309.61
356.326	319.33
356.709	324.75
357.091	334.24
357.473	334.02
357.855	313.9
358.238	319.55
358.62	325.66
359.002	327.01
359.384	318.42
359.766	329.95
360.148	343.06
360.53	310.97
360.912	301.25
361.294	316.39
361.676	328.59
362.057	331.08
362.439	326.33
362.821	323.85
363.203	316.62
363.584	317.97
363.966	312.1
364.348	309.16
364.729	305.32
365.111	290.18
365.493	281.81
365.874	314.36
366.256	308.25
366.637	309.38
367.019	301.25
367.4	284.75
367.781	298.09
368.163	307.58
368.544	301.7
368.925	308.48
369.306	295.37
369.688	305.99
370.069	295.15
370.45	294.7
370.831	310.97
371.212	284.53
371.593	308.25
371.974	298.99
372.355	292.44
372.736	305.77
373.117	285.66
373.498	319.33
373.879	283.17
374.26	305.09
374.641	291.53
375.021	288.37
375.402	313.68
375.783	318.65
376.163	312.32
376.544	304.19
376.925	309.84
377.305	327.24
377.686	332.21
378.066	313.45
378.447	303.06
378.827	332.89
379.208	312.32
379.588	330.17
379.968	332.21
380.349	333.34
380.729	336.5
381.109	317.52
381.489	327.92
381.87	327.46
382.25	305.54
382.63	340.8
383.01	328.37
383.39	328.82
383.77	331.3
384.15	335.82
384.53	343.06
384.91	340.8
385.29	316.62
385.67	333.56
386.049	332.66
386.429	329.05
386.809	360.46
387.189	365.88
387.568	339.67
387.948	339.44
388.328	357.74
388.707	373.56
389.087	372.89
389.466	366.78
389.846	364.75
390.225	384.18
390.605	370.85
390.984	359.1
391.363	362.94
391.743	359.1
392.122	376.95
392.501	351.87
392.881	393
393.26	373.79
393.639	397.07
394.018	385.54
394.397	386.44
394.776	361.36
395.155	367.24
395.534	376.28
395.913	370.85
396.292	371.76
396.671	381.92
397.05	387.35
397.429	384.64
397.808	380.57
398.186	389.38
398.565	412.21
398.944	376.5
399.323	416.95
399.701	407.69
400.08	426.22
400.458	415.14
400.837	394.35
401.215	416.27
401.594	405.43
401.972	407.24
402.351	410.62
402.729	429.38
403.107	421.25
403.486	439.55
403.864	428.7
404.242	435.71
404.62	436.61
404.999	440.91
405.377	442.71
405.755	441.36
406.133	451.53
406.511	446.33
406.889	448.36
407.267	481.36
407.645	466.44
408.023	493.11
408.401	480.45
408.779	478.19
409.156	482.04
409.534	509.83
409.912	506.89
410.29	495.14
410.667	507.8
411.045	526.1
411.422	529.72
411.8	525.65
412.178	544.86
412.555	541.47
412.933	547.57
413.31	558.64
413.687	551.19
414.065	569.26
414.442	584.18
414.819	563.62
415.197	596.38
415.574	572.65
415.951	620.79
416.328	631.86
416.705	615.14
417.082	628.7
417.46	642.03
417.837	624.63
418.214	610.85
418.591	614.69
418.967	658.75
419.344	658.3
419.721	667.79
420.098	682.26
420.475	700.33
420.852	673.89
421.228	711.63
421.605	722.93
421.982	736.49
422.358	747.11
422.735	730.62
423.111	746.44
423.488	771.52
423.864	759.54
424.241	798.41
424.617	802.93
424.994	799.54
425.37	817.85
425.746	824.63
426.123	836.6
426.499	820.11
426.875	836.83
427.251	878.41
427.627	875.47
428.003	892.87
428.379	911.63
428.756	896.26
429.132	877.05
429.507	900.33
429.883	939.2
430.259	966.99
430.635	969.25
431.011	959.08
431.387	974.9
431.763	1011.06
432.138	1006.09
432.514	1015.13
432.89	1018.07
433.265	1066.88
433.641	1071.17
434.016	1096.48
434.392	1100.1
434.767	1114.56
435.143	1115.47
435.518	1137.84
435.894	1166.76
436.269	1182.81
436.644	1215.12
437.02	1204.5
437.395	1242.47
437.77	1244.73
438.145	1278.17
438.52	1293.09
438.895	1297.38
439.271	1320.66
439.646	1330.37
440.021	1361.11
440.395	1375.35
440.77	1357.27
441.145	1370.6
441.52	1425.74
441.895	1396.14
442.27	1433.87
442.645	1434.78
443.019	1431.84
443.394	1457.15
443.769	1472.29
444.143	1483.59
444.518	1523.14
444.892	1505.96
445.267	1512.52
445.641	1534.89
446.016	1539.18
446.39	1567.88
446.764	1564.72
447.139	1555
447.513	1578.28
447.887	1564.49
448.262	1570.59
448.636	1572.4
449.01	1619.18
449.384	1647.88
449.758	1659.41
450.132	1658.28
450.506	1660.08
450.88	1693.53
451.254	1661.44
451.628	1721.78
452.002	1727.43
452.376	1752.51
452.75	1756.35
453.123	1767.88
453.497	1838.61
453.871	1807.88
454.244	1816.69
454.618	1850.13
454.992	1882
455.365	1855.33
455.739	1899.17
456.112	1944.6
456.486	1957.25
456.859	1966.52
457.232	1995.89
457.606	1988.21
457.979	2005.61
458.352	2086.51
458.725	2060.07
459.099	2065.72
459.472	2087.19
459.845	2131.71
460.218	2158.6
460.591	2177.81
460.964	2194.98
461.337	2222.1
461.71	2283.12
462.083	2264.81
462.456	2280.63
462.829	2303.91
463.201	2334.87
463.574	2340.52
463.947	2385.71
464.32	2400.63
464.692	2390.69
465.065	2437.46
465.438	2465.26
465.81	2492.38
466.183	2519.95
466.555	2566.5
466.928	2552.72
467.3	2583.45
467.672	2615.76
468.045	2695.31
468.417	2676.78
468.789	2738.25
469.161	2707.29
469.534	2786.16
469.906	2819.38
470.278	2835.87
470.65	2870.22
471.022	2901.63
471.394	3002.87
471.766	2967.85
472.138	3034.51
472.51	3062.76
472.882	3112.25
473.253	3152.25
473.625	3171
473.997	3257.33
474.369	3232.7
474.74	3283.54
475.112	3308.18
475.484	3401.73
475.855	3405.12
476.227	3476.76
476.598	3483.09
476.97	3567.38
477.341	3650.77
477.713	3646.02
478.084	3658
478.455	3746.58
478.827	3785.23
479.198	3858.44
479.569	3854.6
479.94	4020.25
480.311	4002.62
480.682	4068.83
481.053	4141.6
481.424	4230.64
481.795	4243.29
482.166	4308.15
482.537	4347.47
482.908	4451.42
483.279	4442.61
483.65	4489.39
484.021	4619.1
484.391	4636.28
484.762	4698.65
485.133	4676.95
485.503	4808.02
485.874	4855.71
486.244	4874.24
486.615	5002.82
486.985	5039.43
487.356	5075.36
487.726	5131.63
488.097	5221.12
488.467	5188.13
488.837	5347.67
489.207	5374.11
489.578	5431.96
489.948	5443.03
490.318	5564.39
490.688	5569.81
491.058	5655.68
491.428	5696.36
491.798	5771.16
492.168	5826.75
492.538	5872.63
492.908	5895.9
493.278	6004.83
493.648	5950.14
494.017	6045.73
494.387	6072.85
494.757	6143.13
495.126	6119.85
495.496	6192.85
495.866	6208.21
496.235	6260.64
496.605	6264.03
496.974	6297.25
497.344	6397.81
497.713	6355.33
498.082	6381.32
498.452	6527.75
498.821	6527.3
499.19	6508.54
499.559	6591.48
499.928	6588.99
500.298	6684.36
500.667	6697.24
501.036	6680.52
501.405	6743.34
501.774	6673.96
502.143	6807.29
502.512	6792.38
502.88	6834.64
503.249	6862.21
503.618	6876.44
503.987	6891.58
504.356	6923.9
504.724	6927.52
505.093	6934.52
505.462	6938.81
505.83	7030.34
506.199	7065.59
506.567	7092.93
506.936	7047.29
507.304	7139.94
507.672	7200.28
508.041	7155.76
508.409	7216.1
508.777	7222.42
509.145	7290.44
509.514	7285.02
509.882	7323.44
510.25	7286.38
510.618	7412.93
510.986	7366.37
511.354	7452.7
511.722	7423.55
512.09	7483.66
512.458	7456.32
512.826	7530.21
513.193	7554.62
513.561	7566.82
513.929	7583.77
514.297	7582.19
514.664	7625.58
515.032	7586.93
515.4	7635.75
515.767	7643.88
516.135	7684.78
516.502	7656.08
516.869	7695.18
517.237	7751.22
517.604	7663.32
517.972	7748.74
518.339	7809.07
518.706	7755.29
519.073	7751.22
519.44	7762.97
519.808	7836.42
520.175	7848.17
520.542	7936.98
520.909	7902.18
521.276	7849.3
521.643	7945.79
522.009	7982.86
522.376	7972.23
522.743	7969.07
523.11	8005.68
523.477	8075.06
523.843	8068.28
524.21	8108.5
524.577	8151.21
524.943	8125.22
525.31	8148.5
525.676	8210.87
526.043	8230.08
526.409	8236.63
526.776	8307.82
527.142	8273.47
527.508	8252.45
527.874	8301.04
528.241	8288.38
528.607	8304.43
528.973	8350.76
529.339	8362.96
529.705	8395.05
530.071	8434.82
530.437	8416.97
530.803	8413.13
531.169	8417.19
531.535	8484.54
531.901	8452.9
532.267	8452.9
532.632	8416.29
532.998	8471.66
533.364	8437.98
533.73	8466.23
534.095	8539.9
534.461	8492.45
534.826	8478.21
535.192	8573.8
535.557	8461.71
535.923	8473.92
536.288	8457.64
536.653	8419.68
537.019	8481.15
537.384	8491.99
537.749	8513.01
538.114	8528.6
538.479	8475.05
538.845	8535.83
539.21	8517.76
539.575	8498.55
539.94	8460.36
540.305	8503.75
540.67	8575.16
541.034	8533.35
541.399	8495.61
541.764	8522.95
542.129	8504.2
542.494	8517.08
542.858	8511.2
543.223	8513.24
543.587	8519.11
543.952	8422.62
544.316	8505.55
544.681	8437.31
545.045	8538.09
545.41	8471.2
545.774	8456.51
546.138	8412.45
546.503	8434.37
546.867	8447.93
547.231	8501.03
547.595	8425.1
547.959	8447.25
548.324	8437.31
548.688	8427.14
549.052	8442.5
549.416	8389.85
549.779	8409.06
550.143	8411.77
550.507	8424.88
550.871	8407.02
551.235	8412.45
551.599	8386.46
551.962	8365.44
552.326	8482.05
552.689	8464.42
553.053	8342.62
553.417	8359.57
553.78	8467.36
554.143	8397.08
554.507	8467.36
554.87	8422.84
555.234	8416.97
555.597	8411.32
555.96	8434.82
556.323	8449.96
556.686	8461.49
557.05	8514.37
557.413	8437.76
557.776	8441.37
558.139	8548.04
558.502	8463.75
558.865	8505.78
559.228	8490.41
559.59	8550.75
559.953	8499.23
560.316	8587.36
560.679	8552.78
561.041	8630.97
561.404	8603.63
561.767	8654.93
562.129	8603.86
562.492	8671.2
562.854	8663.97
563.217	8620.35
563.579	8631.2
563.941	8690.63
564.304	8677.3
564.666	8766.79
565.028	8819.67
565.39	8738.77
565.753	8794.59
566.115	8803.62
566.477	8837.97
566.839	8857.86
567.201	8845.21
567.563	8873.68
567.925	8870.06
568.287	8913.45
568.648	8883.62
569.01	8999.33
569.372	9072.32
569.734	8984.18
570.095	9056.05
570.457	9038.19
570.819	9123.39
571.18	9042.26
571.542	9106.89
571.903	9112.54
572.265	9100.79
572.626	9150.06
572.987	9190.05
573.349	9246.32
573.71	9237.06
574.071	9254.23
574.432	9314.35
574.794	9307.79
575.155	9363.38
575.516	9309.15
575.877	9348.02
576.238	9299.66
576.599	9348.47
576.96	9457.84
577.32	9407
577.681	9431.4
578.042	9534
578.403	9468.01
578.763	9543.27
579.124	9544.4
579.485	9562.7
579.845	9589.82
580.206	9634.79
580.566	9641.57
580.927	9629.82
581.287	9710.95
581.648	9634.34
582.008	9682.02
582.368	9695.35
582.728	9733.32
583.089	9695.35
583.449	9726.54
583.809	9690.15
584.169	9837.95
584.529	9752.53
584.889	9829.81
585.249	9805.63
585.609	9772.19
585.969	9848.57
586.329	9806.31
586.688	9868.46
587.048	9882.24
587.408	9852.64
587.768	9874.1
588.127	9822.13
588.487	9834.56
588.846	9868
589.206	9906.42
589.565	9879.98
589.925	9989.58
590.284	9932.18
590.643	9964.5
591.003	10008.11
591.362	10007.43
591.721	9966.98
592.08	10071.84
592.44	10112.06
592.799	10027.32
593.158	10016.25
593.517	10020.77
593.876	10052.86
594.235	10098.05
594.593	10108.22
594.952	10066.87
595.311	10081.33
595.67	10137.37
596.029	10139.41
596.387	10166.53
596.746	10210.14
597.104	10202.46
597.463	10117.49
597.822	10140.76
598.18	10172.4
598.538	10165.62
598.897	10252.4
599.255	10131.5
599.613	10262.12
599.972	10257.82
600.33	10243.13
600.688	10214.21
601.046	10301.21
601.404	10312.51
601.762	10240.42
602.12	10374.88
602.478	10282.46
602.836	10373.53
603.194	10312.06
603.552	10338.5
603.91	10297.37
604.268	10342.12
604.625	10320.19
604.983	10383.7
605.341	10310.48
605.698	10308.67
606.056	10354.77
606.413	10329.46
606.771	10369.01
607.128	10370.59
607.485	10303.25
607.843	10364.49
608.2	10380.76
608.557	10397.03
608.914	10402.9
609.272	10440.64
609.629	10511.38
609.986	10408.33
610.343	10456.01
610.7	10512.96
611.057	10449.46
611.414	10480.64
611.771	10445.62
612.127	10587.98
612.484	10489.91
612.841	10538.04
613.198	10410.59
613.554	10595.67
613.911	10601.32
614.267	10568.78
614.624	10609.68
614.98	10540.3
615.337	10620.3
615.693	10641.09
616.05	10624.14
616.406	10717.7
616.762	10513.18
617.118	10635.89
617.475	10618.49
617.831	10674.54
618.187	10717.02
618.543	10614.2
618.899	10777.58
619.255	10675.21
619.611	10641.54
619.967	10688.77
620.323	10769.67
620.678	10718.6
621.034	10714.08
621.39	10661.43
621.746	10663.24
622.101	10830.46
622.457	10740.07
622.812	10736
623.168	10719.73
623.523	10782.33
623.879	10813.52
624.234	10702.78
624.589	10760.86
624.945	10736.45
625.3	10722.67
625.655	10793.4
626.01	10698.26
626.365	10745.27
626.72	10651.94
627.075	10763.35
627.43	10789.11
627.785	10608.77
628.14	10729.68
628.495	10686.06
628.85	10643.35
629.205	10565.39
629.559	10758.38
629.914	10638.6
630.269	10604.93
630.623	10715.66
630.978	10557.02
631.332	10611.49
631.687	10600.64
632.041	10658.49
632.396	10622.33
632.75	10570.36
633.104	10599.96
633.459	10516.35
633.813	10462.34
634.167	10472.96
634.521	10433.64
634.875	10502.34
635.229	10466.63
635.583	10412.62
635.937	10418.95
636.291	10379.4
636.645	10425.28
636.999	10359.74
637.352	10439.97
637.706	10347.54
638.06	10398.61
638.413	10344.37
638.767	10315.9
639.121	10292.4
639.474	10317.26
639.828	10320.42
640.181	10335.56
640.534	10378.05
640.888	10326.75
641.241	10272.51
641.594	10262.34
641.947	10248.33
642.301	10204.04
642.654	10252.63
643.007	10287.65
643.36	10200.2
643.713	10244.04
644.066	10262.34
644.419	10173.76
644.771	10116.36
645.124	10003.37
645.477	10026.87
645.83	9987.55
646.182	9910.04
646.535	9841.56
646.888	9893.09
647.24	9825.29
647.593	9885.4
647.945	9867.1
648.298	9839.98
648.65	9779.64
649.002	9835.46
649.355	9875.91
649.707	9848.12
650.059	9910.49
650.411	10070.94
650.763	9999.75
651.115	10126.53
651.467	10070.26
651.819	10068.9
652.171	10052.86
652.523	10032.07
652.875	10009.69
653.227	10044.04
653.578	10035.46
653.93	10093.53
654.282	10034.1
654.633	10027.77
654.985	10077.26
655.337	9973.09
655.688	10008.56
656.039	10136.47
656.391	9988.45
656.742	10047.66
657.094	9971.96
657.445	10088.11
657.796	10031.84
658.147	10019.41
658.498	9994.55
658.849	9992.52
659.2	9988.23
659.551	9968.57
659.902	10000.2
660.253	10031.16
660.604	10037.26
660.955	9910.94
661.306	10057.38
661.656	9998.62
662.007	10061.22
662.358	10003.37
662.708	10086.98
663.059	10069.81
663.409	9964.27
663.76	10068.9
664.11	10089.24
664.461	10093.53
664.811	10050.37
665.161	10051.95
665.511	10042.69
665.862	10042.24
666.212	10082.91
666.562	10057.15
666.912	10008.79
667.262	10042.01
667.612	10000.66
667.962	9976.25
668.312	10021.45
668.662	9962.92
669.011	10024.61
669.361	10018.96
669.711	9955.23
670.06	9971.5
670.41	9909.13
670.76	9965.4
671.109	10010.82
671.459	10011.5
671.808	9970.83
672.157	9927.44
672.507	9906.65
672.856	9926.31
673.205	9960.66
673.554	9948.23
673.904	9862.13
674.253	9918.4
674.602	9870.04
674.951	9735.58
675.3	9665.3
675.649	9861.45
675.998	9876.59
676.346	9916.82
676.695	9869.59
677.044	9839.98
677.393	9824.39
677.741	9826.87
678.09	9813.09
678.438	9807.89
678.787	9831.62
679.135	9760.89
679.484	9683.83
679.832	9816.03
680.181	9714.11
680.529	9761.34
680.877	9638.4
681.225	9689.25
681.573	9734
681.922	9640.66
682.27	9621.91
682.618	9604.28
682.966	9611.96
683.314	9588.46
683.661	9575.36
684.009	9503.27
684.357	9495.36
684.705	9472.76
685.053	9485.19
685.4	9502.36
685.748	9418.75
686.095	9422.82
686.443	9378.52
686.79	9400.67
687.138	9441.35
687.485	9384.4
687.832	9383.04
688.18	9363.16
688.527	9289.71
688.874	9270.73
689.221	9250.62
689.568	9198.42
689.915	9237.74
690.262	9133.33
690.609	9123.16
690.956	9078.65
691.303	9030.74
691.65	9007.01
691.997	9024.41
692.344	8990.06
692.69	9002.72
693.037	8944.19
693.383	8907.12
693.73	8918.65
694.077	8858.54
694.423	8875.71
694.769	8778.09
695.116	8744.64
695.462	8764.53
695.808	8755.04
696.155	8675.72
696.501	8649.96
696.847	8637.98
697.193	8590.97
697.539	8604.08
697.885	8485.44
698.231	8586.68
698.577	8456.29
698.923	8504.2
699.269	8442.28
699.614	8426.46
699.96	8430.98
700.306	8350.3
700.651	8273.47
700.997	8245.45
701.342	8206.8
701.688	8222.85
702.033	8186.69
702.379	8233.02
702.724	8135.85
703.069	8212.23
703.415	8066.69
703.76	8133.81
704.105	8116.64
704.45	8039.12
704.795	8060.14
705.14	8013.14
705.485	7978.79
705.83	7876.64
706.175	7908.96
706.52	7917.32
706.865	7896.53
707.209	7863.31
707.554	7792.8
707.899	7792.13
708.243	7748.28
708.588	7766.36
708.932	7684.56
709.277	7725.01
709.621	7687.95
709.966	7657.21
710.31	7655.63
710.654	7622.64
710.998	7597.55
711.342	7624.45
711.687	7601.85
712.031	7502.19
712.375	7508.07
712.719	7525.24
713.063	7505.13
713.407	7538.8
713.75	7471.23
714.094	7456.09
714.438	7449.76
714.782	7395.07
715.125	7412.93
715.469	7450.21
715.812	7428.75
716.156	7382.19
716.499	7372.48
716.843	7364.57
717.186	7400.27
717.53	7370.89
717.873	7348.3
718.216	7242.54
718.559	7289.77
718.902	7272.59
719.246	7302.42
719.589	7224.23
719.932	7213.16
720.275	7145.81
720.617	7235.76
720.96	7245.47
721.303	7214.06
721.646	7186.94
721.989	7143.33
722.331	7187.85
722.674	7173.38
723.016	7123.44
723.359	7145.36
723.701	7116.66
724.044	7127.51
724.386	7099.94
724.729	7104.01
725.071	7028.3
725.413	7129.32
725.755	7059.72
726.097	7075.76
726.439	7009.77
726.782	7061.3
727.124	7101.75
727.465	7063.11
727.807	7032.82
728.149	7070.34
728.491	7011.13
728.833	7057.91
729.175	7019.04
729.516	6994.18
729.858	7049.32
730.199	7024.91
730.541	7041.18
730.882	7001.41
731.224	7030.11
731.565	6956.67
731.906	6952.83
732.248	6997.8
732.589	7002.54
732.93	6984.69
733.271	6961.64
733.612	6992.82
733.953	6936.1
734.294	6938.36
734.635	6923
734.976	7019.04
735.317	6928.19
735.658	6917.57
735.999	6962.09
736.339	6962.77
736.68	7012.94
737.021	6890
737.361	6934.07
737.702	6989.21
738.042	7013.62
738.383	6943.56
738.723	6993.95
739.063	6927.74
739.404	7036.89
739.744	6995.76
740.084	6965.03
740.424	6969.55
740.764	6971.58
741.104	7081.64
741.444	7035.99
741.784	7033.28
742.124	7050.45
742.464	6993.5
742.804	7044.57
743.143	7033.5
743.483	7067.85
743.823	7051.81
744.162	7131.13
744.502	7129.09
744.841	7144.46
745.181	7132.71
745.52	7148.07
745.86	7213.38
746.199	7198.69
746.538	7239.15
746.877	7315.3
747.216	7357.56
747.556	7349.65
747.895	7358.46
748.234	7391.23
748.573	7406.37
748.911	7491.79
749.25	7568.4
749.589	7560.49
749.928	7670.77
750.267	7706.03
750.605	7703.54
750.944	7781.28
751.283	7826.25
751.621	7919.81
751.96	7933.14
752.298	8022.4
752.636	8111.67
752.975	8154.38
753.313	8194.37
753.651	8357.76
753.989	8392.34
754.327	8466.01
754.666	8447.02
755.004	8587.13
755.342	8703.29
755.679	8843.85
756.017	8841.59
756.355	9002.72
756.693	9114.35
757.031	9228.7
757.368	9301.92
757.706	9398.86
758.044	9532.19
758.381	9653.77
758.719	9744.84
759.056	9818.74
759.394	10053.54
759.731	10086.08
760.068	10231.84
760.405	10316.81
760.743	10419.85
761.08	10601.54
761.417	10609.68
761.754	10862.1
762.091	10874.98
762.428	11027.52
762.765	11099.38
763.102	11336.21
763.438	11309.1
763.775	11497.34
764.112	11616.66
764.449	11729.65
764.785	11850.55
765.122	11923.99
765.458	12136.87
765.795	12180.71
766.131	12330.31
766.467	12406.92
766.804	12472.68
767.14	12580.93
767.476	12696.63
767.812	12795.84
768.148	12873.57
768.485	12982.72
768.821	13059.11
769.157	13219.78
769.492	13236.73
769.828	13356.73
770.164	13325.31
770.5	13386.1
770.836	13581.13
771.171	13595.36
771.507	13711.52
771.842	13770.27
772.178	13814.11
772.513	13865.86
772.849	13939.08
773.184	14012.08
773.519	13930.04
773.855	14059.53
774.19	14061.57
774.525	14099.76
774.86	14137.5
775.195	14255.46
775.53	14337.94
775.865	14225.18
776.2	14299.98
776.535	14203.93
776.87	14316.47
777.205	14283.71
777.539	14298.62
777.874	14368.22
778.209	14349.24
778.543	14431.05
778.878	14335
779.212	14452.74
779.547	14393.31
779.881	14516.92
780.215	14414.32
780.55	14453.87
780.884	14435.34
781.218	14458.17
781.552	14511.05
781.886	14548.11
782.22	14477.6
782.554	14463.36
782.888	14362.12
783.222	14359.41
783.556	14310.82
783.889	14370.94
784.223	14244.16
784.557	14226.98
784.89	14343.37
785.224	14343.37
785.557	14324.16
785.891	14258.17
786.224	14328
786.558	14268.57
786.891	14176.59
787.224	14202.35
787.557	14109.47
787.891	14178.17
788.224	14201.45
788.557	14223.37
788.89	14182.47
789.223	14196.48
789.556	14080.1
789.888	14078.97
790.221	14123.26
790.554	14061.79
790.887	13909.93
791.219	13992.64
791.552	13908.35
791.884	13869.71
792.217	13843.27
792.549	13898.18
792.882	13830.16
793.214	13775.7
793.546	13814.79
793.879	13669.26
794.211	13584.06
794.543	13693.21
794.875	13716.72
795.207	13701.12
795.539	13655.25
795.871	13669.71
796.203	13413.22
796.535	13493.44
796.867	13428.81
797.198	13435.59
797.53	13403.5
797.862	13348.14
798.193	13403.96
798.525	13286.9
798.856	13282.6
799.188	13242.6
799.519	13133.91
799.85	13109.05
800.182	13201.7
800.513	13236.05
800.844	13031.76
801.175	13136.39
801.506	13127.35
801.837	13078.54
802.168	13031.54
802.499	13010.75
802.83	12864.76
803.161	12949.28
803.491	12919
803.822	12866.57
804.153	12816.85
804.483	12734.82
804.814	12708.38
805.145	12749.74
805.475	12698.89
805.805	12570.08
806.136	12703.41
806.466	12620.7
806.796	12626.35
807.126	12528.95
807.457	12596.07
807.787	12524.88
808.117	12447.6
808.447	12433.36
808.777	12461.38
809.107	12399.91
809.436	12341.84
809.766	12386.13
810.096	12351.78
810.426	12290.76
810.755	12228.39
811.085	12211.67
811.414	12177.32
811.744	12121.5
812.073	12056.19
812.403	12141.84
812.732	12106.59
813.061	12074.72
813.39	12079.02
813.719	12031.79
814.049	12114.72
814.378	12011
814.707	11970.55
815.036	12003.54
815.365	11854.62
815.693	11699.59
816.022	11793.83
816.351	11818.69
816.68	11687.62
817.008	11773.04
817.337	11702.98
817.665	11606.49
817.994	11705.92
818.322	11702.76
818.651	11668.41
818.979	11586.83
819.307	11683.32
819.636	11641.06
819.964	11589.31
820.292	11582.08
820.62	11576.21
820.948	11544.8
821.276	11576.88
821.604	11486.49
821.932	11538.02
822.259	11497.11
822.587	11537.34
822.915	11497.79
823.243	11542.31
823.57	11537.11
823.898	11523.1
824.225	11437.45
824.553	11533.72
824.88	11545.25
825.207	11508.19
825.535	11595.42
825.862	11570.78
826.189	11555.19
826.516	11503.44
826.843	11583.21
827.17	11533.04
827.497	11612.82
827.824	11546.6
828.151	11584.12
828.478	11584.12
828.805	11555.19
829.131	11559.94
829.458	11523.55
829.785	11463.89
830.111	11510.22
830.438	11512.48
830.764	11560.16
831.09	11549.09
831.417	11435.65
831.743	11561.97
832.069	11549.99
832.395	11477.45
832.722	11561.07
833.048	11539.37
833.374	11505.7
833.7	11426.83
834.026	11442.65
834.351	11434.74
834.677	11502.54
835.003	11428.41
835.329	11446.49
835.654	11415.53
835.98	11355.2
836.306	11381.18
836.631	11306.38
836.956	11343.9
837.282	11445.14
837.607	11360.39
837.932	11308.64
838.258	11330.79
838.583	11321.75
838.908	11262.54
839.233	11297.34
839.558	11188.65
839.883	11131.47
840.208	11190
840.533	11149.33
840.858	11163.56
841.182	11197.01
841.507	11090.34
841.832	11104.13
842.156	11077.01
842.481	11013.51
842.805	11029.1
843.13	10950.69
843.454	11012.38
843.778	11003.34
844.103	10970.57
844.427	10881.76
844.751	10796.34
845.075	10951.59
845.399	10825.94
845.723	10794.53
846.047	10844.47
846.371	10693.97
846.695	10729.45
847.019	10618.94
847.343	10610.58
847.666	10539.4
847.99	10442.23
848.313	10403.58
848.637	10454.65
848.96	10452.39
849.284	10345.28
849.607	10237.03
849.931	10251.04
850.254	10194.77
850.577	10143.25
850.9	10006.53
851.223	10100.09
851.546	9992.97
851.869	10009.69
852.192	9945.06
852.515	9887.44
852.838	9901.67
853.161	9809.02
853.483	9816.25
853.806	9822.13
854.129	9760.66
854.451	9745.97
854.774	9801.11
855.096	9677.5
855.419	9642.7
855.741	9646.99
856.063	9660.55
856.385	9590.72
856.708	9535.36
857.03	9461.69
857.352	9531.06
857.674	9463.95
857.996	9442.48
858.318	9387.11
858.64	9366.77
858.961	9334.91
859.283	9350.28
859.605	9245.19
859.926	9283.39
860.248	9258.53
860.57	9193.22
860.891	9198.42
861.212	9128.81
861.534	9089.27
861.855	9117.74
862.176	9092.66
862.498	9059.89
862.819	9100.79
863.14	9048.14
863.461	9023.05
863.782	9065.09
864.103	9004.52
864.424	8973.34
864.745	9007.23
865.065	8995.26
865.386	8819.44
865.707	8938.08
866.027	8901.93
866.348	8952.32
866.668	8904.64
866.989	8821.03
867.309	8807.01
867.63	8897.86
867.95	8757.75
868.27	8747.81
868.59	8771.31
868.91	8735.83
869.23	8792.55
869.55	8664.65
869.87	8807.69
870.19	8764.76
870.51	8673.91
870.83	8727.47
871.15	8702.38
871.469	8640.24
871.789	8657.87
872.109	8602.05
872.428	8629.17
872.748	8621.26
873.067	8666.23
873.386	8577.87
873.706	8627.13
874.025	8590.07
874.344	8505.33
874.663	8598.66
874.982	8529.06
875.301	8576.51
875.62	8493.8
875.939	8448.83
876.258	8431.88
876.577	8449.06
876.896	8500.13
877.214	8476.4
877.533	8398.21
877.852	8437.08
878.17	8441.83
878.489	8455.16
878.807	8340.13
879.125	8324.32
879.444	8350.3
879.762	8299.46
880.08	8337.87
880.398	8278.44
880.716	8284.99
881.034	8310.08
881.352	8260.36
881.67	8223.53
881.988	8234.37
882.306	8232.79
882.624	8211.32
882.941	8116.18
883.259	8159.8
883.577	8096.98
883.894	8026.24
884.212	8127.94
884.529	8040.25
884.846	7999.13
885.164	8056.53
885.481	8031.44
885.798	7966.13
886.115	7940.6
886.432	7903.54
886.75	7919.81
887.067	7931.56
887.383	7903.54
887.7	7881.84
888.017	7865.8
888.334	7833.03
888.651	7845.23
888.967	7792.58
889.284	7759.36
889.6	7772.92
889.917	7679.59
890.233	7740.6
890.55	7691.56
890.866	7647.72
891.182	7707.61
891.498	7609.98
891.815	7592.13
892.131	7571.34
892.447	7562.08
892.763	7508.97
893.079	7511.46
893.395	7504.45
893.71	7526.82
894.026	7459.7
894.342	7399.14
894.657	7344
894.973	7339.26
895.289	7317.79
895.604	7304.68
895.92	7283.89
896.235	7254.96
896.55	7279.82
896.865	7257.68
897.181	7200.05
897.496	7223.33
897.811	7159.37
898.126	7168.19
898.441	7064.46
898.756	7079.15
899.071	7003.9
899.386	7042.54
899.7	6988.76
900.015	6945.14
900.33	6934.3
900.644	6910.79
900.959	6885.03
901.273	6867.18
901.588	6817.69
901.902	6822.66
902.216	6713.96
902.531	6680.52
902.845	6756.67
903.159	6723
903.473	6661.53
903.787	6631.25
904.101	6653.17
904.415	6601.87
904.729	6589.9
905.042	6542.44
905.356	6561.42
905.67	6573.17
905.984	6484.59
906.297	6523.46
906.611	6436.91
906.924	6419.28
907.237	6438.49
907.551	6386.51
907.864	6398.49
908.177	6366.17
908.491	6343.8
908.804	6290.02
909.117	6305.84
909.43	6217.93
909.743	6147.2
910.056	6199.63
910.368	6208.21
910.681	6118.05
910.994	6193.52
911.307	6136.8
911.619	6075.11
911.932	6017.93
912.244	5997.37
912.557	5979.52
912.869	5954.21
913.181	5915.79
913.494	5971.16
913.806	5852.29
914.118	5818.17
914.43	5791.27
914.742	5869.69
915.054	5824.95
915.366	5774.1
915.678	5777.04
915.99	5788.56
916.302	5705.4
916.613	5708.79
916.925	5703.82
917.236	5656.14
917.548	5640.32
917.859	5629.92
918.171	5583.6
918.482	5546.08
918.794	5555.8
919.105	5525.52
919.416	5429.25
919.727	5506.76
920.038	5427.89
920.349	5452.75
920.66	5420.66
920.971	5366.65
921.282	5360.33
921.593	5378.18
921.903	5315.58
922.214	5283.04
922.525	5257.28
922.835	5241.23
923.146	5203.04
923.456	5230.16
923.767	5222.25
924.077	5154.23
924.387	5192.42
924.697	5079.88
925.008	5081.24
925.318	5045.53
925.628	5088.24
925.938	5056.83
926.248	4984.97
926.558	4989.49
926.867	4990.62
927.177	4964.86
927.487	4932.09
927.796	4900.45
928.106	4907.23
928.416	4919.21
928.725	4886.67
929.034	4859.1
929.344	4817.29
929.653	4818.19
929.962	4738.87
930.271	4768.25
930.581	4716.27
930.89	4737.06
931.199	4711.98
931.508	4683.73
931.817	4679.44
932.125	4674.24
932.434	4654.13
932.743	4581.59
933.051	4578.88
933.36	4542.04
933.669	4530.74
933.977	4520.8
934.286	4519.22
934.594	4494.13
934.902	4458.88
935.21	4462.5
935.519	4481.48
935.827	4453
936.135	4410.97
936.443	4377.53
936.751	4380.92
937.059	4338.66
937.367	4307.47
937.674	4323.52
937.982	4303.86
938.29	4241.26
938.597	4310.18
938.905	4277.64
939.213	4211.2
939.52	4203.97
939.827	4234.93
940.135	4216.85
940.442	4171.43
940.749	4146.57
941.056	4178.66
941.363	4107.48
941.67	4084.43
941.977	4025.45
942.284	4056.86
942.591	4043.75
942.898	4003.52
943.205	4012.56
943.511	4038.55
943.818	3972.34
944.125	3957.88
944.431	3966.92
944.738	3924.43
945.044	3894.38
945.35	3876.75
945.657	3850.31
945.963	3837.88
946.269	3859.35
946.575	3827.03
946.881	3802.17
947.187	3799.24
947.493	3791.33
947.799	3769.18
948.105	3721.27
948.41	3730.31
948.716	3691.67
949.022	3708.84
949.327	3690.76
949.633	3666.13
949.938	3614.38
950.244	3640.37
950.549	3630.2
950.854	3586.81
951.16	3590.65
951.465	3580.48
951.77	3580.26
952.075	3552.24
952.38	3530.32
952.685	3528.51
952.99	3515.18
953.294	3489.87
953.599	3440.38
953.904	3448.06
954.209	3429.53
954.513	3457.55
954.818	3436.08
955.122	3416.42
955.426	3368.29
955.731	3371
956.035	3363.32
956.339	3338.01
956.643	3333.26
956.948	3331.23
957.252	3294.16
957.556	3293.49
957.86	3250.1
958.163	3286.26
958.467	3276.99
958.771	3243.32
959.075	3248.29
959.378	3214.17
959.682	3190.89
959.985	3185.24
960.289	3170.1
960.592	3117.45
960.896	3132.81
961.199	3128.07
961.502	3118.35
961.805	3072.48
962.108	3071.35
962.411	3080.16
962.714	3068.63
963.017	3064.79
963.32	3056.43
963.623	2996.55
963.926	3036.32
964.228	3009.2
964.531	2963.33
964.833	2985.47
965.136	2950.67
965.438	2945.93
965.741	2944.57
966.043	2923.78
966.345	2940.05
966.648	2892.37
966.95	2876.55
967.252	2911.35
967.554	2862.76
967.856	2821.18
968.158	2822.54
968.46	2827.28
968.761	2814.18
969.063	2779.38
969.365	2785.25
969.666	2735.99
969.968	2727.4
970.269	2736.44
970.571	2728.53
970.872	2760.85
971.174	2699.83
971.475	2698.93
971.776	2725.14
972.077	2701.64
972.378	2670
972.679	2643.79
972.98	2634.07
973.281	2649.21
973.582	2616.22
973.883	2631.13
974.183	2617.57
974.484	2627.06
974.785	2579.16
975.085	2561.53
975.386	2571.92
975.686	2590.45
975.986	2558.59
976.287	2571.7
976.587	2538.25
976.887	2466.84
977.187	2490.57
977.487	2496.22
977.787	2461.87
978.087	2485.15
978.387	2436.56
978.687	2449.67
978.987	2411.7
979.286	2418.48
979.586	2409.22
979.885	2399.95
980.185	2397.24
980.484	2384.36
980.784	2354.75
981.083	2366.05
981.382	2354.3
981.682	2355.21
981.981	2331.25
982.28	2305.04
982.579	2299.39
982.878	2335.55
983.177	2335.55
983.475	2276.56
983.774	2264.59
984.073	2260.29
984.372	2262.1
984.67	2276.11
984.969	2226.85
985.267	2218.26
985.566	2187.75
985.864	2213.74
986.162	2180.07
986.461	2182.1
986.759	2205.61
987.057	2191.14
987.355	2128.77
987.653	2146.4
987.951	2146.17
988.249	2129.22
988.547	2097.13
988.844	2116.12
989.142	2109.11
989.44	2063.01
989.737	2064.37
990.035	2063.01
990.332	2031.15
990.63	2030.92
990.927	2031.15
991.224	2037.25
991.521	2013.97
991.819	2010.81
992.116	2012.39
992.413	2020.75
992.71	2020.98
993.006	1951.38
993.303	1954.76
993.6	1971.71
993.897	1950.7
994.193	1958.38
994.49	1931.94
994.787	1955.67
995.083	1896.46
995.379	1917.03
995.676	1898.5
995.972	1899.85
996.268	1884.48
996.565	1827.31
996.861	1865.05
997.157	1876.57
997.453	1847.88
997.749	1844.71
998.044	1815.33
998.34	1814.2
998.636	1786.18
998.932	1802
999.227	1782.34
999.523	1770.82
999.818	1764.04
1000.114	1755
1000.409	1725.84
1000.704	1748.67
1001	1739.18
1001.295	1712.51
1001.59	1725.62
1001.885	1708.9
1002.18	1697.37
1002.475	1695.56
1002.77	1701.21
1003.065	1650.82
1003.359	1656.47
1003.654	1663.93
1003.949	1645.39
1004.243	1644.72
1004.538	1592.51
1004.832	1611.95
1005.127	1629.58
1005.421	1626.86
1005.715	1607.88
1006.009	1588.67
1006.304	1597.26
1006.598	1563.59
1006.892	1571.27
1007.186	1533.08
1007.48	1554.32
1007.773	1531.5
1008.067	1538.05
1008.361	1522.69
1008.655	1504.83
1008.948	1478.62
1009.242	1521.78
1009.535	1497.38
1009.829	1477.26
1010.122	1446.53
1010.415	1463.93
1010.708	1420.99
1011.001	1451.28
1011.295	1430.48
1011.588	1425.29
1011.881	1418.28
1012.173	1410.15
1012.466	1434.33
1012.759	1400.88
1013.052	1407.89
1013.344	1404.05
1013.637	1386.19
1013.93	1397.27
1014.222	1357.27
1014.514	1371.73
1014.807	1348.68
1015.099	1331.05
1015.391	1347.55
1015.683	1323.82
1015.976	1321.79
1016.268	1307.1
1016.56	1305.06
1016.851	1306.19
1017.143	1284.27
1017.435	1283.37
1017.727	1264.16
1018.018	1255.8
1018.31	1234.33
1018.602	1252.86
1018.893	1257.38
1019.185	1242.24
1019.476	1245.18
1019.767	1228
1020.058	1209.7
1020.35	1196.14
1020.641	1193.88
1020.932	1190.04
1021.223	1197.5
1021.514	1185.07
1021.804	1169.47
1022.095	1168.34
1022.386	1133.77
1022.677	1147.78
1022.967	1135.58
1023.258	1121.57
1023.548	1114.79
1023.839	1121.34
1024.129	1113.66
1024.419	1124.5
1024.709	1085.86
1025	1105.07
1025.29	1068.23
1025.58	1059.65
1025.87	1062.13
1026.16	1026.88
1026.449	1053.09
1026.739	1043.83
1027.029	1047.44
1027.319	1043.38
1027.608	1017.39
1027.898	1000.89
1028.187	1056.48
1028.477	1013.55
1028.766	1016.26
1029.055	1016.94
1029.344	993.21
1029.634	1012.42
1029.923	983.04
1030.212	956.15
1030.501	977.39
1030.79	966.09
1031.078	943.49
1031.367	946.43
1031.656	923.15
1031.945	956.37
1032.233	940.1
1032.522	918.18
1032.81	923.15
1033.099	930.39
1033.387	924.06
1033.675	917.73
1033.963	918.63
1034.251	884.51
1034.54	905.3
1034.828	906.88
1035.116	886.77
1035.403	864.85
1035.691	868.69
1035.979	874.34
1036.267	879.54
1036.554	839.31
1036.842	877.05
1037.129	840.9
1037.417	839.31
1037.704	837.28
1037.992	822.14
1038.279	835.92
1038.566	823.95
1038.853	823.95
1039.14	823.95
