Data from hue_60_FLMS001491_21.txt Node
Date: Mon Feb 06 15:17:08 GMT 2017
User: dcchb
Spectrometer: FLMS00149
Trigger mode: 0
Integration Time (sec): 2.000000E-2
Scans to average: 10
Electric dark correction enabled: true
Nonlinearity correction enabled: false
Boxcar width: 0
XAxis mode: Wavelengths
Number of Pixels in Spectrum: 2048
>>>>>Begin Spectral Data<<<<<
341.393	-36.93
341.776	-36.93
342.16	-36.93
342.543	-62.24
342.927	-71.28
343.31	-58.18
343.693	-60.44
344.077	-57.05
344.46	-47.78
344.843	-72.87
345.226	-57.5
345.61	-32.87
345.993	-10.95
346.376	-2.13
346.759	-2.36
347.142	23.18
347.525	50.97
347.908	67.92
348.291	72.22
348.674	80.8
349.057	107.02
349.44	127.36
349.823	142.27
350.206	164.19
350.588	209.61
350.971	204.87
351.354	210.29
351.737	242.38
352.119	234.7
352.502	274.24
352.884	275.83
353.267	279.22
353.65	283.96
354.032	288.48
354.414	302.94
354.797	300.46
355.179	323.96
355.562	315.37
355.944	323.51
356.326	336.62
356.709	333.9
357.091	357.63
357.473	341.59
357.855	335.49
358.238	346.78
358.62	327.58
359.002	319.21
359.384	318.99
359.766	350.4
360.148	340.23
360.53	357.18
360.912	337.97
361.294	354.47
361.676	348.82
362.057	341.59
362.439	340.46
362.821	337.97
363.203	321.7
363.584	318.99
363.966	337.52
364.348	323.28
364.729	300.68
365.111	319.21
365.493	330.29
365.874	327.35
366.256	315.37
366.637	316.05
367.019	295.26
367.4	311.98
367.781	310.4
368.163	306.79
368.544	295.49
368.925	319.89
369.306	298.65
369.688	304.98
370.069	312.21
370.45	326.45
370.831	292.55
371.212	305.2
371.593	305.2
371.974	310.85
372.355	304.75
372.736	313.11
373.117	303.17
373.498	328.48
373.879	317.63
374.26	310.63
374.641	323.51
375.021	319.44
375.402	328.25
375.783	329.38
376.163	312.66
376.544	321.25
376.925	338.42
377.305	306.56
377.686	330.06
378.066	345.43
378.447	330.97
378.827	319.89
379.208	328.48
379.588	316.73
379.968	324.19
380.349	319.44
380.729	322.83
381.109	320.34
381.489	341.36
381.87	328.03
382.25	335.49
382.63	318.54
383.01	340.91
383.39	350.4
383.77	330.97
384.15	344.07
384.53	344.98
384.91	358.31
385.29	340.46
385.67	328.03
386.049	329.38
386.429	341.14
386.809	334.13
387.189	349.27
387.568	326.67
387.948	332.1
388.328	352.43
388.707	361.25
389.087	368.25
389.466	362.83
389.846	339.33
390.225	368.25
390.605	343.85
390.984	348.82
391.363	353.79
391.743	358.08
392.122	365.99
392.501	360.34
392.881	352.21
393.26	379.55
393.639	369.83
394.018	351.98
394.397	371.64
394.776	365.09
395.155	364.19
395.534	368.93
395.913	349.5
396.292	362.38
396.671	365.32
397.05	385.43
397.429	375.26
397.808	379.78
398.186	380.91
398.565	366.67
398.944	383.85
399.323	374.81
399.701	358.54
400.08	368.7
400.458	377.52
400.837	386.33
401.215	403.73
401.594	368.93
401.972	394.69
402.351	373.22
402.729	379.1
403.107	375.94
403.486	364.86
403.864	395.14
404.242	413.9
404.62	393.34
404.999	400.12
405.377	380.46
405.755	410.74
406.133	410.06
406.511	402.38
406.889	401.92
407.267	410.51
407.645	384.98
408.023	415.48
408.401	391.3
408.779	415.94
409.156	407.12
409.534	419.33
409.912	421.36
410.29	421.58
410.667	426.56
411.045	428.82
411.422	412.09
411.8	437.86
412.178	444.64
412.555	436.73
412.933	458.42
413.31	443.51
413.687	445.31
414.065	427.91
414.442	450.28
414.819	448.7
415.197	441.47
415.574	461.58
415.951	464.97
416.328	478.31
416.705	474.46
417.082	451.87
417.46	465.43
417.837	463.39
418.214	441.7
418.591	466.1
418.967	479.66
419.344	477.18
419.721	494.13
420.098	476.95
420.475	496.84
420.852	512.43
421.228	507.46
421.605	499.32
421.982	508.14
422.358	514.69
422.735	504.97
423.111	497.97
423.488	515.82
423.864	497.74
424.241	531.19
424.617	526.44
424.994	535.48
425.37	541.58
425.746	540
426.123	525.99
426.499	543.62
426.875	538.64
427.251	556.04
427.627	555.37
428.003	559.21
428.379	534.35
428.756	557.63
429.132	555.37
429.507	554.91
429.883	588.81
430.259	563.05
430.635	570.96
431.011	579.77
431.387	563.5
431.763	569.38
432.138	575.93
432.514	596.5
432.89	576.16
433.265	592.43
433.641	628.36
434.016	603.5
434.392	616.16
434.767	624.52
435.143	620.22
435.518	649.38
435.894	639.66
436.269	636.72
436.644	650.05
437.02	646.44
437.395	641.24
437.77	665.65
438.145	669.04
438.52	655.03
438.895	664.29
439.271	688.02
439.646	667.68
440.021	701.8
440.395	676.04
440.77	682.14
441.145	688.47
441.52	708.58
441.895	722.59
442.27	700.45
442.645	700.45
443.019	708.13
443.394	709.71
443.769	711.29
444.143	730.73
444.518	728.47
444.892	721.24
445.267	726.89
445.641	733.67
446.016	731.63
446.39	751.29
446.764	744.29
447.139	733.22
447.513	744.97
447.887	759.88
448.262	761.69
448.636	765.98
449.01	749.49
449.384	768.24
449.758	775.7
450.132	784.97
450.506	771.86
450.88	797.39
451.254	779.77
451.628	805.3
452.002	808.69
452.376	800.11
452.75	809.37
453.123	794.23
453.497	832.87
453.871	819.31
454.244	836.72
454.618	864.29
454.992	867.67
455.365	842.36
455.739	886.88
456.112	883.95
456.486	910.39
456.859	897.05
457.232	929.37
457.606	898.86
457.979	904.74
458.352	942.25
458.725	941.12
459.099	961.91
459.472	946.32
459.845	963.27
460.218	979.08
460.591	1025.64
460.964	1005.75
461.337	1028.35
461.71	1032.19
462.083	1034.22
462.456	1050.49
462.829	1037.16
463.201	1072.19
463.574	1056.14
463.947	1097.5
464.32	1112.87
464.692	1111.28
465.065	1114
465.438	1158.74
465.81	1171.4
466.183	1182.02
466.555	1187.67
466.928	1216.59
467.3	1218.85
467.672	1243.03
468.045	1264.73
468.417	1295.01
468.789	1309.7
469.161	1309.02
469.534	1360.09
469.906	1400.99
470.278	1400.32
470.65	1423.82
471.022	1452.74
471.394	1488.9
471.766	1509.47
472.138	1530.71
472.51	1566.64
472.882	1607.77
473.253	1643.25
473.625	1681.21
473.997	1685.96
474.369	1732.74
474.74	1757.82
475.112	1821.1
475.484	1858.38
475.855	1920.3
476.227	1934.31
476.598	2048.66
476.97	2044.59
477.341	2090.92
477.713	2184.02
478.084	2200.75
478.455	2294.3
478.827	2352.61
479.198	2458.59
479.569	2459.27
479.94	2578.36
480.311	2622.66
480.682	2696.1
481.053	2837.79
481.424	2873.27
481.795	2966.6
482.166	3026.94
482.537	3096.09
482.908	3264.45
483.279	3358.68
483.65	3435.52
484.021	3564.55
484.391	3645.45
484.762	3720.71
485.133	3808.84
485.503	3924.77
485.874	4083.86
486.244	4176.06
486.615	4367.92
486.985	4437.52
487.356	4549.39
487.726	4698.31
488.097	4882.94
488.467	4949.15
488.837	5147.56
489.207	5246.99
489.578	5389.59
489.948	5567.66
490.318	5702.35
490.688	5798.84
491.058	5938.05
491.428	6120.19
491.798	6256.23
492.168	6429.79
492.538	6623
492.908	6691.02
493.278	6876.56
493.648	7016.89
494.017	7127.85
494.387	7336.66
494.757	7514.28
495.126	7604.67
495.496	7803.31
495.866	7901.39
496.235	8100.48
496.605	8289.4
496.974	8356.52
497.344	8543.86
497.713	8720.12
498.082	8864.75
498.452	9075.37
498.821	9186.55
499.19	9300.9
499.559	9460.44
499.928	9641.91
500.298	9729.14
500.667	9908.79
501.036	9998.51
501.405	10296.13
501.774	10313.3
502.143	10476.46
502.512	10648.43
502.88	10819.96
503.249	10886.17
503.618	11033.74
503.987	11155.77
504.356	11308.76
504.724	11393.5
505.093	11647.73
505.462	11710.1
505.83	11842.08
506.199	12047.95
506.567	12225.34
506.936	12363.64
507.304	12598.67
507.672	12636.18
508.041	12733.58
508.409	12929.28
508.777	13093.12
509.145	13231.42
509.514	13246.11
509.882	13507.57
510.25	13509.6
510.618	13698.98
510.986	13801.8
511.354	13911.4
511.722	14118.85
512.09	14286.76
512.458	14330.6
512.826	14537.6
513.193	14637.71
513.561	14749.12
513.929	14940.53
514.297	15067.98
514.664	15237.69
515.032	15309.56
515.4	15538.93
515.767	15559.94
516.135	15778.92
516.502	15738.24
516.869	16099.14
517.237	16112.47
517.604	16123.09
517.972	16379.36
518.339	16566.7
518.706	16572.35
519.073	16657.32
519.44	16837.65
519.808	17072.67
520.175	17079.45
520.542	17368.48
520.909	17471.98
521.276	17446.67
521.643	17702.26
522.009	17883.27
522.376	18010.5
522.743	18159.2
523.11	18288.69
523.477	18485.06
523.843	18656.36
524.21	18792.18
524.577	19002.57
524.943	19105.61
525.31	19170.7
525.676	19414.53
526.043	19532.72
526.409	19628.54
526.776	19932.26
527.142	19844.58
527.508	20053.61
527.874	20245.47
528.241	20321.4
528.607	20488.85
528.973	20604.56
529.339	20642.52
529.705	20889.75
530.071	21102.4
530.437	21070.99
530.803	21226.24
531.169	21433.69
531.535	21391.2
531.901	21377.19
532.267	21588.26
532.632	21819.21
532.998	21887.91
533.364	22024.18
533.73	22000.23
534.095	22194.35
534.461	22301.01
534.826	22397.05
535.192	22519.31
535.557	22722.92
535.923	22719.08
536.288	22774.22
536.653	22928.79
537.019	22989.58
537.384	23063.7
537.749	23143.02
538.114	23185.73
538.479	23316.12
538.845	23316.35
539.21	23398.83
539.575	23528.77
539.94	23656
540.305	23823.23
540.67	23854.87
541.034	23844.02
541.399	23991.59
541.764	23907.52
542.129	24089.89
542.494	24157.46
542.858	24339.83
543.223	24389.09
543.587	24575.53
543.952	24397.9
544.316	24581.18
544.681	24435.87
545.045	24717.44
545.41	24900.49
545.774	24859.13
546.138	24894.84
546.503	25055.51
546.867	25066.36
547.231	25208.28
547.595	25369.63
547.959	25427.03
548.324	25457.08
548.688	25475.84
549.052	25643.29
549.416	25647.59
549.779	25663.86
550.143	25749.96
550.507	26023.4
550.871	25983.85
551.235	26023.85
551.599	26236.73
551.962	26241.47
552.326	26362.37
552.689	26582.48
553.053	26450.96
553.417	26559.2
553.78	26843.49
554.143	26845.75
554.507	26853.66
554.87	26978.17
555.234	27349.24
555.597	27076.48
555.96	27315.57
556.323	27330.71
556.686	27376.13
557.05	27624.03
557.413	27819.28
557.776	27832.62
558.139	27921.65
558.502	28028.54
558.865	28123.23
559.228	28366.39
559.59	28369.55
559.953	28571.58
560.316	28736.55
560.679	28820.61
561.041	28907.62
561.404	28973.15
561.767	29189.19
562.129	29148.97
562.492	29499.69
562.854	29484.55
563.217	29451.1
563.579	29539.24
563.941	29825.56
564.304	30091.99
564.666	30132.22
565.028	30276.62
565.39	30269.16
565.753	30418.76
566.115	30586.67
566.477	30796.61
566.839	30711.18
567.201	31049.71
567.563	31062.59
567.925	31328.12
568.287	31359.3
568.648	31452.86
569.01	31602.69
569.372	31734.66
569.734	31586.42
570.095	31891.72
570.457	32043.58
570.819	32063.69
571.18	32187.08
571.542	32364.7
571.903	32371.03
572.265	32492.83
572.626	32457.13
572.987	32664.58
573.349	32745.03
573.71	32826.83
574.071	33015.3
574.432	33054.17
574.794	33357.44
575.155	33236.54
575.516	33167.39
575.877	33320.83
576.238	33475.86
576.599	33501.39
576.96	33612.12
577.32	33579.58
577.681	33855.73
578.042	33794.27
578.403	33826.81
578.763	33860.48
579.124	33946.13
579.485	34090.3
579.845	34126.24
580.206	34046.92
580.566	34162.17
580.927	34126.01
581.287	34256.85
581.648	34262.28
582.008	34504.08
582.368	34352.22
582.728	34458.43
583.089	34305.89
583.449	34382.27
583.809	34488.26
584.169	34535.49
584.529	34470.18
584.889	34740.68
585.249	34558.54
585.609	34475.15
585.969	34711.08
586.329	34614.81
586.688	34765.99
587.048	34582.72
587.408	34580.46
587.768	34622.49
588.127	34691.64
588.487	34628.82
588.846	34838.31
589.206	34675.15
589.565	34823.39
589.925	34901.58
590.284	34690.29
590.643	34764.41
591.003	34971.64
591.362	35020
591.721	34896.84
592.08	34923.05
592.44	35029.04
592.799	35108.58
593.158	35016.61
593.517	35003.5
593.876	35181.35
594.235	34967.57
594.593	35062.48
594.952	35131.41
595.311	35021.58
595.67	35113.1
596.029	35335.24
596.387	35380.44
596.746	35355.81
597.104	35339.54
597.463	35158.3
597.822	35525.52
598.18	35263.61
598.538	35303.83
598.897	35426.09
599.255	35388.8
599.613	35859.07
599.972	35586.76
600.33	35699.53
600.688	35562.36
601.046	35748.34
601.404	35792.41
601.762	35837.38
602.12	35974.1
602.478	35882.8
602.836	35871.5
603.194	35942.46
603.552	35942.23
603.91	35786.3
604.268	35998.73
604.625	35971.61
604.983	36256.57
605.341	35941.1
605.698	36274.65
606.056	36382.45
606.413	36288.44
606.771	36422.67
607.128	36414.99
607.485	36357.82
607.843	36478.49
608.2	36678.71
608.557	36616.34
608.914	36557.13
609.272	36802.1
609.629	36885.26
609.986	36965.26
610.343	36908.99
610.7	37163.22
611.057	37056.78
611.414	37103.11
611.771	37200.28
612.127	37362.99
612.484	37198.25
612.841	37379.71
613.198	37367.96
613.554	37358.92
613.911	37616.54
614.267	37641.4
614.624	37568.18
614.98	37621.28
615.337	37817.21
615.693	37832.13
616.05	37727.72
616.406	38025.79
616.762	37878
617.118	37837.78
617.475	37905.12
617.831	38076.87
618.187	38048.62
618.543	38204.32
618.899	38459.91
619.255	38382.62
619.611	38281.61
619.967	38408.38
620.323	38587.36
620.678	38372
621.034	38509.4
621.39	38437.31
621.746	38271.66
622.101	38733.12
622.457	38583.07
622.812	38683.63
623.168	38820.35
623.523	38791.88
623.879	38819.67
624.234	38653.35
624.589	38764.53
624.945	38901.93
625.3	39080.23
625.655	38722.72
626.01	38946.67
626.365	39023.28
626.72	38889.27
627.075	38942.83
627.43	38856.96
627.785	38638.21
628.14	38837.52
628.495	39028.25
628.85	38913.68
629.205	38796.85
629.559	39159.32
629.914	38917.52
630.269	38974.24
630.623	38840.46
630.978	38687.92
631.332	38913.45
631.687	39021.47
632.041	38802.04
632.396	38858.09
632.75	38802.27
633.104	38843.63
633.459	38711.2
633.813	38754.36
634.167	38738.54
634.521	38833.23
634.875	38821.93
635.229	38719.56
635.583	38561.15
635.937	38618.77
636.291	38603.41
636.645	38496.06
636.999	38447.93
637.352	38602.95
637.706	38548.04
638.06	38479.79
638.413	38575.61
638.767	38425.78
639.121	38524.99
639.474	38209.07
639.828	38233.47
640.181	38451.77
640.534	38391.43
640.888	38185.79
641.241	38138.33
641.594	38106.7
641.947	38360.02
642.301	38293.36
642.654	38213.59
643.007	38213.81
643.36	38232.79
643.713	38167.94
644.066	38381.49
644.419	38066.47
644.771	37738.8
645.124	37346.04
645.477	37371.8
645.83	37106.72
646.182	36997.8
646.535	36894.3
646.888	37059.49
647.24	36738.14
647.593	37050.23
647.945	36928.42
648.298	36785.83
648.65	36717.58
649.002	36613.63
649.355	36771.59
649.707	36676.45
650.059	36801.42
650.411	37186.27
650.763	37290.67
651.115	37587.39
651.467	37559.82
651.819	37571.12
652.171	37385.36
652.523	37445.7
652.875	37452.7
653.227	37294.51
653.578	37557.78
653.93	37444.79
654.282	37309.2
654.633	37130.22
654.985	37231.46
655.337	37208.19
655.688	37200.96
656.039	37269.88
656.391	37067.18
656.742	37061.98
657.094	37002.32
657.445	37224.01
657.796	37068.3
658.147	37164.12
658.498	37092.94
658.849	37076.67
659.2	37049.32
659.551	36810.23
659.902	37046.38
660.253	36955.77
660.604	37086.16
660.955	36759.84
661.306	37081.64
661.656	36935.43
662.007	36906.95
662.358	36882.32
662.708	36781.98
663.059	36861.3
663.409	36792.15
663.76	36895.88
664.11	36888.65
664.461	36977.01
664.811	36785.15
665.161	36897.69
665.511	36748.99
665.862	36791.93
666.212	36986.73
666.562	36954.86
666.912	36766.62
667.262	36669.67
667.612	36852.94
667.962	36867.41
668.312	36749.22
668.662	36878.25
669.011	36819.72
669.361	36712.61
669.711	36702.66
670.06	36682.55
670.41	36661.54
670.76	36468.77
671.109	36690.01
671.459	36641.42
671.808	36568.43
672.157	36692.04
672.507	36439.39
672.856	36597.58
673.205	36602.33
673.554	36649.11
673.904	36448.43
674.253	36480.3
674.602	36523.91
674.951	35872.86
675.3	35763.93
675.649	36366.18
675.998	36368.44
676.346	36356.23
676.695	36524.59
677.044	36166.41
677.393	36272.85
677.741	36382.67
678.09	36313.75
678.438	36196.46
678.787	36217.25
679.135	36247.54
679.484	35980.42
679.832	36141.78
680.181	35875.34
680.529	36002.12
680.877	35877.83
681.225	35869.92
681.573	36033.08
681.922	35750.15
682.27	35619.98
682.618	35641
682.966	35675.12
683.314	35792.63
683.661	35575.91
684.009	35405.98
684.357	35490.49
684.705	35428.35
685.053	35489.59
685.4	35348.8
685.748	35172.54
686.095	35032.43
686.443	34970.06
686.79	35040.79
687.138	35087.57
687.485	35077.62
687.832	35021.35
688.18	34953.78
688.527	34725.54
688.874	34876.5
689.221	34631.31
689.568	34473.57
689.915	34466.11
690.262	34516.96
690.609	34312.9
690.956	34236.06
691.303	34313.35
691.65	34108.83
691.997	34070.42
692.344	33897.31
692.69	33705.91
693.037	33819.58
693.383	33568.51
693.73	33660.48
694.077	33615.97
694.423	33512.69
694.769	33483.99
695.116	33382.75
695.462	33273.38
695.808	33205.58
696.155	33218.69
696.501	33092.82
696.847	33121.74
697.193	32614.18
697.539	32914.06
697.885	32596.78
698.231	32567.18
698.577	32542.55
698.923	32567.63
699.269	32379.16
699.614	32245.83
699.96	32284.25
700.306	32297.81
700.651	32025.5
700.997	32025.73
701.342	31889.23
701.688	31952.96
702.033	31796.13
702.379	31723.81
702.724	31708.67
703.069	31674.55
703.415	31291.51
703.76	31411.28
704.105	31385.29
704.45	31267.33
704.795	31083.38
705.14	31002.02
705.485	31057.16
705.83	30793.89
706.175	30945.3
706.52	30801.8
706.865	30766.32
707.209	30615.14
707.554	30514.13
707.899	30663.28
708.243	30424.41
708.588	30521.81
708.932	30318.43
709.277	30327.69
709.621	30215.38
709.966	29978.1
710.31	30070.07
710.654	29897.65
710.998	29833.24
711.342	29812.68
711.687	29783.3
712.031	29754.6
712.375	29575.62
712.719	29581.27
713.063	29524.32
713.407	29632.12
713.75	29296.76
714.094	29555.06
714.438	29335.4
714.782	29340.15
715.125	29151.68
715.469	29196.2
715.812	28969.76
716.156	28850.44
716.499	28989.65
716.843	29000.95
717.186	28743.33
717.53	28960.72
717.873	28948.97
718.216	28815.19
718.559	28751.24
718.902	28531.13
719.246	28609.54
719.589	28480.73
719.932	28412.71
720.275	28423.33
720.617	28344.01
720.96	28409.32
721.303	28273.06
721.646	28210.01
721.989	28090.01
722.331	28171.59
722.674	28174.53
723.016	28044.59
723.359	28073.29
723.701	27985.61
724.044	27754.88
724.386	27755.33
724.729	27838.94
725.071	27761.66
725.413	27655.45
725.755	27625.62
726.097	27587.42
726.439	27539.52
726.782	27440.76
727.124	27569.35
727.465	27373.87
727.807	27489.12
728.149	27353.31
728.491	27286.87
728.833	27263.82
729.175	27136.81
729.516	27190.15
729.858	27140.43
730.199	27194.21
730.541	27005.29
730.882	26970.94
731.224	27085.97
731.565	26823.38
731.906	26878.29
732.248	26891.85
732.589	26759.2
732.93	26700.44
733.271	26577.06
733.612	26627.9
733.953	26592.65
734.294	26549.03
734.635	26574.8
734.976	26586.77
735.317	26422.48
735.658	26491.18
735.999	26450.28
736.339	26343.16
736.68	26416.16
737.021	26303.16
737.361	26224.97
737.702	26290.51
738.042	26137.74
738.383	26182.94
738.723	26220.23
739.063	26127.12
739.404	26119.21
739.744	25983.85
740.084	25942.5
740.424	25992.89
740.764	25878.09
741.104	25985.21
741.444	25762.84
741.784	25719.68
742.124	25763.29
742.464	25657.31
742.804	25688.49
743.143	25478.33
743.483	25662.28
743.823	25414.83
744.162	25408.27
744.502	25448.72
744.841	25316.3
745.181	25407.82
745.52	25323.3
745.86	25275.85
746.199	25375.05
746.538	25234.94
746.877	25271.33
747.216	25315.62
747.556	25254.83
747.895	25145.45
748.234	25116.3
748.573	25046.02
748.911	24977.1
749.25	24891.45
749.589	24825.24
749.928	24916.76
750.267	24912.01
750.605	24784.33
750.944	24754.28
751.283	24653.26
751.621	24793.15
751.96	24530.33
752.298	24503.89
752.636	24400.84
752.975	24490.1
753.313	24257.34
753.651	24373.5
753.989	24211.69
754.327	24240.85
754.666	24147.51
755.004	24104.35
755.342	24055.31
755.679	24061.42
756.017	23899.61
756.355	23987.52
756.693	23754.76
757.031	23937.8
757.368	23721.76
757.706	23710.46
758.044	23607.87
758.381	23720.86
758.719	23582.11
759.056	23551.82
759.394	23447.42
759.731	23250.36
760.068	23355.45
760.405	23217.14
760.743	23107.99
761.08	23192.06
761.417	22994.78
761.754	22972.4
762.091	22931.95
762.428	22833.2
762.765	22674.11
763.102	22759.98
763.438	22746.65
763.775	22522.92
764.112	22495.58
764.449	22585.52
764.785	22319.99
765.122	22273.89
765.458	22216.94
765.795	22051.07
766.131	22259.88
766.467	22027.12
766.804	21986.44
767.14	21932.21
767.476	21901.7
767.812	21737.18
768.148	21779.89
768.485	21742.61
768.821	21524.53
769.157	21486.12
769.492	21440.69
769.828	21385.1
770.164	21208.61
770.5	21196.18
770.836	21122.96
771.171	20986.92
771.507	21117.31
771.842	20887.49
772.178	20877.77
772.513	20724.33
772.849	20753.25
773.184	20662.18
773.519	20692.46
773.855	20481.4
774.19	20453.37
774.525	20375.64
774.86	20285.02
775.195	20295.41
775.53	20224.23
775.865	20076.89
776.2	19913.95
776.535	19826.05
776.87	19793.05
777.205	19732.26
777.539	19630.8
777.874	19788.99
778.209	19490.24
778.543	19363.01
778.878	19323.69
779.212	19301.77
779.547	19278.94
779.881	19168.21
780.215	19054.54
780.55	19079.85
780.884	19031.27
781.218	18929.57
781.552	19030.14
781.886	18882.34
782.22	18651.16
782.554	18689.58
782.888	18524.39
783.222	18540.88
783.556	18475.12
783.889	18363.03
784.223	18126.2
784.557	18238.74
784.89	18210.72
785.224	18159.65
785.557	18064.51
785.891	18056.38
786.224	17942.03
786.558	17968.47
786.891	17747.91
787.224	17683.28
787.557	17677.85
787.891	17686.67
788.224	17650.28
788.557	17564.64
788.89	17508.37
789.223	17546.56
789.556	17388.14
789.888	17255.49
790.221	17243.97
790.554	17034.26
790.887	17060.24
791.219	17029.74
791.552	16947.7
791.884	16949.29
792.217	16827.26
792.549	16778.89
792.882	16639.01
793.214	16601.05
793.546	16621.84
793.879	16566.7
794.211	16497.55
794.543	16524.66
794.875	16388.85
795.207	16409.41
795.539	16279.47
795.871	16173.49
796.203	16073.15
796.535	16115.64
796.867	16074.05
797.198	16043.77
797.53	15962.42
797.862	15820.73
798.193	15937.34
798.525	15806.27
798.856	15841.74
799.188	15646.04
799.519	15597.91
799.85	15475.65
800.182	15538.02
800.513	15500.51
800.844	15376.22
801.175	15446.95
801.506	15392.72
801.837	15291.93
802.168	15254.19
802.499	15239.95
802.83	15094.65
803.161	15044.03
803.491	15120.18
803.822	14994.31
804.153	14980.98
804.483	14908.21
804.814	14807.42
805.145	14775.56
805.475	14753.41
805.805	14756.12
806.136	14700.08
806.466	14780.98
806.796	14666.41
807.126	14568.33
807.457	14569.69
807.787	14519.29
808.117	14456.24
808.447	14344.38
808.777	14457.37
809.107	14362.01
809.436	14331.73
809.766	14310.26
810.096	14311.84
810.426	14209.02
810.755	14188.68
811.085	14169.7
811.414	14175.8
811.744	14021.45
812.073	13951.62
812.403	14020.32
812.732	13902.81
813.061	13817.84
813.39	13853.32
813.719	13743.95
814.049	13862.59
814.378	13786.21
814.707	13703.95
815.036	13725.19
815.365	13572.65
815.693	13501.47
816.022	13478.19
816.351	13552.54
816.68	13412.66
817.008	13498.3
817.337	13342.15
817.665	13318.87
817.994	13304.64
818.322	13307.57
818.651	13253.34
818.979	13245.88
819.307	13323.84
819.636	13228.25
819.964	13158.88
820.292	13148.71
820.62	13155.71
820.948	13077.52
821.276	13106.68
821.604	13042.27
821.932	13138.09
822.259	13019.9
822.587	13009.73
822.915	13043.85
823.243	13067.58
823.57	13002.5
823.898	13091.08
824.225	12962.27
824.553	12992.55
824.88	13001.59
825.207	13050.41
825.535	12962.72
825.862	13008.15
826.189	13012.21
826.516	12971.54
826.843	13084.3
827.17	12985.77
827.497	13109.16
827.824	13068.03
828.151	13029.39
828.478	12988.26
828.805	13036.62
829.131	12962.95
829.458	12932.67
829.785	12884.76
830.111	12927.02
830.438	12971.31
830.764	12926.79
831.09	13017.86
831.417	12837.76
831.743	12910.52
832.069	12945.32
832.395	12920.47
832.722	12886.12
833.048	12909.84
833.374	12851.54
833.7	12819
834.026	12893.12
834.351	12898.09
834.677	12819.45
835.003	12807.47
835.329	12807.25
835.654	12726.35
835.98	12774.25
836.306	12765.44
836.631	12779.45
836.956	12694.03
837.282	12754.37
837.607	12692
837.932	12567.03
838.258	12661.04
838.583	12641.38
838.908	12546.24
839.233	12513.92
839.558	12527.26
839.883	12530.87
840.208	12473.25
840.533	12406.81
840.858	12431.21
841.182	12444.55
841.507	12369.97
841.832	12383.98
842.156	12329.97
842.481	12334.72
842.805	12350.54
843.13	12297.88
843.454	12227.83
843.778	12150.54
844.103	12154.16
844.427	12150.54
844.751	12146.93
845.075	12078
845.399	12085.01
845.723	11933.82
846.047	11954.62
846.371	11888.85
846.695	11938.12
847.019	11816.31
847.343	11709.2
847.666	11670.55
847.99	11675.53
848.313	11621.74
848.637	11595.53
848.96	11538.13
849.284	11533.16
849.607	11489.99
849.931	11343.56
850.254	11375.65
850.577	11293.62
850.9	11120.06
851.223	11222.43
851.546	11230.11
851.869	11111.25
852.192	11125.94
852.515	11003.23
852.838	10985.83
853.161	11006.39
853.483	10995.54
853.806	10864.25
854.129	10806.62
854.451	10833.51
854.774	10774.99
855.096	10753.52
855.419	10687.08
855.741	10661.54
856.063	10642.11
856.385	10689.56
856.708	10621.99
857.03	10465.16
857.352	10522.56
857.674	10468.33
857.996	10453.86
858.318	10417.48
858.64	10414.09
858.961	10367.09
859.283	10306.52
859.605	10257.94
859.926	10272.17
860.248	10273.08
860.57	10241.67
860.891	10250.25
861.212	10152.63
861.534	10090.94
861.855	10060.65
862.176	10182.68
862.498	10141.33
862.819	10150.82
863.14	10091.39
863.461	9973.88
863.782	9998.28
864.103	10018.17
864.424	9919.64
864.745	9980.43
865.065	9978.17
865.386	9881.68
865.707	9869.25
866.027	9882.81
866.348	9900.21
866.668	9837.83
866.989	9791.06
867.309	9730.04
867.63	9816.82
867.95	9772.75
868.27	9724.84
868.59	9797.16
868.91	9728.91
869.23	9733.88
869.55	9589.71
869.87	9653.88
870.19	9643.26
870.51	9678.74
870.83	9704.96
871.15	9623.83
871.469	9603.49
871.789	9618.63
872.109	9636.71
872.428	9492.31
872.748	9494.57
873.067	9519.88
873.386	9466.09
873.706	9466.77
874.025	9487.79
874.344	9403.95
874.663	9415.7
874.982	9394
875.301	9408.92
875.62	9353.33
875.939	9361.69
876.258	9335.47
876.577	9354.01
876.896	9276.72
877.214	9292.76
877.533	9225.65
877.852	9270.84
878.17	9237.4
878.489	9236.27
878.807	9199.43
879.125	9174.8
879.444	9218.87
879.762	9170.73
880.08	9211.86
880.398	9085.09
880.716	9231.3
881.034	9081.02
881.352	9136.84
881.67	9076.95
881.988	9041.47
882.306	9047.12
882.624	8997.4
882.941	8928.93
883.259	8965.09
883.577	8909.5
883.894	8985.65
884.212	8909.95
884.529	8898.88
884.846	8880.8
885.164	8814.58
885.481	8806
885.798	8829.73
886.115	8742.27
886.432	8792.89
886.75	8686.23
887.067	8748.82
887.383	8667.02
887.7	8704.98
888.017	8606.68
888.334	8653.23
888.651	8641.93
888.967	8640.58
889.284	8507.25
889.6	8561.26
889.917	8483.52
890.233	8422.28
890.55	8463.41
890.866	8465.22
891.182	8472.67
891.498	8457.98
891.815	8408.49
892.131	8401.26
892.447	8305.67
892.763	8258.89
893.079	8269.29
893.395	8309.51
893.71	8213.02
894.026	8230.19
894.342	8150.2
894.657	8145.68
894.973	8124.43
895.289	8062.06
895.604	8032.68
895.92	8041.5
896.235	7967.38
896.55	8025.45
896.865	8014.15
897.181	7943.87
897.496	7900.71
897.811	7881.28
898.126	7940.94
898.441	7839.92
898.756	7800.37
899.071	7790.66
899.386	7766.7
899.7	7693.03
900.015	7712.01
900.33	7618.23
900.644	7611.45
900.959	7610.55
901.273	7606.48
901.588	7494.17
901.902	7481.51
902.216	7481.51
902.531	7491.91
902.845	7458.69
903.159	7366.94
903.473	7414.62
903.787	7317.22
904.101	7334.62
904.415	7280.39
904.729	7371.23
905.042	7278.35
905.356	7222.31
905.67	7229.32
905.984	7249.43
906.297	7169.2
906.611	7098.92
906.924	7132.59
907.237	7086.27
907.551	7091.24
907.864	7019.83
908.177	7038.13
908.491	7016.21
908.804	6987.29
909.117	6934.41
909.43	6849.21
909.743	6814.64
910.056	6804.24
910.368	6781.42
910.681	6748.88
910.994	6744.13
911.307	6747.52
911.619	6681.31
911.932	6689.89
912.244	6651.48
912.557	6658.94
912.869	6584.36
913.181	6622.55
913.494	6565.6
913.806	6493.29
914.118	6532.61
914.43	6428.43
914.742	6467.53
915.054	6394.31
915.366	6381.43
915.678	6377.36
915.99	6271.37
916.302	6328.32
916.613	6249
916.925	6267.08
917.236	6192.51
917.548	6177.82
917.859	6178.5
918.171	6127.42
918.482	6086.97
918.794	6112.06
919.105	6084.71
919.416	6049.46
919.727	6017.82
920.038	6035.22
920.349	5931.95
920.66	5931.04
920.971	5834.55
921.282	5912.97
921.593	5853.08
921.903	5796.13
922.214	5756.36
922.525	5787.32
922.835	5803.82
923.146	5720.43
923.456	5722.01
923.767	5676.14
924.077	5672.97
924.387	5650.83
924.697	5604.05
925.008	5615.35
925.318	5564.27
925.628	5592.75
925.938	5545.52
926.248	5476.14
926.558	5461
926.867	5433.43
927.177	5452.19
927.487	5363.15
927.796	5404.28
928.106	5388.01
928.416	5334.9
928.725	5342.81
929.034	5298.74
929.344	5279.31
929.653	5308.01
929.962	5227.33
930.271	5231.85
930.581	5169.48
930.89	5152.08
931.199	5151.4
931.508	5150.5
931.817	5139.65
932.125	5075.93
932.434	5054.91
932.743	5003.61
933.051	5007.45
933.36	4971.97
933.669	4958.19
933.977	4969.04
934.286	4952.99
934.594	4925.87
934.902	4898.98
935.21	4877.51
935.519	4859.21
935.827	4797.97
936.135	4792.77
936.443	4787.35
936.751	4790.96
937.059	4742.15
937.367	4695.37
937.674	4687.24
937.982	4722.71
938.29	4639.55
938.597	4650.17
938.905	4586.22
939.213	4626.22
939.52	4565.88
939.827	4556.62
940.135	4532.66
940.442	4528.14
940.749	4535.15
941.056	4565.88
941.363	4430.07
941.67	4470.97
941.977	4413.12
942.284	4400.69
942.591	4414.25
942.898	4376.28
943.205	4402.72
943.511	4376.74
943.818	4293.8
944.125	4264.2
944.431	4341.48
944.738	4265.78
945.044	4271.43
945.35	4240.02
945.657	4174.93
945.963	4166.12
946.269	4170.19
946.575	4154.37
946.881	4156.85
947.187	4152.11
947.493	4112.79
947.799	4125.44
948.105	4053.81
948.41	4056.07
948.716	4062.39
949.022	4025.33
949.327	3999.34
949.633	3987.59
949.938	3941.94
950.244	3993.24
950.549	3916.63
950.854	3940.14
951.16	3924.54
951.465	3860.82
951.77	3857.2
952.075	3852.91
952.38	3863.08
952.685	3820.14
952.99	3778.78
953.294	3751.21
953.599	3765.23
953.904	3739.69
954.209	3714.83
954.513	3703.31
954.818	3695.62
955.122	3666.7
955.426	3694.27
955.731	3611.78
956.035	3655.85
956.339	3635.51
956.643	3602.52
956.948	3584.44
957.252	3610.88
957.556	3542.18
957.86	3539.92
958.163	3526.59
958.467	3532.46
958.771	3499.92
959.075	3453.6
959.378	3482.52
959.682	3471.22
959.985	3446.14
960.289	3433.48
960.592	3428.51
960.896	3391.45
961.199	3391.22
961.502	3391
961.805	3362.52
962.108	3362.3
962.411	3345.8
962.714	3288.63
963.017	3326.59
963.32	3267.16
963.623	3261.06
963.926	3269.87
964.228	3223.77
964.531	3205.24
964.833	3243.66
965.136	3190.78
965.438	3152.81
965.741	3203.88
966.043	3178.12
966.345	3138.8
966.648	3126.6
966.95	3118.92
967.252	3101.29
967.554	3116.88
967.856	3090.44
968.158	3058.13
968.46	3064
968.761	3032.82
969.063	3012.48
969.365	2989.2
969.666	3042.31
969.968	2978.58
970.269	2988.07
970.571	2948.98
970.872	2946.04
971.174	2930.9
971.475	2890.9
971.776	2859.26
972.077	2898.58
972.378	2878.7
972.679	2851.13
972.98	2840.28
973.281	2828.98
973.582	2851.58
973.883	2834.4
974.183	2793.05
974.484	2759.38
974.785	2797.57
975.085	2763.44
975.386	2754.18
975.686	2764.35
975.986	2714.86
976.287	2732.71
976.587	2714.18
976.887	2685.93
977.187	2671.02
977.487	2696.55
977.787	2670.11
978.087	2639.83
978.387	2627.85
978.687	2628.53
978.987	2621.08
979.286	2565.48
979.586	2588.08
979.885	2579.49
980.185	2580.4
980.484	2532.04
980.784	2510.57
981.083	2520.29
981.382	2547.18
981.682	2539.5
981.981	2486.62
982.28	2502.89
982.579	2491.14
982.878	2475.32
983.177	2471.47
983.475	2443
983.774	2427.41
984.073	2421.31
984.372	2408.2
984.67	2431.25
984.969	2405.94
985.267	2375.21
985.566	2387.63
985.864	2375.21
986.162	2359.61
986.461	2353.06
986.759	2331.82
987.057	2331.82
987.355	2295.89
987.653	2306.96
987.951	2306.73
988.249	2299.28
988.547	2269.22
988.844	2258.15
989.142	2230.58
989.44	2243.23
989.737	2224.48
990.035	2232.16
990.332	2221.99
990.63	2208.88
990.927	2209.79
991.224	2205.94
991.521	2171.82
991.819	2159.62
992.116	2138.6
992.413	2132.5
992.71	2148.09
993.006	2125.04
993.303	2146.06
993.6	2112.84
993.897	2105.61
994.193	2113.07
994.49	2076.68
994.787	2066.74
995.083	2052.73
995.379	2022.45
995.676	2060.64
995.972	2040.98
996.268	1999.85
996.565	2028.77
996.861	2002.79
997.157	1989.91
997.453	1971.83
997.749	1968.21
998.044	1943.13
998.34	1949.91
998.636	1983.8
998.932	1917.36
999.227	1901.32
999.523	1930.02
999.818	1918.27
1000.114	1881.66
1000.409	1875.33
1000.704	1879.4
1001	1854.54
1001.295	1844.15
1001.59	1826.29
1001.885	1873.52
1002.18	1825.39
1002.475	1827.88
1002.77	1805.28
1003.065	1803.24
1003.359	1760.76
1003.654	1776.8
1003.949	1768.22
1004.243	1749.46
1004.538	1737.71
1004.832	1730.93
1005.127	1733.64
1005.421	1720.31
1005.715	1713.75
1006.009	1706.3
1006.304	1685.96
1006.598	1687.99
1006.892	1678.73
1007.186	1661.1
1007.48	1651.16
1007.773	1634.89
1008.067	1622.46
1008.361	1642.57
1008.655	1615.23
1008.948	1618.39
1009.242	1618.16
1009.535	1583.36
1009.829	1594.89
1010.122	1580.2
1010.415	1569.58
1010.708	1539.52
1011.001	1553.76
1011.295	1560.54
1011.588	1541.78
1011.881	1525.74
1012.173	1502.91
1012.466	1479.18
1012.759	1471.73
1013.052	1507.43
1013.344	1484.38
1013.637	1472.18
1013.93	1466.53
1014.222	1439.64
1014.514	1434.89
1014.807	1435.57
1015.099	1423.14
1015.391	1436.47
1015.683	1416.14
1015.976	1405.06
1016.268	1432.41
1016.56	1378.17
1016.851	1392.86
1017.143	1393.76
1017.435	1352.18
1017.727	1344.27
1018.018	1346.53
1018.31	1359.19
1018.602	1303.82
1018.893	1323.71
1019.185	1327.78
1019.476	1310.83
1019.767	1312.41
1020.058	1288.23
1020.35	1283.03
1020.641	1256.14
1020.932	1290.71
1021.223	1245.07
1021.514	1237.38
1021.804	1233.77
1022.095	1238.51
1022.386	1221.79
1022.677	1217.27
1022.967	1237.61
1023.258	1224.5
1023.548	1225.18
1023.839	1195.35
1024.129	1212.07
1024.419	1191.28
1024.709	1159.19
1025	1162.36
1025.29	1158.29
1025.58	1169.14
1025.87	1160.55
1026.16	1133.2
1026.449	1120.32
1026.739	1118.97
1027.029	1079.19
1027.319	1110.38
1027.608	1108.8
1027.898	1087.33
1028.187	1093.43
1028.477	1079.65
1028.766	1081
1029.055	1050.72
1029.344	1050.95
1029.634	1036.48
1029.923	1040.78
1030.212	1039.42
1030.501	1037.61
1030.79	1066.31
1031.078	1015.69
1031.367	1048.24
1031.656	1009.37
1031.945	1004.85
1032.233	1013.89
1032.522	993.32
1032.81	1004.39
1033.099	974.56
1033.387	982.02
1033.675	940.67
1033.963	966.2
1034.251	954.23
1034.54	945.86
1034.828	915.13
1035.116	925.75
1035.403	907.9
1035.691	925.53
1035.979	945.41
1036.267	942.02
1036.554	914.68
1036.842	905.19
1037.129	893.89
1037.417	886.21
1037.704	895.24
1037.992	894.57
1038.279	881.46
1038.566	881.46
1038.853	881.46
1039.14	881.46
