Data from hue_80_FLMS001491_84.txt Node
Date: Mon Feb 06 15:23:53 GMT 2017
User: dcchb
Spectrometer: FLMS00149
Trigger mode: 0
Integration Time (sec): 2.000000E-2
Scans to average: 10
Electric dark correction enabled: true
Nonlinearity correction enabled: false
Boxcar width: 0
XAxis mode: Wavelengths
Number of Pixels in Spectrum: 2048
>>>>>Begin Spectral Data<<<<<
341.393	-6.1
341.776	-6.1
342.16	-6.1
342.543	-71.41
342.927	-70.28
343.31	-83.16
343.693	-73.44
344.077	-62.15
344.46	-71.18
344.843	-56.04
345.226	-43.39
345.61	-29.38
345.993	-17.63
346.376	0
346.759	3.62
347.142	15.14
347.525	30.73
347.908	61.47
348.291	78.64
348.674	127
349.057	119.77
349.44	124.97
349.823	135.59
350.206	160.45
350.588	194.35
350.971	202.93
351.354	227.79
351.737	240.67
352.119	255.36
352.502	245.64
352.884	273.89
353.267	278.41
353.65	292.87
354.032	298.3
354.414	317.96
354.797	309.37
355.179	322.93
355.562	319.09
355.944	321.57
356.326	331.52
356.709	329.93
357.091	340.56
357.473	334.68
357.855	334.45
358.238	338.75
358.62	317.96
359.002	343.04
359.384	348.69
359.766	360.44
360.148	340.78
360.53	334.23
360.912	331.29
361.294	325.42
361.676	321.12
362.057	336.26
362.439	332.87
362.821	328.58
363.203	324.06
363.584	326.77
363.966	317.28
364.348	323.38
364.729	305.3
365.111	302.59
365.493	324.29
365.874	318.41
366.256	312.99
366.637	314.34
367.019	309.82
367.4	312.53
367.781	303.95
368.163	306.21
368.544	288.13
368.925	303.04
369.306	314.57
369.688	299.88
370.069	316.6
370.45	318.41
370.831	333.1
371.212	303.27
371.593	318.41
371.974	314.12
372.355	320.22
372.736	329.93
373.117	299.2
373.498	323.16
373.879	341.91
374.26	330.16
374.641	318.86
375.021	299.88
375.402	296.26
375.783	322.93
376.163	327.9
376.544	322.03
376.925	314.79
377.305	332.42
377.686	318.18
378.066	331.52
378.447	329.26
378.827	327.22
379.208	326.77
379.588	323.61
379.968	289.48
380.349	325.64
380.729	325.87
381.109	326.32
381.489	340.56
381.87	342.14
382.25	351.63
382.63	323.61
383.01	350.73
383.39	335.13
383.77	331.97
384.15	346.43
384.53	342.82
384.91	341.01
385.29	350.5
385.67	372.19
386.049	343.04
386.429	341.91
386.809	347.79
387.189	340.56
387.568	347.56
387.948	317.73
388.328	357.5
388.707	352.53
389.087	350.95
389.466	364.28
389.846	367.22
390.225	367.67
390.605	342.82
390.984	329.48
391.363	335.13
391.743	362.48
392.122	365.64
392.501	353.44
392.881	346.88
393.26	355.92
393.639	341.46
394.018	358.18
394.397	344.85
394.776	353.66
395.155	361.8
395.534	392.76
395.913	386.88
396.292	361.12
396.671	351.18
397.05	375.81
397.429	365.64
397.808	377.17
398.186	377.84
398.565	359.99
398.944	371.97
399.323	394.57
399.701	399.31
400.08	390.95
400.458	378.52
400.837	385.98
401.215	390.5
401.594	387.79
401.972	401.35
402.351	392.53
402.729	407.22
403.107	396.15
403.486	421.46
403.864	389.82
404.242	398.18
404.62	407.22
404.999	391.18
405.377	414.9
405.755	392.98
406.133	395.02
406.511	409.03
406.889	418.07
407.267	398.18
407.645	412.87
408.023	411.97
408.401	426.43
408.779	407.67
409.156	446.99
409.534	417.84
409.912	411.74
410.29	425.07
410.667	433.43
411.045	441.34
411.422	424.85
411.8	431.85
412.178	444.73
412.555	437.95
412.933	464.62
413.31	469.82
413.687	454.45
414.065	454.23
414.442	444.28
414.819	445.86
415.197	475.47
415.574	475.24
415.951	467.78
416.328	466.43
416.705	467.78
417.082	479.54
417.46	466.43
417.837	489.25
418.214	466.2
418.591	485.86
418.967	472.76
419.344	499.42
419.721	477.28
420.098	465.07
420.475	490.38
420.852	501.46
421.228	524.28
421.605	530.16
421.982	500.78
422.358	523.15
422.735	533.32
423.111	501
423.488	515.92
423.864	521.12
424.241	527.9
424.617	528.12
424.994	530.61
425.37	540.78
425.746	538.52
426.123	528.35
426.499	551.85
426.875	556.6
427.251	573.54
427.627	553.66
428.003	552.08
428.379	583.71
428.756	556.6
429.132	575.35
429.507	562.92
429.883	583.26
430.259	587.56
430.635	577.16
431.011	600.44
431.387	570.38
431.763	601.79
432.138	605.41
432.514	607.89
432.89	595.92
433.265	634.79
433.641	621.45
434.016	639.76
434.392	636.59
434.767	640.89
435.143	615.35
435.518	641.11
435.894	652.86
436.269	646.54
436.644	648.57
437.02	658.97
437.395	667.55
437.77	686.31
438.145	683.6
438.52	663.71
438.895	705.97
439.271	689.47
439.646	722.01
440.021	697.38
440.395	707.55
440.77	702.58
441.145	697.61
441.52	728.34
441.895	746.42
442.27	742.81
442.645	734.22
443.019	720.66
443.394	726.99
443.769	734.22
444.143	729.47
444.518	749.13
444.892	747.1
445.267	771.96
445.641	757.49
446.016	763.82
446.39	781
446.764	790.49
447.139	771.96
447.513	783.93
447.887	778.96
448.262	787.1
448.636	788
449.01	820.54
449.384	821.67
449.758	802.01
450.132	830.49
450.506	826.87
450.88	818.74
451.254	813.31
451.628	865.74
452.002	851.73
452.376	855.12
452.75	861.67
453.123	876.36
453.497	879.3
453.871	875.01
454.244	919.52
454.618	907.32
454.992	904.16
455.365	917.26
455.739	926.08
456.112	930.6
456.486	947.77
456.859	932.63
457.232	966.53
457.606	954.55
457.979	957.04
458.352	1005.85
458.725	1011.05
459.099	989.13
459.472	1035.23
459.845	1041.55
460.218	1064.15
460.591	1071.16
460.964	1052.85
461.337	1098.73
461.71	1100.54
462.083	1103.25
462.456	1121.78
462.829	1111.61
463.201	1164.26
463.574	1184.83
463.947	1194.54
464.32	1188.67
464.692	1186.41
465.065	1204.49
465.438	1219.4
465.81	1262.57
466.183	1269.8
466.555	1303.24
466.928	1300.08
467.3	1314.99
467.672	1344.82
468.045	1339.63
468.417	1376.46
468.789	1371.72
469.161	1392.73
469.534	1431.83
469.906	1484.03
470.278	1502.33
470.65	1491.71
471.022	1574.65
471.394	1578.94
471.766	1619.84
472.138	1602.22
472.51	1656.68
472.882	1695.77
473.253	1751.59
473.625	1768.77
473.997	1813.29
474.369	1842.66
474.74	1883.79
475.112	1912.04
475.484	1973.06
475.855	1981.19
476.227	2073.17
476.598	2127.63
476.97	2153.16
477.341	2234.07
477.713	2281.97
478.084	2307.74
478.455	2366.49
478.827	2441.52
479.198	2542.76
479.569	2550.44
479.94	2630.44
480.311	2687.16
480.682	2769.42
481.053	2899.13
481.424	2959.47
481.795	3041.05
482.166	3098
482.537	3188.16
482.908	3300.25
483.279	3359.46
483.65	3527.59
484.021	3586.8
484.391	3698.43
484.762	3780.47
485.133	3815.49
485.503	3943.63
485.874	4094.36
486.244	4173.22
486.615	4287.57
486.985	4395.14
487.356	4529.37
487.726	4658.18
488.097	4802.36
488.467	4871.28
488.837	5062.92
489.207	5157.83
489.578	5297.49
489.948	5401.67
490.318	5570.7
490.688	5660.19
491.058	5782.45
491.428	5953.29
491.798	6039.84
492.168	6195.77
492.538	6388.31
492.908	6464.91
493.278	6622.42
493.648	6705.36
494.017	6865.81
494.387	6959.37
494.757	7162.07
495.126	7303.76
495.496	7344.21
495.866	7557.09
496.235	7621.72
496.605	7812.22
496.974	7881.83
497.344	8023.74
497.713	8136.06
498.082	8315.26
498.452	8408.37
498.821	8515.03
499.19	8622.15
499.559	8756.83
499.928	8869.6
500.298	8995.02
500.667	9136.03
501.036	9214.22
501.405	9328.79
501.774	9457.83
502.143	9554.33
502.512	9658.5
502.88	9784.6
503.249	9860.31
503.618	9945.05
503.987	10089.9
504.356	10082.9
504.724	10326.06
505.093	10357.24
505.462	10432.27
505.83	10573.28
506.199	10636.78
506.567	10864.12
506.936	10799.26
507.304	11053.04
507.672	11059.82
508.041	11172.59
508.409	11254.62
508.777	11292.58
509.145	11474.95
509.514	11535.06
509.882	11550.66
510.25	11640.82
510.618	11734.83
510.986	11834.04
511.354	11949.74
511.722	12003.98
512.09	12117.65
512.458	12214.82
512.826	12300.02
513.193	12284.42
513.561	12333.91
513.929	12481.71
514.297	12628.82
514.664	12656.84
515.032	12688.25
515.4	12870.85
515.767	12892.99
516.135	12915.14
516.502	12849.61
516.869	13092.31
517.237	13147
517.604	13090.73
517.972	13183.16
518.339	13330.95
518.706	13315.13
519.073	13442.13
519.44	13432.87
519.808	13582.92
520.175	13600.55
520.542	13761.9
520.909	13767.55
521.276	13786.53
521.643	13908.33
522.009	13948.79
522.376	13995.34
522.743	14115.34
523.11	14157.59
523.477	14292.96
523.843	14370.24
524.21	14435.55
524.577	14558.94
524.943	14581.99
525.31	14570.69
525.676	14706.05
526.043	14801.64
526.409	14778.14
526.776	14976.78
527.142	14942.66
527.508	14966.84
527.874	15035.99
528.241	15040.96
528.607	15034.86
528.973	15211.8
529.339	15148.98
529.705	15158.7
530.071	15392.36
530.437	15373.83
530.803	15420.84
531.169	15539.25
531.535	15406.6
531.901	15510.78
532.267	15515.3
532.632	15589.19
532.998	15569.76
533.364	15629.19
533.73	15622.64
534.095	15712.36
534.461	15616.99
534.826	15720.49
535.192	15746.25
535.557	15761.85
535.923	15729.98
536.288	15828.28
536.653	15748.29
537.019	15734.05
537.384	15696.54
537.749	15805.46
538.114	15751.9
538.479	15762.75
538.845	15816.76
539.21	15767.95
539.575	15712.13
539.94	15857.44
540.305	15872.8
540.67	15708.29
541.034	15829.19
541.399	15856.53
541.764	15769.75
542.129	15739.7
542.494	15750.77
542.858	15781.73
543.223	15827.15
543.587	15877.55
543.952	15740.83
544.316	15763.65
544.681	15738.12
545.045	15785.12
545.41	15878.45
545.774	15811.56
546.138	15728.4
546.503	15754.61
546.867	15687.95
547.231	15835.52
547.595	15834.84
547.959	15764.78
548.324	15677.55
548.688	15672.36
549.052	15713.94
549.416	15703.32
549.779	15672.13
550.143	15731.79
550.507	15755.74
550.871	15814.73
551.235	15701.28
551.599	15785.35
551.962	15791.22
552.326	15782.64
552.689	15799.81
553.053	15711
553.417	15738.57
553.78	15887.04
554.143	15787.61
554.507	15790.55
554.87	15756.42
555.234	15872.8
555.597	15807.04
555.96	15814.95
556.323	15816.08
556.686	15874.38
557.05	15822.41
557.413	15852.46
557.776	15772.69
558.139	15957.09
558.502	15892.24
558.865	15879.36
559.228	15971.56
559.59	15905.57
559.953	15946.47
560.316	16069.86
560.679	16000.71
561.041	16090.42
561.404	16126.13
561.767	16148.05
562.129	16189.86
562.492	16200.93
562.854	16165.68
563.217	16183.53
563.579	16181.27
563.941	16261.72
564.304	16402.73
564.666	16401.15
565.028	16402.28
565.39	16446.12
565.753	16421.04
566.115	16505.55
566.477	16472.11
566.839	16522.28
567.201	16606.79
567.563	16552.33
567.925	16627.81
568.287	16610.18
568.648	16608.38
569.01	16640.01
569.372	16735.83
569.734	16764.53
570.095	16748.26
570.457	16988.03
570.819	16862.16
571.18	16824.19
571.542	16905.32
571.903	16884.08
572.265	16944.41
572.626	16913.45
572.987	17014.47
573.349	16994.13
573.71	17038.42
574.071	17118.65
574.432	17084.75
574.794	17190.73
575.155	17190.28
575.516	16991.19
575.877	17201.36
576.238	17169.27
576.599	17254.01
576.96	17232.77
577.32	17329.04
577.681	17317.96
578.042	17464.4
578.403	17253.11
578.763	17324.06
579.124	17364.74
579.485	17366.55
579.845	17438.19
580.206	17314.12
580.566	17343.95
580.927	17393.44
581.287	17383.72
581.648	17389.83
582.008	17386.21
582.368	17397.96
582.728	17467.79
583.089	17402.93
583.449	17393.67
583.809	17485.19
584.169	17423.27
584.529	17308.47
584.889	17437.28
585.249	17414.68
585.609	17292.2
585.969	17462.14
586.329	17385.08
586.688	17366.78
587.048	17329.71
587.408	17214.24
587.768	17306.66
588.127	17375.59
588.487	17314.57
588.846	17383.72
589.206	17270.73
589.565	17261.47
589.925	17355.7
590.284	17246.1
590.643	17313.44
591.003	17432.08
591.362	17374.01
591.721	17334.69
592.08	17358.41
592.44	17360
592.799	17319.54
593.158	17247.68
593.517	17322.26
593.876	17347.57
594.235	17326.1
594.593	17261.24
594.952	17297.85
595.311	17196.61
595.67	17297.85
596.029	17358.19
596.387	17317.28
596.746	17370.39
597.104	17258.53
597.463	17307.12
597.822	17303.73
598.18	17187.8
598.538	17293.33
598.897	17374.23
599.255	17160.9
599.613	17373.78
599.972	17387.79
600.33	17310.96
600.688	17317.51
601.046	17251.3
601.404	17417.85
601.762	17395.02
602.12	17363.61
602.478	17442.93
602.836	17409.49
603.194	17275.48
603.552	17406.77
603.91	17237.06
604.268	17382.37
604.625	17335.14
604.983	17320.67
605.341	17227.12
605.698	17322.48
606.056	17401.58
606.413	17336.04
606.771	17355.25
607.128	17447.22
607.485	17308.25
607.843	17344.4
608.2	17501.23
608.557	17525.87
608.914	17368.36
609.272	17537.17
609.629	17546.66
609.986	17600.44
610.343	17557.05
610.7	17627.33
611.057	17556.83
611.414	17693.77
611.771	17589.59
612.127	17676.37
612.484	17663.72
612.841	17750.27
613.198	17643.38
613.554	17710.49
613.911	17875.46
614.267	17769.7
614.624	17717.5
614.98	17767.44
615.337	17911.39
615.693	17880.43
616.05	17806.09
616.406	17917.72
616.762	17866.87
617.118	17832.75
617.475	17845.63
617.831	17910.49
618.187	17842.02
618.543	17920.88
618.899	18017.61
619.255	17974.67
619.611	18028.9
619.967	17982.35
620.323	18118.39
620.678	18075.46
621.034	17955.46
621.39	18018.96
621.746	17906.65
622.101	18134.66
622.457	18077.72
622.812	18053.08
623.168	18180.76
623.523	18143.25
623.879	18119.3
624.234	18004.27
624.589	18129.01
624.945	18028.23
625.3	18124.27
625.655	18020.77
626.01	18162.69
626.365	18092.18
626.72	18012.41
627.075	18081.33
627.43	18101.44
627.785	18062.58
628.14	18114.1
628.495	18123.59
628.85	18076.81
629.205	17932.41
629.559	18028
629.914	17973.31
630.269	18004.72
630.623	17973.54
630.978	17979.87
631.332	18006.98
631.687	18129.69
632.041	17876.14
632.396	18034.33
632.75	17975.12
633.104	17905.52
633.459	17888.34
633.813	17856.25
634.167	17857.38
634.521	17815.58
634.875	17889.47
635.229	17745.52
635.583	17788.23
635.937	17769.02
636.291	17717.73
636.645	17696.26
636.999	17685.18
637.352	17802.47
637.706	17684.28
638.06	17739.42
638.413	17631.17
638.767	17568.8
639.121	17658.97
639.474	17604.06
639.828	17575.58
640.181	17505.98
640.534	17554.11
640.888	17450.16
641.241	17459.65
641.594	17511.63
641.947	17575.58
642.301	17440.67
642.654	17491.07
643.007	17420.11
643.36	17369.49
643.713	17439.99
644.066	17452.65
644.419	17335.14
644.771	17287.68
645.124	17097.4
645.477	17052.66
645.83	16940.35
646.182	16847.69
646.535	16908.48
646.888	16937.63
647.24	16806.56
647.593	16977.41
647.945	16944.64
648.298	16831.2
648.65	16773.8
649.002	16773.8
649.355	16831.42
649.707	16780.58
650.059	16954.36
650.411	17075.26
650.763	17060.12
651.115	17294.46
651.467	17183.5
651.819	17137.85
652.171	17207.01
652.523	17104.86
652.875	17188.02
653.227	17033
653.578	17207.68
653.93	17161.13
654.282	17169.49
654.633	17053.34
654.985	17107.57
655.337	17175.14
655.688	17142.15
656.039	17171.07
656.391	17070.74
656.742	17070.51
657.094	17121.36
657.445	17212.43
657.796	17082.94
658.147	17223.05
658.498	17148.93
658.849	17115.93
659.2	17062.15
659.551	17024.41
659.902	17131.3
660.253	17104.86
660.604	17126.56
660.955	17080.45
661.306	17184.18
661.656	17146.22
662.007	17162.26
662.358	17153
662.708	17201.81
663.059	17213.56
663.409	17102.38
663.76	17158.87
664.11	17183.95
664.461	17288.58
664.811	17239.55
665.161	17211.75
665.511	17171.98
665.862	17216.5
666.212	17215.82
666.562	17258.98
666.912	17286.55
667.262	17249.26
667.612	17199.32
667.962	17224.86
668.312	17166.33
668.662	17270.96
669.011	17195.03
669.361	17138.08
669.711	17132.88
670.06	17150.51
670.41	17123.84
670.76	17085.65
671.109	17193.45
671.459	17114.8
671.808	17092.43
672.157	17073.22
672.507	17042.72
672.856	16929.27
673.205	17050.63
673.554	17056.5
673.904	17063.28
674.253	17169.72
674.602	16986.9
674.951	16820.12
675.3	16649.73
675.649	16917.52
675.998	16900.8
676.346	16836.62
676.695	16950.74
677.044	16833.91
677.393	16813.12
677.741	16811.76
678.09	16861.03
678.438	16776.06
678.787	16775.38
679.135	16868.03
679.484	16732.89
679.832	16821.03
680.181	16659.9
680.529	16721.14
680.877	16635.27
681.225	16636.85
681.573	16762.5
681.922	16625.1
682.27	16597.76
682.618	16557.98
682.966	16520.7
683.314	16489.51
683.661	16468.72
684.009	16386.46
684.357	16315.96
684.705	16368.61
685.053	16315.28
685.4	16276.63
685.748	16156.64
686.095	16157.09
686.443	16195.73
686.79	16086.36
687.138	16126.13
687.485	16112.8
687.832	16075.96
688.18	16062.18
688.527	15985.79
688.874	15981.27
689.221	15933.14
689.568	15879.36
689.915	15851.33
690.262	15789.87
690.609	15711.9
690.956	15732.92
691.303	15620.83
691.65	15663.99
691.997	15663.09
692.344	15505.13
692.69	15382.19
693.037	15420.84
693.383	15415.87
693.73	15392.36
694.077	15292.93
694.423	15294.51
694.769	15205.48
695.116	15168.87
695.462	15093.16
695.808	15116.89
696.155	15067.85
696.501	14993.05
696.847	14913.05
697.193	14814.07
697.539	14808.2
697.885	14756.45
698.231	14669.44
698.577	14659.73
698.923	14609.11
699.269	14530.92
699.614	14416.8
699.96	14382.22
700.306	14390.13
700.651	14413.86
700.997	14273.52
701.342	14318.27
701.688	14202.34
702.033	14273.07
702.379	14160.53
702.724	14077.37
703.069	14102.23
703.415	13949.24
703.76	13963.47
704.105	13986.07
704.45	13962.34
704.795	13869.01
705.14	13832.63
705.485	13773.65
705.83	13777.49
706.175	13695.01
706.52	13673.09
706.865	13638.96
707.209	13609.59
707.554	13546.99
707.899	13635.35
708.243	13447.33
708.588	13472.19
708.932	13299.31
709.277	13363.04
709.621	13295.24
709.966	13241.46
710.31	13294.57
710.654	13129.37
710.998	13251.63
711.342	13150.61
711.687	13101.8
712.031	13035.36
712.375	12994.23
712.719	12990.84
713.063	12982.26
713.407	12976.83
713.75	12909.94
714.094	12958.76
714.438	12884.63
714.782	12849.61
715.125	12765.99
715.469	12835.14
715.812	12753.34
716.156	12690.29
716.499	12758.99
716.843	12729.16
717.186	12647.35
717.53	12762.38
717.873	12683.96
718.216	12644.87
718.559	12570.52
718.902	12567.35
719.246	12587.92
719.589	12546.11
719.932	12507.92
720.275	12480.12
720.617	12510.41
720.96	12538.43
721.303	12476.28
721.646	12421.59
721.989	12313.57
722.331	12396.96
722.674	12260.02
723.016	12285.78
723.359	12364.19
723.701	12408.71
724.044	12246.46
724.386	12267.25
724.729	12316.29
725.071	12291.65
725.413	12226.8
725.755	12237.87
726.097	12251.88
726.439	12175.27
726.782	12157.19
727.124	12257.53
727.465	12090.08
727.807	12125.33
728.149	12166.23
728.491	12074.26
728.833	12057.99
729.175	12162.84
729.516	12165.56
729.858	12098.21
730.199	12022.73
730.541	12017.76
730.882	12059.8
731.224	12022.06
731.565	11940.25
731.906	12022.28
732.248	12098.21
732.589	12013.47
732.93	11949.97
733.271	11985.22
733.612	11956.52
733.953	12039.23
734.294	11927.37
734.635	11892.12
734.976	11898.9
735.317	11942.74
735.658	11915.84
735.999	12005.33
736.339	11968.72
736.68	12018.22
737.021	11912.68
737.361	11912.68
737.702	11991.78
738.042	11957.43
738.383	11913.13
738.723	11986.13
739.063	11932.79
739.404	11977.31
739.744	11954.49
740.084	11878.78
740.424	11928.95
740.764	11933.92
741.104	11992.23
741.444	12043.98
741.784	11976.41
742.124	12045.33
742.464	12012.79
742.804	12010.31
743.143	12048.5
743.483	12051.66
743.823	11964.43
744.162	12137.53
744.502	12090.3
744.841	12157.65
745.181	12192.67
745.52	12240.36
745.86	12208.27
746.199	12207.14
746.538	12325.1
746.877	12423.4
747.216	12410.3
747.556	12399.22
747.895	12462.72
748.234	12520.35
748.573	12534.13
748.911	12605.77
749.25	12658.42
749.589	12738.65
749.928	12777.74
750.267	12827.01
750.605	12896.61
750.944	12935.93
751.283	13043.72
751.621	13145.64
751.96	13065.87
752.298	13219.54
752.636	13277.62
752.975	13387.9
753.313	13441.23
753.651	13563.26
753.989	13601.45
754.327	13641
754.666	13670.6
755.004	13832.18
755.342	13983.59
755.679	14017.26
756.017	14097.71
756.355	14291.6
756.693	14290.7
757.031	14549.67
757.368	14525.27
757.706	14611.37
758.044	14718.71
758.381	14857.69
758.719	14957.8
759.056	15047.06
759.394	15133.16
759.731	15254.06
760.068	15340.39
760.405	15422.87
760.743	15425.58
761.08	15717.78
761.417	15726.59
761.754	15813.14
762.091	15914.61
762.428	16044.32
762.765	15951.44
763.102	16266.01
763.438	16232.79
763.775	16294.26
764.112	16443.64
764.449	16587.81
764.785	16674.59
765.122	16588.94
765.458	16749.16
765.795	16816.28
766.131	16933.34
766.467	16954.13
766.804	16950.06
767.14	17037.74
767.476	17126.56
767.812	17163.16
768.148	17268.25
768.485	17240.45
768.821	17291.07
769.157	17403.38
769.492	17357.74
769.828	17509.82
770.164	17488.58
770.5	17510.05
770.836	17540.1
771.171	17543.04
771.507	17597.5
771.842	17585.07
772.178	17568.8
772.513	17602.7
772.849	17596.6
773.184	17723.83
773.519	17677.05
773.855	17674.56
774.19	17713.21
774.525	17749.36
774.86	17735.58
775.195	17840.89
775.53	17671.63
775.865	17669.82
776.2	17667.11
776.535	17528.35
776.87	17620.78
777.205	17629.59
777.539	17606.77
777.874	17705.07
778.209	17588.46
778.543	17547.11
778.878	17410.16
779.212	17559.31
779.547	17417.62
779.881	17438.19
780.215	17441.8
780.55	17423.04
780.884	17400.22
781.218	17327.45
781.552	17312.54
781.886	17393.21
782.22	17263.5
782.554	17271.86
782.888	17116.16
783.222	17045.43
783.556	17038.2
783.889	16998.65
784.223	17030.96
784.557	16832.33
784.89	16983.06
785.224	16874.13
785.557	16787.58
785.891	16806.11
786.224	16778.32
786.558	16748.49
786.891	16556.85
787.224	16561.15
787.557	16623.07
787.891	16535.38
788.224	16463.52
788.557	16573.8
788.89	16493.58
789.223	16495.84
789.556	16319.57
789.888	16334.71
790.221	16307.14
790.554	16193.92
790.887	16085.23
791.219	16108.73
791.552	16131.33
791.884	16043.87
792.217	16021.73
792.549	15958.22
792.882	15862.86
793.214	15852.24
793.546	15849.75
793.879	15750.55
794.211	15687.72
794.543	15754.61
794.875	15593.71
795.207	15629.87
795.539	15557.33
795.871	15634.17
796.203	15469.42
796.535	15455.41
796.867	15403.89
797.198	15386.71
797.53	15421.52
797.862	15245.02
798.193	15325.02
798.525	15154.63
798.856	15196.89
799.188	15058.14
799.519	15099.26
799.85	14986.5
800.182	14953.73
800.513	14954.86
800.844	14840.51
801.175	14854.3
801.506	14847.75
801.837	14752.15
802.168	14723
802.499	14718.94
802.83	14662.21
803.161	14610.24
803.491	14592.84
803.822	14541.99
804.153	14479.17
804.483	14432.39
804.814	14267.87
805.145	14318.27
805.475	14389.68
805.805	14269.91
806.136	14200.3
806.466	14278.95
806.796	14215.67
807.126	14123.02
807.457	14105.17
807.787	14137.93
808.117	14021.55
808.447	13997.15
808.777	14075.79
809.107	14056.13
809.436	13926.87
809.766	13927.09
810.096	13743.14
810.426	13877.6
810.755	13832.63
811.085	13740.43
811.414	13749.02
811.744	13624.73
812.073	13671.96
812.403	13561.45
812.732	13530.49
813.061	13621.34
813.39	13442.13
813.719	13488.23
814.049	13493.66
814.378	13461.57
814.707	13466.31
815.036	13458.86
815.365	13376.37
815.693	13219.77
816.022	13240.78
816.351	13116.49
816.68	13107.45
817.008	13143.84
817.337	13017.51
817.665	13077.4
817.994	13038.53
818.322	13003.73
818.651	12935.25
818.979	12934.12
819.307	13013.9
819.636	12921.02
819.964	12847.57
820.292	12931.86
820.62	12944.07
820.948	12763.05
821.276	12876.5
821.604	12833.33
821.932	12909.94
822.259	12793.56
822.587	12807.8
822.915	12732.32
823.243	12820
823.57	12746.56
823.898	12830.4
824.225	12784.75
824.553	12696.39
824.88	12699.33
825.207	12775.03
825.535	12783.84
825.862	12805.99
826.189	12808.02
826.516	12818.65
826.843	12821.81
827.17	12866.1
827.497	12853.9
827.824	12822.49
828.151	12897.06
828.478	12802.38
828.805	12841.02
829.131	12781.36
829.458	12780.68
829.785	12699.78
830.111	12757.86
830.438	12803.73
830.764	12852.09
831.09	12766.9
831.417	12712.66
831.743	12733.9
832.069	12784.07
832.395	12746.33
832.722	12749.95
833.048	12706.78
833.374	12720.34
833.7	12613.23
834.026	12724.86
834.351	12697.52
834.677	12734.81
835.003	12725.99
835.329	12695.71
835.654	12700.46
835.98	12582.95
836.306	12544.98
836.631	12507.02
836.956	12543.85
837.282	12521.03
837.607	12493.91
837.932	12550.4
838.258	12500.69
838.583	12412.33
838.908	12372.56
839.233	12312.22
839.558	12391.54
839.883	12301.15
840.208	12319.45
840.533	12266.34
840.858	12269.96
841.182	12232.22
841.507	12269.96
841.832	12162.17
842.156	12216.63
842.481	12192
842.805	12168.95
843.13	12089.63
843.454	12058.44
843.778	12057.31
844.103	12012.34
844.427	11983.64
844.751	12060.47
845.075	11926.47
845.399	11947.93
845.723	11922.85
846.047	11914.26
846.371	11793.81
846.695	11727.83
847.019	11688.05
847.343	11632.46
847.666	11586.36
847.99	11548.85
848.313	11594.5
848.637	11537.1
848.96	11490.32
849.284	11388.18
849.607	11360.15
849.931	11281.29
850.254	11288.52
850.577	11201.51
850.9	11084.23
851.223	11115.87
851.546	11022.54
851.869	10964.91
852.192	11003.78
852.515	10879.49
852.838	10943.44
853.161	10913.84
853.483	10803.56
853.806	10789.77
854.129	10749.1
854.451	10686.5
854.774	10656.67
855.096	10683.79
855.419	10593.39
855.741	10557.24
856.063	10485.6
856.385	10485.6
856.708	10521.76
857.03	10452.15
857.352	10472.04
857.674	10399.05
857.996	10294.19
858.318	10263.46
858.64	10273.85
858.961	10221.88
859.283	10266.17
859.605	10170.58
859.926	10223.01
860.248	10162.67
860.57	10129.68
860.891	10074.09
861.212	10117.7
861.534	10054.2
861.855	10059.85
862.176	9994.77
862.498	10027.53
862.819	10044.71
863.14	9988.44
863.461	9928.78
863.782	9866.86
864.103	9907.31
864.424	9825.05
864.745	9851.94
865.065	9826.18
865.386	9771.49
865.707	9763.13
866.027	9827.31
866.348	9764.04
866.668	9799.06
866.989	9708.22
867.309	9660.54
867.63	9743.02
867.95	9653.08
868.27	9666.19
868.59	9642.91
868.91	9615.57
869.23	9637.94
869.55	9555.23
869.87	9617.83
870.19	9598.62
870.51	9563.14
870.83	9550.94
871.15	9494.44
871.469	9489.02
871.789	9510.03
872.109	9500.77
872.428	9517.94
872.748	9479.07
873.067	9446.98
873.386	9468.23
873.706	9381.9
874.025	9419.41
874.344	9393.43
874.663	9367.66
874.982	9353.65
875.301	9312.75
875.62	9352.97
875.939	9274.11
876.258	9232.75
876.577	9261.45
876.896	9239.31
877.214	9230.72
877.533	9240.43
877.852	9221.23
878.17	9175.8
878.489	9202.24
878.807	9122.47
879.125	9147.56
879.444	9139.42
879.762	9096.71
880.08	9095.13
880.398	9068.01
880.716	9093.32
881.034	9022.81
881.352	9101.68
881.67	8987.33
881.988	9023.04
882.306	8994.57
882.624	8997.73
882.941	8865.08
883.259	8913.89
883.577	8874.34
883.894	8856.94
884.212	8823.72
884.529	8839.99
884.846	8818.07
885.164	8717.51
885.481	8740.11
885.798	8749.6
886.115	8680
886.432	8794.12
886.75	8643.16
887.067	8677.06
887.383	8618.3
887.7	8656.95
888.017	8575.37
888.334	8634.35
888.651	8584.63
888.967	8521.36
889.284	8513
889.6	8488.59
889.917	8454.92
890.233	8438.65
890.55	8410.85
890.866	8393.23
891.182	8361.36
891.498	8320.46
891.815	8282.49
892.131	8248.14
892.447	8268.03
892.763	8230.74
893.079	8167.69
893.395	8172.89
893.71	8198.2
894.026	8147.58
894.342	8117.53
894.657	8110.52
894.973	8079.11
895.289	8070.3
895.604	8107.58
895.92	7923.41
896.235	7960.47
896.55	7957.3
896.865	7963.41
897.181	7917.98
897.496	7946.68
897.811	7836.63
898.126	7760.47
898.441	7765.9
898.756	7748.72
899.071	7680.7
899.386	7737.42
899.7	7706.92
900.015	7597.31
900.33	7565
900.644	7546.24
900.959	7620.59
901.273	7523.87
901.588	7442.29
901.902	7480.48
902.216	7453.82
902.531	7386.92
902.845	7419.47
903.159	7379.92
903.473	7296.53
903.787	7328.62
904.101	7282.75
904.415	7238.68
904.729	7210.21
905.042	7175.86
905.356	7200.94
905.67	7144.67
905.984	7147.38
906.297	7120.94
906.611	7070.1
906.924	7076.42
907.237	7028.06
907.551	6962.53
907.864	6952.59
908.177	6893.6
908.491	6957.33
908.804	6855.64
909.117	6876.88
909.43	6802.53
909.743	6768.86
910.056	6766.83
910.368	6736.32
910.681	6689.32
910.994	6645.47
911.307	6626.94
911.619	6589.88
911.932	6614.97
912.244	6506.04
912.557	6518.02
912.869	6509.89
913.181	6508.98
913.494	6427.18
913.806	6427.18
914.118	6424.69
914.43	6400.51
914.742	6380.17
915.054	6332.04
915.366	6332.49
915.678	6315.31
915.99	6259.5
916.302	6250.23
916.613	6189.89
916.925	6192.38
917.236	6189.67
917.548	6107.18
917.859	6113.74
918.171	6056.56
918.482	6035.32
918.794	6011.14
919.105	6078.94
919.416	5990.58
919.727	6012.5
920.038	5957.81
920.349	5909.68
920.66	5886.17
920.971	5856.12
921.282	5852.28
921.593	5808.43
921.903	5780.41
922.214	5744.48
922.525	5712.84
922.835	5726.86
923.146	5682.34
923.456	5687.08
923.767	5678.49
924.077	5630.36
924.387	5628.55
924.697	5584.26
925.008	5591.27
925.318	5559.85
925.628	5535.9
925.938	5446.18
926.248	5454.09
926.558	5415.22
926.867	5402.12
927.177	5438.73
927.487	5381.55
927.796	5298.17
928.106	5335.23
928.416	5342.91
928.725	5312.4
929.034	5246.42
929.344	5251.39
929.653	5244.61
929.962	5222.46
930.271	5178.39
930.581	5130.03
930.89	5139.07
931.199	5164.16
931.508	5154.67
931.817	5081.45
932.125	5078.51
932.434	5022.47
932.743	4989.47
933.051	5029.7
933.36	4960.1
933.669	4946.31
933.977	4920.32
934.286	4911.96
934.594	4913.54
934.902	4846.2
935.21	4849.59
935.519	4856.82
935.827	4804.39
936.135	4753.77
936.443	4769.37
936.751	4766.65
937.059	4724.4
937.367	4701.35
937.674	4711.29
937.982	4658.86
938.29	4632.65
938.597	4628.13
938.905	4583.38
939.213	4573.89
939.52	4582.93
939.827	4595.81
940.135	4552.42
940.442	4540.45
940.749	4468.81
941.056	4521.91
941.363	4453.22
941.67	4421.8
941.977	4429.94
942.284	4423.39
942.591	4399.88
942.898	4393.78
943.205	4348.36
943.511	4358.3
943.818	4322.82
944.125	4295.48
944.431	4245.31
944.738	4277.63
945.044	4233.79
945.35	4180.46
945.657	4184.07
945.963	4171.42
946.269	4159.66
946.575	4136.39
946.881	4138.2
947.187	4119.89
947.493	4128.03
947.799	4064.53
948.105	4055.26
948.41	4040.35
948.716	4036.05
949.022	3977.97
949.327	4040.12
949.633	3952.21
949.938	3977.52
950.244	3963.06
950.549	3910.18
950.854	3930.52
951.16	3894.36
951.465	3898.88
951.77	3897.3
952.075	3875.6
952.38	3817.53
952.685	3844.64
952.99	3815.27
953.294	3819.56
953.599	3729.62
953.904	3714.93
954.209	3752.22
954.513	3699.56
954.818	3710.41
955.122	3675.61
955.426	3658.43
955.731	3669.73
956.035	3640.13
956.339	3643.75
956.643	3642.62
956.948	3563.75
957.252	3601.94
957.556	3577.99
957.86	3565.33
958.163	3512.45
958.467	3529.85
958.771	3533.01
959.075	3510.19
959.378	3475.61
959.682	3420.48
959.985	3437.65
960.289	3420.02
960.592	3350.65
960.896	3399.91
961.199	3392.91
961.502	3358.78
961.805	3347.71
962.108	3375.96
962.411	3346.13
962.714	3328.27
963.017	3284.89
963.32	3279.24
963.623	3233.14
963.926	3256.41
964.228	3255.73
964.531	3223.87
964.833	3252.12
965.136	3175.96
965.438	3182.74
965.741	3171.22
966.043	3125.57
966.345	3185.23
966.648	3155.17
966.95	3144.1
967.252	3105.91
967.554	3080.6
967.856	3089.41
968.158	3093.03
968.46	3068.39
968.761	3045.34
969.063	2990.88
969.365	2965.12
969.666	2990.66
969.968	2965.12
970.269	2967.15
970.571	2965.57
970.872	2946.59
971.174	2928.74
971.475	2877.21
971.776	2910.66
972.077	2900.49
972.378	2870.21
972.679	2864.11
972.98	2874.05
973.281	2826.14
973.582	2832.69
973.883	2822.98
974.183	2805.12
974.484	2808.29
974.785	2771.45
975.085	2773.03
975.386	2731.23
975.686	2746.82
975.986	2735.3
976.287	2726.48
976.587	2706.6
976.887	2686.03
977.187	2694.62
977.487	2710.66
977.787	2702.53
978.087	2659.82
978.387	2643.55
978.687	2621.4
978.987	2639.03
979.286	2611.68
979.586	2595.64
979.885	2601.51
980.185	2558.58
980.484	2531.68
980.784	2583.43
981.083	2519.48
981.382	2507.28
981.682	2523.55
981.981	2521.06
982.28	2504.34
982.579	2482.19
982.878	2483.1
983.177	2430.44
983.475	2472.03
983.774	2462.76
984.073	2426.83
984.372	2448.3
984.67	2412.82
984.969	2402.2
985.267	2400.39
985.566	2385.25
985.864	2392.71
986.162	2373.04
986.461	2323.33
986.759	2336.21
987.057	2286.95
987.355	2302.09
987.653	2315.87
987.951	2313.39
988.249	2301.86
988.547	2276.1
988.844	2275.19
989.142	2274.29
989.44	2252.82
989.737	2230.9
990.035	2232.71
990.332	2211.24
990.63	2198.59
990.927	2188.87
991.224	2162.2
991.521	2166.27
991.819	2156.1
992.116	2131.7
992.413	2137.57
992.71	2125.14
993.006	2137.12
993.303	2122.2
993.6	2102.09
993.897	2103.22
994.193	2102.32
994.49	2088.08
994.787	2051.47
995.083	2022.32
995.379	2047.86
995.676	2038.59
995.972	2059.15
996.268	2013.73
996.565	1999.27
996.861	1991.59
997.157	2002.21
997.453	1976.67
997.749	1977.8
998.044	1948.88
998.34	1982.77
998.636	1931.25
998.932	1941.19
999.227	1919.5
999.523	1881.31
999.818	1879.5
1000.114	1909.33
1000.409	1891.25
1000.704	1880.85
1001	1853.28
1001.295	1873.85
1001.59	1834.75
1001.885	1820.74
1002.18	1829.1
1002.475	1822.32
1002.77	1823.23
1003.065	1812.61
1003.359	1794.3
1003.654	1782.55
1003.949	1770.12
1004.243	1761.76
1004.538	1776
1004.832	1719.28
1005.127	1751.14
1005.421	1686.96
1005.715	1704.59
1006.009	1699.39
1006.304	1698.94
1006.598	1673.63
1006.892	1686.96
1007.186	1656.68
1007.48	1658.94
1007.773	1639.73
1008.067	1639.5
1008.361	1637.25
1008.655	1619.62
1008.948	1616.68
1009.242	1613.06
1009.535	1618.49
1009.829	1610.13
1010.122	1574.87
1010.415	1562.67
1010.708	1548.21
1011.001	1567.42
1011.295	1561.09
1011.588	1543.01
1011.881	1504.82
1012.173	1518.6
1012.466	1499.62
1012.759	1496.01
1013.052	1500.53
1013.344	1487.87
1013.637	1455.33
1013.93	1448.1
1014.222	1463.46
1014.514	1460.53
1014.807	1465.05
1015.099	1442.22
1015.391	1435.89
1015.683	1436.35
1015.976	1431.83
1016.268	1417.82
1016.56	1392.05
1016.851	1402
1017.143	1370.13
1017.435	1402.9
1017.727	1363.58
1018.018	1376.24
1018.31	1336.01
1018.602	1322.68
1018.893	1311.83
1019.185	1340.98
1019.476	1321.77
1019.767	1306.41
1020.058	1300.53
1020.35	1327.2
1020.641	1299.17
1020.932	1283.13
1021.223	1272.73
1021.514	1276.58
1021.804	1248.33
1022.095	1257.37
1022.386	1238.61
1022.677	1241.32
1022.967	1212.85
1023.258	1239.06
1023.548	1191.83
1023.839	1200.65
1024.129	1193.41
1024.419	1186.41
1024.709	1161.78
1025	1177.37
1025.29	1171.49
1025.58	1164.49
1025.87	1119.74
1026.16	1124.72
1026.449	1125.39
1026.739	1103.47
1027.029	1115.68
1027.319	1106.41
1027.608	1118.16
1027.898	1081.33
1028.187	1089.91
1028.477	1093.08
1028.766	1070.48
1029.055	1040.42
1029.344	1063.93
1029.634	1061.44
1029.923	1040.88
1030.212	1013.08
1030.501	1036.13
1030.79	1024.83
1031.078	1053.76
1031.367	1020.54
1031.656	1029.8
1031.945	1032.97
1032.233	1002.91
1032.522	990.26
1032.81	982.57
1033.099	966.98
1033.387	973.76
1033.675	967.43
1033.963	976.7
1034.251	962.46
1034.54	931.95
1034.828	964.04
1035.116	944.38
1035.403	931.95
1035.691	922.01
1035.979	924.04
1036.267	919.98
1036.554	930.6
1036.842	892.86
1037.129	885.85
1037.417	892.41
1037.704	890.37
1037.992	876.59
1038.279	867.55
1038.566	865.29
1038.853	865.29
1039.14	865.29
