Data from hue_270_FLMS001491_00084.txt Node
Date: Tue Feb 07 15:57:48 GMT 2017
User: dcchb
Spectrometer: FLMS00149
Trigger mode: 0
Integration Time (sec): 2.000000E-2
Scans to average: 10
Electric dark correction enabled: true
Nonlinearity correction enabled: false
Boxcar width: 0
XAxis mode: Wavelengths
Number of Pixels in Spectrum: 2048
>>>>>Begin Spectral Data<<<<<
341.393	-16.31
341.776	-16.31
342.16	-16.31
342.543	-66.71
342.927	-81.17
343.31	-78.01
343.693	-77.78
344.077	-60.15
344.46	-60.15
344.843	-42.08
345.226	-45.01
345.61	-31.68
345.993	-20.15
346.376	1.54
346.759	25.04
347.142	31.6
347.525	41.99
347.908	60.75
348.291	79.73
348.674	90.8
349.057	83.57
349.44	130.8
349.823	157.92
350.206	157.24
350.588	185.26
350.971	219.84
351.354	211.7
351.737	239.27
352.119	246.5
352.502	266.39
352.884	272.72
353.267	280.18
353.65	287.63
354.032	286.05
354.414	293.96
354.797	316.79
355.179	303.45
355.562	307.97
355.944	330.12
356.326	329.89
356.709	353.17
357.091	313.17
357.473	338.71
357.855	342.1
358.238	335.09
358.62	322.21
359.002	317.46
359.384	347.97
359.766	342.32
360.148	320.63
360.53	329.89
360.912	327.63
361.294	332.6
361.676	321.98
362.057	333.51
362.439	343.23
362.821	327.41
363.203	312.49
363.584	319.27
363.966	328.99
364.348	326.5
364.729	311.59
365.111	306.39
365.493	305.71
365.874	315.66
366.256	309.78
366.637	299.84
367.019	296.67
367.4	313.85
367.781	322.89
368.163	321.98
368.544	314.98
368.925	300.97
369.306	315.66
369.688	323.34
370.069	308.42
370.45	315.88
370.831	301.64
371.212	313.62
371.593	317.01
371.974	281.98
372.355	325.6
372.736	321.31
373.117	309.55
373.498	313.17
373.879	317.69
374.26	293.28
374.641	317.46
375.021	327.18
375.402	328.54
375.783	321.76
376.163	338.93
376.544	321.76
376.925	333.73
377.305	326.5
377.686	319.95
378.066	321.08
378.447	332.38
378.827	343.23
379.208	330.34
379.588	313.4
379.968	329.21
380.349	324.69
380.729	317.92
381.109	321.08
381.489	329.89
381.87	315.2
382.25	346.62
382.63	347.07
383.01	355.43
383.39	330.8
383.77	345.71
384.15	361.3
384.53	347.52
384.91	348.88
385.29	340.97
385.67	340.51
386.049	360.63
386.429	343.9
386.809	345.71
387.189	361.3
387.568	354.98
387.948	350.68
388.328	350.68
388.707	369.44
389.087	374.64
389.466	359.72
389.846	364.02
390.225	370.57
390.605	380.74
390.984	371.47
391.363	383.22
391.743	366.95
392.122	380.96
392.501	373.73
392.881	372.83
393.26	388.2
393.639	388.2
394.018	406.05
394.397	383.22
394.776	387.97
395.155	385.71
395.534	391.13
395.913	388.87
396.292	399.5
396.671	382.09
397.05	387.74
397.429	389.1
397.808	394.52
398.186	391.36
398.565	405.37
398.944	401.98
399.323	419.61
399.701	408.08
400.08	390.68
400.458	431.58
400.837	428.87
401.215	425.71
401.594	429.32
401.972	439.27
402.351	419.16
402.729	426.61
403.107	440.85
403.486	430.68
403.864	428.65
404.242	428.87
404.62	433.62
404.999	435.65
405.377	448.53
405.755	446.5
406.133	444.47
406.511	468.19
406.889	457.35
407.267	482.43
407.645	468.42
408.023	487.63
408.401	496.67
408.779	486.95
409.156	491.24
409.534	493.73
409.912	506.61
410.29	508.87
410.667	526.27
411.045	526.95
411.422	518.59
411.8	525.37
412.178	555.2
412.555	548.87
412.933	555.65
413.31	567.85
413.687	549.32
414.065	567.85
414.442	568.76
414.819	595.42
415.197	603.78
415.574	612.37
415.951	594.07
416.328	622.77
416.705	630.68
417.082	620.96
417.46	632.71
417.837	635.2
418.214	626.61
418.591	635.87
418.967	667.51
419.344	666.15
419.721	690.79
420.098	681.97
420.475	714.29
420.852	698.24
421.228	717.23
421.605	717.68
421.982	707.74
422.358	735.31
422.735	736.21
423.111	759.71
423.488	774.85
423.864	758.58
424.241	772.82
424.617	788.64
424.994	828.18
425.37	806.04
425.746	836.55
426.123	830.22
426.499	835.87
426.875	850.1
427.251	866.15
427.627	888.75
428.003	904.11
428.379	916.54
428.756	892.36
429.132	926.26
429.507	932.36
429.883	924
430.259	941.85
430.635	936.88
431.011	959.48
431.387	996.54
431.763	1027.05
432.138	1014.39
432.514	1005.58
432.89	1023.89
433.265	1054.85
433.641	1073.15
434.016	1086.03
434.392	1103.43
434.767	1114.96
435.143	1133.49
435.518	1151.79
435.894	1166.93
436.269	1197.89
436.644	1198.34
437.02	1202.64
437.395	1202.64
437.77	1235.18
438.145	1232.02
438.52	1263.88
438.895	1275.86
439.271	1284.67
439.646	1316.08
440.021	1318.57
440.395	1352.01
440.77	1345.91
441.145	1337.32
441.52	1375.97
441.895	1353.82
442.27	1384.55
442.645	1396.76
443.019	1412.12
443.394	1438.11
443.769	1417.77
444.143	1473.82
444.518	1471.33
444.892	1449.41
445.267	1479.24
445.641	1502.07
446.016	1493.48
446.39	1530.76
446.764	1559.92
447.139	1523.53
447.513	1550.43
447.887	1519.69
448.262	1551.33
448.636	1569.18
449.01	1545.68
449.384	1594.72
449.758	1621.61
450.132	1607.37
450.506	1638.11
450.88	1653.25
451.254	1627.49
451.628	1682.4
452.002	1684.21
452.376	1678.33
452.75	1667.94
453.123	1709.74
453.497	1749.06
453.871	1743.19
454.244	1750.65
454.618	1792
454.992	1790.65
455.365	1801.27
455.739	1830.19
456.112	1834.49
456.486	1899.34
456.859	1887.14
457.232	1904.77
457.606	1900.47
457.979	1894.15
458.352	1907.03
458.725	1963.3
459.099	1972.79
459.472	2036.74
459.845	2022.96
460.218	2061.15
460.591	2036.29
460.964	2046.01
461.337	2096.85
461.71	2121.26
462.083	2156.06
462.456	2166
462.829	2194.7
463.201	2219.11
463.574	2196.06
463.947	2213.46
464.32	2276.51
464.692	2293.68
465.065	2302.27
465.438	2316.96
465.81	2366.68
466.183	2359.44
466.555	2401.7
466.928	2438.31
467.3	2415.71
467.672	2466.33
468.045	2534.13
468.417	2489.16
468.789	2549.95
469.161	2566.22
469.534	2582.04
469.906	2648.02
470.278	2623.39
470.65	2682.37
471.022	2711.07
471.394	2760.34
471.766	2761.24
472.138	2792.88
472.51	2864.06
472.882	2862.71
473.253	2925.3
473.625	2934.8
473.997	2985.87
474.369	3012.99
474.74	3026.54
475.112	3065.87
475.484	3078.97
475.855	3142.47
476.227	3182.25
476.598	3239.87
476.97	3246.43
477.341	3338.63
477.713	3356.93
478.084	3357.16
478.455	3455.46
478.827	3485.97
479.198	3523.25
479.569	3541.56
479.94	3618.17
480.311	3664.49
480.682	3686.41
481.053	3736.58
481.424	3814.09
481.795	3825.62
482.166	3893.41
482.537	3903.58
482.908	3971.83
483.279	3967.31
483.65	4069.46
484.021	4157.81
484.391	4170.02
484.762	4183.8
485.133	4200.98
485.503	4279.62
485.874	4346.51
486.244	4347.87
486.615	4426.73
486.985	4448.88
487.356	4527.97
487.726	4534.3
488.097	4580.85
488.467	4668.54
488.837	4725.03
489.207	4772.71
489.578	4817.46
489.948	4813.39
490.318	4942.65
490.688	4944.01
491.058	4928.87
491.428	4992.14
491.798	5028.98
492.168	5151.23
492.538	5175.19
492.908	5241.4
493.278	5275.98
493.648	5264.23
494.017	5306.48
494.387	5334.96
494.757	5346.03
495.126	5456.31
495.496	5397.1
495.866	5462.41
496.235	5506.25
496.605	5535.63
496.974	5561.85
497.344	5609.08
497.713	5626.7
498.082	5678.68
498.452	5696.98
498.821	5703.76
499.19	5726.59
499.559	5740.15
499.928	5762.97
500.298	5815.4
500.667	5881.84
501.036	5824.89
501.405	5864.66
501.774	5868.73
502.143	5926.13
502.512	5933.59
502.88	5974.04
503.249	5966.13
503.618	6017.2
503.987	6001.83
504.356	6040.25
504.724	6070.08
505.093	6077.99
505.462	6059.69
505.83	6137.88
506.199	6164.09
506.567	6216.52
506.936	6219.23
507.304	6246.57
507.672	6206.12
508.041	6275.05
508.409	6294.71
508.777	6258.55
509.145	6386.23
509.514	6346.01
509.882	6299.9
510.25	6351.43
510.618	6396.4
510.986	6405.21
511.354	6395.5
511.722	6455.83
512.09	6520.69
512.458	6483.4
512.826	6517.3
513.193	6540.58
513.561	6522.72
513.929	6558.88
514.297	6573.12
514.664	6652.89
515.032	6595.49
515.4	6670.74
515.767	6613.57
516.135	6665.77
516.502	6633.23
516.869	6693.57
517.237	6703.51
517.604	6673
517.972	6745.32
518.339	6752.32
518.706	6711.42
519.073	6801.59
519.44	6800
519.808	6790.51
520.175	6768.37
520.542	6862.83
520.909	6901.02
521.276	6904.18
521.643	6858.53
522.009	6921.36
522.376	6936.27
522.743	6962.49
523.11	7000
523.477	7033.45
523.843	7065.08
524.21	7076.61
524.577	7126.1
524.943	7102.6
525.31	7200.9
525.676	7194.34
526.043	7254.23
526.409	7259.88
526.776	7246.77
527.142	7276.38
527.508	7267.34
527.874	7279.77
528.241	7353.21
528.607	7334
528.973	7352.76
529.339	7334.23
529.705	7412.42
530.071	7432.53
530.437	7433.43
530.803	7481.34
531.169	7471.85
531.535	7395.02
531.901	7481.34
532.267	7510.04
532.632	7541.91
532.998	7537.39
533.364	7572.64
533.73	7611.96
534.095	7577.39
534.461	7615.8
534.826	7690.15
535.192	7614.67
535.557	7714.33
535.923	7625.52
536.288	7713.2
536.653	7692.18
537.019	7712.98
537.384	7747.1
537.749	7696.25
538.114	7755.01
538.479	7719.75
538.845	7726.99
539.21	7724.95
539.575	7785.52
539.94	7705.97
540.305	7769.47
540.67	7787.78
541.034	7777.83
541.399	7814.22
541.764	7818.06
542.129	7889.24
542.494	7850.37
542.858	7888.11
543.223	7818.28
543.587	7856.93
543.952	7847.89
544.316	7859.64
544.681	7842.46
545.045	7908.68
545.41	7888.56
545.774	7903.93
546.138	7892.63
546.503	7844.5
546.867	7889.92
547.231	7937.6
547.595	7970.6
547.959	7905.06
548.324	7964.72
548.688	7973.53
549.052	8031.84
549.416	7980.76
549.779	7938.73
550.143	7965.17
550.507	8025.96
550.871	8044.94
551.235	7999.3
551.599	8026.19
551.962	8064.83
552.326	8042.46
552.689	8007.88
553.053	8053.76
553.417	8060.76
553.78	8121.78
554.143	8086.75
554.507	8091.27
554.87	8163.36
555.234	8220.08
555.597	8146.64
555.96	8115.22
556.323	8228.44
556.686	8192.06
557.05	8148.22
557.413	8274.77
557.776	8256.01
558.139	8300.53
558.502	8242
558.865	8293.07
559.228	8312.73
559.59	8319.51
559.953	8359.96
560.316	8405.84
560.679	8438.83
561.041	8501.2
561.404	8482.67
561.767	8582.33
562.129	8498.27
562.492	8615.55
562.854	8553.86
563.217	8561.54
563.579	8586.62
563.941	8627.3
564.304	8657.13
564.666	8737.58
565.028	8729.67
565.39	8763.34
565.753	8755.21
566.115	8819.61
566.477	8865.49
566.839	8850.8
567.201	8926.28
567.563	8979.83
567.925	9006.27
568.287	8973.28
568.648	9015.77
569.01	9083.79
569.372	9117.01
569.734	9084.69
570.095	9160.17
570.457	9211.01
570.819	9171.24
571.18	9164.01
571.542	9258.92
571.903	9308.41
572.265	9273.16
572.626	9311.35
572.987	9323.78
573.349	9459.14
573.71	9414.85
574.071	9446.94
574.432	9430.67
574.794	9499.14
575.155	9525.13
575.516	9518.35
575.877	9508.86
576.238	9581.17
576.599	9676.31
576.96	9684
577.32	9701.85
577.681	9681.28
578.042	9751.11
578.403	9783.2
578.763	9792.47
579.124	9820.49
579.485	9876.31
579.845	9933.48
580.206	9946.14
580.566	9892.13
580.927	9930.09
581.287	9938.45
581.648	9976.64
582.008	10027.49
582.368	9976.64
582.728	10112.01
583.089	10160.59
583.449	10156.53
583.809	10229.07
584.169	10160.59
584.529	10196.07
584.889	10319.01
585.249	10281.27
585.609	10307.48
585.969	10345.67
586.329	10348.16
586.688	10336.41
587.048	10415.73
587.408	10401.49
587.768	10368.5
588.127	10582.28
588.487	10503.64
588.846	10545.44
589.206	10526.69
589.565	10578.66
589.925	10649.85
590.284	10589.74
590.643	10643.52
591.003	10670.19
591.362	10726.91
591.721	10782.05
592.08	10708.83
592.44	10797.64
592.799	10707.92
593.158	10790.18
593.517	10761.48
593.876	10847.58
594.235	10849.39
594.593	10859.79
594.952	10876.96
595.311	10800.13
595.67	10931.2
596.029	10976.17
596.387	10951.08
596.746	10987.01
597.104	10963.74
597.463	10992.21
597.822	11009.84
598.18	11029.5
598.538	10981.14
598.897	11036.96
599.255	11015.04
599.613	11046.67
599.972	11095.49
600.33	11125.77
600.688	11082.6
601.046	11125.99
601.404	11227.69
601.762	11225.43
602.12	11242.15
602.478	11296.16
602.836	11230.85
603.194	11197.86
603.552	11229.04
603.91	11215.26
604.268	11253.9
604.625	11325.08
604.983	11290.28
605.341	11228.59
605.698	11269.04
606.056	11364.4
606.413	11324.18
606.771	11380.45
607.128	11354.69
607.485	11395.82
607.843	11342.26
608.2	11462.71
608.557	11484.63
608.914	11407.79
609.272	11469.26
609.629	11470.84
609.986	11528.24
610.343	11519.43
610.7	11550.84
611.057	11496.15
611.414	11548.35
611.771	11579.99
612.127	11624.96
612.484	11535.25
612.841	11530.5
613.198	11563.5
613.554	11605.08
613.911	11665.19
614.267	11606.21
614.624	11625.64
614.98	11685.3
615.337	11796.03
615.693	11702.47
616.05	11665.19
616.406	11734.11
616.762	11652.98
617.118	11692.08
617.475	11796.94
617.831	11772.08
618.187	11742.93
618.543	11788.57
618.899	11835.58
619.255	11782.25
619.611	11853.88
619.967	11850.04
620.323	11866.76
620.678	11826.77
621.034	11785.86
621.39	11826.77
621.746	11799.42
622.101	11991.28
622.457	11880.55
622.812	11801.91
623.168	11847.78
623.523	11857.27
623.879	11904.96
624.234	11800.33
624.589	11878.74
624.945	11821.34
625.3	11830.61
625.655	11807.33
626.01	11838.06
626.365	11872.87
626.72	11870.61
627.075	11882.13
627.43	11841.23
627.785	11836.93
628.14	11911.06
628.495	11869.48
628.85	11822.47
629.205	11729.59
629.559	11809.59
629.914	11771.17
630.269	11759.65
630.623	11805.97
630.978	11764.85
631.332	11842.58
631.687	11814.79
632.041	11740.21
632.396	11685.75
632.75	11697.28
633.104	11809.36
633.459	11668.35
633.813	11665.19
634.167	11687.56
634.521	11664.28
634.875	11640.1
635.229	11661.57
635.583	11566.43
635.937	11651.18
636.291	11565.08
636.645	11534.57
636.999	11507.68
637.352	11614.79
637.706	11518.07
638.06	11491.41
638.413	11487.11
638.767	11472.2
639.121	11536.15
639.474	11440.33
639.828	11541.58
640.181	11463.61
640.534	11452.31
640.888	11452.31
641.241	11414.57
641.594	11380
641.947	11449.37
642.301	11375.93
642.654	11429.49
643.007	11322.82
643.36	11321.02
643.713	11340
644.066	11294.35
644.419	11298.87
644.771	11245.99
645.124	11128.7
645.477	11137.52
645.83	11069.95
646.182	11154.24
646.535	10962.61
646.888	10977.3
647.24	10957.64
647.593	10958.09
647.945	10946.79
648.298	10919.22
648.65	10909.28
649.002	10934.13
649.355	10928.94
649.707	10926.45
650.059	11065.2
650.411	11183.17
650.763	11094.81
651.115	11274.01
651.467	11197.4
651.819	11168.93
652.171	11207.8
652.523	11074.92
652.875	11167.35
653.227	11121.02
653.578	11189.04
653.93	11228.81
654.282	11138.65
654.633	11163.96
654.985	11111.98
655.337	11157.18
655.688	11129.38
656.039	11214.13
656.391	11097.07
656.742	11156.73
657.094	11209.38
657.445	11138.65
657.796	11245.31
658.147	11250.06
658.498	11168.7
658.849	11267.91
659.2	11237.4
659.551	11196.95
659.902	11142.49
660.253	11141.36
660.604	11230.17
660.955	11138.65
661.306	11184.52
661.656	11134.13
662.007	11229.94
662.358	11137.07
662.708	11165.09
663.059	11194.69
663.409	11118.54
663.76	11168.03
664.11	11191.98
664.461	11190.85
664.811	11228.81
665.161	11191.98
665.511	11136.84
665.862	11178.87
666.212	11181.81
666.562	11167.12
666.912	11188.82
667.262	11155.14
667.612	11194.92
667.962	11297.06
668.312	11160.57
668.662	11245.09
669.011	11156.5
669.361	11184.07
669.711	11192.43
670.06	11130.51
670.41	11130.74
670.76	11085.32
671.109	11143.62
671.459	11130.74
671.808	11072.21
672.157	11082.6
672.507	11077.86
672.856	11058.65
673.205	11060.23
673.554	11049.38
673.904	11062.94
674.253	11130.06
674.602	10995.83
674.951	10958.31
675.3	10893.46
675.649	11056.16
675.998	10979.56
676.346	11034.24
676.695	11051.87
677.044	10972.32
677.393	11022.72
677.741	10954.92
678.09	11046.45
678.438	10880.58
678.787	10894.59
679.135	10960.57
679.484	10819.56
679.832	10852.55
680.181	10876.96
680.529	10893.23
680.877	10770.07
681.225	10810.97
681.573	10842.38
681.922	10812.1
682.27	10740.24
682.618	10743.4
682.966	10670.64
683.314	10729.84
683.661	10672.67
684.009	10555.39
684.357	10648.94
684.705	10594.03
685.053	10580.24
685.4	10587.93
685.748	10536.63
686.095	10577.53
686.443	10459.12
686.79	10490.53
687.138	10528.95
687.485	10518.55
687.832	10437.2
688.18	10457.54
688.527	10346.58
688.874	10417.76
689.221	10334.38
689.568	10304.77
689.915	10196.07
690.262	10248.28
690.609	10180.93
690.956	10216.64
691.303	10238.11
691.65	10105
691.997	10079.24
692.344	10059.81
692.69	9991.11
693.037	9982.52
693.383	9905.23
693.73	9969.86
694.077	9891.22
694.423	9838.79
694.769	9857.1
695.116	9826.37
695.462	9806.71
695.808	9760.6
696.155	9756.76
696.501	9732.13
696.847	9674.51
697.193	9609.87
697.539	9659.14
697.885	9566.49
698.231	9552.7
698.577	9522.65
698.923	9519.93
699.269	9404.46
699.614	9381.41
699.96	9371.24
700.306	9324.91
700.651	9369.2
700.997	9335.31
701.342	9314.97
701.688	9228.19
702.033	9177.12
702.379	9171.92
702.724	9173.28
703.069	9130.11
703.415	9069.32
703.76	9028.42
704.105	8994.07
704.45	9043.11
704.795	8987.74
705.14	8919.72
705.485	8929.44
705.83	8921.53
706.175	8934.86
706.52	8875.2
706.865	8819.16
707.209	8799.5
707.554	8733.29
707.899	8773.51
708.243	8767.64
708.588	8724.93
708.932	8595.89
709.277	8609.45
709.621	8632.5
709.966	8615.1
710.31	8600.18
710.654	8450.81
710.998	8571.03
711.342	8534.65
711.687	8521.32
712.031	8445.39
712.375	8403.35
712.719	8418.04
713.063	8393.64
713.407	8394.54
713.75	8324.94
714.094	8383.47
714.438	8351.15
714.782	8370.13
715.125	8279.51
715.469	8253.3
715.812	8308.67
716.156	8319.06
716.499	8204.49
716.843	8307.99
717.186	8237.71
717.53	8269.34
717.873	8240.87
718.216	8224.83
718.559	8177.14
718.902	8160.2
719.246	8194.54
719.589	8122.68
719.932	8124.26
720.275	8113.87
720.617	8074.1
720.96	8091.27
721.303	8086.98
721.646	8034.77
721.989	8040.42
722.331	8079.75
722.674	8051.72
723.016	8084.49
723.359	8040.88
723.701	7995
724.044	8002.46
724.386	7969.24
724.729	7990.71
725.071	7978.73
725.413	7952.52
725.755	7975.12
726.097	7966.3
726.439	7937.6
726.782	7860.99
727.124	7919.52
727.465	7957.04
727.807	7955.23
728.149	7924.95
728.491	7868.23
728.833	7909.13
729.175	7922.91
729.516	7876.13
729.858	7815.8
730.199	7831.84
730.541	7889.24
730.882	7853.31
731.224	7866.64
731.565	7873.42
731.906	7905.51
732.248	7882.46
732.589	7877.49
732.93	7762.01
733.271	7880.65
733.612	7744.16
733.953	7818.06
734.294	7852.18
734.635	7769.47
734.976	7837.49
735.317	7826.87
735.658	7837.04
735.999	7807.89
736.339	7732.18
736.68	7836.36
737.021	7858.51
737.361	7811.5
737.702	7780.32
738.042	7818.51
738.383	7832.52
738.723	7908.9
739.063	7839.75
739.404	7820.54
739.744	7840.2
740.084	7815.8
740.424	7782.13
740.764	7848.34
741.104	7924.27
741.444	7883.59
741.784	7853.31
742.124	7818.06
742.464	7897.15
742.804	7937.38
743.143	7927.21
743.483	7929.47
743.823	7956.13
744.162	7985.06
744.502	7996.58
744.841	7987.77
745.181	8118.61
745.52	8048.79
745.86	8095.34
746.199	8148.22
746.538	8150.25
746.877	8186.64
747.216	8267.76
747.556	8288.55
747.895	8326.97
748.234	8266.86
748.573	8416.46
748.911	8409.91
749.25	8500.07
749.589	8465.72
749.928	8569.22
750.267	8608.09
750.605	8693.74
750.944	8757.47
751.283	8820.29
751.621	8885.6
751.96	8921.53
752.298	9075.88
752.636	9187.29
752.975	9088.31
753.313	9165.37
753.651	9372.14
753.989	9406.04
754.327	9477.67
754.666	9619.82
755.004	9740.72
755.342	9871.56
755.679	9965.8
756.017	10078.79
756.355	10259.35
756.693	10282.17
757.031	10469.74
757.368	10444.2
757.706	10690.3
758.044	10766.45
758.381	11046.22
758.719	11135.71
759.056	11273.11
759.394	11386.78
759.731	11500.9
760.068	11629.71
760.405	11750.16
760.743	12005.97
761.08	12157.38
761.417	12313.76
761.754	12449.35
762.091	12555.56
762.428	12706.29
762.765	12899.28
763.102	13070.12
763.438	13128.65
763.775	13279.16
764.112	13505.59
764.449	13663.78
764.785	13775.87
765.122	13891.12
765.458	13946.94
765.795	14272.12
766.131	14346.02
766.467	14435.28
766.804	14551.21
767.14	14677.99
767.476	14876.4
767.812	14938.32
768.148	15070.07
768.485	15192.1
768.821	15266
769.157	15476.61
769.492	15541.7
769.828	15682.48
770.164	15743.95
770.5	15871.4
770.836	15902.14
771.171	15982.59
771.507	16154.34
771.842	16186.2
772.178	16312.75
772.513	16439.75
772.849	16574.66
773.184	16503.48
773.519	16649.69
773.855	16711.61
774.19	16768.56
774.525	16809.69
774.86	16961.77
775.195	17052.84
775.53	17101.2
775.865	17157.7
776.2	17041.32
776.535	17135.55
776.87	17240.86
777.205	17230.01
777.539	17307.3
777.874	17394.53
778.209	17231.59
778.543	17315.66
778.878	17246.06
779.212	17452.38
779.547	17453.74
779.881	17452.38
780.215	17460.06
780.55	17613.05
780.884	17550.91
781.218	17534.41
781.552	17664.35
781.886	17672.71
782.22	17493.96
782.554	17605.82
782.888	17468.42
783.222	17399.5
783.556	17418.03
783.889	17389.33
784.223	17439.95
784.557	17404.02
784.89	17541.19
785.224	17445.83
785.557	17435.21
785.891	17427.97
786.224	17415.32
786.558	17339.84
786.891	17295.55
787.224	17340.29
787.557	17340.52
787.891	17299.16
788.224	17389.33
788.557	17365.6
788.89	17415.32
789.223	17319.05
789.556	17274.76
789.888	17284.25
790.221	17235.66
790.554	17081.54
790.887	17145.04
791.219	17133.97
791.552	17173.07
791.884	17108.66
792.217	17095.55
792.549	16969.45
792.882	16973.52
793.214	16859.85
793.546	16905.5
793.879	16931.04
794.211	16837.93
794.543	16757.48
794.875	16860.31
795.207	16879.97
795.539	16729.24
795.871	16781.21
796.203	16715.9
796.535	16630.25
796.867	16542.8
797.198	16485.85
797.53	16518.17
797.862	16477.94
798.193	16369.7
798.525	16376.48
798.856	16405.63
799.188	16293.09
799.519	16248.12
799.85	16228.91
800.182	16159.98
800.513	16258.29
800.844	16116.82
801.175	16122.92
801.506	16170.61
801.837	15993.44
802.168	16063.04
802.499	15981.01
802.83	15875.92
803.161	15840.45
803.491	15947.56
803.822	15932.65
804.153	15795.47
804.483	15790.28
804.814	15557.51
805.145	15725.87
805.475	15692.2
805.805	15621.02
806.136	15555.25
806.466	15527.46
806.796	15567.46
807.126	15408.37
807.457	15365.2
807.787	15426.22
808.117	15344.64
808.447	15290.4
808.777	15366.33
809.107	15341.93
809.436	15193.46
809.766	15280.23
810.096	15153.46
810.426	15167.24
810.755	15181.48
811.085	15041.14
811.414	15019.9
811.744	14986.23
812.073	15014.7
812.403	15026.91
812.732	14958.66
813.061	14882.96
813.39	14822.39
813.719	14873.01
814.049	14948.04
814.378	14784.2
814.707	14839.79
815.036	14796.63
815.365	14711.44
815.693	14623.08
816.022	14639.35
816.351	14556.86
816.68	14445.91
817.008	14496.53
817.337	14381.05
817.665	14351.67
817.994	14398
818.322	14456.3
818.651	14442.06
818.979	14311.9
819.307	14421.5
819.636	14371.33
819.964	14266.7
820.292	14303.99
820.62	14306.7
820.948	14242.07
821.276	14255.85
821.604	14295.85
821.932	14362.74
822.259	14282.07
822.587	14323.2
822.915	14222.63
823.243	14366.59
823.57	14306.02
823.898	14283.42
824.225	14181.73
824.553	14270.77
824.88	14275.97
825.207	14285.23
825.535	14315.74
825.862	14327.72
826.189	14259.24
826.516	14387.38
826.843	14344.21
827.17	14312.35
827.497	14359.35
827.824	14359.35
828.151	14448.62
828.478	14316.64
828.805	14375.17
829.131	14342.63
829.458	14273.03
829.785	14264.67
830.111	14318.68
830.438	14338.56
830.764	14309.19
831.09	14304.44
831.417	14204.78
831.743	14241.84
832.069	14274.61
832.395	14146.48
832.722	14226.7
833.048	14178.79
833.374	14224.44
833.7	14141.28
834.026	14223.09
834.351	14191.9
834.677	14097.67
835.003	14208.17
835.329	14139.92
835.654	14167.04
835.98	14136.54
836.306	14071.68
836.631	14008.85
836.956	14092.47
837.282	14061.06
837.607	13950.33
837.932	13933.38
838.258	14006.59
838.583	13979.7
838.908	13907.39
839.233	13945.35
839.558	13859.03
839.883	13880.04
840.208	13800.72
840.533	13820.39
840.858	13908.29
841.182	13826.94
841.507	13789.88
841.832	13690.67
842.156	13731.57
842.481	13667.39
842.805	13711.01
843.13	13635.98
843.454	13670.11
843.778	13624.01
844.103	13617.45
844.427	13469.21
844.751	13530.22
845.075	13467.63
845.399	13438.47
845.723	13339.27
846.047	13394.18
846.371	13266.73
846.695	13193.74
847.019	13133.4
847.343	13085.72
847.666	13033.51
847.99	12971.59
848.313	13007.98
848.637	12859.51
848.96	12924.14
849.284	12885.49
849.607	12744.48
849.931	12749
850.254	12668.33
850.577	12558.27
850.9	12475.79
851.223	12465.17
851.546	12396.69
851.869	12326.64
852.192	12393.98
852.515	12281.22
852.838	12248.9
853.161	12205.51
853.483	12158.28
853.806	12082.8
854.129	12124.38
854.451	12015.23
854.774	11998.51
855.096	11939.98
855.419	11989.25
855.741	11929.59
856.063	11872.19
856.385	11846.88
856.708	11781.12
857.03	11770.72
857.352	11719.2
857.674	11679.65
857.996	11638.75
858.318	11615.7
858.64	11579.99
858.961	11488.47
859.283	11479.66
859.605	11460.67
859.926	11466.32
860.248	11444.18
860.57	11366.44
860.891	11349.94
861.212	11274.92
861.534	11315.59
861.855	11193.56
862.176	11308.13
862.498	11303.84
862.819	11279.44
863.14	11237.63
863.461	11241.7
863.782	11185.88
864.103	11239.21
864.424	11141.13
864.745	11122.15
865.065	11041.02
865.386	11042.38
865.707	11038.54
866.027	11066.56
866.348	11044.64
866.668	11094.36
866.989	10996.73
867.309	10953.57
867.63	10977.52
867.95	10906.11
868.27	10822.95
868.59	10864.53
868.91	10771.2
869.23	10818.88
869.55	10809.16
869.87	10806
870.19	10780.69
870.51	10839.67
870.83	10724.65
871.15	10755.16
871.469	10737.53
871.789	10725.1
872.109	10707.25
872.428	10628.6
872.748	10669.51
873.067	10619.11
873.386	10654.14
873.706	10600.13
874.025	10529.62
874.344	10530.53
874.663	10536.86
874.982	10568.04
875.301	10519.91
875.62	10441.27
875.939	10448.72
876.258	10454.82
876.577	10426.12
876.896	10414.15
877.214	10304.09
877.533	10413.02
877.852	10365.33
878.17	10368.27
878.489	10335.96
878.807	10378.44
879.125	10400.14
879.444	10355.84
879.762	10251.44
880.08	10245.11
880.398	10282.85
880.716	10206.47
881.034	10259.57
881.352	10229.52
881.67	10196.75
881.988	10100.93
882.306	10142.74
882.624	10071.78
882.941	9995.18
883.259	10000.6
883.577	9942.97
883.894	9963.76
884.212	10016.64
884.529	9975.29
884.846	9921.96
885.164	9935.97
885.481	9830.43
885.798	9876.76
886.115	9878.34
886.432	9831.56
886.75	9738.91
887.067	9771.9
887.383	9723.77
887.7	9700.72
888.017	9715.86
888.334	9674.28
888.651	9704.34
888.967	9656.65
889.284	9540.95
889.6	9541.18
889.917	9468.18
890.233	9489.65
890.55	9444.23
890.866	9486.49
891.182	9467.05
891.498	9383.89
891.815	9386.15
892.131	9280.39
892.447	9323.33
892.763	9262.54
893.079	9300.28
893.395	9230.22
893.71	9208.3
894.026	9217.57
894.342	9146.16
894.657	9071.13
894.973	9094.86
895.289	9046.27
895.604	9079.94
895.92	8997.24
896.235	8898.71
896.55	8892.38
896.865	8939.84
897.181	8872.27
897.496	8819.84
897.811	8810.35
898.126	8742.78
898.441	8794.08
898.756	8694.87
899.071	8627.53
899.386	8626.62
899.7	8593.86
900.015	8592.73
900.33	8511.82
900.644	8536.68
900.959	8502.33
901.273	8449.9
901.588	8391.83
901.902	8369.68
902.216	8349.57
902.531	8326.29
902.845	8223.47
903.159	8198.39
903.473	8223.92
903.787	8171.04
904.101	8145.05
904.415	8136.01
904.729	8074.1
905.042	8041.1
905.356	8036.81
905.67	8044.72
905.984	8011.95
906.297	7976.92
906.611	7889.69
906.924	7953.19
907.237	7845.63
907.551	7867.1
907.864	7875
908.177	7804.05
908.491	7741.45
908.804	7723.82
909.117	7687.89
909.43	7611.51
909.743	7609.02
910.056	7626.2
910.368	7571.96
910.681	7545.52
910.994	7512.98
911.307	7431.4
911.619	7423.72
911.932	7409.03
912.244	7328.35
912.557	7333.55
912.869	7303.04
913.181	7292.2
913.494	7226.89
913.806	7204.29
914.118	7140.33
914.43	7169.03
914.742	7133.78
915.054	7096.72
915.366	7037.96
915.678	7035.93
915.99	7001.36
916.302	6952.32
916.613	6964.75
916.925	6908.93
917.236	6893.11
917.548	6863.73
917.859	6850.62
918.171	6806.11
918.482	6803.62
918.794	6736.96
919.105	6782.15
919.416	6706.45
919.727	6652.21
920.038	6652.89
920.349	6564.76
920.66	6588.48
920.971	6597.3
921.282	6572.89
921.593	6510.07
921.903	6503.97
922.214	6486.11
922.525	6424.87
922.835	6380.81
923.146	6403.18
923.456	6367.47
923.767	6306.91
924.077	6304.42
924.387	6291.09
924.697	6275.95
925.008	6270.3
925.318	6216.29
925.628	6172.22
925.938	6191.89
926.248	6112.79
926.558	6083.64
926.867	6090.19
927.177	6025.79
927.487	5975.85
927.796	5963.64
928.106	5933.36
928.416	5934.49
928.725	5979.24
929.034	5864.66
929.344	5898.33
929.653	5868.96
929.962	5772.24
930.271	5800.94
930.581	5788.05
930.89	5749.18
931.199	5706.02
931.508	5714.84
931.817	5707.15
932.125	5642.97
932.434	5687.27
932.743	5645.23
933.051	5626.48
933.36	5563.2
933.669	5569.08
933.977	5528.63
934.286	5510.55
934.594	5533.82
934.902	5454.96
935.21	5473.94
935.519	5388.97
935.827	5425.8
936.135	5372.92
936.443	5378.35
936.751	5324.79
937.059	5366.37
937.367	5279.37
937.674	5271.68
937.982	5234.62
938.29	5208.86
938.597	5217.45
938.905	5186.94
939.213	5154.62
939.52	5110.33
939.827	5158.01
940.135	5064.46
940.442	5069.88
940.749	5015.19
941.056	5072.14
941.363	4984.23
941.67	4969.77
941.977	4956.66
942.284	4926.16
942.591	4884.57
942.898	4923.9
943.205	4901.75
943.511	4856.55
943.818	4872.37
944.125	4821.53
944.431	4768.87
944.738	4781.53
945.044	4738.82
945.35	4750.12
945.657	4763.9
945.963	4698.59
946.269	4648.42
946.575	4647.52
946.881	4647.29
947.187	4570.91
947.493	4580.18
947.799	4564.36
948.105	4550.12
948.41	4506.73
948.716	4522.55
949.022	4536.11
949.327	4502.66
949.633	4421.76
949.938	4444.13
950.244	4460.86
950.549	4379.96
950.854	4358.49
951.16	4357.36
951.465	4346.96
951.77	4346.06
952.075	4282.1
952.38	4305.38
952.685	4294.08
952.99	4231.71
953.294	4223.8
953.599	4258.15
953.904	4177.7
954.209	4138.61
954.513	4151.03
954.818	4148.1
955.122	4153.29
955.426	4139.28
955.731	4110.13
956.035	4040.98
956.339	4092.51
956.643	4030.36
956.948	4024.94
957.252	4020.42
957.556	4013.19
957.86	4006.63
958.163	3945.16
958.467	3967.54
958.771	3921.44
959.075	3909.46
959.378	3894.09
959.682	3861.33
959.985	3858.61
960.289	3841.44
960.592	3813.87
960.896	3808.9
961.199	3786.52
961.502	3767.32
961.805	3713.53
962.108	3705.17
962.411	3745.4
962.714	3689.58
963.017	3725.74
963.32	3660.2
963.623	3650.71
963.926	3649.35
964.228	3664.04
964.531	3598.73
964.833	3603.7
965.136	3540.2
965.438	3530.03
965.741	3563.25
966.043	3572.07
966.345	3525.74
966.648	3503.82
966.95	3485.74
967.252	3434.44
967.554	3477.38
967.856	3441.45
968.158	3358.97
968.46	3410.94
968.761	3373.43
969.063	3339.3
969.365	3384.73
969.666	3338.85
969.968	3331.62
970.269	3341.34
970.571	3298.85
970.872	3295.01
971.174	3255.01
971.475	3252.3
971.776	3248.23
972.077	3233.32
972.378	3245.3
972.679	3224.05
972.98	3195.13
973.281	3221.34
973.582	3167.33
973.883	3137.05
974.183	3121.46
974.484	3110.38
974.785	3122.14
975.085	3083.27
975.386	3086.2
975.686	3077.62
975.986	3084.17
976.287	3045.98
976.587	3004.17
976.887	3038.07
977.187	3016.6
977.487	2991.07
977.787	2954.46
978.087	2972.53
978.387	2933.44
978.687	2945.87
978.987	2890.5
979.286	2926.21
979.586	2875.59
979.885	2849.15
980.185	2850.28
980.484	2860.67
980.784	2854.57
981.083	2803.05
981.382	2798.98
981.682	2787.45
981.981	2778.42
982.28	2804.63
982.579	2776.38
982.878	2751.98
983.177	2770.73
983.475	2739.77
983.774	2720.79
984.073	2690.06
984.372	2715.82
984.67	2687.57
984.969	2681.7
985.267	2694.12
985.566	2621.58
985.864	2629.49
986.162	2627.91
986.461	2605.31
986.759	2609.61
987.057	2580.68
987.355	2556.73
987.653	2540.68
987.951	2514.02
988.249	2561.47
988.547	2533
988.844	2494.58
989.142	2514.92
989.44	2493.23
989.737	2445.09
990.035	2472.21
990.332	2444.64
990.63	2435.37
990.927	2438.76
991.224	2411.87
991.521	2424.53
991.819	2381.82
992.116	2429.72
992.413	2387.01
992.71	2380.23
993.006	2359.22
993.303	2310.86
993.6	2369.84
993.897	2315.6
994.193	2329.16
994.49	2313.8
994.787	2260.46
995.083	2285.1
995.379	2253.01
995.676	2287.36
995.972	2247.13
996.268	2240.58
996.565	2228.37
996.861	2223.85
997.157	2227.02
997.453	2198.77
997.749	2179.11
998.044	2181.6
998.34	2155.38
998.636	2136.62
998.932	2130.07
999.227	2085.1
999.523	2139.56
999.818	2122.16
1000.114	2111.09
1000.409	2047.59
1000.704	2034.03
1001	2077.19
1001.295	2042.84
1001.59	2060.24
1001.885	2010.98
1002.18	2019.11
1002.475	2019.79
1002.77	2011.43
1003.065	1979.34
1003.359	1951.32
1003.654	1967.36
1003.949	1962.62
1004.243	1936.18
1004.538	1928.72
1004.832	1917.65
1005.127	1890.53
1005.421	1866.12
1005.715	1878.1
1006.009	1878.55
1006.304	1872.22
1006.598	1869.51
1006.892	1832
1007.186	1856.63
1007.48	1843.52
1007.773	1792.23
1008.067	1814.6
1008.361	1810.76
1008.655	1777.76
1008.948	1791.77
1009.242	1766.69
1009.535	1751.78
1009.829	1751.1
1010.122	1753.81
1010.415	1733.25
1010.708	1703.19
1011.001	1680.59
1011.295	1663.42
1011.588	1709.74
1011.881	1676.98
1012.173	1659.8
1012.466	1637.65
1012.759	1636.3
1013.052	1636.07
1013.344	1608.5
1013.637	1613.25
1013.93	1604.21
1014.222	1618.9
1014.514	1608.95
1014.807	1563.98
1015.099	1574.61
1015.391	1581.16
1015.683	1520.14
1015.976	1554.04
1016.268	1552.91
1016.56	1524.21
1016.851	1529.86
1017.143	1522.18
1017.435	1487.83
1017.727	1488.05
1018.018	1482.18
1018.31	1458
1018.602	1465.68
1018.893	1431.56
1019.185	1442.18
1019.476	1405.34
1019.767	1409.86
1020.058	1423.65
1020.35	1416.19
1020.641	1396.08
1020.932	1388.17
1021.223	1382.97
1021.514	1350.88
1021.804	1352.01
1022.095	1373.48
1022.386	1364.22
1022.677	1328.96
1022.967	1350.43
1023.258	1323.99
1023.548	1311.11
1023.839	1294.61
1024.129	1293.26
1024.419	1290.55
1024.709	1293.03
1025	1258.46
1025.29	1262.3
1025.58	1255.97
1025.87	1247.16
1026.16	1236.99
1026.449	1254.16
1026.739	1217.1
1027.029	1215.97
1027.319	1203.32
1027.608	1182.98
1027.898	1208.51
1028.187	1174.62
1028.477	1175.52
1028.766	1175.29
1029.055	1132.58
1029.344	1154.73
1029.634	1146.14
1029.923	1158.57
1030.212	1127.39
1030.501	1103.66
1030.79	1101.62
1031.078	1102.53
1031.367	1102.3
1031.656	1112.02
1031.945	1115.41
1032.233	1066.6
1032.522	1077.44
1032.81	1078.35
1033.099	1078.57
1033.387	1066.82
1033.675	1049.2
1033.963	1034.28
1034.251	1038.35
1034.54	1043.32
1034.828	987.73
1035.116	999.03
1035.403	1010.1
1035.691	1006.48
1035.979	1004
1036.267	948.86
1036.554	978.69
1036.842	958.58
1037.129	955.41
1037.417	959.93
1037.704	969.88
1037.992	950.89
1038.279	962.42
1038.566	919.71
1038.853	919.71
1039.14	919.71
