Data from hue_28_FLMS001491_00081.txt Node
Date: Tue Feb 07 17:17:55 GMT 2017
User: dcchb
Spectrometer: FLMS00149
Trigger mode: 0
Integration Time (sec): 2.000000E-2
Scans to average: 10
Electric dark correction enabled: true
Nonlinearity correction enabled: false
Boxcar width: 0
XAxis mode: Wavelengths
Number of Pixels in Spectrum: 2048
>>>>>Begin Spectral Data<<<<<
341.393	-5.14
341.776	-5.14
342.16	-5.14
342.543	-74.07
342.927	-54.41
343.31	-67.06
343.693	-76.33
344.077	-83.11
344.46	-64.8
344.843	-54.63
345.226	-30.45
345.61	-36.78
345.993	-10.34
346.376	2.54
346.759	21.98
347.142	11.81
347.525	52.26
347.908	54.29
348.291	52.71
348.674	104.01
349.057	123.9
349.44	130.67
349.823	167.28
350.206	168.19
350.588	207.51
350.971	210.67
351.354	219.94
351.737	232.14
352.119	267.39
352.502	255.42
352.884	284.12
353.267	318.01
353.65	297.9
354.032	295.42
354.414	306.72
354.797	316.66
355.179	319.82
355.562	331.57
355.944	354.62
356.326	344.91
356.709	317.79
357.091	334.96
357.473	348.75
357.855	334.96
358.238	351.91
358.62	331.57
359.002	334.74
359.384	335.64
359.766	336.77
360.148	351.69
360.53	343.55
360.912	333.16
361.294	328.41
361.676	332.48
362.057	350.1
362.439	324.34
362.821	332.48
363.203	318.24
363.584	333.83
363.966	327.05
364.348	345.58
364.729	318.24
365.111	325.92
365.493	312.82
365.874	322.76
366.256	320.73
366.637	319.14
367.019	325.7
367.4	318.69
367.781	319.82
368.163	327.28
368.544	321.4
368.925	307.85
369.306	335.19
369.688	308.75
370.069	319.6
370.45	320.5
370.831	324.34
371.212	296.77
371.593	305.59
371.974	335.19
372.355	340.16
372.736	339.03
373.117	315.53
373.498	330.9
373.879	317.79
374.26	306.72
374.641	327.28
375.021	320.27
375.402	312.36
375.783	315.53
376.163	306.49
376.544	320.5
376.925	332.03
377.305	326.38
377.686	334.51
378.066	323.89
378.447	328.86
378.827	345.81
379.208	324.57
379.588	330.44
379.968	332.93
380.349	329.77
380.729	343.78
381.109	365.02
381.489	348.97
381.87	342.19
382.25	339.26
382.63	337.22
383.01	366.83
383.39	362.08
383.77	340.39
384.15	360.05
384.53	348.07
384.91	346.94
385.29	359.37
385.67	360.95
386.049	379.03
386.429	366.83
386.809	345.81
387.189	364.11
387.568	364.34
387.948	340.39
388.328	366.15
388.707	370.67
389.087	377
389.466	369.99
389.846	383.32
390.225	364.34
390.605	369.54
390.984	376.32
391.363	381.52
391.743	379.26
392.122	350.56
392.501	384.45
392.881	368.63
393.26	380.16
393.639	366.6
394.018	385.58
394.397	393.49
394.776	394.62
395.155	372.02
395.534	391.23
395.913	382.87
396.292	367.28
396.671	362.98
397.05	404.79
397.429	390.78
397.808	393.27
398.186	377.67
398.565	404.79
398.944	398.01
399.323	409.54
399.701	385.36
400.08	378.35
400.458	392.14
400.837	392.36
401.215	419.48
401.594	416.77
401.972	409.09
402.351	405.92
402.729	406.83
403.107	409.31
403.486	402.98
403.864	406.15
404.242	415.19
404.62	412.7
404.999	426.71
405.377	416.32
405.755	420.16
406.133	419.25
406.511	409.31
406.889	429.2
407.267	441.63
407.645	431.23
408.023	423.32
408.401	433.49
408.779	436.2
409.156	446.6
409.534	439.59
409.912	442.08
410.29	449.99
410.667	449.08
411.045	458.58
411.422	477.78
411.8	493.6
412.178	473.26
412.555	462.64
412.933	466.48
413.31	471
413.687	454.28
414.065	490.44
414.442	482.3
414.819	491.79
415.197	485.24
415.574	494.96
415.951	489.08
416.328	500.61
416.705	508.74
417.082	497.44
417.46	494.51
417.837	490.89
418.214	507.39
418.591	500.38
418.967	509.2
419.344	522.53
419.721	525.24
420.098	520.27
420.475	535.64
420.852	530.21
421.228	544.9
421.605	538.12
421.982	544.22
422.358	534.96
422.735	558.01
423.111	550.78
423.488	531.57
423.864	547.61
424.241	564.34
424.617	562.08
424.994	577.22
425.37	569.53
425.746	566.82
426.123	580.38
426.499	557.1
426.875	577.89
427.251	573.6
427.627	596.2
428.003	592.36
428.379	600.27
428.756	594.62
429.132	618.57
429.507	624.22
429.883	622.86
430.259	620.38
430.635	629.42
431.011	627.61
431.387	644.56
431.763	664.45
432.138	682.75
432.514	622.64
432.89	642.3
433.265	652.24
433.641	658.57
434.016	669.42
434.392	689.98
434.767	678.91
435.143	694.73
435.518	678.23
435.894	709.19
436.269	702.18
436.644	696.76
437.02	713.26
437.395	705.8
437.77	716.2
438.145	751.22
438.52	735.18
438.895	748.96
439.271	729.53
439.646	779.7
440.021	753.48
440.395	747.83
440.77	770.66
441.145	754.61
441.52	771.56
441.895	769.75
442.27	762.75
442.645	795.52
443.019	805.23
443.394	753.71
443.769	784.44
444.143	792.58
444.518	789.19
444.892	804.33
445.267	831.9
445.641	802.97
446.016	833.71
446.39	813.37
446.764	839.13
447.139	843.88
447.513	841.39
447.887	814.95
448.262	834.61
448.636	841.16
449.01	853.14
449.384	860.15
449.758	861.05
450.132	869.86
450.506	876.64
450.88	898.34
451.254	891.33
451.628	886.59
452.002	897.21
452.376	918.22
452.75	928.39
453.123	929.07
453.497	922.74
453.871	932.46
454.244	947.15
454.618	967.49
454.992	943.53
455.365	981.73
455.739	968.84
456.112	994.83
456.486	1023.31
456.859	993.93
457.232	1038.67
457.606	990.76
457.979	1037.09
458.352	1052.01
458.725	1060.37
459.099	1053.14
459.472	1092.01
459.845	1084.1
460.218	1101.04
460.591	1106.02
460.964	1106.92
461.337	1111.44
461.71	1155.96
462.083	1164.55
462.456	1174.49
462.829	1151.89
463.201	1187.37
463.574	1183.75
463.947	1196.18
464.32	1226.24
464.692	1216.52
465.065	1243.41
465.438	1247.26
465.81	1290.19
466.183	1288.61
466.555	1312.11
466.928	1326.8
467.3	1332
467.672	1362.28
468.045	1378.1
468.417	1337.2
468.789	1404.54
469.161	1392.11
469.534	1411.32
469.906	1457.65
470.278	1455.39
470.65	1471.66
471.022	1494.93
471.394	1543.07
471.766	1558.43
472.138	1577.64
472.51	1595.72
472.882	1648.83
473.253	1658.32
473.625	1636.17
473.997	1687.47
474.369	1714.14
474.74	1735.6
475.112	1771.54
475.484	1794.13
475.855	1820.35
476.227	1873
476.598	1878.43
476.97	1921.81
477.341	1972.66
477.713	1977.63
478.084	1993.68
478.455	2049.04
478.827	2114.8
479.198	2160
479.569	2169.26
479.94	2231.18
480.311	2255.14
480.682	2320.45
481.053	2370.84
481.424	2383.72
481.795	2457.84
482.166	2507.11
482.537	2523.38
482.908	2557.5
483.279	2615.35
483.65	2665.98
484.021	2742.58
484.391	2758.85
484.762	2820.32
485.133	2817.16
485.503	2927.89
485.874	2970.83
486.244	2995.46
486.615	3087.66
486.985	3156.13
487.356	3224.15
487.726	3222.34
488.097	3311.16
488.467	3343.25
488.837	3416.01
489.207	3444.71
489.578	3501.89
489.948	3548.66
490.318	3617.59
490.688	3657.14
491.058	3715.21
491.428	3801.54
491.798	3812.39
492.168	3908.65
492.538	3917.69
492.908	3966.96
493.278	4081.08
493.648	4053.96
494.017	4115.43
494.387	4180.29
494.757	4211.92
495.126	4274.97
495.496	4317.91
495.866	4350
496.235	4428.19
496.605	4463.67
496.974	4502.54
497.344	4480.84
497.713	4547.96
498.082	4600.61
498.452	4654.4
498.821	4654.85
499.19	4732.14
499.559	4702.08
499.928	4756.99
500.298	4795.18
500.667	4857.56
501.036	4877.44
501.405	4913.37
501.774	4973.03
502.143	4987.95
502.512	5010.09
502.88	5084.67
503.249	5113.37
503.618	5156.53
503.987	5138.45
504.356	5208.28
504.724	5217.09
505.093	5279.47
505.462	5274.49
505.83	5321.05
506.199	5326.24
506.567	5413.93
506.936	5438.56
507.304	5470.87
507.672	5452.57
508.041	5493.92
508.409	5534.83
508.777	5621.38
509.145	5589.06
509.514	5635.61
509.882	5730.98
510.25	5692.11
510.618	5718.1
510.986	5690.08
511.354	5787.47
511.722	5779.57
512.09	5873.12
512.458	5824.31
512.826	5867.25
513.193	5964.87
513.561	5952.44
513.929	6024.08
514.297	6002.61
514.664	6038.77
515.032	6008.26
515.4	6099.11
515.767	6110.18
516.135	6119.22
516.502	6146.79
516.869	6156.73
517.237	6253
517.604	6222.94
517.972	6299.55
518.339	6272.66
518.706	6317.18
519.073	6318.99
519.44	6373.45
519.808	6432.66
520.175	6457.06
520.542	6526.44
520.909	6523.95
521.276	6503.61
521.643	6575.7
522.009	6612.54
522.376	6664.74
522.743	6634.23
523.11	6726.43
523.477	6819.31
523.843	6803.27
524.21	6918.29
524.577	6913.32
524.943	6885.53
525.31	6928.01
525.676	6989.25
526.043	6994.45
526.409	7074.67
526.776	7093.2
527.142	7078.97
527.508	7177.49
527.874	7155.57
528.241	7259.53
528.607	7280.32
528.973	7321.22
529.339	7350.6
529.705	7390.37
530.071	7464.04
530.437	7500.88
530.803	7538.84
531.169	7529.12
531.535	7516.47
531.901	7571.61
532.267	7694.32
532.632	7685.05
532.998	7699.06
533.364	7744.03
533.73	7761.43
534.095	7776.8
534.461	7854.31
534.826	7947.19
535.192	7964.82
535.557	7995.78
535.923	7943.58
536.288	7995.78
536.653	8094.31
537.019	7998.94
537.384	8118.71
537.749	8138.6
538.114	8164.59
538.479	8210.91
538.845	8191.03
539.21	8230.12
539.575	8268.77
539.94	8328.88
540.305	8355.99
540.67	8348.09
541.034	8413.62
541.399	8445.26
541.764	8503.56
542.129	8495.88
542.494	8541.07
542.858	8612.94
543.223	8584.46
543.587	8659.04
543.952	8612.94
544.316	8689.09
544.681	8755.31
545.045	8804.8
545.41	8804.57
545.774	8859.71
546.138	8880.73
546.503	8868.75
546.867	8889.54
547.231	9002.98
547.595	8922.99
547.959	9058.58
548.324	9008.18
548.688	9122.53
549.052	9098.12
549.416	9064.68
549.779	9134.96
550.143	9164.79
550.507	9238.46
550.871	9300.83
551.235	9258.8
551.599	9368.62
551.962	9296.31
552.326	9360.26
552.689	9443.2
553.053	9384.67
553.417	9487.72
553.78	9606.36
554.143	9528.17
554.507	9628.96
554.87	9619.46
555.234	9677.99
555.597	9587.83
555.96	9656.98
556.323	9743.98
556.686	9692.91
557.05	9785.11
557.413	9807.48
557.776	9854.26
558.139	9909.4
558.502	9898.1
558.865	9931.32
559.228	9996.86
559.59	9979.68
559.953	10028.95
560.316	10173.8
560.679	10174.93
561.041	10151.65
561.404	10180.81
561.767	10266.23
562.129	10261.48
562.492	10379.44
562.854	10343.51
563.217	10325.21
563.579	10410.4
563.941	10485.43
564.304	10456.5
564.666	10596.84
565.028	10525.88
565.39	10580.12
565.753	10649.04
566.115	10722.71
566.477	10776.27
566.839	10738.76
567.201	10886.1
567.563	10901.46
567.925	10916.61
568.287	10853.56
568.648	10931.52
569.01	11089.03
569.372	11054.68
569.734	11074.34
570.095	11159.31
570.457	11173.1
570.819	11198.18
571.18	11312.08
571.542	11328.12
571.903	11419.64
572.265	11429.36
572.626	11438.85
572.987	11512.97
573.349	11645.4
573.71	11629.13
574.071	11705.96
574.432	11750.93
574.794	11894.88
575.155	11905.73
575.516	11861.21
575.877	11963.13
576.238	12068.67
576.599	12166.06
576.96	12236.57
577.32	12211.94
577.681	12460.52
578.042	12456.23
578.403	12611.93
578.763	12723.11
579.124	12776.9
579.485	12962.65
579.845	13020.96
580.206	13126.04
580.566	13187.28
580.927	13325.36
581.287	13554.73
581.648	13581.85
582.008	13868.84
582.368	13955.4
582.728	14032.46
583.089	14262.05
583.449	14406.23
583.809	14589.28
584.169	14792.89
584.529	14922.15
584.889	15123.95
585.249	15265.42
585.609	15427.9
585.969	15737.27
586.329	15932.97
586.688	16103.81
587.048	16343.13
587.408	16469.45
587.768	16932.72
588.127	17009.78
588.487	17200.28
588.846	17577
589.206	17745.13
589.565	18054.95
589.925	18328.16
590.284	18527.03
590.643	18886.57
591.003	19058.76
591.362	19437.29
591.721	19696.94
592.08	19984.62
592.44	20200.2
592.799	20470.25
593.158	20719.51
593.517	21084.47
593.876	21447.85
594.235	21698.69
594.593	22040.15
594.952	22370.99
595.311	22575.96
595.67	22832.68
596.029	23317.64
596.387	23573
596.746	23859.77
597.104	24127.11
597.463	24344.5
597.822	24805.51
598.18	25018.83
598.538	25272.84
598.897	25709.66
599.255	25746.95
599.613	26442.53
599.972	26565.69
600.33	26828.05
600.688	27076.18
601.046	27435.95
601.404	27797.29
601.762	27932.66
602.12	28454.9
602.478	28826.87
602.836	28933.98
603.194	29065.28
603.552	29436.12
603.91	29423.92
604.268	30032.04
604.625	30030.91
604.983	30432.48
605.341	30623.66
605.698	31026.13
606.056	31279.91
606.413	31459.34
606.771	31830.63
607.128	32080.34
607.485	32036.05
607.843	32382.26
608.2	32834.22
608.557	33085.51
608.914	33166.64
609.272	33594.2
609.629	33796.46
609.986	33993.74
610.343	33962.78
610.7	34425.37
611.057	34623.33
611.414	34810.21
611.771	35034.39
612.127	35306.47
612.484	35423.08
612.841	35727.48
613.198	35882.73
613.554	35999.34
613.911	36331.98
614.267	36522.71
614.624	36595.48
614.98	36802.93
615.337	37029.82
615.693	37156.14
616.05	37333.99
616.406	37674.77
616.762	37618.05
617.118	37777.14
617.475	37742.57
617.831	38239.28
618.187	38266.62
618.543	38399.05
618.899	38662.32
619.255	38714.74
619.611	38906.15
619.967	39009.65
620.323	39292.36
620.678	39091.01
621.034	39200.61
621.39	39418
621.746	39360.38
622.101	39820.25
622.457	39655.74
622.812	39809.41
623.168	40046.24
623.523	40110.19
623.879	40178.21
624.234	40068.38
624.589	40312.89
624.945	40349.73
625.3	40525.32
625.655	40556.28
626.01	40613.9
626.365	40728.48
626.72	40815.03
627.075	40837.85
627.43	40862.48
627.785	40769.61
628.14	41168.01
628.495	41120.11
628.85	41081.91
629.205	40986.78
629.559	41346.99
629.914	41078.52
630.269	41372.3
630.623	41274
630.978	41203.27
631.332	41394.67
631.687	41559.87
632.041	41417.95
632.396	41568.23
632.75	41296.6
633.104	41590.6
633.459	41382.47
633.813	41454.79
634.167	41444.84
634.521	41539.3
634.875	41634.22
635.229	41595.35
635.583	41452.07
635.937	41384.28
636.291	41397.16
636.645	41396.71
636.999	41485.75
637.352	41599.19
637.706	41298.41
638.06	41640.32
638.413	41528
638.767	41423.37
639.121	41534.78
639.474	41248.24
639.828	41290.95
640.181	41499.76
640.534	41500.89
640.888	41282.81
641.241	41321.68
641.594	41232.19
641.947	41426.76
642.301	41345.18
642.654	41343.83
643.007	41290.04
643.36	41339.31
643.713	41252.98
644.066	41368.46
644.419	41050.73
644.771	40903.39
645.124	40542.04
645.477	40681.92
645.83	40382.05
646.182	40186.12
646.535	40234.48
646.888	40206.91
647.24	40046.24
647.593	40324.65
647.945	40182.5
648.298	40053.01
648.65	40000.59
649.002	39981.6
649.355	40008.95
649.707	40052.79
650.059	40217.98
650.411	40737.29
650.763	40718.99
651.115	40919.43
651.467	40925.76
651.819	41055.25
652.171	40806.67
652.523	40912.88
652.875	40737.06
653.227	40695.26
653.578	40978.41
653.93	40939.09
654.282	40757.18
654.633	40709.04
654.985	40668.37
655.337	40703.62
655.688	40667.69
656.039	40819.1
656.391	40490.07
656.742	40587.01
657.094	40645.32
657.445	40661.13
657.796	40679.89
658.147	40566.67
658.498	40503.17
658.849	40673.56
659.2	40643.28
659.551	40491.87
659.902	40643.96
660.253	40682.38
660.604	40705.2
660.955	40359.22
661.306	40658.65
661.656	40590.85
662.007	40569.16
662.358	40524.87
662.708	40573.68
663.059	40650.29
663.409	40365.1
663.76	40737.06
664.11	40702.72
664.461	40607.8
664.811	40551.76
665.161	40473.12
665.511	40400.8
665.862	40598.09
666.212	40657.07
666.562	40585.88
666.912	40455.49
667.262	40420.46
667.612	40513.34
667.962	40473.57
668.312	40402.38
668.662	40622.49
669.011	40566.22
669.361	40442.61
669.711	40413.46
670.06	40373.46
670.41	40361.26
670.76	40177.53
671.109	40437.86
671.459	40417.98
671.808	40276.29
672.157	40308.83
672.507	40076.06
672.856	40267.7
673.205	40257.76
673.554	40196.06
673.904	40132.56
674.253	40356.51
674.602	40164.42
674.951	39521.28
675.3	39407.83
675.649	40214.82
675.998	40133.92
676.346	40158.1
676.695	40169.62
677.044	39866.35
677.393	40067.25
677.741	40272.44
678.09	40012.79
678.438	39776.41
678.787	39851.66
679.135	39848.05
679.484	39763.53
679.832	39894.15
680.181	39611.22
680.529	39639.47
680.877	39650.31
681.225	39679.01
681.573	39818.44
681.922	39556.53
682.27	39337.55
682.618	39561.95
682.966	39297.78
683.314	39487.83
683.661	39521.28
684.009	39058.69
684.357	39125.58
684.705	39016.66
685.053	39162.64
685.4	39046.71
685.748	38736.44
686.095	38883.1
686.443	38773.05
686.79	38676.55
687.138	38767.4
687.485	38708.42
687.832	38480.17
688.18	38532.83
688.527	38322.66
688.874	38421.87
689.221	38269.11
689.568	38232.72
689.915	37925.84
690.262	38159.96
690.609	38056.01
690.956	37816.01
691.303	37757.93
691.65	37688.33
691.997	37718.84
692.344	37435.46
692.69	37407.66
693.037	37405.63
693.383	37220.55
693.73	37267.78
694.077	37075.24
694.423	37234.78
694.769	36962.93
695.116	36848.58
695.462	36871.86
695.808	36791.18
696.155	36752.99
696.501	36469.38
696.847	36365.2
697.193	36230.74
697.539	36446.56
697.885	36263.51
698.231	36087.47
698.577	36089.28
698.923	36003.63
699.269	35761.38
699.614	35683.86
699.96	35535.85
700.306	35676.63
700.651	35348.96
700.997	35400.71
701.342	35403.87
701.688	35236.87
702.033	35168.85
702.379	35076.65
702.724	34960.95
703.069	35059.25
703.415	34669.65
703.76	34736.32
704.105	34794.17
704.45	34726.83
704.795	34447.06
705.14	34410.9
705.485	34296.33
705.83	34143.57
706.175	34174.98
706.52	34186.05
706.865	33995.09
707.209	33818.6
707.554	33862.44
707.899	34035.32
708.243	33713.29
708.588	33700.19
708.932	33530.93
709.277	33417.71
709.621	33522.11
709.966	33331.84
710.31	33204.61
710.654	32984.05
710.998	33153.54
711.342	33138.85
711.687	33072.63
712.031	32947.44
712.375	32762.81
712.719	32810.27
713.063	32747.67
713.407	32759.42
713.75	32554.91
714.094	32515.13
714.438	32386.55
714.782	32516.72
715.125	32238.53
715.469	32405.76
715.812	32247.57
716.156	32144.52
716.499	32022.94
716.843	32165.31
717.186	31948.82
717.53	32118.53
717.873	32053.45
718.216	32025.88
718.559	31726.23
718.902	31639
719.246	31751.31
719.589	31657.76
719.932	31494.6
720.275	31487.14
720.617	31417.76
720.96	31393.13
721.303	31360.36
721.646	31330.31
721.989	31126.7
722.331	31289.18
722.674	31177.32
723.016	31179.35
723.359	31152.23
723.701	31096.41
724.044	30893.03
724.386	30879.92
724.729	31016.42
725.071	30978.23
725.413	30830.43
725.755	30883.31
726.097	30694.62
726.439	30575.75
726.782	30699.81
727.124	30644.67
727.465	30482.87
727.807	30473.38
728.149	30507.5
728.491	30283.55
728.833	30450.33
729.175	30187.74
729.516	30187.29
729.858	30294.4
730.199	30273.61
730.541	30192.71
730.882	30043.79
731.224	30199.26
731.565	30044.92
731.906	29921.53
732.248	30032.04
732.589	29846.96
732.93	29732.61
733.271	29752.04
733.612	29771.48
733.953	29848.76
734.294	29764.92
734.635	29561.31
734.976	29620.07
735.317	29568.32
735.658	29515.66
735.999	29515.44
736.339	29471.6
736.68	29580.75
737.021	29322
737.361	29239.74
737.702	29308.89
738.042	29408.32
738.383	29296.01
738.723	29307.31
739.063	29142.12
739.404	29074.09
739.744	28990.25
740.084	28978.96
740.424	29089.69
740.764	28938.96
741.104	29033.19
741.444	28917.49
741.784	28761.33
742.124	28832.07
742.464	28850.6
742.804	28710.04
743.143	28710.49
743.483	28684.5
743.823	28556.82
744.162	28543.71
744.502	28581.23
744.841	28457.84
745.181	28518.18
745.52	28432.98
745.86	28449.93
746.199	28380.78
746.538	28346.66
746.877	28300.56
747.216	28435.92
747.556	28339.88
747.895	28167.45
748.234	28107.79
748.573	28126.55
748.911	28144.18
749.25	28082.71
749.589	27961.13
749.928	28061.47
750.267	28092.43
750.605	27999.09
750.944	27792.77
751.283	27869.38
751.621	27964.29
751.96	27663.06
752.298	27613.57
752.636	27682.49
752.975	27573.79
753.313	27414.02
753.651	27643.85
753.989	27500.58
754.327	27397.3
754.666	27376.74
755.004	27350.07
755.342	27371.09
755.679	27273.24
756.017	27282.73
756.355	27234.59
756.693	27129.29
757.031	27164.77
757.368	27021.94
757.706	26934.49
758.044	26867.82
758.381	26943.98
758.719	26808.39
759.056	26813.59
759.394	26709.18
759.731	26564.1
760.068	26506.93
760.405	26446.82
760.743	26363.21
761.08	26371.79
761.417	26208.41
761.754	26220.16
762.091	26172.7
762.428	26014.97
762.765	25920.5
763.102	25959.37
763.438	25930
763.775	25788.08
764.112	25778.81
764.449	25718.93
764.785	25586.73
765.122	25477.13
765.458	25350.12
765.795	25437.58
766.131	25400.29
766.467	25315.78
766.804	25117.59
767.14	25099.06
767.476	25009.12
767.812	24951.26
768.148	24963.92
768.485	24804.15
768.821	24638.05
769.157	24688.22
769.492	24489.81
769.828	24457.04
770.164	24292.53
770.5	24232.41
770.836	24244.16
771.171	24127.56
771.507	23940.22
771.842	23958.07
772.178	23928.47
772.513	23876.49
772.849	23733.9
773.184	23697.29
773.519	23704.07
773.855	23410.29
774.19	23264.76
774.525	23339.56
774.86	23319.67
775.195	23246.68
775.53	23211.88
775.865	23143.4
776.2	22927.14
776.535	22768.05
776.87	22815.28
777.205	22680.14
777.539	22633.13
777.874	22589.29
778.209	22351.79
778.543	22407.38
778.878	22183.88
779.212	22196.31
779.547	22107.5
779.881	22133.94
780.215	21911.57
780.55	22020.27
780.884	21808.3
781.218	21827.05
781.552	21806.71
781.886	21694.85
782.22	21608.08
782.554	21472.26
782.888	21258.25
783.222	21273.4
783.556	21071.82
783.889	21036.57
784.223	20894.65
784.557	20909.34
784.89	20875.44
785.224	20757.7
785.557	20585.28
785.891	20747.08
786.224	20558.84
786.558	20547.09
786.891	20341.67
787.224	20248.11
787.557	20246.08
787.891	20270.03
788.224	20186.64
788.557	20209.47
788.89	20121.11
789.223	20095.57
789.556	19980.1
789.888	19912.08
790.221	19810.84
790.554	19692.65
790.887	19677.05
791.219	19692.65
791.552	19558.64
791.884	19352.32
792.217	19428.25
792.549	19243.62
792.882	19239.1
793.214	19144.19
793.546	19180.8
793.879	19001.14
794.211	18922.72
794.543	18968.15
794.875	18779.9
795.207	18890.41
795.539	18654.26
795.871	18693.12
796.203	18591.21
796.535	18457.42
796.867	18393.25
797.198	18466.01
797.53	18397.54
797.862	18307.6
798.193	18345.11
798.525	18209.75
798.856	18198.45
799.188	17908.74
799.519	17908.51
799.85	17860.6
800.182	17916.87
800.513	17834.16
800.844	17733.6
801.175	17798.01
801.506	17786.93
801.837	17637.56
802.168	17693.15
802.499	17564.79
802.83	17477.11
803.161	17452.03
803.491	17352.59
803.822	17306.72
804.153	17267.4
804.483	17123.45
804.814	17101.98
805.145	17051.36
805.475	17031.47
805.805	17030.12
806.136	16993.51
806.466	16978.59
806.796	17014.3
807.126	16778.37
807.457	16798.94
807.787	16682.1
808.117	16623.12
808.447	16607.76
808.777	16609.79
809.107	16639.17
809.436	16485.72
809.766	16399.17
810.096	16330.25
810.426	16376.12
810.755	16208.44
811.085	16253.87
811.414	16210.7
811.744	16080.31
812.073	16114.21
812.403	16094.77
812.732	15986.53
813.061	16055.91
813.39	15885.97
813.719	15970.03
814.049	16034.66
814.378	15863.37
814.707	15790.83
815.036	15710.15
815.365	15634.9
815.693	15618.85
816.022	15530.27
816.351	15467.22
816.68	15496.82
817.008	15431.29
817.337	15311.74
817.665	15352.42
817.994	15379.31
818.322	15309.26
818.651	15244.18
818.979	15130.05
819.307	15231.07
819.636	15227.68
819.964	15133.22
820.292	15218.87
820.62	15173.67
820.948	15111.52
821.276	15198.98
821.604	15050.73
821.932	15127.34
822.259	15109.94
822.587	15153.56
822.915	15020.23
823.243	15087.8
823.57	15138.42
823.898	15024.52
824.225	14941.81
824.553	15015.03
824.88	14992.66
825.207	15089.15
825.535	14950.17
825.862	15005.76
826.189	14947.91
826.516	14989.72
826.843	15077.17
827.17	15076.5
827.497	15046.67
827.824	15036.5
828.151	15051.19
828.478	14948.14
828.805	15099.09
829.131	14987.46
829.458	14963.5
829.785	14886.9
830.111	14896.16
830.438	14980.68
830.764	14946.56
831.09	14918.53
831.417	14883.96
831.743	14962.15
832.069	14951.98
832.395	14931.42
832.722	14854.81
833.048	14805.77
833.374	14853
833.7	14843.96
834.026	14853.68
834.351	14789.27
834.677	14746.11
835.003	14844.19
835.329	14764.64
835.654	14736.62
835.98	14669.95
836.306	14752.44
836.631	14618.66
836.956	14670.86
837.282	14692.33
837.607	14616.85
837.932	14570.29
838.258	14603.51
838.583	14622.27
838.908	14469.28
839.233	14454.59
839.558	14370.98
839.883	14462.95
840.208	14433.12
840.533	14373.46
840.858	14332.11
841.182	14401.26
841.507	14281.94
841.832	14255.95
842.156	14224.54
842.481	14243.3
842.805	14212.79
843.13	14184.09
843.454	14182.06
843.778	13989.97
844.103	14032
844.427	14001.72
844.751	14017.54
845.075	13973.47
845.399	13923.31
845.723	13827.72
846.047	13923.76
846.371	13792.24
846.695	13711.56
847.019	13620.72
847.343	13619.59
847.666	13449.65
847.99	13466.37
848.313	13497.55
848.637	13348.86
848.96	13366.03
849.284	13226.15
849.607	13253.49
849.931	13217.34
850.254	13107.51
850.577	12979.15
850.9	12961.3
851.223	12928.53
851.546	12886.72
851.869	12760.62
852.192	12821.41
852.515	12762.21
852.838	12648.99
853.161	12639.5
853.483	12569.9
853.806	12501.2
854.129	12496.9
854.451	12442.89
854.774	12403.35
855.096	12310.69
855.419	12345.27
855.741	12341.65
856.063	12281.54
856.385	12267.3
856.708	12204.26
857.03	12248.1
857.352	12199.96
857.674	12116.12
857.996	12086.97
858.318	11988.67
858.64	11952.28
858.961	11949.8
859.283	11952.96
859.605	11912.06
859.926	11907.77
860.248	11856.47
860.57	11800.42
860.891	11762.23
861.212	11732.63
861.534	11654.67
861.855	11717.71
862.176	11612.18
862.498	11637.49
862.819	11640.88
863.14	11549.58
863.461	11593.42
863.782	11520.43
864.103	11541.22
864.424	11511.39
864.745	11538.06
865.065	11425.74
865.386	11342.13
865.707	11392.75
866.027	11435.24
866.348	11396.59
866.668	11321.57
866.989	11323.83
867.309	11270.72
867.63	11254.22
867.95	11216.26
868.27	11187.33
868.59	11224.62
868.91	11119.31
869.23	11187.56
869.55	11117.73
869.87	11140.78
870.19	11129.71
870.51	11121.12
870.83	11107.11
871.15	10935.36
871.469	11049.71
871.789	11031.4
872.109	10994.12
872.428	10941.24
872.748	11007.22
873.067	11005.64
873.386	10999.54
873.706	10909.15
874.025	10832.31
874.344	10819.21
874.663	10893.56
874.982	10797.74
875.301	10801.58
875.62	10803.39
875.939	10697.18
876.258	10775.37
876.577	10753.67
876.896	10764.07
877.214	10751.19
877.533	10801.58
877.852	10758.19
878.17	10662.6
878.489	10616.05
878.807	10700.79
879.125	10603.39
879.444	10640.45
879.762	10601.81
880.08	10554.81
880.398	10478.65
880.716	10581.25
881.034	10465.32
881.352	10505.32
881.67	10492.89
881.988	10416.51
882.306	10388.26
882.624	10370.41
882.941	10414.7
883.259	10325.43
883.577	10271.2
883.894	10309.16
884.212	10348.71
884.529	10281.59
884.846	10223.74
885.164	10226.45
885.481	10162.95
885.798	10162.28
886.115	10145.1
886.432	10140.13
886.75	10047.02
887.067	10026.01
887.383	9970.19
887.7	10038.66
888.017	9946.69
888.334	10018.55
888.651	9992.56
888.967	9885.22
889.284	9905.56
889.6	9836.41
889.917	9774.49
890.233	9804.32
890.55	9814.49
890.866	9733.13
891.182	9756.18
891.498	9677.77
891.815	9623.98
892.131	9581.27
892.447	9617.88
892.763	9561.61
893.079	9553.48
893.395	9526.59
893.71	9440.49
894.026	9481.39
894.342	9513.7
894.657	9433.03
894.973	9413.59
895.289	9378.11
895.604	9248.4
895.92	9283.2
896.235	9255.63
896.55	9201.62
896.865	9222.19
897.181	9119.14
897.496	9214.73
897.811	9154.17
898.126	9061.97
898.441	9080.95
898.756	9027.16
899.071	8974.51
899.386	8998.69
899.7	8868.75
900.015	8935.87
900.33	8781.52
900.644	8795.08
900.959	8788.98
901.273	8723.44
901.588	8694.07
901.902	8708.3
902.216	8671.24
902.531	8646.61
902.845	8537.23
903.159	8538.82
903.473	8515.99
903.787	8496.33
904.101	8414.07
904.415	8462.43
904.729	8403
905.042	8339.27
905.356	8300.63
905.67	8305.15
905.984	8261.08
906.297	8210.69
906.611	8211.82
906.924	8179.73
907.237	8162.1
907.551	8108.54
907.864	8114.42
908.177	8059.51
908.491	8067.64
908.804	8038.26
909.117	7911.71
909.43	7989.68
909.743	7966.85
910.056	7928.21
910.368	7857.25
910.681	7781.09
910.994	7769.12
911.307	7730.02
911.619	7702
911.932	7704.71
912.244	7640.76
912.557	7592.17
912.869	7555.79
913.181	7591.5
913.494	7532.97
913.806	7488.9
914.118	7478.28
914.43	7463.36
914.742	7411.39
915.054	7344.72
915.366	7378.39
915.678	7325.06
915.99	7239.87
916.302	7250.49
916.613	7176.14
916.925	7235.12
917.236	7137.27
917.548	7095.69
917.859	7134.56
918.171	7062.92
918.482	7019.31
918.794	7023.6
919.105	7022.24
919.416	6967.78
919.727	6926.43
920.038	6890.5
920.349	6863.83
920.66	6826.32
920.971	6864.51
921.282	6770.27
921.593	6752.42
921.903	6683.27
922.214	6735.02
922.525	6674.46
922.835	6608.92
923.146	6597.62
923.456	6620.9
923.767	6509.26
924.077	6537.29
924.387	6468.81
924.697	6492.54
925.008	6389.49
925.318	6402.37
925.628	6414.8
925.938	6318.31
926.248	6297.52
926.558	6278.99
926.867	6362.38
927.177	6215.71
927.487	6193.79
927.796	6143.62
928.106	6169.16
928.416	6144.53
928.725	6138.43
929.034	6101.82
929.344	6133.68
929.653	6068.6
929.962	6063.85
930.271	5998.54
930.581	5946.57
930.89	5922.61
931.199	5891.88
931.508	5869.96
931.817	5866.34
932.125	5843.29
932.434	5835.61
932.743	5768.49
933.051	5760.13
933.36	5713.35
933.669	5725.56
933.977	5648.04
934.286	5640.59
934.594	5611.43
934.902	5639.46
935.21	5587.93
935.519	5566.46
935.827	5564.43
936.135	5493.92
936.443	5463.42
936.751	5478.1
937.059	5480.82
937.367	5415.73
937.674	5357.2
937.982	5395.39
938.29	5373.93
938.597	5359.92
938.905	5275.4
939.213	5313.14
939.52	5294.38
939.827	5278.79
940.135	5241.05
940.442	5199.24
940.749	5182.07
941.056	5219.58
941.363	5158.34
941.67	5066.36
941.977	5114.5
942.284	5029.08
942.591	4999.47
942.898	5032.01
943.205	5013.48
943.511	4993.6
943.818	4939.81
944.125	4917.89
944.431	4893.49
944.738	4895.07
945.044	4857.33
945.35	4883.32
945.657	4846.03
945.963	4830.66
946.269	4775.3
946.575	4827.05
946.881	4765.58
947.187	4753.38
947.493	4700.72
947.799	4675.64
948.105	4687.39
948.41	4650.1
948.716	4647.17
949.022	4650.1
949.327	4592.7
949.633	4572.59
949.938	4525.14
950.244	4547.06
950.549	4495.98
950.854	4510.22
951.16	4474.06
951.465	4488.3
951.77	4444.91
952.075	4404.46
952.38	4396.33
952.685	4422.31
952.99	4342.32
953.294	4334.63
953.599	4327.4
953.904	4234.07
954.209	4258.02
954.513	4275.42
954.818	4246.5
955.122	4204.47
955.426	4188.19
955.731	4205.6
956.035	4115.43
956.339	4172.83
956.643	4154.52
956.948	4082.89
957.252	4075.43
957.556	4105.94
957.86	4070.91
958.163	4060.29
958.467	4041.08
958.771	4027.75
959.075	4003.57
959.378	3940.97
959.682	3927.18
959.985	3961.99
960.289	3924.7
960.592	3901.42
960.896	3889.22
961.199	3926.51
961.502	3870.69
961.805	3838.6
962.108	3826.17
962.411	3781.65
962.714	3762.9
963.017	3756.57
963.32	3800.86
963.623	3716.34
963.926	3739.17
964.228	3699.39
964.531	3656.46
964.833	3674.99
965.136	3630.24
965.438	3635.67
965.741	3639.73
966.043	3606.74
966.345	3628.44
966.648	3609.23
966.95	3581.21
967.252	3507.53
967.554	3526.07
967.856	3513.86
968.158	3492.62
968.46	3478.61
968.761	3448.78
969.063	3454.2
969.365	3393.87
969.666	3433.41
969.968	3406.52
970.269	3376.46
970.571	3362.23
970.872	3383.92
971.174	3339.18
971.475	3351.15
971.776	3395.45
972.077	3322.68
972.378	3274.77
972.679	3286.98
972.98	3326.3
973.281	3249.69
973.582	3256.02
973.883	3239.75
974.183	3232.74
974.484	3188
974.785	3225.06
975.085	3188.9
975.386	3186.19
975.686	3135.12
975.986	3113.65
976.287	3094.89
976.587	3074.33
976.887	3118.17
977.187	3089.69
977.487	3074.1
977.787	3039.52
978.087	3023.71
978.387	3001.56
978.687	2991.62
978.987	2965.18
979.286	2951.62
979.586	2952.07
979.885	2945.52
980.185	2924.73
980.484	2919.3
980.784	2903.93
981.083	2888.12
981.382	2879.08
981.682	2828.23
981.981	2844.5
982.28	2879.75
982.579	2831.17
982.878	2830.04
983.177	2833.43
983.475	2825.52
983.774	2759.76
984.073	2750.27
984.372	2750.04
984.67	2732.41
984.969	2728.57
985.267	2775.35
985.566	2703.26
985.864	2701.91
986.162	2670.27
986.461	2662.13
986.759	2656.71
987.057	2636.82
987.355	2627.11
987.653	2653.32
987.951	2595.02
988.249	2570.84
988.547	2610.61
988.844	2559.99
989.142	2568.12
989.44	2562.93
989.737	2537.39
990.035	2538.75
990.332	2539.2
990.63	2512.76
990.927	2507.34
991.224	2510.27
991.521	2481.57
991.819	2454.46
992.116	2469.6
992.413	2468.92
992.71	2428.92
993.006	2420.11
993.303	2439.99
993.6	2400.67
993.897	2369.26
994.193	2366.55
994.49	2350.28
994.787	2356.15
995.083	2395.47
995.379	2343.5
995.676	2272.31
995.972	2324.52
996.268	2278.64
996.565	2289.04
996.861	2258.98
997.157	2247.68
997.453	2277.06
997.749	2237.06
998.044	2215.37
998.34	2209.94
998.636	2213.11
998.932	2195.03
999.227	2202.03
999.523	2151.41
999.818	2148.47
1000.114	2188.93
1000.409	2174.01
1000.704	2136.95
1001	2114.35
1001.295	2098.76
1001.59	2103.73
1001.885	2091.53
1002.18	2067.8
1002.475	2079.32
1002.77	2073.67
1003.065	2011.08
1003.359	2060.34
1003.654	2040.23
1003.949	2002.26
1004.243	1993.22
1004.538	1970.63
1004.832	1976.05
1005.127	1983.96
1005.421	1957.29
1005.715	1973.34
1006.009	1928.14
1006.304	1936.95
1006.598	1908.03
1006.892	1921.59
1007.186	1901.93
1007.48	1879.1
1007.773	1889.27
1008.067	1840.46
1008.361	1840.46
1008.655	1858.99
1008.948	1828.03
1009.242	1832.32
1009.535	1801.14
1009.829	1790.07
1010.122	1790.97
1010.415	1768.6
1010.708	1783.51
1011.001	1759.78
1011.295	1775.15
1011.588	1747.81
1011.881	1728.82
1012.173	1722.27
1012.466	1709.39
1012.759	1702.38
1013.052	1719.79
1013.344	1684.98
1013.637	1676.85
1013.93	1675.72
1014.222	1641.6
1014.514	1649.96
1014.807	1607.7
1015.099	1603.86
1015.391	1590.07
1015.683	1615.16
1015.976	1601.14
1016.268	1622.84
1016.56	1571.99
1016.851	1547.36
1017.143	1562.95
1017.435	1552.33
1017.727	1560.69
1018.018	1531.09
1018.31	1527.7
1018.602	1503.52
1018.893	1508.49
1019.185	1489.28
1019.476	1478.44
1019.767	1474.59
1020.058	1453.58
1020.35	1450.87
1020.641	1424.88
1020.932	1402.05
1021.223	1413.35
1021.514	1432.79
1021.804	1385.33
1022.095	1392.11
1022.386	1423.97
1022.677	1370.87
1022.967	1373.13
1023.258	1365.22
1023.548	1352.34
1023.839	1377.65
1024.129	1335.61
1024.419	1321.6
1024.709	1291.32
1025	1315.73
1025.29	1306.91
1025.58	1300.14
1025.87	1301.27
1026.16	1241.83
1026.449	1297.42
1026.739	1262.62
1027.029	1253.13
1027.319	1268.95
1027.608	1216.97
1027.898	1249.29
1028.187	1195.28
1028.477	1206.58
1028.766	1213.58
1029.055	1204.77
1029.344	1181.27
1029.634	1189.86
1029.923	1151.89
1030.212	1180.82
1030.501	1164.77
1030.79	1139.24
1031.078	1141.5
1031.367	1138.33
1031.656	1119.12
1031.945	1122.74
1032.233	1150.99
1032.522	1082.74
1032.81	1094.04
1033.099	1083.87
1033.387	1075.96
1033.675	1075.96
1033.963	1061.95
1034.251	1081.16
1034.54	1053.36
1034.828	1041.61
1035.116	1020.37
1035.403	1007.26
1035.691	1031.22
1035.979	1014.72
1036.267	1033.93
1036.554	987.38
1036.842	1016.98
1037.129	1022.63
1037.417	998.67
1037.704	997.54
1037.992	993.93
1038.279	955.06
1038.566	965.68
1038.853	965.68
1039.14	965.68
