Data from hue_80_FLMS001491_96.txt Node
Date: Mon Feb 06 15:24:05 GMT 2017
User: dcchb
Spectrometer: FLMS00149
Trigger mode: 0
Integration Time (sec): 2.000000E-2
Scans to average: 10
Electric dark correction enabled: true
Nonlinearity correction enabled: false
Boxcar width: 0
XAxis mode: Wavelengths
Number of Pixels in Spectrum: 2048
>>>>>Begin Spectral Data<<<<<
341.393	-8.36
341.776	-8.36
342.16	-8.36
342.543	-63.73
342.927	-57.85
343.31	-64.41
343.693	-80.68
344.077	-59.89
344.46	-77.96
344.843	-75.03
345.226	-30.06
345.61	-37.97
345.993	-21.69
346.376	-2.49
346.759	28.7
347.142	23.05
347.525	21.24
347.908	60.56
348.291	77.06
348.674	107.57
349.057	131.97
349.44	126.78
349.823	149.37
350.206	149.6
350.588	187.79
350.971	200.22
351.354	214.01
351.737	236.6
352.119	234.12
352.502	260.33
352.884	265.08
353.267	271.18
353.65	292.65
354.032	279.77
354.414	288.58
354.797	303.04
355.179	333.1
355.562	307.11
355.944	314.57
356.326	315.02
356.709	337.62
357.091	325.19
357.473	355.92
357.855	344.17
358.238	324.96
358.62	336.04
359.002	368.13
359.384	349.82
359.766	338.97
360.148	310.73
360.53	322.03
360.912	321.35
361.294	344.62
361.676	341.91
362.057	332.19
362.439	342.14
362.821	339.43
363.203	318.86
363.584	332.87
363.966	312.53
364.348	316.83
364.729	295.81
365.111	300.11
365.493	312.76
365.874	329.03
366.256	329.48
366.637	335.36
367.019	335.13
367.4	326.55
367.781	312.99
368.163	319.09
368.544	312.08
368.925	313.21
369.306	331.52
369.688	314.34
370.069	312.53
370.45	330.61
370.831	300.56
371.212	294.68
371.593	309.14
371.974	330.39
372.355	316.83
372.736	322.7
373.117	328.35
373.498	323.61
373.879	316.15
374.26	321.8
374.641	337.39
375.021	320.67
375.402	319.09
375.783	315.92
376.163	318.18
376.544	327.67
376.925	328.8
377.305	324.51
377.686	334
378.066	350.05
378.447	334.45
378.827	337.39
379.208	335.81
379.588	347.11
379.968	324.06
380.349	337.84
380.729	318.41
381.109	341.01
381.489	338.07
381.87	352.31
382.25	339.43
382.63	339.88
383.01	326.77
383.39	354.11
383.77	357.28
384.15	346.21
384.53	347.11
384.91	349.14
385.29	352.99
385.67	341.46
386.049	352.31
386.429	361.8
386.809	354.11
387.189	378.3
387.568	309.14
387.948	358.63
388.328	366.54
388.707	369.71
389.087	363.83
389.466	380.1
389.846	377.39
390.225	361.35
390.605	373.78
390.984	355.47
391.363	386.88
391.743	370.16
392.122	369.71
392.501	381.23
392.881	373.32
393.26	377.17
393.639	368.58
394.018	393.66
394.397	385.75
394.776	378.75
395.155	385.3
395.534	372.87
395.913	373.32
396.292	388.01
396.671	385.75
397.05	391.63
397.429	392.31
397.808	385.75
398.186	372.65
398.565	414
398.944	401.57
399.323	407.67
399.701	397.28
400.08	421.01
400.458	396.37
400.837	408.12
401.215	419.2
401.594	408.12
401.972	404.74
402.351	402.48
402.729	415.13
403.107	406.32
403.486	423.04
403.864	412.19
404.242	426.43
404.62	415.58
404.999	427.56
405.377	441.57
405.755	424.85
406.133	437.73
406.511	414.68
406.889	434.56
407.267	439.99
407.645	422.14
408.023	442.7
408.401	432.31
408.779	441.34
409.156	445.41
409.534	456.26
409.912	463.94
410.29	465.98
410.667	465.3
411.045	476.37
411.422	462.36
411.8	475.47
412.178	485.86
412.555	472.76
412.933	486.31
413.31	496.48
413.687	489.03
414.065	497.16
414.442	476.37
414.819	503.49
415.197	471.4
415.574	480.21
415.951	521.57
416.328	508.24
416.705	517.73
417.082	504.85
417.46	529.03
417.837	539.87
418.214	514.11
418.591	520.21
418.967	563.83
419.344	533.32
419.721	545.75
420.098	498.97
420.475	544.84
420.852	529.93
421.228	557.95
421.605	567.67
421.982	552.98
422.358	554.79
422.735	559.99
423.111	574.22
423.488	562.02
423.864	569.93
424.241	586.88
424.617	610.15
424.994	592.75
425.37	618.51
425.746	584.62
426.123	604.5
426.499	602.47
426.875	616.48
427.251	613.09
427.627	625.97
428.003	636.82
428.379	624.62
428.756	613.77
429.132	622.58
429.507	638.18
429.883	637.27
430.259	668.68
430.635	644.28
431.011	667.78
431.387	660.1
431.763	672.3
432.138	681.79
432.514	684.5
432.89	701.9
433.265	701
433.641	708.91
434.016	697.38
434.392	721.56
434.767	746.2
435.143	738.06
435.518	740.09
435.894	738.29
436.269	767.21
436.644	747.55
437.02	764.05
437.395	759.75
437.77	772.18
438.145	778.96
438.52	803.82
438.895	809.02
439.271	790.49
439.646	811.05
440.021	799.75
440.395	814.67
440.77	825.52
441.145	825.74
441.52	832.52
441.895	829.58
442.27	820.09
442.645	815.8
443.019	867.32
443.394	845.85
443.769	859.86
444.143	846.08
444.518	856.02
444.892	869.58
445.267	877.94
445.641	861.9
446.016	874.55
446.39	891.5
446.764	885.4
447.139	917.04
447.513	903.48
447.887	934.89
448.262	908
448.636	917.49
449.01	943.48
449.384	959.07
449.758	933.31
450.132	948.9
450.506	951.39
450.88	985.96
451.254	953.65
451.628	954.33
452.002	961.33
452.376	1008.56
452.75	1006.53
453.123	1023.7
453.497	1016.02
453.871	1049.24
454.244	1029.35
454.618	1028.45
454.992	1048.33
455.365	1072.74
455.739	1061.67
456.112	1079.29
456.486	1095.34
456.859	1133.3
457.232	1137.37
457.606	1134.66
457.979	1157.26
458.352	1156.35
458.725	1167.65
459.099	1179.63
459.472	1170.14
459.845	1223.92
460.218	1223.47
460.591	1247.42
460.964	1272.73
461.337	1252.17
461.71	1291.72
462.083	1330.13
462.456	1272.73
462.829	1327.87
463.201	1345.28
463.574	1344.37
463.947	1369
464.32	1416.91
464.692	1402.67
465.065	1434.54
465.438	1466.63
465.81	1488.55
466.183	1499.85
466.555	1509.79
466.928	1506.18
467.3	1547.98
467.672	1575.55
468.045	1585.04
468.417	1620.52
468.789	1649.9
469.161	1683.35
469.534	1709.33
469.906	1735.77
470.278	1745.26
470.65	1758.6
471.022	1825.26
471.394	1856.67
471.766	1893.28
472.138	1890.35
472.51	1961.53
472.882	1991.13
473.253	2031.36
473.625	2056.22
473.997	2118.14
474.369	2146.84
474.74	2184.8
475.112	2241.52
475.484	2255.31
475.855	2338.02
476.227	2414.85
476.598	2441.97
476.97	2489.43
477.341	2568.52
477.713	2627.28
478.084	2673.15
478.455	2786.59
478.827	2828.63
479.198	2935.29
479.569	2996.08
479.94	3033.82
480.311	3148.17
480.682	3257.99
481.053	3306.58
481.424	3386.8
481.795	3523.52
482.166	3565.78
482.537	3651.88
482.908	3736.85
483.279	3846.9
483.65	4015.94
484.021	4108.59
484.391	4182.94
484.762	4276.27
485.133	4380.68
485.503	4459.32
485.874	4644.17
486.244	4733.43
486.615	4882.13
486.985	4963.94
487.356	5104.27
487.726	5216.13
488.097	5424.26
488.467	5422.46
488.837	5628.33
489.207	5768.44
489.578	5870.81
489.948	6008.43
490.318	6154.41
490.688	6276.45
491.058	6426.72
491.428	6540.17
491.798	6690.9
492.168	6942.19
492.538	7012.24
492.908	7186.03
493.278	7322.52
493.648	7386.02
494.017	7594.15
494.387	7700.14
494.757	7878.21
495.126	7971.77
495.496	8117.3
495.866	8225.55
496.235	8386.22
496.605	8537.4
496.974	8654.46
497.344	8872.54
497.713	8915.25
498.082	9064.39
498.452	9257.38
498.821	9310.49
499.19	9454.21
499.559	9632.29
499.928	9680.42
500.298	9772.85
500.667	9979.85
501.036	10012.84
501.405	10148.43
501.774	10262.56
502.143	10344.36
502.512	10535.77
502.88	10608.76
503.249	10676.33
503.618	10745.71
503.987	10909.54
504.356	11079.71
504.724	11151.35
505.093	11222.98
505.462	11404.67
505.83	11415.52
506.199	11595.85
506.567	11750.2
506.936	11750.2
507.304	11972.57
507.672	12023.19
508.041	12142.51
508.409	12198.32
508.777	12296.85
509.145	12491.87
509.514	12523.74
509.882	12712.89
510.25	12691.64
510.618	12758.31
510.986	12871.3
511.354	13022.48
511.722	13134.57
512.09	13238.07
512.458	13230.39
512.826	13354.68
513.193	13398.52
513.561	13450.72
513.929	13562.13
514.297	13694.78
514.664	13808
515.032	13830.6
515.4	13935
515.767	14026.98
516.135	14122.34
516.502	14008.67
516.869	14257.7
517.237	14296.8
517.604	14251.6
517.972	14457.02
518.339	14563.91
518.706	14539.5
519.073	14612.95
519.44	14728.88
519.808	14833.96
520.175	14816.33
520.542	14974.3
520.909	14999.15
521.276	15108.08
521.643	15162.54
522.009	15217.45
522.376	15349.65
522.743	15343.33
523.11	15549.65
523.477	15684.11
523.843	15762.3
524.21	15765.46
524.577	15902.63
524.943	15949.41
525.31	15981.73
525.676	16152.34
526.043	16143.98
526.409	16159.35
526.776	16261.95
527.142	16392.56
527.508	16390.3
527.874	16522.05
528.241	16478.44
528.607	16556.63
528.973	16684.31
529.339	16655.83
529.705	16741.71
530.071	16835.04
530.437	16849.73
530.803	16944.87
531.169	16969.72
531.535	16944.41
531.901	16929.95
532.267	17029.16
532.632	17143.96
532.998	17071.42
533.364	17150.28
533.73	17176.5
534.095	17289.04
534.461	17241.81
534.826	17256.04
535.192	17365.19
535.557	17444.74
535.923	17393.44
536.288	17483.16
536.653	17422.59
537.019	17315.93
537.384	17441.8
537.749	17407
538.114	17441.8
538.479	17421.69
538.845	17408.81
539.21	17418.07
539.575	17435.02
539.94	17394.12
540.305	17483.38
540.67	17540.78
541.034	17472.76
541.399	17610.16
541.764	17535.13
542.129	17513.66
542.494	17595.47
542.858	17569.48
543.223	17401.12
543.587	17578.52
543.952	17398.64
544.316	17466.43
544.681	17452.87
545.045	17431.86
545.41	17502.36
545.774	17489.71
546.138	17553.89
546.503	17536.26
546.867	17476.38
547.231	17543.49
547.595	17505.08
547.959	17534.91
548.324	17530.39
548.688	17511.18
549.052	17462.37
549.416	17500.56
549.779	17400.67
550.143	17556.6
550.507	17555.7
550.871	17518.41
551.235	17492.65
551.599	17585.98
551.962	17480.44
552.326	17510.5
552.689	17641.34
553.053	17565.19
553.417	17501.46
553.78	17681.79
554.143	17687.44
554.507	17624.62
554.87	17544.85
555.234	17719.08
555.597	17517.51
555.96	17649.25
556.323	17662.13
556.686	17662.36
557.05	17670.04
557.413	17665.3
557.776	17668.69
558.139	17677.73
558.502	17697.39
558.865	17770.83
559.228	17830.94
559.59	17816.71
559.953	17879.53
560.316	17962.47
560.679	17900.55
561.041	18031.62
561.404	18107.77
561.767	18055.57
562.129	17990.49
562.492	18242.68
562.854	18150.71
563.217	18081.56
563.579	18220.76
563.941	18283.59
564.304	18333.76
564.666	18401.32
565.028	18375.79
565.39	18376.69
565.753	18446.75
566.115	18507.31
566.477	18554.77
566.839	18562
567.201	18720.19
567.563	18547.53
567.925	18745.72
568.287	18675.44
568.648	18715.44
569.01	18834.76
569.372	18869.56
569.734	18747.76
570.095	18845.38
570.457	18922.89
570.819	18937.36
571.18	18836.57
571.542	19009.22
571.903	19001.31
572.265	19015.32
572.626	19033.17
572.987	19083.57
573.349	19206.05
573.71	19200.85
574.071	19178.93
574.432	19272.04
574.794	19338.93
575.155	19248.99
575.516	19219.61
575.877	19265.48
576.238	19357.91
576.599	19456.66
576.96	19397.68
577.32	19312.94
577.681	19477
578.042	19546.6
578.403	19560.39
578.763	19572.37
579.124	19356.33
579.485	19554.97
579.845	19575.98
580.206	19515.42
580.566	19512.93
580.927	19482.65
581.287	19646.72
581.648	19484.01
582.008	19562.65
582.368	19491.69
582.728	19565.59
583.089	19509.32
583.449	19518.36
583.809	19512.26
584.169	19454.18
584.529	19446.72
584.889	19557.45
585.249	19473.39
585.609	19502.09
585.969	19532.14
586.329	19434.97
586.688	19470
587.048	19412.6
587.408	19360.17
587.768	19472.71
588.127	19438.36
588.487	19370.56
588.846	19645.59
589.206	19362.65
589.565	19455.08
589.925	19453.73
590.284	19333.95
590.643	19362.2
591.003	19382.32
591.362	19404.91
591.721	19399.49
592.08	19365.14
592.44	19420.51
592.799	19445.14
593.158	19462.99
593.517	19430.45
593.876	19399.94
594.235	19334.86
594.593	19369.21
594.952	19449.43
595.311	19289.44
595.67	19307.29
596.029	19505.25
596.387	19456.44
596.746	19407.85
597.104	19376.67
597.463	19252.15
597.822	19372.15
598.18	19344.12
598.538	19327.85
598.897	19460.51
599.255	19306.84
599.613	19651.91
599.972	19464.12
600.33	19487.4
600.688	19289.21
601.046	19368.98
601.404	19494.85
601.762	19436.55
602.12	19565.59
602.478	19481.97
602.836	19538.47
603.194	19489.21
603.552	19482.2
603.91	19362.65
604.268	19374.41
604.625	19406.04
604.983	19460.73
605.341	19427.96
605.698	19447.4
606.056	19589.77
606.413	19488.75
606.771	19492.82
607.128	19557.45
607.485	19380.51
607.843	19471.35
608.2	19584.57
608.557	19715.64
608.914	19671.8
609.272	19653.72
609.629	19684.23
609.986	19808.07
610.343	19700.27
610.7	19807.84
611.057	19765.13
611.414	19759.03
611.771	19830.67
612.127	19903.88
612.484	19844.9
612.841	19913.83
613.198	19843.55
613.554	19732.36
613.911	19920.83
614.267	19944.79
614.624	19901.4
614.98	19945.69
615.337	19944.33
615.693	19974.16
616.05	19877.22
616.406	20062.3
616.762	19951.57
617.118	20001.06
617.475	19967.38
617.831	20065.91
618.187	20111.34
618.543	20179.36
618.899	20270.43
619.255	20211.67
619.611	20161.73
619.967	20261.84
620.323	20274.04
620.678	20160.15
621.034	20104.33
621.39	20265.46
621.746	20191.56
622.101	20327.38
622.457	20196.76
622.812	20284.44
623.168	20252.8
623.523	20253.7
623.879	20371.44
624.234	20165.57
624.589	20261.39
624.945	20269.98
625.3	20287.6
625.655	20316.53
626.01	20330.54
626.365	20317.43
626.72	20237.66
627.075	20187.72
627.43	20196.76
627.785	20175.06
628.14	20257.77
628.495	20232.24
628.85	20126.48
629.205	20114.05
629.559	20333.02
629.914	20208.73
630.269	20281.73
630.623	20130.54
630.978	20065.24
631.332	20211.67
631.687	20131.9
632.041	20136.65
632.396	20217.55
632.75	20029.3
633.104	20145.68
633.459	19929.65
633.813	19945.92
634.167	19909.76
634.521	19957.89
634.875	20072.92
635.229	19973.49
635.583	19860.27
635.937	19945.92
636.291	19895.97
636.645	19873.83
636.999	19868.63
637.352	19902.98
637.706	19744.79
638.06	19828.41
638.413	19778.69
638.767	19710.67
639.121	19864.11
639.474	19724
639.828	19612.82
640.181	19639.94
640.534	19716.32
640.888	19594.74
641.241	19590.67
641.594	19667.73
641.947	19580.28
642.301	19505.48
642.654	19452.82
643.007	19627.73
643.36	19518.81
643.713	19587.96
644.066	19638.35
644.419	19467.28
644.771	19348.42
645.124	19209.44
645.477	19185.48
645.83	19014.42
646.182	18932.16
646.535	18892.61
646.888	18874.31
647.24	18799.73
647.593	18985.26
647.945	18797.47
648.298	18790.24
648.65	18754.99
649.002	18673.18
649.355	18743.91
649.707	18698.04
650.059	18868.2
650.411	19016.45
650.763	19099.38
651.115	19276.78
651.467	19166.73
651.819	19222.09
652.171	19298.7
652.523	19163.11
652.875	19196.56
653.227	19209.44
653.578	19194.3
653.93	19218.93
654.282	19157.24
654.633	19167.63
654.985	19079.5
655.337	19234.97
655.688	19179.38
656.039	19300.51
656.391	19113.17
656.742	19157.69
657.094	19167.86
657.445	19198.37
657.796	19215.31
658.147	19108.88
658.498	19102.55
658.849	19161.76
659.2	19236.1
659.551	19159.72
659.902	19201.75
660.253	19206.95
660.604	19269.1
660.955	19182.32
661.306	19303.67
661.656	19238.82
662.007	19220.29
662.358	19174.41
662.708	19184.58
663.059	19160.4
663.409	19092.61
663.76	19237.69
664.11	19242.43
664.461	19221.87
664.811	19208.99
665.161	19205.82
665.511	19167.86
665.862	19267.29
666.212	19315.88
666.562	19326.05
666.912	19208.08
667.262	19140.29
667.612	19207.63
667.962	19213.05
668.312	19117.01
668.662	19270.23
669.011	19178.93
669.361	19205.14
669.711	19207.86
670.06	19146.39
670.41	19133.73
670.76	19103.23
671.109	19189.33
671.459	19101.87
671.808	19196.78
672.157	19113.85
672.507	19088.76
672.856	19053.28
673.205	19059.84
673.554	19082.66
673.904	19018.71
674.253	19246.73
674.602	19068.65
674.951	18803.57
675.3	18695.78
675.649	18898.71
675.998	18924.7
676.346	18917.02
676.695	18995.66
677.044	18837.24
677.393	18865.72
677.741	18881.09
678.09	18826.85
678.438	18724.93
678.787	18811.93
679.135	18844.7
679.484	18723.8
679.832	18670.92
680.181	18637.93
680.529	18693.29
680.877	18612.39
681.225	18590.7
681.573	18753.41
681.922	18549.12
682.27	18497.37
682.618	18553.41
682.966	18520.87
683.314	18475.22
683.661	18351.38
684.009	18268.9
684.357	18330.37
684.705	18326.75
685.053	18394.09
685.4	18159.97
685.748	18089.24
686.095	18071.39
686.443	18035.91
686.79	18077.72
687.138	17999.07
687.485	18080.2
687.832	17932.64
688.18	17935.8
688.527	17904.61
688.874	17791.62
689.221	17786.88
689.568	17793.2
689.915	17646.54
690.262	17697.16
690.609	17639.76
690.956	17652.19
691.303	17511.18
691.65	17459.88
691.997	17460.33
692.344	17357.28
692.69	17395.47
693.037	17312.31
693.383	17224.86
693.73	17281.13
694.077	17123.17
694.423	17010.17
694.769	16961.14
695.116	16921.36
695.462	16934.47
695.808	16807.02
696.155	16844.3
696.501	16786.23
696.847	16640.92
697.193	16514.37
697.539	16507.81
697.885	16395.05
698.231	16404.54
698.577	16464.65
698.923	16379.68
699.269	16310.76
699.614	16182.63
699.96	16171.33
700.306	16139.24
700.651	16089.07
700.997	16058.11
701.342	15981.73
701.688	15947.6
702.033	15781.96
702.379	15860.15
702.724	15834.16
703.069	15750.55
703.415	15621.06
703.76	15623.09
704.105	15642.3
704.45	15572.92
704.795	15487.28
705.14	15432.59
705.485	15418.13
705.83	15364.79
706.175	15329.77
706.52	15281.63
706.865	15227.62
707.209	15183.56
707.554	15135.65
707.899	15114.18
708.243	14941.75
708.588	14998.02
708.932	14946.5
709.277	14907.4
709.621	14970.23
709.966	14864.47
710.31	14799.38
710.654	14688.88
710.998	14780.85
711.342	14762.78
711.687	14720.97
712.031	14639.16
712.375	14517.58
712.719	14548.54
713.063	14521.2
713.407	14609.11
713.75	14469.22
714.094	14475.33
714.438	14361.2
714.782	14433.07
715.125	14344.71
715.469	14293.64
715.812	14226.74
716.156	14214.77
716.499	14248.44
716.843	14178.84
717.186	14111.72
717.53	14102.68
717.873	14182.45
718.216	14054.32
718.559	14015.68
718.902	14003.02
719.246	13994.43
719.589	14049.8
719.932	14026.3
720.275	13980.65
720.617	13914.44
720.96	13913.31
721.303	13937.26
721.646	13896.13
721.989	13792.63
722.331	13916.24
722.674	13818.62
723.016	13886.64
723.359	13827.43
723.701	13825.63
724.044	13721.45
724.386	13702.92
724.729	13735.01
725.071	13739.75
725.413	13663.6
725.755	13706.98
726.097	13637.61
726.439	13534.79
726.782	13602.81
727.124	13628.57
727.465	13597.83
727.807	13616.37
728.149	13494.79
728.491	13556.03
728.833	13568.23
729.175	13566.2
729.516	13575.91
729.858	13427.44
730.199	13525.97
730.541	13468.35
730.882	13492.53
731.224	13518.74
731.565	13407.56
731.906	13431.06
732.248	13456.82
732.589	13443.71
732.93	13396.94
733.271	13380.67
733.612	13413.66
733.953	13475.13
734.294	13455.01
734.635	13436.71
734.976	13438.74
735.317	13386.54
735.658	13413.21
735.999	13422.92
736.339	13370.5
736.68	13350.38
737.021	13420.89
737.361	13372.76
737.702	13417.27
738.042	13350.84
738.383	13310.16
738.723	13332.3
739.063	13393.55
739.404	13393.32
739.744	13386.54
740.084	13299.76
740.424	13490.72
740.764	13431.06
741.104	13417.5
741.444	13387.44
741.784	13382.25
742.124	13472.87
742.464	13356.48
742.804	13408.46
743.143	13486.88
743.483	13567.33
743.823	13566.2
744.162	13561.45
744.502	13558.97
744.841	13543.37
745.181	13634.67
745.52	13715.12
745.86	13695.01
746.199	13698.4
746.538	13689.58
746.877	13796.02
747.216	13909.01
747.556	13841.9
747.895	13935.45
748.234	13939.52
748.573	13943.59
748.911	13997.37
749.25	14028.33
749.589	14080.99
749.928	14254.99
750.267	14231.72
750.605	14280.98
750.944	14344.93
751.283	14426.97
751.621	14535.44
751.96	14499.05
752.298	14624.7
752.636	14774.07
752.975	14752.15
753.313	14843.45
753.651	15007.74
753.989	14968.19
754.327	15138.58
754.666	15128.42
755.004	15372.48
755.342	15397.11
755.679	15531.79
756.017	15611.11
756.355	15751.68
756.693	15817.44
757.031	15950.54
757.368	15987.15
757.706	16080.26
758.044	16258.1
758.381	16321.15
758.719	16463.97
759.056	16616.74
759.394	16642.05
759.731	16652.67
760.068	16740.12
760.405	16863.06
760.743	16969.27
761.08	17207.46
761.417	17200.68
761.754	17306.44
762.091	17424.85
762.428	17563.38
762.765	17501.69
763.102	17746.88
763.438	17835.69
763.775	17903.71
764.112	17979.87
764.449	18070.26
764.785	18231.61
765.122	18125.63
765.458	18157.26
765.795	18320.2
766.131	18440.87
766.467	18427.09
766.804	18476.58
767.14	18495.78
767.476	18688.55
767.812	18644.26
768.148	18795.89
768.485	18755.44
768.821	18820.97
769.157	18809.22
769.492	18841.76
769.828	18953.63
770.164	18912.27
770.5	19025.04
770.836	19038.6
771.171	19090.12
771.507	19042.66
771.842	18935.77
772.178	19143.9
772.513	19067.07
772.849	19169.21
773.184	19116.11
773.519	19183.68
773.855	19164.47
774.19	19131.93
774.525	19139.84
774.86	19143.45
775.195	19162.66
775.53	19124.24
775.865	19138.25
776.2	19125.6
776.535	18994.75
776.87	19026.17
777.205	18996.56
777.539	18960.63
777.874	19047.63
778.209	18957.02
778.543	18922.89
778.878	18916.79
779.212	18874.53
779.547	18814.65
779.881	18859.84
780.215	18771.03
780.55	18892.16
780.884	18740.07
781.218	18750.24
781.552	18768.55
781.886	18689.45
782.22	18575.78
782.554	18491.04
782.888	18423.02
783.222	18372.85
783.556	18362.23
783.889	18396.35
784.223	18372.62
784.557	18197.94
784.89	18329.46
785.224	18140.09
785.557	18169.47
785.891	18110.26
786.224	18135.12
786.558	18122.46
786.891	18013.54
787.224	18021
787.557	17920.66
787.891	17934.9
788.224	17875.91
788.557	17875.46
788.89	17857.61
789.223	17789.14
789.556	17671.63
789.888	17657.61
790.221	17625.3
790.554	17505.75
790.887	17484.51
791.219	17399.09
791.552	17388.47
791.884	17288.58
792.217	17258.98
792.549	17187.34
792.882	17101.25
793.214	17114.35
793.546	17099.44
793.879	16954.36
794.211	16843.62
794.543	16945.54
794.875	16799.11
795.207	16912.32
795.539	16841.37
795.871	16766.79
796.203	16662.84
796.535	16551.66
796.867	16589.17
797.198	16574.48
797.53	16517.08
797.862	16430.53
798.193	16508.27
798.525	16406.8
798.856	16367.03
799.188	16273.02
799.519	16195.05
799.85	16166.13
800.182	16123.87
800.513	16093.81
800.844	15945.8
801.175	16010.65
801.506	15905.8
801.837	15828.74
802.168	15936.3
802.499	15753.03
802.83	15760.04
803.161	15624
803.491	15780.6
803.822	15738.57
804.153	15638.68
804.483	15601.85
804.814	15445.47
805.145	15446.15
805.475	15522.76
805.805	15399.6
806.136	15399.37
806.466	15302.65
806.796	15294.97
807.126	15202.76
807.457	15229.2
807.787	15114.4
808.117	15166.15
808.447	14970
808.777	15080.96
809.107	15000.51
809.436	15013.84
809.766	14999.15
810.096	14964.8
810.426	14870.34
810.755	14811.14
811.085	14884.58
811.414	14743.12
811.744	14810.46
812.073	14708.77
812.403	14716.22
812.732	14635.32
813.061	14669.9
813.39	14562.78
813.719	14461.77
814.049	14546.51
814.378	14572.5
814.707	14441.2
815.036	14396.46
815.365	14312.62
815.693	14265.84
816.022	14252.96
816.351	14228.78
816.68	14167.54
817.008	14196.46
817.337	14096.58
817.665	14017.71
817.994	13949.69
818.322	14072.85
818.651	13995.11
818.979	13920.99
819.307	13927.54
819.636	13891.16
819.964	13819.75
820.292	13940.65
820.62	13923.7
820.948	13853.42
821.276	13782.91
821.604	13873.08
821.932	13880.31
822.259	13814.55
822.587	13831.73
822.915	13860.2
823.243	13820.65
823.57	13773.2
823.898	13793.08
824.225	13737.27
824.553	13770.03
824.88	13789.02
825.207	13880.54
825.535	13724.84
825.862	13838.96
826.189	13796.7
826.516	13837.38
826.843	13866.53
827.17	13828.11
827.497	13880.54
827.824	13868.34
828.151	13773.65
828.478	13813.2
828.805	13867.88
829.131	13794.44
829.458	13735.91
829.785	13657.04
830.111	13725.29
830.438	13732.07
830.764	13789.02
831.09	13736.59
831.417	13666.53
831.743	13769.36
832.069	13770.26
832.395	13666.76
832.722	13713.31
833.048	13660.21
833.374	13763.71
833.7	13702.92
834.026	13628.34
834.351	13595.12
834.677	13648
835.003	13747.66
835.329	13549.93
835.654	13656.82
835.98	13553.77
836.306	13582.69
836.631	13558.74
836.956	13579.76
837.282	13505.41
837.607	13441.45
837.932	13442.58
838.258	13352.64
838.583	13461.11
838.908	13372.3
839.233	13430.16
839.558	13308.58
839.883	13346.32
840.208	13309.48
840.533	13288.24
840.858	13232.42
841.182	13295.02
841.507	13189.03
841.832	13142.25
842.156	13179.99
842.481	13224.74
842.805	13173.89
843.13	13037.17
843.454	13071.75
843.778	12961.24
844.103	12963.73
844.427	13011.86
844.751	12958.76
845.075	12877.85
845.399	12871.75
845.723	12789.27
846.047	12839.89
846.371	12730.96
846.695	12711.08
847.019	12595.83
847.343	12619.56
847.666	12510.18
847.99	12516.96
848.313	12375.95
848.637	12410.97
848.96	12340.47
849.284	12302.95
849.607	12263.86
849.931	12207.81
850.254	12097.54
850.577	11997.42
850.9	12002.4
851.223	11951.78
851.546	11848.28
851.869	11832.46
852.192	11870.2
852.515	11768.05
852.838	11754.49
853.161	11633.82
853.483	11684.66
853.806	11577.32
854.129	11569.64
854.451	11477.21
854.774	11510.21
855.096	11418.91
855.419	11485.57
855.741	11422.07
856.063	11297.78
856.385	11359.25
856.708	11305.47
857.03	11149.54
857.352	11191.57
857.674	11182.08
857.996	11182.08
858.318	11069.09
858.64	11108.18
858.961	11034.51
859.283	11020.28
859.605	10983.67
859.926	11032.03
860.248	10942.31
860.57	10966.49
860.891	10944.57
861.212	10822.09
861.534	10840.62
861.855	10774.86
862.176	10814.18
862.498	10776.21
862.819	10807.63
863.14	10716.78
863.461	10743.67
863.782	10688.31
864.103	10656.22
864.424	10600.63
864.745	10681.98
865.065	10548.2
865.386	10573.06
865.707	10463
866.027	10562.89
866.348	10515.66
866.668	10521.76
866.989	10463.45
867.309	10378.48
867.63	10418.48
867.95	10386.62
868.27	10382.78
868.59	10354.53
868.91	10360.41
869.23	10288.99
869.55	10273.18
869.87	10311.59
870.19	10341.87
870.51	10263.91
870.83	10265.72
871.15	10246.74
871.469	10203.12
871.789	10220.07
872.109	10178.04
872.428	10144.59
872.748	10177.81
873.067	10183.24
873.386	10182.56
873.706	10147.3
874.025	10090.81
874.344	10032.73
874.663	10064.82
874.982	10083.12
875.301	10063.46
875.62	10036.8
875.939	10012.17
876.258	9999.74
876.577	9925.84
876.896	9914.54
877.214	9958.38
877.533	9957.25
877.852	9927.42
878.17	9927.87
878.489	9809.91
878.807	9852.17
879.125	9874.77
879.444	9779.18
879.762	9766.07
880.08	9743.47
880.398	9776.69
880.716	9738.95
881.034	9675.23
881.352	9791.83
881.67	9669.8
881.988	9753.64
882.306	9612.63
882.624	9634.77
882.941	9552.07
883.259	9620.31
883.577	9584.38
883.894	9546.19
884.212	9537.83
884.529	9569.01
884.846	9505.29
885.164	9508.45
885.481	9410.15
885.798	9424.84
886.115	9415.35
886.432	9374.89
886.75	9313.65
887.067	9267.1
887.383	9221.9
887.7	9301.68
888.017	9257.84
888.334	9265.29
888.651	9259.19
888.967	9211.06
889.284	9147.33
889.6	9136.48
889.917	9054.9
890.233	9086.09
890.55	9056.94
890.866	9035.02
891.182	8903.27
891.498	8873.66
891.815	8938.07
892.131	8933.78
892.447	8880.22
892.763	8871.41
893.079	8832.08
893.395	8767
893.71	8757.96
894.026	8789.6
894.342	8796.15
894.657	8628.47
894.973	8661.92
895.289	8704.63
895.604	8591.64
895.92	8598.64
896.235	8545.54
896.55	8552.09
896.865	8500.12
897.181	8439.1
897.496	8526.1
897.811	8401.81
898.126	8462.6
898.441	8369.05
898.756	8419.67
899.071	8252.44
899.386	8264.19
899.7	8197.3
900.015	8227.81
900.33	8136.74
900.644	8141.48
900.959	8160.01
901.273	8107.81
901.588	7987.13
901.902	8060.35
902.216	8036.85
902.531	8008.83
902.845	8014.93
903.159	7877.08
903.473	7920.24
903.787	7850.42
904.101	7826.69
904.415	7858.32
904.729	7747.14
905.042	7746.91
905.356	7697.42
905.67	7677.54
905.984	7663.3
906.297	7637.54
906.611	7631.21
906.924	7579.91
907.237	7553.02
907.551	7547.82
907.864	7434.61
908.177	7472.57
908.491	7442.52
908.804	7437.09
909.117	7336.53
909.43	7308.96
909.743	7302.41
910.056	7243.2
910.368	7282.75
910.681	7184.67
910.994	7187.16
911.307	7168.85
911.619	7120.72
911.932	7118.91
912.244	7106.48
912.557	7058.57
912.869	6955.52
913.181	7029.87
913.494	6991.45
913.806	6977.9
914.118	6927.5
914.43	6896.54
914.742	6887.5
915.054	6838.01
915.366	6801.86
915.678	6765.47
915.99	6724.57
916.302	6679.6
916.613	6685.25
916.925	6620.84
917.236	6702.42
917.548	6614.06
917.859	6604.8
918.171	6515.76
918.482	6497.46
918.794	6466.5
919.105	6461.07
919.416	6444.58
919.727	6466.27
920.038	6384.01
920.349	6328.87
920.66	6318.03
920.971	6355.54
921.282	6321.42
921.593	6247.75
921.903	6186.73
922.214	6237.58
922.525	6166.84
922.835	6195.32
923.146	6087.98
923.456	6125.94
923.767	6081.65
924.077	6109.67
924.387	6028.32
924.697	6025.6
925.008	6002.78
925.318	5956.68
925.628	5960.3
925.938	5908.32
926.248	5921.43
926.558	5833.97
926.867	5791.49
927.177	5780.41
927.487	5725.73
927.796	5716.69
928.106	5681.21
928.416	5678.04
928.725	5704.71
929.034	5648.21
929.344	5659.74
929.653	5591.04
929.962	5603.24
930.271	5518.95
930.581	5559.63
930.89	5534.09
931.199	5447.77
931.508	5467.65
931.817	5481.89
932.125	5431.72
932.434	5435.79
932.743	5331.16
933.051	5244.83
933.36	5305.17
933.669	5298.39
933.977	5329.35
934.286	5269.01
934.594	5284.38
934.902	5201.67
935.21	5227.89
935.519	5203.93
935.827	5183.37
936.135	5140.2
936.443	5105.85
936.751	5060.21
937.059	5094.56
937.367	5017.72
937.674	5004.84
937.982	5015.91
938.29	5045.29
938.597	4979.3
938.905	4931.85
939.213	4900.21
939.52	4875.35
939.827	4921.45
940.135	4867.89
940.442	4852.3
940.749	4814.11
941.056	4831.74
941.363	4785.18
941.67	4749.71
941.977	4710.16
942.284	4705.19
942.591	4721.23
942.898	4648.69
943.205	4679.88
943.511	4626.77
943.818	4675.81
944.125	4544.74
944.431	4562.59
944.738	4513.1
945.044	4547
945.35	4500.67
945.657	4501.35
945.963	4485.53
946.269	4474.23
946.575	4458.41
946.881	4370.96
947.187	4405.53
947.493	4431.07
947.799	4413.67
948.105	4328.02
948.41	4317.63
948.716	4347.68
949.022	4285.76
949.327	4302.03
949.633	4249.61
949.938	4251.41
950.244	4262.26
950.549	4189.95
950.854	4183.17
951.16	4184.07
951.465	4189.49
951.77	4141.59
952.075	4082.38
952.38	4077.41
952.685	4058.88
952.99	4052.77
953.294	4054.36
953.599	4008.48
953.904	3994.7
954.209	4009.84
954.513	3992.66
954.818	3910.86
955.122	3938.65
955.426	3901.14
955.731	3931.65
956.035	3875.6
956.339	3867.24
956.643	3834.7
956.948	3818.43
957.252	3817.07
957.556	3809.84
957.86	3793.57
958.163	3784.08
958.467	3766
958.771	3776.85
959.075	3756.06
959.378	3712.67
959.682	3685.33
959.985	3698.66
960.289	3665.44
960.592	3644.65
960.896	3656.4
961.199	3661.6
961.502	3592.67
961.805	3600.36
962.108	3552
962.411	3552.22
962.714	3526.69
963.017	3488.95
963.32	3537.53
963.623	3474.26
963.926	3459.57
964.228	3465.45
964.531	3450.98
964.833	3428.38
965.136	3411.21
965.438	3378.67
965.741	3367.37
966.043	3373.7
966.345	3355.39
966.648	3326.24
966.95	3310.65
967.252	3305.45
967.554	3287.6
967.856	3288.95
968.158	3247.15
968.46	3244.43
968.761	3238.78
969.063	3215.73
969.365	3248.5
969.666	3248.73
969.968	3185
970.269	3164.44
970.571	3177.54
970.872	3113.59
971.174	3143.87
971.475	3134.15
971.776	3094.38
972.077	3156.75
972.378	3102.97
972.679	3105.23
972.98	3078.34
973.281	3029.75
973.582	3041.73
973.883	3018.68
974.183	3023.2
974.484	3015.74
974.785	2961.5
975.085	2956.31
975.386	3013.93
975.686	2949.53
975.986	2923.54
976.287	2927.61
976.587	2909.53
976.887	2923.99
977.187	2907.49
977.487	2885.57
977.787	2834.73
978.087	2834.95
978.387	2861.85
978.687	2819.81
978.987	2787.5
979.286	2787.05
979.586	2794.95
979.885	2778.46
980.185	2742.07
980.484	2729.65
980.784	2713.15
981.083	2707.73
981.382	2702.3
981.682	2726.93
981.981	2715.63
982.28	2688.29
982.579	2676.09
982.878	2676.77
983.177	2641.74
983.475	2618.91
983.774	2629.08
984.073	2613.49
984.372	2562.64
984.67	2574.85
984.969	2561.74
985.267	2558.8
985.566	2522.19
985.864	2544.57
986.162	2520.84
986.461	2495.98
986.759	2508.41
987.057	2463.66
987.355	2479.48
987.653	2486.04
987.951	2478.13
988.249	2440.61
988.547	2443.33
988.844	2419.15
989.142	2425.25
989.44	2376.66
989.737	2400.61
990.035	2362.42
990.332	2376.43
990.63	2389.09
990.927	2352.03
991.224	2332.82
991.521	2326.27
991.819	2314.52
992.116	2322.2
992.413	2301.18
992.71	2298.92
993.006	2270.45
993.303	2213.95
993.6	2228.64
993.897	2199.72
994.193	2214.18
994.49	2233.39
994.787	2200.85
995.083	2222.31
995.379	2177.57
995.676	2171.92
995.972	2178.93
996.268	2145.71
996.565	2156.1
996.861	2154.97
997.157	2135.99
997.453	2095.54
997.749	2098.02
998.044	2071.58
998.34	2076.56
998.636	2067.74
998.932	2027.97
999.227	2054.64
999.523	2041.08
999.818	2034.07
1000.114	1989.1
1000.409	2028.87
1000.704	1989.1
1001	1979.61
1001.295	1980.51
1001.59	1936.9
1001.885	1966.05
1002.18	1963.56
1002.475	1947.75
1002.77	1933.51
1003.065	1908.42
1003.359	1910.23
1003.654	1891.48
1003.949	1889.89
1004.243	1877.24
1004.538	1877.01
1004.832	1881.76
1005.127	1851.93
1005.421	1831.36
1005.715	1830.01
1006.009	1802.66
1006.304	1792.95
1006.598	1800.4
1006.892	1801.76
1007.186	1784.81
1007.48	1733.06
1007.773	1753.85
1008.067	1742.33
1008.361	1734.87
1008.655	1705.72
1008.948	1723.12
1009.242	1727.64
1009.535	1706.85
1009.829	1700.07
1010.122	1668.43
1010.415	1661.65
1010.708	1659.84
1011.001	1616
1011.295	1640.41
1011.588	1652.16
1011.881	1634.53
1012.173	1633.86
1012.466	1643.57
1012.759	1592.5
1013.052	1608.09
1013.344	1545.5
1013.637	1584.37
1013.93	1552.28
1014.222	1566.29
1014.514	1526.51
1014.807	1519.28
1015.099	1527.64
1015.391	1547.53
1015.683	1473.63
1015.976	1502.79
1016.268	1489
1016.56	1481.77
1016.851	1497.14
1017.143	1486.74
1017.435	1474.09
1017.727	1437.48
1018.018	1451.49
1018.31	1432.5
1018.602	1437.25
1018.893	1410.81
1019.185	1407.19
1019.476	1429.34
1019.767	1378.72
1020.058	1404.93
1020.35	1361.77
1020.641	1376.01
1020.932	1354.31
1021.223	1329.91
1021.514	1325.16
1021.804	1322
1022.095	1315.9
1022.386	1283.36
1022.677	1289.91
1022.967	1300.53
1023.258	1274.99
1023.548	1264.37
1023.839	1288.78
1024.129	1256.24
1024.419	1243.58
1024.709	1241.32
1025	1241.1
1025.29	1226.41
1025.58	1227.31
1025.87	1208.56
1026.16	1188.9
1026.449	1183.02
1026.739	1215.79
1027.029	1201.55
1027.319	1173.08
1027.608	1183.7
1027.898	1172.4
1028.187	1155.68
1028.477	1130.59
1028.766	1105.51
1029.055	1149.57
1029.344	1105.73
1029.634	1124.94
1029.923	1117.26
1030.212	1098.95
1030.501	1111.38
1030.79	1092.17
1031.078	1071.84
1031.367	1065.28
1031.656	1082.68
1031.945	1044.27
1032.233	1066.41
1032.522	1034.78
1032.81	1023.48
1033.099	1046.07
1033.387	1048.33
1033.675	1024.83
1033.963	1005.85
1034.251	1002.46
1034.54	1004.72
1034.828	992.52
1035.116	991.84
1035.403	980.31
1035.691	940.77
1035.979	985.06
1036.267	953.2
1036.554	960.65
1036.842	938.05
1037.129	942.8
1037.417	934.89
1037.704	943.93
1037.992	920.88
1038.279	937.6
1038.566	926.98
1038.853	926.98
1039.14	926.98
