Data from hue_160_FLMS001491_00075.txt Node
Date: Tue Feb 07 16:51:40 GMT 2017
User: dcchb
Spectrometer: FLMS00149
Trigger mode: 0
Integration Time (sec): 2.000000E-2
Scans to average: 10
Electric dark correction enabled: true
Nonlinearity correction enabled: false
Boxcar width: 0
XAxis mode: Wavelengths
Number of Pixels in Spectrum: 2048
>>>>>Begin Spectral Data<<<<<
341.393	-8.4
341.776	-8.4
342.16	-8.4
342.543	-58.35
342.927	-78.01
343.31	-56.99
343.693	-58.12
344.077	-58.35
344.46	-68.74
344.843	-54.96
345.226	-43.21
345.61	-29.42
345.993	-12.92
346.376	-5.69
346.759	0.86
347.142	18.26
347.525	57.81
347.908	42.22
348.291	75.66
348.674	92.61
349.057	100.97
349.44	135.55
349.823	128.54
350.206	172.61
350.588	201.53
350.971	203.12
351.354	222.32
351.737	251.48
352.119	242.89
352.502	261.42
352.884	272.94
353.267	265.26
353.65	280.85
354.032	292.38
354.414	331.25
354.797	312.72
355.179	323.56
355.562	321.76
355.944	324.24
356.326	328.76
356.709	323.56
357.091	322.21
357.473	323.11
357.855	373.06
358.238	343.23
358.62	336.9
359.002	343
359.384	343.9
359.766	336.22
360.148	322.89
360.53	323.11
360.912	331.93
361.294	339.16
361.676	333.28
362.057	336.67
362.439	335.32
362.821	327.63
363.203	354.07
363.584	318.59
363.966	330.8
364.348	334.19
364.729	325.15
365.111	300.06
365.493	297.12
365.874	340.06
366.256	293.06
366.637	318.82
367.019	306.62
367.4	313.4
367.781	297.58
368.163	317.92
368.544	304.36
368.925	309.1
369.306	312.94
369.688	330.8
370.069	326.95
370.45	296.22
370.831	309.78
371.212	305.26
371.593	310.23
371.974	305.03
372.355	329.44
372.736	321.76
373.117	314.3
373.498	310.91
373.879	291.02
374.26	323.56
374.641	319.27
375.021	303.23
375.402	317.24
375.783	310.01
376.163	321.76
376.544	320.85
376.925	318.14
377.305	314.75
377.686	332.6
378.066	331.93
378.447	321.08
378.827	341.19
379.208	309.33
379.588	315.88
379.968	321.31
380.349	335.54
380.729	329.21
381.109	319.27
381.489	371.7
381.87	326.28
382.25	345.71
382.63	346.84
383.01	325.6
383.39	336.22
383.77	328.54
384.15	329.67
384.53	330.34
384.91	335.77
385.29	359.72
385.67	351.36
386.049	361.08
386.429	356.33
386.809	345.71
387.189	362.89
387.568	333.51
387.948	357.69
388.328	361.53
388.707	345.71
389.087	362.21
389.466	367.63
389.846	376.44
390.225	356.78
390.605	359.5
390.984	378.25
391.363	361.76
391.743	374.19
392.122	374.86
392.501	363.34
392.881	369.67
393.26	368.31
393.639	375.77
394.018	386.61
394.397	381.42
394.776	375.77
395.155	353.62
395.534	388.2
395.913	392.94
396.292	374.86
396.671	390
397.05	383.68
397.429	370.12
397.808	392.04
398.186	392.72
398.565	395.88
398.944	387.29
399.323	385.03
399.701	405.37
400.08	395.2
400.458	401.53
400.837	404.69
401.215	417.12
401.594	397.91
401.972	388.87
402.351	404.69
402.729	402.21
403.107	409.44
403.486	401.3
403.864	396.78
404.242	405.82
404.62	421.19
404.999	399.04
405.377	441.75
405.755	402.43
406.133	430.45
406.511	441.98
406.889	423.9
407.267	447.63
407.645	423
408.023	434.75
408.401	432.26
408.779	434.07
409.156	457.12
409.534	442.66
409.912	441.98
410.29	436.56
410.667	446.27
411.045	461.19
411.422	465.71
411.8	492.37
412.178	465.48
412.555	465.93
412.933	459.15
413.31	481.75
413.687	490.57
414.065	496.89
414.442	505.03
414.819	491.02
415.197	486.95
415.574	492.15
415.951	505.26
416.328	504.8
416.705	488.98
417.082	518.59
417.46	500.51
417.837	526.5
418.214	521.75
418.591	526.27
418.967	506.61
419.344	528.53
419.721	554.29
420.098	515.65
420.475	514.52
420.852	534.86
421.228	526.72
421.605	542.77
421.982	573.28
422.358	547.97
422.735	566.95
423.111	557.23
423.488	578.02
423.864	582.77
424.241	578.7
424.617	592.71
424.994	574.41
425.37	594.07
425.746	563.33
426.123	564.01
426.499	609.66
426.875	607.4
427.251	615.08
427.627	623.22
428.003	635.42
428.379	632.71
428.756	636.33
429.132	634.07
429.507	647.85
429.883	618.92
430.259	658.02
430.635	639.49
431.011	678.58
431.387	670
431.763	674.06
432.138	692.82
432.514	698.92
432.89	700.73
433.265	695.76
433.641	710.9
434.016	717.23
434.392	760.16
434.767	714.29
435.143	719.71
435.518	732.59
435.894	740.73
436.269	761.97
436.644	762.42
437.02	760.62
437.395	780.95
437.77	777.11
438.145	778.47
438.52	785.47
438.895	806.94
439.271	789.09
439.646	834.96
440.021	809.65
440.395	839.94
440.77	831.57
441.145	835.64
441.52	861.63
441.895	867.05
442.27	865.7
442.645	880.16
443.019	881.97
443.394	865.25
443.769	870.9
444.143	878.35
444.518	897.79
444.892	875.41
445.267	896.21
445.641	909.31
446.016	900.5
446.39	936.66
446.764	918.35
447.139	931.91
447.513	916.32
447.887	936.2
448.262	922.87
448.636	936.2
449.01	974.62
449.384	976.88
449.758	974.85
450.132	948.41
450.506	983.21
450.88	1019.14
451.254	999.71
451.628	1018.69
452.002	1000.38
452.376	1048.07
452.75	1041.29
453.123	1060.72
453.497	1056.88
453.871	1060.49
454.244	1084
454.618	1117.89
454.992	1107.73
455.365	1126.48
455.739	1142.53
456.112	1160.83
456.486	1155.18
456.859	1166.03
457.232	1183.2
457.606	1189.3
457.979	1205.58
458.352	1250.09
458.725	1271.34
459.099	1256.42
459.472	1275.63
459.845	1282.41
460.218	1296.87
460.591	1275.4
460.964	1305.69
461.337	1351.56
461.71	1353.37
462.083	1387.72
462.456	1385.46
462.829	1414.61
463.201	1434.72
463.574	1423.65
463.947	1464.1
464.32	1480.82
464.692	1498.45
465.065	1527.6
465.438	1570.31
465.81	1582.06
466.183	1597.43
466.555	1636.98
466.928	1638.56
467.3	1639.46
467.672	1665.22
468.045	1723.08
468.417	1745.22
468.789	1766.92
469.161	1780.93
469.534	1803.75
469.906	1836.07
470.278	1887.14
470.65	1902.73
471.022	1963.07
471.394	1996.29
471.766	2025.89
472.138	2075.61
472.51	2122.39
472.882	2157.42
473.253	2206.68
473.625	2225.89
473.997	2264.76
474.369	2365.32
474.74	2369.84
475.112	2432.44
475.484	2497.07
475.855	2540.68
476.227	2593.34
476.598	2679.21
476.97	2686.89
477.341	2779.09
477.713	2840.79
478.084	2881.24
478.455	3014.12
478.827	3076.49
479.198	3209.36
479.569	3216.82
479.94	3280.55
480.311	3367.1
480.682	3464.27
481.053	3575.91
481.424	3662.23
481.795	3761.67
482.166	3829.24
482.537	3935.67
482.908	4027.65
483.279	4134.54
483.65	4228.32
484.021	4356.91
484.391	4429.67
484.762	4557.58
485.133	4640.97
485.503	4778.59
485.874	4877.8
486.244	4983.33
486.615	5140.16
486.985	5252.93
487.356	5388.29
487.726	5469.42
488.097	5626.7
488.467	5707.83
488.837	5850.43
489.207	6024.88
489.578	6151.21
489.948	6266.91
490.318	6385.1
490.688	6533.57
491.058	6648.6
491.428	6809.95
491.798	6894.92
492.168	7093.33
492.538	7161.35
492.908	7359.09
493.278	7434.56
493.648	7512.08
494.017	7717.04
494.387	7830.03
494.757	7863.25
495.126	8042.68
495.496	8080.65
495.866	8246.29
496.235	8393.41
496.605	8467.98
496.974	8549.79
497.344	8698.49
497.713	8852.15
498.082	8903.9
498.452	9129.66
498.821	9111.58
499.19	9216.21
499.559	9340.28
499.928	9380.28
500.298	9435.64
500.667	9621.17
501.036	9695.52
501.405	9800.83
501.774	9827.95
502.143	9915.18
502.512	10010.09
502.88	10128.05
503.249	10163.98
503.618	10254.38
503.987	10289.18
504.356	10389.29
504.724	10456.63
505.093	10587.48
505.462	10583.18
505.83	10643.75
506.199	10683.74
506.567	10880.58
506.936	10846.23
507.304	11010.74
507.672	11014.81
508.041	11057.52
508.409	11205.31
508.777	11236.95
509.145	11218.87
509.514	11312.2
509.882	11418.64
510.25	11398.53
510.618	11493.89
510.986	11519.65
511.354	11636.94
511.722	11724.62
512.09	11740.89
512.458	11780.66
512.826	11846.65
513.193	11832.41
513.561	11878.97
513.929	11958.51
514.297	12098.17
514.664	12041.22
515.032	12134.78
515.4	12139.98
515.767	12120.77
516.135	12293.65
516.502	12165.29
516.869	12373.19
517.237	12385.17
517.604	12317.15
517.972	12410.93
518.339	12480.31
518.706	12433.53
519.073	12504.71
519.44	12495.67
519.808	12575.22
520.175	12509.23
520.542	12628.78
520.909	12674.43
521.276	12680.98
521.643	12725.72
522.009	12745.61
522.376	12838.49
522.743	12822.22
523.11	12978.6
523.477	12964.81
523.843	12964.59
524.21	13131.59
524.577	13145.83
524.943	13140.18
525.31	13169.1
525.676	13202.77
526.043	13181.31
526.409	13193.06
526.776	13357.57
527.142	13258.59
527.508	13314.86
527.874	13439.38
528.241	13403.9
528.607	13311.02
528.973	13405.93
529.339	13391.24
529.705	13427.18
530.071	13492.26
530.437	13434.86
530.803	13498.13
531.169	13482.77
531.535	13394.63
531.901	13408.42
532.267	13392.83
532.632	13426.27
532.998	13395.54
533.364	13384.01
533.73	13359.61
534.095	13451.36
534.461	13421.98
534.826	13301.08
535.192	13382.2
535.557	13424.92
535.923	13393.05
536.288	13331.81
536.653	13249.55
537.019	13244.81
537.384	13274.64
537.749	13223.56
538.114	13206.39
538.479	13095.43
538.845	13208.65
539.21	13082.55
539.575	13105.6
539.94	13005.04
540.305	13018.37
540.67	13027.86
541.034	13092.27
541.399	12932.27
541.764	12966.17
542.129	12934.53
542.494	12871.48
542.858	12882.56
543.223	12767.08
543.587	12857.25
543.952	12777.25
544.316	12720.3
544.681	12674.43
545.045	12688.44
545.41	12663.81
545.774	12619.51
546.138	12654.09
546.503	12626.74
546.867	12499.52
547.231	12581.77
547.595	12514.66
547.959	12502
548.324	12396.02
548.688	12340.42
549.052	12300.2
549.416	12276.02
549.779	12306.3
550.143	12277.15
550.507	12327.54
550.871	12288.9
551.235	12187.89
551.599	12202.8
551.962	12174.55
552.326	12156.7
552.689	12075.8
553.053	11997.61
553.417	12052.52
553.78	12115.12
554.143	12001.9
554.507	12024.95
554.87	12014.78
555.234	12055.69
555.597	11984.73
555.96	11882.36
556.323	11978.85
556.686	11942.02
557.05	11911.73
557.413	11919.87
557.776	11841.23
558.139	11896.14
558.502	11826.99
558.865	11836.26
559.228	11913.99
559.59	11857.27
559.953	11820.21
560.316	11937.72
560.679	11940.43
561.041	11919.42
561.404	11911.73
561.767	11941.34
562.129	11836.71
562.492	11959.87
562.854	11832.41
563.217	11801.23
563.579	11890.27
563.941	11896.14
564.304	11977.5
564.666	11857.5
565.028	11865.86
565.39	11905.86
565.753	12015.46
566.115	11895.01
566.477	11970.04
566.839	11979.3
567.201	11989.02
567.563	11943.6
567.925	12058.17
568.287	11923.03
568.648	11991.05
569.01	12076.25
569.372	12073.99
569.734	11994.67
570.095	12152.86
570.457	12142.69
570.819	12117.15
571.18	12099.3
571.542	12191.73
571.903	12098.17
572.265	12120.32
572.626	12145.4
572.987	12219.75
573.349	12150.82
573.71	12249.35
574.071	12265.62
574.432	12202.57
574.794	12297.94
575.155	12189.02
575.516	12242.12
575.877	12240.31
576.238	12280.31
576.599	12211.16
576.96	12245.51
577.32	12278.05
577.681	12263.59
578.042	12225.85
578.403	12295.68
578.763	12269.92
579.124	12275.12
579.485	12380.88
579.845	12308.33
580.206	12324.38
580.566	12247.09
580.927	12324.15
581.287	12341.55
581.648	12237.83
582.008	12291.39
582.368	12243.48
582.728	12280.54
583.089	12262.01
583.449	12259.3
583.809	12252.97
584.169	12238.28
584.529	12214.55
584.889	12337.94
585.249	12217.49
585.609	12216.13
585.969	12202.35
586.329	12131.16
586.688	12211.61
587.048	12175.91
587.408	12179.3
587.768	12120.32
588.127	12131.62
588.487	12111.73
588.846	12145.63
589.206	12127.1
589.565	12110.15
589.925	12119.64
590.284	12057.95
590.643	12153.08
591.003	12145.18
591.362	12191.28
591.721	12033.09
592.08	12088
592.44	12034.44
592.799	12110.37
593.158	12112.63
593.517	12070.83
593.876	12094.55
594.235	12019.53
594.593	12064.27
594.952	12092.97
595.311	12008
595.67	12012.3
596.029	12116.7
596.387	12074.89
596.746	12082.35
597.104	12034.44
597.463	11898.63
597.822	12016.59
598.18	11925.52
598.538	11963.48
598.897	11974.11
599.255	11944.5
599.613	12134.1
599.972	11943.82
600.33	11982.92
600.688	11929.14
601.046	11963.71
601.404	12040.09
601.762	11931.85
602.12	12049.36
602.478	12002.13
602.836	12028.34
603.194	11998.06
603.552	12018.62
603.91	11977.72
604.268	11960.77
604.625	11955.35
604.983	12094.55
605.341	11906.99
605.698	12027.44
606.056	12043.93
606.413	11990.83
606.771	12024.95
607.128	12050.71
607.485	11942.92
607.843	11996.93
608.2	12018.17
608.557	12079.87
608.914	11941.79
609.272	12081.67
609.629	12082.35
609.986	12059.08
610.343	12009.13
610.7	12062.24
611.057	12074.89
611.414	12072.63
611.771	12070.6
612.127	12167.1
612.484	12124.38
612.841	12138.17
613.198	12071.05
613.554	12158.06
613.911	12235.57
614.267	12197.38
614.624	12159.41
614.98	12177.26
615.337	12288
615.693	12220.65
616.05	12197.6
616.406	12278.96
616.762	12240.54
617.118	12294.55
617.475	12309.01
617.831	12313.98
618.187	12330.71
618.543	12293.19
618.899	12350.37
619.255	12356.47
619.611	12317.15
619.967	12354.44
620.323	12356.92
620.678	12328
621.034	12294.55
621.39	12265.17
621.746	12324.83
622.101	12445.51
622.457	12354.89
622.812	12362.57
623.168	12368.67
623.523	12279.63
623.879	12414.55
624.234	12289.8
624.589	12394.21
624.945	12370.48
625.3	12438.27
625.655	12384.49
626.01	12304.27
626.365	12341.78
626.72	12257.94
627.075	12367.99
627.43	12320.09
627.785	12290.71
628.14	12246.87
628.495	12341.33
628.85	12330.25
629.205	12240.99
629.559	12325.51
629.914	12232.86
630.269	12220.88
630.623	12243.93
630.978	12240.99
631.332	12218.17
631.687	12192.18
632.041	12167.55
632.396	12228.11
632.75	12093.42
633.104	12111.5
633.459	12117.83
633.813	12214.1
634.167	12092.97
634.521	12113.54
634.875	12141.56
635.229	12096.36
635.583	12009.81
635.937	11997.83
636.291	12066.53
636.645	12048.68
636.999	11989.7
637.352	12074.67
637.706	11965.07
638.06	11918.06
638.413	11937.95
638.767	11916.93
639.121	11942.24
639.474	11848.46
639.828	11917.61
640.181	11887.55
640.534	11890.94
640.888	11824.28
641.241	11785.86
641.594	11862.24
641.947	11846.43
642.301	11816.37
642.654	11814.56
643.007	11810.49
643.36	11804.17
643.713	11772.76
644.066	11873.54
644.419	11707.67
644.771	11719.88
645.124	11596.49
645.477	11559.88
645.83	11487.79
646.182	11491.41
646.535	11462.93
646.888	11472.42
647.24	11375.48
647.593	11408.25
647.945	11436.49
648.298	11383.16
648.65	11333.22
649.002	11305.88
649.355	11370.73
649.707	11370.96
650.059	11441.69
650.411	11649.59
650.763	11567.34
651.115	11679.2
651.467	11622.93
651.819	11680.33
652.171	11680.33
652.523	11570.73
652.875	11625.87
653.227	11518.75
653.578	11642.82
653.93	11603.49
654.282	11586.32
654.633	11610.05
654.985	11520.78
655.337	11637.17
655.688	11623.38
656.039	11747.45
656.391	11585.19
656.742	11624.51
657.094	11589.03
657.445	11635.13
657.796	11637.39
658.147	11637.17
658.498	11592.2
658.849	11731.4
659.2	11616.83
659.551	11618.64
659.902	11627
660.253	11645.53
660.604	11647.79
660.955	11689.37
661.306	11606.66
661.656	11587.68
662.007	11634.23
662.358	11594.46
662.708	11652.98
663.059	11620.67
663.409	11591.74
663.76	11702.47
664.11	11645.3
664.461	11677.16
664.811	11631.06
665.161	11644.62
665.511	11675.81
665.862	11688.92
666.212	11678.75
666.562	11691.85
666.912	11692.76
667.262	11728.69
667.612	11671.52
667.962	11676.26
668.312	11679.88
668.662	11652.53
669.011	11621.35
669.361	11675.13
669.711	11626.32
670.06	11651.63
670.41	11627.45
670.76	11592.42
671.109	11634.91
671.459	11640.1
671.808	11553.33
672.157	11588.81
672.507	11516.94
672.856	11485.08
673.205	11521.91
673.554	11551.29
673.904	11481.01
674.253	11636.04
674.602	11511.29
674.951	11341.81
675.3	11342.94
675.649	11500.9
675.998	11561.24
676.346	11504.29
676.695	11541.58
677.044	11497.28
677.393	11483.05
677.741	11425.65
678.09	11462.03
678.438	11481.69
678.787	11471.75
679.135	11385.42
679.484	11394.69
679.832	11338.42
680.181	11307.46
680.529	11328.02
680.877	11286.89
681.225	11272.88
681.573	11356.04
681.922	11241.47
682.27	11227.01
682.618	11246.67
682.966	11226.56
683.314	11184.75
683.661	11273.11
684.009	11146.78
684.357	11066.79
684.705	11089.61
685.053	11066.79
685.4	11080.57
685.748	10947.47
686.095	10990.4
686.443	10964.19
686.79	10952.21
687.138	10923.29
687.485	10950.63
687.832	10888.03
688.18	10874.47
688.527	10779.79
688.874	10760.13
689.221	10810.07
689.568	10766
689.915	10739.79
690.262	10736.4
690.609	10662.28
690.956	10611.88
691.303	10619.11
691.65	10540.92
691.997	10537.99
692.344	10493.24
692.69	10457.08
693.037	10384.54
693.383	10315.84
693.73	10405.11
694.077	10345.22
694.423	10279.69
694.769	10307.71
695.116	10237.88
695.462	10207.6
695.808	10249.63
696.155	10244.66
696.501	10048.51
696.847	10094.38
697.193	10069.07
697.539	10039.47
697.885	9956.31
698.231	9864.33
698.577	9954.95
698.923	9870.21
699.269	9825.01
699.614	9769.87
699.96	9810.55
700.306	9677.22
700.651	9731.45
700.997	9657.33
701.342	9568.97
701.688	9583.89
702.033	9582.08
702.379	9580.04
702.724	9496.88
703.069	9533.94
703.415	9436.32
703.76	9425.7
704.105	9427.05
704.45	9422.76
704.795	9306.61
705.14	9283.33
705.485	9311.13
705.83	9218.25
706.175	9285.14
706.52	9183.67
706.865	9119.27
707.209	9123.11
707.554	9075.88
707.899	9091.24
708.243	9020.29
708.588	9074.97
708.932	9018.7
709.277	8992.94
709.621	8949.55
709.966	8867.75
710.31	8917.46
710.654	8827.07
710.998	8867.07
711.342	8838.82
711.687	8762.44
712.031	8740.52
712.375	8724.02
712.719	8773.06
713.063	8742.33
713.407	8732.61
713.75	8690.8
714.094	8691.71
714.438	8640.18
714.782	8650.8
715.125	8624.14
715.469	8647.41
715.812	8554.99
716.156	8505.95
716.499	8545.04
716.843	8517.02
717.186	8521.99
717.53	8529.45
717.873	8510.47
718.216	8547.08
718.559	8483.12
718.902	8458.94
719.246	8513.18
719.589	8437.7
719.932	8422.34
720.275	8437.93
720.617	8378.04
720.96	8360.87
721.303	8410.13
721.646	8394.31
721.989	8335.78
722.331	8427.53
722.674	8350.7
723.016	8329.68
723.359	8319.74
723.701	8373.3
724.044	8274.32
724.386	8226.63
724.729	8349.79
725.071	8301.89
725.413	8275.22
725.755	8282.45
726.097	8206.07
726.439	8178.27
726.782	8218.95
727.124	8230.02
727.465	8254.66
727.807	8225.5
728.149	8200.42
728.491	8167.88
728.833	8228.67
729.175	8157.48
729.516	8221.44
729.858	8177.14
730.199	8183.92
730.541	8196.58
730.882	8141.89
731.224	8184.15
731.565	8126.52
731.906	8158.84
732.248	8155.68
732.589	8095.11
732.93	8095.79
733.271	8120.42
733.612	8129.46
733.953	8124.26
734.294	8101.21
734.635	8094.21
734.976	8156.13
735.317	8128.78
735.658	8155.45
735.999	8163.36
736.339	8142.12
736.68	8204.49
737.021	8187.54
737.361	8065.73
737.702	8225.5
738.042	8140.31
738.383	8163.36
738.723	8168.56
739.063	8124.49
739.404	8194.32
739.744	8177.37
740.084	8176.24
740.424	8267.54
740.764	8190.93
741.104	8289.91
741.444	8257.37
741.784	8263.02
742.124	8246.52
742.464	8268.44
742.804	8266.41
743.143	8347.53
743.483	8312.06
743.823	8287.42
744.162	8334.43
744.502	8419.85
744.841	8406.06
745.181	8445.61
745.52	8461.43
745.86	8533.52
746.199	8510.47
746.538	8551.6
746.877	8571.71
747.216	8706.4
747.556	8732.61
747.895	8703.91
748.234	8768.54
748.573	8809.44
748.911	8871.81
749.25	8923.34
749.589	8921.76
749.928	9063.9
750.267	9105.03
750.605	9211.69
750.944	9209.43
751.283	9274.97
751.621	9352.03
751.96	9453.49
752.298	9514.06
752.636	9624.11
752.975	9663.88
753.313	9770.55
753.651	9880.6
753.989	9968.74
754.327	10053.7
754.666	10086.25
755.004	10256.64
755.342	10356.52
755.679	10534.6
756.017	10668.15
756.355	10726.23
756.693	10921.93
757.031	11053.9
757.368	11084.86
757.706	11348.81
758.044	11420.9
758.381	11557.62
758.719	11657.5
759.056	11822.25
759.394	11976.14
759.731	12041.22
760.068	12313.76
760.405	12425.62
760.743	12589.23
761.08	12734.76
761.417	12852.73
761.754	12926.85
762.091	13121.42
762.428	13293.62
762.765	13392.15
763.102	13647.51
763.438	13713.27
763.775	13902.42
764.112	14103.54
764.449	14291.79
764.785	14402.52
765.122	14526.36
765.458	14618.33
765.795	14848.83
766.131	14932.9
766.467	15016.96
766.804	15110.07
767.14	15312.55
767.476	15451.53
767.812	15575.37
768.148	15629.15
768.485	15750.28
768.821	15863.95
769.157	15923.15
769.492	16080.66
769.828	16232.07
770.164	16285.41
770.5	16365.18
770.836	16496.47
771.171	16546.42
771.507	16667.54
771.842	16649.92
772.178	16798.84
772.513	16978.72
772.849	17012.17
773.184	17039.74
773.519	17106.17
773.855	17160.64
774.19	17218.49
774.525	17351.82
774.86	17420.29
775.195	17467.75
775.53	17552.72
775.865	17479.72
776.2	17581.19
776.535	17470.01
776.87	17666.39
777.205	17624.58
777.539	17594.3
777.874	17791.81
778.209	17706.61
778.543	17742.54
778.878	17819.15
779.212	17715.88
779.547	17738.93
779.881	17796.78
780.215	17755.2
780.55	17896.44
780.884	17838.13
781.218	17762.88
781.552	17873.61
781.886	17868.19
782.22	17822.99
782.554	17762.88
782.888	17712.71
783.222	17709.1
783.556	17738.7
783.889	17768.98
784.223	17675.43
784.557	17676.78
784.89	17720.62
785.224	17632.71
785.557	17693.28
785.891	17621.19
786.224	17668.42
786.558	17604.69
786.891	17432.72
787.224	17498.03
787.557	17453.96
787.891	17594.75
788.224	17477.24
788.557	17534.41
788.89	17503.45
789.223	17511.14
789.556	17428.65
789.888	17336.9
790.221	17390.69
790.554	17304.81
790.887	17325.38
791.219	17253.52
791.552	17225.49
791.884	17154.76
792.217	17158.83
792.549	17176.23
792.882	17080.86
793.214	17065.72
793.546	17091.94
793.879	17019.62
794.211	16929.23
794.543	16996.57
794.875	16813.75
795.207	16964.26
795.539	16894.88
795.871	16815.79
796.203	16703.7
796.535	16630.48
796.867	16681.1
797.198	16656.92
797.53	16660.54
797.862	16527.88
798.193	16613.53
798.525	16405.63
798.856	16494.21
799.188	16309.81
799.519	16331.51
799.85	16259.42
800.182	16218.06
800.513	16230.04
800.844	16157.5
801.175	16345.52
801.506	16212.86
801.837	16131.51
802.168	16028.24
802.499	15953.21
802.83	15971.06
803.161	15981.68
803.491	15944.62
803.822	15926.77
804.153	15838.19
804.483	15807.23
804.814	15669.83
805.145	15724.29
805.475	15637.96
805.805	15714.35
806.136	15694.23
806.466	15696.27
806.796	15608.13
807.126	15527.01
807.457	15452.21
807.787	15508.02
808.117	15395.03
808.447	15358.65
808.777	15411.08
809.107	15353
809.436	15264.19
809.766	15274.81
810.096	15275.94
810.426	15165.66
810.755	15232.55
811.085	15203.17
811.414	15118.88
811.744	14985.33
812.073	15089.5
812.403	15011.54
812.732	14981.03
813.061	14938.55
813.39	14921.83
813.719	14849.28
814.049	14902.62
814.378	14942.84
814.707	14793.24
815.036	14780.36
815.365	14710.08
815.693	14607.48
816.022	14655.62
816.351	14560.03
816.68	14550.54
817.008	14552.57
817.337	14438.67
817.665	14418.56
817.994	14409.75
818.322	14483.64
818.651	14308.96
818.979	14267.61
819.307	14345.12
819.636	14334.27
819.964	14311.67
820.292	14301.05
820.62	14267.38
820.948	14253.82
821.276	14350.09
821.604	14248.85
821.932	14389.64
822.259	14237.55
822.587	14294.72
822.915	14187.16
823.243	14204.78
823.57	14197.55
823.898	14271.22
824.225	14225.57
824.553	14286.36
824.88	14240.49
825.207	14230.09
825.535	14222.18
825.862	14281.84
826.189	14190.54
826.516	14283.2
826.843	14332.24
827.17	14282.29
827.497	14308.51
827.824	14300.15
828.151	14336.76
828.478	14257.89
828.805	14308.28
829.131	14232.13
829.458	14272.58
829.785	14177.44
830.111	14197.1
830.438	14327.94
830.764	14282.07
831.09	14307.83
831.417	14184.44
831.743	14305.8
832.069	14263.54
832.395	14159.59
832.722	14290.2
833.048	14175.63
833.374	14206.82
833.7	14152.81
834.026	14172.01
834.351	14193.03
834.677	14103.54
835.003	14351.22
835.329	14156.65
835.654	14090.43
835.98	14068.74
836.306	14164.33
836.631	14054.5
836.956	14176.08
837.282	14127.72
837.607	14008.4
837.932	13983.54
838.258	14032.13
838.583	14012.02
838.908	13913.49
839.233	13883.89
839.558	13890.21
839.883	13837.11
840.208	13782.42
840.533	13869.2
840.858	13835.98
841.182	13760.05
841.507	13790.56
841.832	13732.03
842.156	13663.1
842.481	13706.04
842.805	13689.99
843.13	13591.92
843.454	13607.74
843.778	13530.22
844.103	13503.56
844.427	13527.74
844.751	13450
845.075	13422.88
845.399	13341.3
845.723	13328.87
846.047	13343.34
846.371	13184.7
846.695	13255.88
847.019	13125.04
847.343	13056.56
847.666	12986.96
847.99	12899.28
848.313	12991.48
848.637	12804.59
848.96	12833.97
849.284	12791.26
849.607	12772.96
849.931	12730.02
850.254	12581.55
850.577	12539.51
850.9	12495.67
851.223	12515.11
851.546	12350.37
851.869	12353.31
852.192	12398.5
852.515	12242.57
852.838	12130.71
853.161	12191.28
853.483	12201.44
853.806	12095.23
854.129	12021.79
854.451	11980.89
854.774	11971.62
855.096	11947.89
855.419	11939.98
855.741	11857.95
856.063	11799.65
856.385	11770.95
856.708	11662.02
857.03	11700.44
857.352	11700.89
857.674	11688.92
857.996	11606.66
858.318	11520.11
858.64	11518.98
858.961	11484.85
859.283	11477.17
859.605	11409.15
859.926	11429.49
860.248	11352.2
860.57	11331.19
860.891	11383.39
861.212	11312.2
861.534	11277.4
861.855	11194.47
862.176	11271.3
862.498	11295.25
862.819	11203.96
863.14	11133.68
863.461	11186.56
863.782	11185.88
864.103	11178.19
864.424	11087.58
864.745	11124.86
865.065	11100
865.386	11078.08
865.707	11018.88
866.027	10959.44
866.348	10980.91
866.668	10994.02
866.989	10946.34
867.309	10836.96
867.63	10894.36
867.95	10822.27
868.27	10742.95
868.59	10826.79
868.91	10802.39
869.23	10794.48
869.55	10686.91
869.87	10781.14
870.19	10780.47
870.51	10758.32
870.83	10724.2
871.15	10653.46
871.469	10714.7
871.789	10702.05
872.109	10698.43
872.428	10543.41
872.748	10619.11
873.067	10634.25
873.386	10637.42
873.706	10497.31
874.025	10554.71
874.344	10476.74
874.663	10503.86
874.982	10557.65
875.301	10471.09
875.62	10512.45
875.939	10439.01
876.258	10433.58
876.577	10433.36
876.896	10424.99
877.214	10377.09
877.533	10386.58
877.852	10345
878.17	10321.04
878.489	10327.6
878.807	10297.99
879.125	10240.37
879.444	10317.43
879.762	10226.81
880.08	10232.91
880.398	10222.06
880.716	10192.46
881.034	10147.04
881.352	10135.51
881.67	10073.59
881.988	10054.16
882.306	10059.13
882.624	10052.12
882.941	9925.8
883.259	9974.38
883.577	10002.86
883.894	9892.13
884.212	9880.38
884.529	9942.97
884.846	9900.26
885.164	9889.42
885.481	9816.87
885.798	9901.17
886.115	9811
886.432	9819.13
886.75	9766.71
887.067	9778.46
887.383	9707.27
887.7	9746.59
888.017	9662.08
888.334	9684.45
888.651	9625.47
888.967	9603.55
889.284	9557.67
889.6	9492.82
889.917	9448.75
890.233	9490.1
890.55	9453.72
890.866	9420.5
891.182	9432.48
891.498	9411.01
891.815	9324.01
892.131	9340.28
892.447	9283.78
892.763	9305.93
893.079	9223.44
893.395	9185.25
893.71	9172.82
894.026	9193.84
894.342	9077.01
894.657	9086.05
894.973	9051.25
895.289	9038.14
895.604	9025.71
895.92	8944.13
896.235	8942.32
896.55	8884.92
896.865	8873.62
897.181	8842.44
897.496	8801.31
897.811	8776.9
898.126	8772.83
898.441	8694.19
898.756	8728.54
899.071	8650.13
899.386	8689.67
899.7	8548.89
900.015	8519.73
900.33	8451.26
900.644	8484.03
900.959	8486.74
901.273	8462.79
901.588	8452.16
901.902	8347.53
902.216	8331.49
902.531	8288.33
902.845	8289.46
903.159	8275.9
903.473	8209.23
903.787	8205.84
904.101	8170.59
904.415	8177.37
904.729	8129.46
905.042	8011.05
905.356	8055.34
905.67	8011.5
905.984	8028
906.297	7931.5
906.611	7917.72
906.924	7897.83
907.237	7866.19
907.551	7824.61
907.864	7797.72
908.177	7789.81
908.491	7769.02
908.804	7700.55
909.117	7671.85
909.43	7573.32
909.743	7605.41
910.056	7535.13
910.368	7532.41
910.681	7451.06
910.994	7518.4
911.307	7378.52
911.619	7407.67
911.932	7431.17
912.244	7343.04
912.557	7355.7
912.869	7281.35
913.181	7283.83
913.494	7265.53
913.806	7161.8
914.118	7143.5
914.43	7168.13
914.742	7129.94
915.054	7070.05
915.366	7049.72
915.678	7064.63
915.99	7000.45
916.302	7000
916.613	6934.24
916.925	6905.31
917.236	6882.71
917.548	6829.38
917.859	6859.89
918.171	6855.14
918.482	6810.63
918.794	6731.08
919.105	6745.32
919.416	6673.68
919.727	6657.18
920.038	6657.41
920.349	6619.67
920.66	6557.75
920.971	6602.95
921.282	6576.28
921.593	6479.11
921.903	6486.79
922.214	6463.06
922.525	6463.29
922.835	6411.54
923.146	6393.91
923.456	6329.51
923.767	6362.5
924.077	6321.37
924.387	6294.48
924.697	6243.64
925.008	6225.33
925.318	6197.99
925.628	6205.44
925.938	6160.7
926.248	6119.57
926.558	6071.89
926.867	6077.31
927.177	6099.46
927.487	6009.29
927.796	5974.26
928.106	5964.55
928.416	5978.11
928.725	5942.4
929.034	5893.81
929.344	5904.44
929.653	5816.98
929.962	5811.33
930.271	5785.12
930.581	5709.41
930.89	5736.98
931.199	5790.31
931.508	5733.14
931.817	5721.62
932.125	5637.1
932.434	5609.08
932.743	5618.79
933.051	5548.06
933.36	5585.57
933.669	5520.94
933.977	5540.38
934.286	5479.81
934.594	5508.97
934.902	5438.68
935.21	5391
935.519	5421.51
935.827	5389.42
936.135	5361.17
936.443	5289.54
936.751	5347.84
937.059	5345.81
937.367	5286.6
937.674	5291.8
937.982	5245.24
938.29	5242.98
938.597	5216.54
938.905	5178.13
939.213	5163.89
939.52	5087.51
939.827	5151.91
940.135	5106.72
940.442	5000.28
940.749	5071.91
941.056	5041.18
941.363	4957.79
941.67	5025.36
941.977	4988.08
942.284	4917.57
942.591	4914.18
942.898	4878.47
943.205	4887.06
943.511	4830.11
943.818	4841.41
944.125	4801.41
944.431	4820.62
944.738	4781.07
945.044	4725.03
945.35	4737.23
945.657	4720.51
945.963	4717.57
946.269	4644.13
946.575	4622.66
946.881	4639.16
947.187	4620.85
947.493	4537.24
947.799	4582.44
948.105	4539.05
948.41	4493.85
948.716	4489.56
949.022	4464.92
949.327	4473.51
949.633	4396.45
949.938	4419.05
950.244	4414.76
950.549	4374.53
950.854	4372.5
951.16	4350.13
951.465	4348.09
951.77	4318.04
952.075	4311.48
952.38	4254.31
952.685	4279.39
952.99	4229.9
953.294	4211.15
953.599	4151.03
953.904	4185.38
954.209	4178.83
954.513	4171.37
954.818	4127.76
955.122	4163.46
955.426	4099.51
955.731	4118.72
956.035	4100.19
956.339	4061.32
956.643	4025.39
956.948	3952.85
957.252	3981.55
957.556	3992.62
957.86	3987.65
958.163	3958.05
958.467	3935
958.771	3897.93
959.075	3879.4
959.378	3886.64
959.682	3862.23
959.985	3833.3
960.289	3838.5
960.592	3812.51
960.896	3812.96
961.199	3803.25
961.502	3771.84
961.805	3769.8
962.108	3755.79
962.411	3764.38
962.714	3692.52
963.017	3701.78
963.32	3698.62
963.623	3636.02
963.926	3636.25
964.228	3644.83
964.531	3608.9
964.833	3603.93
965.136	3586.53
965.438	3540.43
965.741	3523.93
966.043	3540.66
966.345	3493.2
966.648	3498.62
966.95	3531.84
967.252	3474.67
967.554	3438.51
967.856	3446.65
968.158	3422.24
968.46	3405.29
968.761	3391.96
969.063	3375.91
969.365	3343.6
969.666	3387.67
969.968	3328.46
970.269	3331.85
970.571	3330.04
970.872	3312.86
971.174	3265.41
971.475	3291.85
971.776	3253.66
972.077	3228.57
972.378	3218.4
972.679	3233.09
972.98	3181.57
973.281	3154.22
973.582	3194.22
973.883	3161.46
974.183	3098.63
974.484	3167.56
974.785	3109.03
975.085	3105.64
975.386	3100.44
975.686	3065.41
975.986	3067.67
976.287	3060.89
976.587	3030.39
976.887	3001.46
977.187	3027
977.487	3050.5
977.787	2993.78
978.087	2954.68
978.387	2921.01
978.687	2947.9
978.987	2927.56
979.286	2924.85
979.586	2862.71
979.885	2877.17
980.185	2839.66
980.484	2871.07
980.784	2868.58
981.083	2832.43
981.382	2804.4
981.682	2808.25
981.981	2787.45
982.28	2789.71
982.579	2779.55
982.878	2776.16
983.177	2744.07
983.475	2725.54
983.774	2742.03
984.073	2697.06
984.372	2641.7
984.67	2681.02
984.969	2693.45
985.267	2669.94
985.566	2648.02
985.864	2627.91
986.162	2636.95
986.461	2614.35
986.759	2589.95
987.057	2589.04
987.355	2569.38
987.653	2562.6
987.951	2567.35
988.249	2525.77
988.547	2531.64
988.844	2555.14
989.142	2498.65
989.44	2490.29
989.737	2513.34
990.035	2517.18
990.332	2439.44
990.63	2442.83
990.927	2438.09
991.224	2422.94
991.521	2435.15
991.819	2423.17
992.116	2403.96
992.413	2364.19
992.71	2352.89
993.006	2369.84
993.303	2349.27
993.6	2354.7
993.897	2306.56
994.193	2319.67
994.49	2311.76
994.787	2326.9
995.083	2278.99
995.379	2265.66
995.676	2243.51
995.972	2259.56
996.268	2241.93
996.565	2221.82
996.861	2203.06
997.157	2205.1
997.453	2197.41
997.749	2208.94
998.044	2173.46
998.34	2173.46
998.636	2163.52
998.932	2136.4
999.227	2112.67
999.523	2166.45
999.818	2103.41
1000.114	2119.68
1000.409	2107.47
1000.704	2047.14
1001	2050.53
1001.295	2058.21
1001.59	2074.93
1001.885	2044.65
1002.18	2026.8
1002.475	2020.24
1002.77	2016.85
1003.065	1980.92
1003.359	2003.07
1003.654	1997.42
1003.949	1950.64
1004.243	1942.96
1004.538	1934.37
1004.832	1938.44
1005.127	1933.24
1005.421	1911.77
1005.715	1899.79
1006.009	1907.48
1006.304	1888.27
1006.598	1851.43
1006.892	1862.28
1007.186	1841.49
1007.48	1836.75
1007.773	1839.46
1008.067	1829.29
1008.361	1831.77
1008.655	1827.48
1008.948	1776.18
1009.242	1766.46
1009.535	1752
1009.829	1785.22
1010.122	1731.44
1010.415	1729.63
1010.708	1720.14
1011.001	1728.95
1011.295	1732.79
1011.588	1682.85
1011.881	1631.1
1012.173	1671.55
1012.466	1642.85
1012.759	1629.75
1013.052	1636.98
1013.344	1645.11
1013.637	1584.32
1013.93	1601.05
1014.222	1584.32
1014.514	1608.5
1014.807	1603.98
1015.099	1585.68
1015.391	1592.46
1015.683	1561.27
1015.976	1541.16
1016.268	1513.14
1016.56	1510.2
1016.851	1522.4
1017.143	1507.71
1017.435	1519.69
1017.727	1494.61
1018.018	1508.84
1018.31	1458.68
1018.602	1477.66
1018.893	1434.72
1019.185	1454.83
1019.476	1469.07
1019.767	1434.5
1020.058	1414.38
1020.35	1418.45
1020.641	1421.62
1020.932	1398.11
1021.223	1382.75
1021.514	1366.25
1021.804	1362.86
1022.095	1361.5
1022.386	1340.71
1022.677	1356.53
1022.967	1326.48
1023.258	1332.13
1023.548	1324.67
1023.839	1331
1024.129	1303.2
1024.419	1300.94
1024.709	1270.88
1025	1274.73
1025.29	1279.02
1025.58	1240.38
1025.87	1274.5
1026.16	1253.48
1026.449	1227.72
1026.739	1228.85
1027.029	1203.77
1027.319	1222.52
1027.608	1210.32
1027.898	1208.74
1028.187	1188.17
1028.477	1190.43
1028.766	1170.77
1029.055	1155.63
1029.344	1134.17
1029.634	1159.7
1029.923	1141.4
1030.212	1138.46
1030.501	1168.74
1030.79	1118.35
1031.078	1115.86
1031.367	1128.97
1031.656	1102.08
1031.945	1095.75
1032.233	1091.68
1032.522	1079.93
1032.81	1041.29
1033.099	1057.1
1033.387	1075.18
1033.675	1049.65
1033.963	1059.82
1034.251	1051.23
1034.54	1035.86
1034.828	1036.31
1035.116	1010.55
1035.403	1008.74
1035.691	1024.34
1035.979	1017.56
1036.267	988.63
1036.554	994.96
1036.842	988.86
1037.129	971.23
1037.417	956.32
1037.704	953.6
1037.992	949.99
1038.279	932.14
1038.566	941.63
1038.853	941.63
1039.14	941.63
