Data from hue_34_FLMS001491_00045.txt Node
Date: Tue Feb 07 17:25:40 GMT 2017
User: dcchb
Spectrometer: FLMS00149
Trigger mode: 0
Integration Time (sec): 2.000000E-2
Scans to average: 10
Electric dark correction enabled: true
Nonlinearity correction enabled: false
Boxcar width: 0
XAxis mode: Wavelengths
Number of Pixels in Spectrum: 2048
>>>>>Begin Spectral Data<<<<<
341.393	-31.6
341.776	-31.6
342.16	-31.6
342.543	-66.4
342.927	-61.65
343.31	-71.14
343.693	-58.26
344.077	-72.05
344.46	-51.48
344.843	-65.04
345.226	-50.35
345.61	-34.53
345.993	-15.1
346.376	-6.29
346.759	13.38
347.142	23.32
347.525	44.11
347.908	57.44
348.291	65.35
348.674	108.06
349.057	112.58
349.44	99.02
349.823	147.38
350.206	167.27
350.588	202.75
350.971	207.49
351.354	244.56
351.737	240.71
352.119	236.87
352.502	278.91
352.884	274.61
353.267	285.68
353.65	310.99
354.032	300.83
354.414	315.29
354.797	330.66
355.179	321.39
355.562	334.95
355.944	350.54
356.326	334.72
356.709	353.48
357.091	354.16
357.473	353.48
357.855	342.86
358.238	358.9
358.62	336.76
359.002	355.97
359.384	346.7
359.766	336.76
360.148	324.1
360.53	334.5
360.912	334.5
361.294	362.97
361.676	356.19
362.057	343.99
362.439	353.48
362.821	350.09
363.203	317.1
363.584	341.5
363.966	332.01
364.348	333.14
364.729	326.14
365.111	312.35
365.493	325.91
365.874	330.66
366.256	315.74
366.637	323.42
367.019	348.96
367.4	325.46
367.781	333.59
368.163	329.98
368.544	345.57
368.925	304.22
369.306	334.5
369.688	325.91
370.069	333.14
370.45	325.91
370.831	318.23
371.212	313.03
371.593	320.26
371.974	334.72
372.355	323.2
372.736	327.49
373.117	326.36
373.498	314.84
373.879	343.99
374.26	317.32
374.641	318.9
375.021	314.84
375.402	334.27
375.783	330.2
376.163	339.69
376.544	346.7
376.925	347.38
377.305	336.76
377.686	335.85
378.066	335.63
378.447	321.39
378.827	325.91
379.208	312.35
379.588	325.23
379.968	333.82
380.349	337.89
380.729	329.75
381.109	340.82
381.489	343.76
381.87	331.11
382.25	344.67
382.63	346.25
383.01	332.24
383.39	357.32
383.77	340.6
384.15	326.81
384.53	345.34
384.91	361.39
385.29	346.25
385.67	358.68
386.049	372.91
386.429	340.37
386.809	378.79
387.189	368.39
387.568	352.35
387.948	356.42
388.328	355.51
388.707	349.64
389.087	362.52
389.466	384.44
389.846	379.69
390.225	353.93
390.605	366.81
390.984	358.68
391.363	358.68
391.743	376.98
392.122	378.56
392.501	386.47
392.881	369.98
393.26	389.64
393.639	386.47
394.018	366.81
394.397	395.74
394.776	385.12
395.155	409.75
395.534	403.2
395.913	402.07
396.292	388.96
396.671	387.6
397.05	408.62
397.429	413.36
397.808	392.8
398.186	384.89
398.565	405
398.944	395.51
399.323	388.51
399.701	408.39
400.08	413.82
400.458	409.52
400.837	411.56
401.215	406.13
401.594	413.82
401.972	401.39
402.351	422.63
402.729	423.76
403.107	435.74
403.486	407.26
403.864	428.73
404.242	419.69
404.62	431.67
404.999	459.47
405.377	439.58
405.755	430.31
406.133	437.77
406.511	449.52
406.889	449.52
407.267	436.19
407.645	436.19
408.023	455.4
408.401	468.5
408.779	440.93
409.156	470.99
409.534	462.4
409.912	466.7
410.29	473.93
410.667	463.53
411.045	455.62
411.422	465.57
411.8	461.5
412.178	469.63
412.555	475.28
412.933	477.77
413.31	499.01
413.687	484.1
414.065	504.89
414.442	500.82
414.819	504.89
415.197	521.38
415.574	492.01
415.951	509.18
416.328	504.89
416.705	521.38
417.082	526.36
417.46	510.54
417.837	535.4
418.214	518.45
418.591	527.71
418.967	529.07
419.344	526.36
419.721	530.88
420.098	527.71
420.475	530.2
420.852	540.37
421.228	541.05
421.605	538.33
421.982	572
422.358	559.58
422.735	562.74
423.111	586.69
423.488	579.24
423.864	592.34
424.241	611.78
424.617	580.14
424.994	579.91
425.37	609.29
425.746	605.45
426.123	590.31
426.499	600.48
426.875	592.12
427.251	600.25
427.627	610.42
428.003	610.2
428.379	618.78
428.756	609.97
429.132	630.99
429.507	634.83
429.883	640.48
430.259	634.6
430.635	633.25
431.011	639.12
431.387	670.53
431.763	662.85
432.138	670.08
432.514	675.96
432.89	658.1
433.265	688.16
433.641	686.8
434.016	719.57
434.392	677.54
434.767	717.09
435.143	705.33
435.518	699.23
435.894	713.24
436.269	734.94
436.644	724.09
437.02	743.53
437.395	733.13
437.77	743.75
438.145	765.9
438.52	741.72
438.895	754.6
439.271	763.86
439.646	787.59
440.021	790.3
440.395	796.63
440.77	763.41
441.145	799.34
441.52	811.32
441.895	801.38
442.27	819.91
442.645	800.7
443.019	837.53
443.394	813.81
443.769	820.36
444.143	810.19
444.518	831.88
444.892	838.89
445.267	860.58
445.641	864.2
446.016	820.13
446.39	855.39
446.764	889.51
447.139	860.13
447.513	869.4
447.887	878.44
448.262	897.65
448.636	908.72
449.01	892.45
449.384	894.03
449.758	887.48
450.132	904.43
450.506	919.11
450.88	913.69
451.254	932.45
451.628	944.88
452.002	943.97
452.376	972.9
452.75	969.96
453.123	953.69
453.497	990.98
453.871	978.77
454.244	979.23
454.618	993.69
454.992	978.1
455.365	1023.07
455.739	1037.3
456.112	1042.95
456.486	1048.6
456.859	1065.78
457.232	1082.95
457.606	1062.61
457.979	1082.05
458.352	1088.15
458.725	1115.27
459.099	1111.43
459.472	1145.77
459.845	1134.48
460.218	1157.07
460.591	1152.78
460.964	1141.03
461.337	1171.76
461.71	1196.85
462.083	1216.96
462.456	1206.11
462.829	1232.55
463.201	1254.92
463.574	1256.05
463.947	1320.01
464.32	1317.3
464.692	1318.65
465.065	1306.22
465.438	1311.42
465.81	1382.15
466.183	1363.62
466.555	1396.39
466.928	1409.5
467.3	1405.66
467.672	1426.22
468.045	1458.31
468.417	1467.57
468.789	1499.44
469.161	1507.12
469.534	1536.5
469.906	1571.75
470.278	1585.99
470.65	1612.2
471.022	1635.71
471.394	1684.52
471.766	1670.73
472.138	1701.92
472.51	1723.84
472.882	1808.58
473.253	1830.28
473.625	1830.05
473.997	1852.42
474.369	1890.61
474.74	1956.15
475.112	1977.62
475.484	1972.42
475.855	2022.14
476.227	2079.99
476.598	2158.18
476.97	2176.71
477.341	2215.13
477.713	2270.04
478.084	2282.92
478.455	2359.98
478.827	2411.96
479.198	2471.62
479.569	2490.82
479.94	2563.82
480.311	2651.05
480.682	2686.07
481.053	2805.84
481.424	2840.19
481.795	2888.55
482.166	2951.38
482.537	2986.4
482.908	3089.68
483.279	3171.48
483.65	3279.96
484.021	3315.21
484.391	3436.11
484.762	3478.37
485.133	3528.54
485.503	3611.25
485.874	3698.7
486.244	3779.83
486.615	3850.56
486.985	3907.74
487.356	4042.65
487.726	4136.2
488.097	4180.72
488.467	4232.25
488.837	4432.02
489.207	4478.34
489.578	4622.07
489.948	4614.61
490.318	4733.03
490.688	4809.63
491.058	4921.04
491.428	5036.29
491.798	5101.6
492.168	5261.37
492.538	5305.44
492.908	5341.37
493.278	5439
493.648	5548.15
494.017	5629.5
494.387	5689.84
494.757	5801.7
495.126	5903.39
495.496	5942.71
495.866	5991.3
496.235	6136.83
496.605	6206.66
496.974	6275.36
497.344	6368.46
497.713	6433.55
498.082	6504.73
498.452	6591.73
498.821	6619.08
499.19	6730.71
499.559	6755.57
499.928	6870.82
500.298	6966.19
500.667	7034.21
501.036	7073.53
501.405	7137.48
501.774	7193.53
502.143	7321.66
502.512	7351.26
502.88	7419.96
503.249	7412.73
503.618	7555.78
503.987	7589.22
504.356	7705.38
504.724	7672.16
505.093	7763.68
505.462	7803.9
505.83	7855.2
506.199	7920.51
506.567	8063.11
506.936	8015.88
507.304	8171.58
507.672	8189.88
508.041	8319.82
508.409	8288.64
508.777	8397.34
509.145	8489.99
509.514	8526.37
509.882	8540.61
510.25	8630.78
510.618	8625.8
510.986	8620.38
511.354	8768.85
511.722	8881.39
512.09	8949.19
512.458	8955.51
512.826	9009.3
513.193	9078.22
513.561	9106.24
513.929	9150.54
514.297	9294.71
514.664	9287.71
515.032	9362.28
515.4	9466.23
515.767	9416.07
516.135	9461.26
516.502	9452.9
516.869	9678.88
517.237	9705.78
517.604	9663.52
517.972	9823.96
518.339	9888.82
518.706	9859.22
519.073	9840.01
519.44	9971.98
519.808	10019.44
520.175	10092.21
520.542	10197.74
520.909	10237.97
521.276	10211.98
521.643	10320.45
522.009	10322.26
522.376	10425.53
522.743	10506.21
523.11	10551.4
523.477	10584.85
523.843	10715.24
524.21	10801.11
524.577	10871.85
524.943	10969.92
525.31	10921.34
525.676	11025.74
526.043	11120.2
526.409	11095.8
526.776	11202.91
527.142	11262.8
527.508	11339.86
527.874	11433.64
528.241	11488.1
528.607	11510.93
528.973	11586.86
529.339	11682.9
529.705	11726.97
530.071	11874.31
530.437	11886.51
530.803	12037.69
531.169	12023.23
531.535	11935.77
531.901	12006.73
532.267	12141.42
532.632	12173.73
532.998	12235.88
533.364	12384.8
533.73	12354.75
534.095	12422.99
534.461	12480.17
534.826	12522.2
535.192	12620.5
535.557	12754.96
535.923	12745.24
536.288	12769.2
536.653	12770.1
537.019	12790.21
537.384	12904.11
537.749	12906.37
538.114	12926.26
538.479	12931
538.845	13116.31
539.21	12997.44
539.575	13124.22
539.94	13152.92
540.305	13257.32
540.67	13309.75
541.034	13376.87
541.399	13479.24
541.764	13493.25
542.129	13474.49
542.494	13495.28
542.858	13620.25
543.223	13614.15
543.587	13764.65
543.952	13773.01
544.316	13782.73
544.681	13801.94
545.045	13941.14
545.41	14003.52
545.774	14062.27
546.138	14112.21
546.503	14102.95
546.867	14183.85
547.231	14246.67
547.595	14251.19
547.959	14292.55
548.324	14404.64
548.688	14366.9
549.052	14451.41
549.416	14493.67
549.779	14528.93
550.143	14603.95
550.507	14714.01
550.871	14712.88
551.235	14654.12
551.599	14861.12
551.962	14852.99
552.326	14942.47
552.689	15003.72
553.053	14925.75
553.417	14971.17
553.78	15187.89
554.143	15156.93
554.507	15238.06
554.87	15254.33
555.234	15377.04
555.597	15335.68
555.96	15405.51
556.323	15506.3
556.686	15449.13
557.05	15570.48
557.413	15584.27
557.776	15636.02
558.139	15789.68
558.502	15753.98
558.865	15772.73
559.228	15939.96
559.59	15915.33
559.953	15948.55
560.316	16099.51
560.679	16145.83
561.041	16250.91
561.404	16226.28
561.767	16383.11
562.129	16313.51
562.492	16472.15
562.854	16452.04
563.217	16532.04
563.579	16625.14
563.941	16698.59
564.304	16784.69
564.666	16828.53
565.028	16793.27
565.39	16924.57
565.753	16949.88
566.115	17016.54
566.477	17125.24
566.839	17164.11
567.201	17202.08
567.563	17171.12
567.925	17395.29
568.287	17393.48
568.648	17443.2
569.01	17578.79
569.372	17734.94
569.734	17593.25
570.095	17748.05
570.457	17823.75
570.819	17829.4
571.18	17861.49
571.542	18090.19
571.903	18058.55
572.265	18104.88
572.626	18247.25
572.987	18357.3
573.349	18392.1
573.71	18477.07
574.071	18519.33
574.432	18615.6
574.794	18729.49
575.155	18882.48
575.516	18886.55
575.877	18949.37
576.238	19094
576.599	19279.54
576.96	19339.65
577.32	19426.2
577.681	19501.9
578.042	19683.37
578.403	19787.77
578.763	19889.91
579.124	20006.3
579.485	20170.59
579.845	20418.04
580.206	20501.88
580.566	20620.74
580.927	20754.3
581.287	20888.31
581.648	20959.27
582.008	21206.04
582.368	21343.44
582.728	21652.13
583.089	21737.1
583.449	21883.08
583.809	22053.47
584.169	22243.53
584.529	22439.9
584.889	22769.39
585.249	22789.05
585.609	22966.67
585.969	23315.81
586.329	23325.53
586.688	23799.42
587.048	23953.99
587.408	24083.48
587.768	24312.85
588.127	24504.03
588.487	24737.92
588.846	25133.84
589.206	25246.84
589.565	25504
589.925	25680.05
590.284	25898.12
590.643	26211.78
591.003	26478.89
591.362	26901.93
591.721	27007.24
592.08	27221.25
592.44	27382.83
592.799	27734.45
593.158	27886.31
593.517	28137.83
593.876	28376.7
594.235	28592.74
594.593	28716.35
594.952	29143.23
595.311	29361.53
595.67	29579.83
596.029	29963.1
596.387	30142.07
596.746	30479.01
597.104	30711.78
597.463	30926.69
597.822	31210.3
598.18	31260.69
598.538	31530.51
598.897	31907.23
599.255	31795.36
599.613	32350.38
599.972	32450.49
600.33	32736.36
600.688	32814.55
601.046	33266.29
601.404	33501.76
601.762	33626.73
602.12	33954.4
602.478	34035.31
602.836	34359.82
603.194	34300.16
603.552	34550.77
603.91	34680.71
604.268	34986.24
604.625	35025.34
604.983	35497.19
605.341	35372.67
605.698	35703.96
606.056	36033.67
606.413	36044.29
606.771	36295.13
607.128	36545.97
607.485	36525.64
607.843	36630.49
608.2	36941.9
608.557	37146.18
608.914	37342.34
609.272	37481.77
609.629	37704.81
609.986	38025.03
610.343	37908.42
610.7	38328.07
611.057	38332.14
611.414	38525.81
611.771	38674.73
612.127	38833.37
612.484	39025.91
612.841	39159.01
613.198	39020.03
613.554	39157.66
613.911	39543.86
614.267	39656.4
614.624	39639.68
614.98	39822.05
615.337	40143.17
615.693	40337.51
616.05	40197.4
616.406	40490.73
616.762	40473.1
617.118	40589.94
617.475	40739.31
617.831	40916.71
618.187	40875.35
618.543	41135.68
618.899	41265.17
619.255	41226.53
619.611	41394.66
619.967	41557.37
620.323	41644.82
620.678	41525.96
621.034	41553.75
621.39	41780.86
621.746	41610.02
622.101	42115.09
622.457	41826.06
622.812	42077.81
623.168	42133.17
623.523	42115.09
623.879	42192.61
624.234	42051.82
624.589	42248.42
624.945	42462.43
625.3	42530.9
625.655	42564.57
626.01	42516.21
626.365	42640.73
626.72	42661.97
627.075	42480.28
627.43	42617.68
627.785	42537.45
628.14	42833.49
628.495	42820.39
628.85	42756.88
629.205	42701.74
629.559	42881.63
629.914	42720.28
630.269	42832.81
630.623	42776.77
630.978	42737.9
631.332	42963.66
631.687	42963.88
632.041	42864.9
632.396	42970.66
632.75	42766.83
633.104	42985.13
633.459	42759.82
633.813	42670.56
634.167	42867.62
634.521	42935.64
634.875	43083.43
635.229	42827.84
635.583	42687.06
635.937	42833.94
636.291	42837.11
636.645	42777
636.999	42792.36
637.352	42892.25
637.706	42530
638.06	42863.1
638.413	42818.8
638.767	42670.56
639.121	42864.23
639.474	42602.76
639.828	42589.21
640.181	42688.41
640.534	42770.44
640.888	42480.28
641.241	42414.97
641.594	42416.55
641.947	42585.14
642.301	42421.07
642.654	42474.63
643.007	42480.28
643.36	42438.7
643.713	42374.52
644.066	42466.95
644.419	42349.21
644.771	42245.71
645.124	41690.25
645.477	41716.23
645.83	41373.19
646.182	41270.14
646.535	41172.29
646.888	41405.73
647.24	41106.31
647.593	41324.15
647.945	41160.09
648.298	41034.9
648.65	40973.43
649.002	40943.6
649.355	41175
649.707	41122.12
650.059	41300.43
650.411	41634.43
650.763	41747.65
651.115	42277.35
651.467	41938.15
651.819	42089.11
652.171	42035.1
652.523	41821.32
652.875	41781.77
653.227	41782.22
653.578	42007.75
653.93	41767.31
654.282	41739.28
654.633	41716.91
654.985	41715.33
655.337	41847.98
655.688	41747.42
656.039	41825.84
656.391	41483.25
656.742	41808.66
657.094	41677.14
657.445	41653.64
657.796	41624.94
658.147	41617.25
658.498	41457.48
658.849	41632.17
659.2	41641.43
659.551	41436.47
659.902	41564.6
660.253	41455.9
660.604	41599.4
660.955	41381.78
661.306	41643.02
661.656	41450.25
662.007	41409.12
662.358	41417.94
662.708	41440.76
663.059	41387.2
663.409	41207.32
663.76	41575.67
664.11	41468.33
664.461	41495.67
664.811	41438.95
665.161	41272.18
665.511	41279.63
665.862	41280.54
666.212	41461.55
666.562	41484.15
666.912	41233.53
667.262	41271.5
667.612	41226.3
667.962	41318.96
668.312	41246.64
668.662	41457.26
669.011	41363.93
669.361	41283.02
669.711	41243.93
670.06	41043.48
670.41	41144.27
670.76	41159.86
671.109	41313.31
671.459	41280.09
671.808	41096.59
672.157	41320.54
672.507	40984.5
672.856	41076.93
673.205	41068.79
673.554	41230.82
673.904	41011.85
674.253	41220.88
674.602	41071.05
674.951	40479.66
675.3	40293.9
675.649	40946.31
675.998	41120.32
676.346	41048
676.695	41072.18
677.044	40721.46
677.393	40905.18
677.741	41001.9
678.09	40780.89
678.438	40714.9
678.787	40821.12
679.135	40913.09
679.484	40533.67
679.832	40730.72
680.181	40500.67
680.529	40486.89
680.877	40390.39
681.225	40401.24
681.573	40659.31
681.922	40277.63
682.27	40228.36
682.618	40288.93
682.966	40188.36
683.314	40231.75
683.661	40152.88
684.009	39915.6
684.357	39900.69
684.705	39809.84
685.053	39892.78
685.4	39708.6
685.748	39645.33
686.095	39622.05
686.443	39579.57
686.79	39335.73
687.138	39536.63
687.485	39540.7
687.832	39186.13
688.18	39424.32
688.527	39209.41
688.874	39118.56
689.221	39060.03
689.568	39049.19
689.915	38816.42
690.262	38881.05
690.609	38782.07
690.956	38748.18
691.303	38573.94
691.65	38562.87
691.997	38458.47
692.344	38495.75
692.69	38162.43
693.037	38184.35
693.383	37894.19
693.73	38171.69
694.077	37814.42
694.423	37869.33
694.769	37787.07
695.116	37770.35
695.462	37657.81
695.808	37573.52
696.155	37561.09
696.501	37264.83
696.847	37369
697.193	36888.34
697.539	37117.94
697.885	36911.61
698.231	36817.15
698.577	36796.81
698.923	36674.56
699.269	36505.75
699.614	36476.37
699.96	36485.41
700.306	36405.86
700.651	36141.24
700.997	36145.98
701.342	36145.76
701.688	35949.15
702.033	35908.7
702.379	35838.65
702.724	35738.54
703.069	35826.44
703.415	35412.67
703.76	35495.61
704.105	35330.86
704.45	35257.65
704.795	35125.67
705.14	35057.2
705.485	35059.46
705.83	34852.69
706.175	34878.45
706.52	34736.53
706.865	34648.62
707.209	34779.24
707.554	34520.49
707.899	34686.14
708.243	34303.55
708.588	34412.24
708.932	34027.4
709.277	34173.61
709.621	34157.34
709.966	33959.15
710.31	34066.04
710.654	33754.64
710.998	33696.11
711.342	33772.94
711.687	33793.28
712.031	33497.92
712.375	33396
712.719	33509.44
713.063	33494.08
713.407	33425.15
713.75	33332.73
714.094	33306.51
714.438	33086.86
714.782	33295.66
715.125	33084.82
715.469	33110.13
715.812	32989.23
716.156	32760.99
716.499	32736.58
716.843	32750.59
717.186	32632.4
717.53	32702.91
717.873	32810.48
718.216	32542.46
718.559	32483.26
718.902	32189.25
719.246	32395.8
719.589	32223.6
719.932	32013.21
720.275	32064.28
720.617	32063.61
720.96	32039.2
721.303	31947.22
721.646	32075.58
721.989	31875.59
722.331	31838.3
722.674	31725.99
723.016	31801.47
723.359	31742.94
723.701	31799.66
724.044	31472.89
724.386	31403.51
724.729	31560.57
725.071	31459.78
725.413	31302.5
725.755	31384.53
726.097	31301.37
726.439	31101.37
726.782	31150.18
727.124	31241.93
727.465	31083.74
727.807	31066.12
728.149	31035.16
728.491	30907.93
728.833	31119.22
729.175	30803.98
729.516	30773.92
729.858	30867.48
730.199	30716.3
730.541	30718.78
730.882	30573.25
731.224	30697.99
731.565	30469.3
731.906	30503.65
732.248	30480.14
732.589	30413.71
732.93	30189.31
733.271	30261.62
733.612	30380.94
733.953	30312.47
734.294	30190.21
734.635	30175.29
734.976	30214.39
735.317	30015.98
735.658	30014.85
735.999	30082.42
736.339	29870.67
736.68	29960.16
737.021	29872.93
737.361	29754.29
737.702	29957.22
738.042	29794.06
738.383	29680.62
738.723	29757.68
739.063	29653.5
739.404	29753.38
739.744	29589.32
740.084	29486.72
740.424	29628.42
740.764	29319.27
741.104	29529.89
741.444	29407.4
741.784	29282.89
742.124	29343
742.464	29281.98
742.804	29232.95
743.143	29078.6
743.483	29142.78
743.823	29017.36
744.162	28990.47
744.502	28962.67
744.841	28914.31
745.181	28991.14
745.52	28889.9
745.86	28929.45
746.199	28792.28
746.538	28731.49
746.877	28806.97
747.216	28715.9
747.556	28771.26
747.895	28706.41
748.234	28657.14
748.573	28460.54
748.911	28479.29
749.25	28488.56
749.589	28374.66
749.928	28342.57
750.267	28454.66
750.605	28340.54
750.944	28232.97
751.283	28121.79
751.621	28242.46
751.96	28120.66
752.298	28119.53
752.636	27996.82
752.975	27881.8
753.313	27787.56
753.651	27956.82
753.989	27876.6
754.327	27790.5
754.666	27684.74
755.004	27687
755.342	27627.11
755.679	27552.31
756.017	27430.96
756.355	27633.89
756.693	27397.29
757.031	27457.85
757.368	27280.91
757.706	27297.4
758.044	27114.13
758.381	27123.17
758.719	26995.26
759.056	27100.35
759.394	26932.44
759.731	26739.23
760.068	26699.68
760.405	26478.67
760.743	26528.38
761.08	26676.18
761.417	26358.45
761.754	26368.39
762.091	26408.84
762.428	26287.94
762.765	26028.06
763.102	26268.28
763.438	26195.29
763.775	25787.84
764.112	26001.17
764.449	25973.37
764.785	25721.4
765.122	25709.2
765.458	25478.47
765.795	25577.22
766.131	25473.04
766.467	25470.79
766.804	25332.26
767.14	25219.49
767.476	25225.82
767.812	25080.51
768.148	25132.71
768.485	24949.44
768.821	24833.29
769.157	24817.92
769.492	24694.31
769.828	24699.51
770.164	24521.88
770.5	24438.27
770.836	24478.95
771.171	24296.58
771.507	24259.29
771.842	24030.6
772.178	24003.48
772.513	24039.64
772.849	23864.27
773.184	23805.52
773.519	23772.75
773.855	23740.44
774.19	23508.12
774.525	23444.4
774.86	23391.52
775.195	23337.28
775.53	23248.24
775.865	23138.64
776.2	22985.2
776.535	22925.77
776.87	22834.92
777.205	22784.98
777.539	22587.47
777.874	22797.86
778.209	22514.7
778.543	22452.56
778.878	22453.24
779.212	22267.03
779.547	22167.82
779.881	22206.46
780.215	22072.68
780.55	22112
780.884	21901.16
781.218	21849.41
781.552	21770.77
781.886	21700.49
782.22	21578.68
782.554	21604.45
782.888	21337.79
783.222	21265.7
783.556	21266.38
783.889	21182.99
784.223	21027.29
784.557	21028.19
784.89	21046.95
785.224	20960.85
785.557	20755.65
785.891	20851.7
786.224	20719.72
786.558	20718.14
786.891	20479.05
787.224	20361.54
787.557	20449.22
787.891	20311.15
788.224	20284.93
788.557	20348.43
788.89	20247.65
789.223	20191.15
789.556	20004.49
789.888	19979.18
790.221	19844.27
790.554	19742.12
790.887	19689.92
791.219	19619.64
791.552	19610.15
791.884	19440.89
792.217	19420.55
792.549	19429.59
792.882	19304.85
793.214	19106.43
793.546	19191.63
793.879	19062.59
794.211	18883.84
794.543	18970.62
794.875	18986.21
795.207	18900.56
795.539	18829.6
795.871	18768.81
796.203	18665.54
796.535	18539.89
796.867	18549.16
797.198	18541.48
797.53	18526.79
797.862	18348.71
798.193	18414.02
798.525	18263.52
798.856	18336.74
799.188	18023.98
799.519	17991.21
799.85	17915.28
800.182	17957.99
800.513	17974.26
800.844	17736.3
801.175	17831.89
801.506	17780.14
801.837	17689.97
802.168	17690.42
802.499	17630.77
802.83	17509.19
803.161	17478.9
803.491	17407.49
803.822	17455.4
804.153	17258.8
804.483	17270.32
804.814	17144.45
805.145	17158.24
805.475	17198.23
805.805	17054.28
806.136	16972.03
806.466	17001.63
806.796	16944.91
807.126	16844.57
807.457	16801.86
807.787	16780.84
808.117	16709.66
808.447	16653.62
808.777	16738.36
809.107	16713.95
809.436	16656.33
809.766	16549.44
810.096	16514.86
810.426	16442.55
810.755	16392.83
811.085	16367.97
811.414	16290.24
811.744	16155.32
812.073	16198.49
812.403	16177.02
812.732	16142.67
813.061	16145.83
813.39	15993.75
813.719	15956.68
814.049	16026.74
814.378	16062.9
814.707	15843.24
815.036	15846.86
815.365	15756.69
815.693	15613.64
816.022	15677.82
816.351	15624.72
816.68	15458.62
817.008	15592.4
817.337	15402.8
817.665	15415.23
817.994	15444.83
818.322	15347.89
818.651	15348.79
818.979	15309.24
819.307	15306.31
819.636	15226.99
819.964	15210.49
820.292	15228.79
820.62	15152.41
820.948	15191.28
821.276	15302.92
821.604	15153.99
821.932	15170.26
822.259	15133.2
822.587	15150.15
822.915	15073.09
823.243	15101.57
823.57	15075.35
823.898	15101.57
824.225	15007.56
824.553	15022.02
824.88	15083.94
825.207	15092.75
825.535	15046.65
825.862	15063.15
826.189	15069.93
826.516	15080.32
826.843	15045.75
827.17	15080.55
827.497	15104.5
827.824	14924.85
828.151	15031.74
828.478	15013.43
828.805	15054.79
829.131	14987.9
829.458	15008.69
829.785	14849.14
830.111	15043.71
830.438	15076.71
830.764	14996.03
831.09	14982.7
831.417	14865.19
831.743	15042.36
832.069	15016.14
832.395	14940.89
832.722	14946.77
833.048	14900.44
833.374	14890.27
833.7	14890.27
834.026	14972.53
834.351	14906.09
834.677	14850.5
835.003	14855.92
835.329	14788.81
835.654	14741.58
835.98	14795.36
836.306	14757.17
836.631	14667.91
836.956	14731.86
837.282	14770.5
837.607	14624.97
837.932	14609.83
838.258	14621.58
838.583	14570.05
838.908	14422.94
839.233	14553.78
839.558	14523.73
839.883	14419.32
840.208	14429.04
840.533	14417.29
840.858	14401.92
841.182	14379.1
841.507	14426.78
841.832	14391.53
842.156	14231.98
842.481	14269.72
842.805	14260.91
843.13	14257.75
843.454	14192.21
843.778	14100.46
844.103	14145.89
844.427	14075.83
844.751	14043.06
845.075	14007.36
845.399	14021.59
845.723	13896.4
846.047	13914.03
846.371	13793.58
846.695	13763.07
847.019	13577.54
847.343	13613.24
847.666	13567.82
847.99	13510.87
848.313	13540.7
848.637	13409.41
848.96	13373.7
849.284	13275.85
849.607	13287.6
849.931	13220.94
850.254	13182.07
850.577	13001.96
850.9	12943.43
851.223	12978.46
851.546	12924.67
851.869	12876.09
852.192	12858.69
852.515	12838.12
852.838	12757
853.161	12766.03
853.483	12695.53
853.806	12615.76
854.129	12650.78
854.451	12505.02
854.774	12488.3
855.096	12427.06
855.419	12375.54
855.741	12466.38
856.063	12292.83
856.385	12353.62
856.708	12253.51
857.03	12169.67
857.352	12221.42
857.674	12084.7
857.996	12125.37
858.318	12024.36
858.64	12011.03
858.961	12070.23
859.283	11971.7
859.605	11922.67
859.926	11931.25
860.248	11859.17
860.57	11820.52
860.891	11836.34
861.212	11730.81
861.534	11772.16
861.855	11677.48
862.176	11666.18
862.498	11733.29
862.819	11685.38
863.14	11584.82
863.461	11562.45
863.782	11624.6
864.103	11646.97
864.424	11600.42
864.745	11613.07
865.065	11460.53
865.386	11445.17
865.707	11407.2
866.027	11513.41
866.348	11365.39
866.668	11315.68
866.989	11305.28
867.309	11291.5
867.63	11275.23
867.95	11321.78
868.27	11270.71
868.59	11303.7
868.91	11272.29
869.23	11254.44
869.55	11102.12
869.87	11187.32
870.19	11226.87
870.51	11191.61
870.83	11189.58
871.15	11128.56
871.469	11085.85
871.789	11149.81
872.109	11077.04
872.428	11017.83
872.748	11047.21
873.067	10974.67
873.386	10955.46
873.706	10964.5
874.025	10949.13
874.344	10913.43
874.663	10974.44
874.982	10927.44
875.301	10865.75
875.62	10828.23
875.939	10834.33
876.258	10868.46
876.577	10758.18
876.896	10690.38
877.214	10687.22
877.533	10690.83
877.852	10708.01
878.17	10790.04
878.489	10767.67
878.807	10690.83
879.125	10593.21
879.444	10630.5
879.762	10549.37
880.08	10667.56
880.398	10565.19
880.716	10557.5
881.034	10561.8
881.352	10504.17
881.67	10432.76
881.988	10484.29
882.306	10502.59
882.624	10416.72
882.941	10371.75
883.259	10403.84
883.577	10309.83
883.894	10297.85
884.212	10254.69
884.529	10246.55
884.846	10307.12
885.164	10174.92
885.481	10200.9
885.798	10194.58
886.115	10051.98
886.432	10126.56
886.75	10087.01
887.067	10066.44
887.383	10058.76
887.7	10040
888.017	9970.4
888.334	9977.18
888.651	9994.81
888.967	9910.06
889.284	9902.38
889.6	9873.91
889.917	9745.32
890.233	9872.1
890.55	9839.11
890.866	9748.71
891.182	9729.05
891.498	9770.63
891.815	9681.82
892.131	9698.54
892.447	9611.54
892.763	9593.91
893.079	9650.41
893.395	9578.32
893.71	9525.67
894.026	9494.93
894.342	9533.35
894.657	9374.26
894.973	9443.18
895.289	9374.03
895.604	9416.29
895.92	9255.17
896.235	9336.07
896.55	9282.28
896.865	9278.67
897.181	9206.58
897.496	9175.85
897.811	9117.77
898.126	9136.3
898.441	9112.35
898.756	9051.56
899.071	8998.9
899.386	9028.96
899.7	8983.99
900.015	8865.57
900.33	8794.16
900.644	8847.72
900.959	8791.68
901.273	8850.21
901.588	8736.08
901.902	8702.86
902.216	8668.97
902.531	8667.84
902.845	8611.34
903.159	8571.12
903.473	8579.03
903.787	8519.59
904.101	8436.2
904.415	8532.93
904.729	8461.29
905.042	8380.61
905.356	8367.96
905.67	8339.48
905.984	8349.2
906.297	8403.21
906.611	8224.23
906.924	8242.09
907.237	8231.01
907.551	8165.93
907.864	8146.49
908.177	8122.31
908.491	8031.02
908.804	8035.76
909.117	8039.15
909.43	7977.69
909.743	7933.62
910.056	7949.89
910.368	7864.92
910.681	7840.74
910.994	7766.84
911.307	7748.99
911.619	7698.37
911.932	7792.38
912.244	7640.97
912.557	7684.13
912.869	7599.62
913.181	7602.55
913.494	7538.38
913.806	7515.78
914.118	7499.96
914.43	7449.34
914.742	7471.71
915.054	7382.22
915.366	7330.25
915.678	7337.7
915.99	7306.97
916.302	7252.73
916.613	7244.15
916.925	7243.02
917.236	7182.45
917.548	7149.01
917.859	7125.73
918.171	7082.57
918.482	7038.5
918.794	7095.22
919.105	7022.23
919.416	6965.51
919.727	6961.44
920.038	6956.7
920.349	6944.72
920.66	6905.85
920.971	6884.38
921.282	6821.11
921.593	6801.9
921.903	6745.85
922.214	6753.54
922.525	6702.92
922.835	6651.84
923.146	6611.62
923.456	6616.82
923.767	6605.74
924.077	6574.11
924.387	6570.04
924.697	6505.86
925.008	6453.21
925.318	6482.36
925.628	6421.79
925.938	6376.15
926.248	6316.49
926.558	6333.44
926.867	6370.95
927.177	6270.61
927.487	6243.04
927.796	6170.28
928.106	6176.38
928.416	6210.05
928.725	6161.01
929.034	6110.39
929.344	6101.12
929.653	6147.23
929.962	6060
930.271	6003.73
930.581	5965.54
930.89	5907.23
931.199	5866.78
931.508	5921.24
931.817	5883.5
932.125	5876.05
932.434	5811.41
932.743	5825.2
933.051	5791.53
933.36	5752.89
933.669	5714.47
933.977	5727.12
934.286	5747.69
934.594	5661.36
934.902	5611.42
935.21	5656.84
935.519	5648.93
935.827	5578.65
936.135	5578.65
936.443	5530.97
936.751	5473.57
937.059	5459.56
937.367	5463.4
937.674	5446.68
937.982	5431.76
938.29	5382.95
938.597	5397.19
938.905	5298.66
939.213	5325.1
939.52	5239.68
939.827	5274.03
940.135	5254.82
940.442	5218.89
940.749	5162.62
941.056	5223.18
941.363	5116.07
941.67	5149.74
941.977	5142.05
942.284	5058.21
942.591	5042.4
942.898	5039.91
943.205	5037.65
943.511	4999.01
943.818	4985
944.125	4956.07
944.431	4964.66
944.738	4906.35
945.044	4911.1
945.35	4881.95
945.657	4826.81
945.963	4799.01
946.269	4810.09
946.575	4763.08
946.881	4785.68
947.187	4773.25
947.493	4715.62
947.799	4685.57
948.105	4751.78
948.41	4705.23
948.716	4708.39
949.022	4653.03
949.327	4642.86
949.633	4553.14
949.938	4565.12
950.244	4587.49
950.549	4494.61
950.854	4477.89
951.16	4530.54
951.465	4456.42
951.77	4467.04
952.075	4425.69
952.38	4422.98
952.685	4425.69
952.99	4366.03
953.294	4323.09
953.599	4318.8
953.904	4311.57
954.209	4303.21
954.513	4266.82
954.818	4225.69
955.122	4242.64
955.426	4251.91
955.731	4219.82
956.035	4220.04
956.339	4184.11
956.643	4149.76
956.948	4149.76
957.252	4128.97
957.556	4133.27
957.86	4100.73
958.163	4089.65
958.467	4093.95
958.771	4012.14
959.075	3973.72
959.378	3966.27
959.682	4008.07
959.985	3957.45
960.289	3934.18
960.592	3941.41
960.896	3881.07
961.199	3934.85
961.502	3921.3
961.805	3817.34
962.108	3841.75
962.411	3792.49
962.714	3801.52
963.017	3730.11
963.32	3769.89
963.623	3750.23
963.926	3786.61
964.228	3714.07
964.531	3708.19
964.833	3733.73
965.136	3702.09
965.438	3606.73
965.741	3651.25
966.043	3624.58
966.345	3637.46
966.648	3588.65
966.95	3592.26
967.252	3538.71
967.554	3539.84
967.856	3558.59
968.158	3506.16
968.46	3488.31
968.761	3491.48
969.063	3471.59
969.365	3451.25
969.666	3427.75
969.968	3384.36
970.269	3414.87
970.571	3406.51
970.872	3404.02
971.174	3338.71
971.475	3368.54
971.776	3357.92
972.077	3329.45
972.378	3330.8
972.679	3325.83
972.98	3326.96
973.281	3239.96
973.582	3283.35
973.883	3253.97
974.183	3241.54
974.484	3215.1
974.785	3165.61
975.085	3189.56
975.386	3173.52
975.686	3185.72
975.986	3135.78
976.287	3160.19
976.587	3066.63
976.887	3090.36
977.187	3101.88
977.487	3085.38
977.787	3023.01
978.087	3063.46
978.387	3056.69
978.687	3023.01
978.987	2970.59
979.286	3008.78
979.586	2985.95
979.885	2940.53
980.185	2969.46
980.484	2960.19
980.784	2911.83
981.083	2904.82
981.382	2904.6
981.682	2892.62
981.981	2900.31
982.28	2867.99
982.579	2837.48
982.878	2828.67
983.177	2829.57
983.475	2819.18
983.774	2800.42
984.073	2780.76
984.372	2791.38
984.67	2738.05
984.969	2778.5
985.267	2732.17
985.566	2722
985.864	2724.49
986.162	2695.11
986.461	2657.37
986.759	2670.25
987.057	2651.72
987.355	2641.1
987.653	2597.49
987.951	2601.56
988.249	2600.43
988.547	2639.97
988.844	2590.26
989.142	2569.92
989.44	2557.94
989.737	2559.98
990.035	2543.93
990.332	2543.93
990.63	2540.09
990.927	2513.2
991.224	2540.99
991.521	2474.55
991.819	2473.65
992.116	2508.68
992.413	2448.11
992.71	2424.84
993.006	2445.18
993.303	2416.7
993.6	2394.1
993.897	2421.67
994.193	2343.03
994.49	2362.01
994.787	2373.77
995.083	2382.35
995.379	2390.49
995.676	2330.6
995.972	2326.99
996.268	2315.01
996.565	2323.37
996.861	2264.39
997.157	2274.78
997.453	2244.96
997.749	2242.47
998.044	2228.68
998.34	2244.28
998.636	2180.55
998.932	2209.02
999.227	2166.31
999.523	2196.82
999.818	2186.88
1000.114	2161.79
1000.409	2137.39
1000.704	2159.08
1001	2104.39
1001.295	2095.35
1001.59	2094.45
1001.885	2077.73
1002.18	2099.65
1002.475	2060.78
1002.77	2055.58
1003.065	2073.66
1003.359	2041.34
1003.654	2006.77
1003.949	2008.35
1004.243	1997.5
1004.538	1993.66
1004.832	1976.71
1005.127	1957.96
1005.421	1954.57
1005.715	1929.26
1006.009	1927.68
1006.304	1907.34
1006.598	1906.88
1006.892	1893.1
1007.186	1908.01
1007.48	1911.86
1007.773	1877.51
1008.067	1857.17
1008.361	1841.35
1008.655	1861.91
1008.948	1826.66
1009.242	1829.15
1009.535	1804.97
1009.829	1802.93
1010.122	1816.49
1010.415	1785.53
1010.708	1786.21
1011.001	1784.85
1011.295	1753.67
1011.588	1729.49
1011.881	1749.83
1012.173	1724.74
1012.466	1718.42
1012.759	1677.51
1013.052	1708.7
1013.344	1677.06
1013.637	1696.95
1013.93	1688.13
1014.222	1644.52
1014.514	1643.16
1014.807	1637.51
1015.099	1601.13
1015.391	1613.79
1015.683	1601.36
1015.976	1599.1
1016.268	1591.64
1016.56	1555.71
1016.851	1568.81
1017.143	1532.21
1017.435	1538.08
1017.727	1527.46
1018.018	1534.69
1018.31	1545.09
1018.602	1519.1
1018.893	1496.27
1019.185	1522.26
1019.476	1511.19
1019.767	1489.04
1020.058	1485.65
1020.35	1459.21
1020.641	1431.42
1020.932	1437.74
1021.223	1447.24
1021.514	1421.02
1021.804	1420.57
1022.095	1415.15
1022.386	1414.47
1022.677	1387.12
1022.967	1378.99
1023.258	1369.5
1023.548	1370.18
1023.839	1349.61
1024.129	1328.14
1024.419	1340.35
1024.709	1300.12
1025	1326.79
1025.29	1320.69
1025.58	1305.54
1025.87	1270.74
1026.16	1298.09
1026.449	1288.6
1026.739	1272.33
1027.029	1226
1027.319	1282.27
1027.608	1247.69
1027.898	1233.91
1028.187	1221.25
1028.477	1204.53
1028.766	1185.32
1029.055	1197.3
1029.344	1174.25
1029.634	1184.42
1029.923	1184.42
1030.212	1161.14
1030.501	1162.27
1030.79	1140.35
1031.078	1142.39
1031.367	1136.28
1031.656	1135.61
1031.945	1116.4
1032.233	1116.85
1032.522	1131.76
1032.81	1119.79
1033.099	1115.27
1033.387	1072.78
1033.675	1094.7
1033.963	1089.51
1034.251	1073.23
1034.54	1047.25
1034.828	1060.13
1035.116	1047.02
1035.403	1040.02
1035.691	1017.42
1035.979	1026.91
1036.267	1022.16
1036.554	1014.7
1036.842	1013.35
1037.129	1009.06
1037.417	965.21
1037.704	957.98
1037.992	976.97
1038.279	975.61
1038.566	975.84
1038.853	975.84
1039.14	975.84
