Data from hue_120_FLMS001491_00023.txt Node
Date: Tue Feb 07 16:59:08 GMT 2017
User: dcchb
Spectrometer: FLMS00149
Trigger mode: 0
Integration Time (sec): 2.000000E-2
Scans to average: 10
Electric dark correction enabled: true
Nonlinearity correction enabled: false
Boxcar width: 0
XAxis mode: Wavelengths
Number of Pixels in Spectrum: 2048
>>>>>Begin Spectral Data<<<<<
341.393	-6.44
341.776	-6.44
342.16	-6.44
342.543	-62.94
342.927	-72.65
343.31	-47.57
343.693	-82.37
344.077	-74.46
344.46	-52.99
344.843	-60.9
345.226	-51.86
345.61	-30.17
345.993	-9.6
346.376	7.12
346.759	3.95
347.142	20.68
347.525	38.3
347.908	56.61
348.291	73.33
348.674	93.67
349.057	116.27
349.44	115.59
349.823	126.89
350.206	166.66
350.588	173.44
350.971	217.73
351.354	234.46
351.737	257.28
352.119	250.73
352.502	246.21
352.884	270.16
353.267	268.58
353.65	293.21
354.032	296.6
354.414	279.88
354.797	317.39
355.179	321.46
355.562	326.66
355.944	322.14
356.326	320.56
356.709	336.38
357.091	326.43
357.473	346.09
357.855	317.39
358.238	329.14
358.62	326.88
359.002	342.48
359.384	335.7
359.766	345.19
360.148	312.87
360.53	342.93
360.912	337.05
361.294	325.98
361.676	335.02
362.057	332.08
362.439	326.43
362.821	318.07
363.203	324.62
363.584	341.57
363.966	342.7
364.348	317.84
364.729	302.25
365.111	315.58
365.493	293.44
365.874	291.63
366.256	318.97
366.637	310.84
367.019	286.21
367.4	311.52
367.781	300.22
368.163	301.57
368.544	309.26
368.925	310.39
369.306	313.1
369.688	313.55
370.069	303.83
370.45	304.51
370.831	300.44
371.212	322.36
371.593	313.33
371.974	306.09
372.355	318.75
372.736	322.59
373.117	322.14
373.498	327.11
373.879	320.33
374.26	309.71
374.641	306.55
375.021	301.12
375.402	319.43
375.783	319.2
376.163	314.23
376.544	322.59
376.925	335.7
377.305	312.87
377.686	324.62
378.066	308.35
378.447	329.14
378.827	318.97
379.208	342.48
379.588	335.25
379.968	329.6
380.349	340.44
380.729	344.74
381.109	328.24
381.489	334.57
381.87	346.32
382.25	351.06
382.63	356.71
383.01	349.03
383.39	341.8
383.77	336.83
384.15	322.59
384.53	357.39
384.91	351.06
385.29	348.58
385.67	326.66
386.049	347.22
386.429	354.91
386.809	357.84
387.189	345.41
387.568	353.1
387.948	366.66
388.328	353.1
388.707	342.25
389.087	352.87
389.466	375.92
389.846	346.54
390.225	369.37
390.605	372.08
390.984	367.79
391.363	379.54
391.743	359.88
392.122	351.97
392.501	380.22
392.881	391.52
393.26	395.58
393.639	366.21
394.018	379.99
394.397	377.5
394.776	390.39
395.155	367.33
395.534	356.49
395.913	375.92
396.292	409.14
396.671	392.19
397.05	390.39
397.429	391.06
397.808	388.8
398.186	392.42
398.565	385.19
398.944	388.8
399.323	403.94
399.701	392.87
400.08	389.48
400.458	398.97
400.837	407.33
401.215	401.68
401.594	418.63
401.972	414.34
402.351	419.54
402.729	396.71
403.107	411.4
403.486	416.15
403.864	437.16
404.242	409.37
404.62	428.12
404.999	429.71
405.377	429.71
405.755	430.16
406.133	438.07
406.511	439.42
406.889	431.51
407.267	451.85
407.645	458.86
408.023	451.85
408.401	428.58
408.779	443.72
409.156	472.64
409.534	485.3
409.912	467.45
410.29	472.87
410.667	479.65
411.045	476.03
411.422	466.99
411.8	492.3
412.178	494.56
412.555	484.17
412.933	481
413.31	498.18
413.687	482.13
414.065	491.4
414.442	508.57
414.819	519.42
415.197	524.17
415.574	498.63
415.951	524.62
416.328	502.92
416.705	518.07
417.082	527.1
417.46	518.29
417.837	510.83
418.214	528.46
418.591	528.91
418.967	534.79
419.344	536.37
419.721	561.23
420.098	531.85
420.475	562.13
420.852	569.36
421.228	545.86
421.605	559.42
421.982	547.9
422.358	547.67
422.735	564.84
423.111	586.31
423.488	587.67
423.864	577.05
424.241	586.76
424.617	579.31
424.994	606.42
425.37	568.23
425.746	612.75
426.123	607.33
426.499	582.47
426.875	613.88
427.251	626.31
427.627	649.59
428.003	644.62
428.379	631.51
428.756	639.87
429.132	664.28
429.507	649.81
429.883	652.53
430.259	640.55
430.635	664.73
431.011	665.18
431.387	665.18
431.763	667.21
432.138	695.01
432.514	702.69
432.89	674.45
433.265	713.54
433.641	692.75
434.016	705.86
434.392	702.24
434.767	731.39
435.143	708.79
435.518	780.43
435.894	755.35
436.269	749.25
436.644	766.19
437.02	749.47
437.395	759.87
437.77	776.14
438.145	776.82
438.52	781.56
438.895	801.67
439.271	793.99
439.646	805.97
440.021	807.32
440.395	814.33
440.77	855.01
441.145	831.05
441.52	840.99
441.895	853.65
442.27	843.03
442.645	836.93
443.019	888.68
443.394	863.82
443.769	855.91
444.143	869.92
444.518	889.13
444.892	879.19
445.267	896.13
445.641	908.56
446.016	885.29
446.39	896.36
446.764	908.34
447.139	896.81
447.513	903.82
447.887	935
448.262	924.38
448.636	942.69
449.01	942.91
449.384	955.57
449.758	953.53
450.132	956.7
450.506	963.25
450.88	977.49
451.254	961.9
451.628	967.09
452.002	990.14
452.376	991.27
452.75	1027.66
453.123	1008.9
453.497	1019.52
453.871	1046.64
454.244	1048.22
454.618	1071.27
454.992	1088.45
455.365	1069.92
455.739	1102.46
456.112	1140.65
456.486	1104.49
456.859	1143.36
457.232	1157.6
457.606	1150.59
457.979	1196.69
458.352	1198.27
458.725	1195.34
459.099	1203.92
459.472	1258.84
459.845	1234.88
460.218	1269.46
460.591	1267.65
460.964	1308.78
461.337	1314.43
461.71	1296.35
462.083	1352.17
462.456	1327.76
462.829	1385.39
463.201	1351.94
463.574	1403.69
463.947	1401.43
464.32	1441.88
464.692	1472.62
465.065	1473.07
465.438	1483.01
465.81	1515.78
466.183	1541.09
466.555	1576.79
466.928	1593.97
467.3	1582.22
467.672	1649.56
468.045	1688.66
468.417	1700.18
468.789	1715.77
469.161	1722.1
469.534	1789.9
469.906	1796.68
470.278	1815.43
470.65	1872.15
471.022	1891.36
471.394	1941.3
471.766	1940.63
472.138	1976.56
472.51	2059.49
472.882	2080.96
473.253	2085.48
473.625	2158.93
473.997	2214.29
474.369	2257.68
474.74	2305.14
475.112	2337.9
475.484	2387.62
475.855	2454.06
476.227	2500.39
476.598	2574.73
476.97	2647.28
477.341	2718.01
477.713	2802.3
478.084	2839.59
478.455	2918.91
478.827	2983.76
479.198	3098.34
479.569	3094.27
479.94	3206.81
480.311	3313.02
480.682	3425.56
481.053	3495.61
481.424	3614.26
481.795	3737.64
482.166	3808.15
482.537	3888.15
482.908	3997.3
483.279	4100.34
483.65	4224.18
484.021	4361.58
484.391	4457.4
484.762	4558.41
485.133	4664.85
485.503	4785.52
485.874	4931.96
486.244	5006.08
486.615	5216.25
486.985	5318.39
487.356	5462.57
487.726	5570.36
488.097	5737.36
488.467	5834.76
488.837	5988.43
489.207	6102.33
489.578	6333.51
489.948	6420.74
490.318	6585.7
490.688	6679.49
491.058	6845.13
491.428	7027.27
491.798	7145.69
492.168	7310.43
492.538	7468.17
492.908	7606.24
493.278	7801.72
493.648	7851.88
494.017	8056.85
494.387	8162.84
494.757	8285.77
495.126	8493.67
495.496	8555.14
495.866	8625.87
496.235	8897.28
496.605	9024.51
496.974	9075.81
497.344	9226.09
497.713	9328.68
498.082	9517.6
498.452	9722.8
498.821	9763.92
499.19	9877.59
499.559	9975.22
499.928	10067.19
500.298	10155.78
500.667	10351.48
501.036	10364.81
501.405	10592.6
501.774	10591.7
502.143	10822.65
502.512	10732.26
502.88	10980.39
503.249	10953.05
503.618	11148.07
503.987	11162.31
504.356	11294.51
504.724	11349.87
505.093	11447.04
505.462	11516.19
505.83	11617.66
506.199	11690.65
506.567	11899.69
506.936	11810.65
507.304	12049.97
507.672	12093.81
508.041	12183.07
508.409	12246.12
508.777	12400.69
509.145	12413.35
509.514	12466.23
509.882	12618.09
510.25	12595.71
510.618	12677.07
510.986	12725.43
511.354	12747.35
511.722	12907.57
512.09	13050.17
512.458	12963.84
512.826	13014.91
513.193	13237.51
513.561	13151.86
513.929	13263.49
514.297	13349.14
514.664	13370.16
515.032	13438.63
515.4	13539.87
515.767	13482.24
516.135	13564.73
516.502	13534.9
516.869	13708.91
517.237	13694.67
517.604	13675.01
517.972	13702.13
518.339	13915.68
518.706	13845.17
519.073	13865.06
519.44	13930.14
519.808	14027.09
520.175	14046.3
520.542	14081.78
520.909	14143.47
521.276	14081.55
521.643	14183.02
522.009	14340.3
522.376	14306.4
522.743	14282.9
523.11	14427.76
523.477	14557.24
523.843	14554.08
524.21	14647.64
524.577	14618.26
524.943	14640.63
525.31	14716.56
525.676	14733.96
526.043	14785.49
526.409	14841.53
526.776	14813.73
527.142	14895.99
527.508	14959.49
527.874	14913.62
528.241	14981.19
528.607	14988.19
528.973	15018.48
529.339	14945.48
529.705	15036.78
530.071	15070.45
530.437	15023.45
530.803	15095.08
531.169	15133.27
531.535	14973.05
531.901	15053.95
532.267	15064.58
532.632	15117.23
532.998	15080.85
533.364	15139.6
533.73	15036.33
534.095	15051.02
534.461	15084.46
534.826	15143.67
535.192	15027.06
535.557	15097.8
535.923	15008.76
536.288	15026.16
536.653	15091.24
537.019	14991.58
537.384	14948.19
537.749	14934.86
538.114	14908.87
538.479	14848.54
538.845	14861.87
539.21	14792.72
539.575	14770.8
539.94	14842.89
540.305	14782.32
540.67	14700.07
541.034	14706.17
541.399	14654.87
541.764	14603.34
542.129	14674.3
542.494	14545.04
542.858	14598.15
543.223	14549.11
543.587	14608.54
543.952	14502.33
544.316	14515.66
544.681	14421.43
545.045	14446.51
545.41	14409.68
545.774	14357.48
546.138	14393.63
546.503	14316.57
546.867	14185.95
547.231	14221.43
547.595	14304.6
547.959	14160.87
548.324	14148.67
548.688	14121.78
549.052	14087.88
549.416	14063.25
549.779	13981.89
550.143	14005.17
550.507	14021.67
550.871	14010.14
551.235	13988.67
551.599	13963.59
551.962	13861.22
552.326	13888.34
552.689	13904.15
553.053	13784.61
553.417	13764.27
553.78	13990.25
554.143	13739.64
554.507	13806.98
554.87	13784.61
555.234	13832.29
555.597	13757.49
555.96	13757.94
556.323	13703.48
556.686	13644.95
557.05	13749.81
557.413	13701.67
557.776	13706.42
558.139	13656.03
558.502	13674.1
558.865	13634.1
559.228	13629.13
559.59	13678.85
559.953	13695.57
560.316	13724.72
560.679	13678.85
561.041	13701.9
561.404	13673.88
561.767	13817.15
562.129	13701.9
562.492	13791.84
562.854	13718.85
563.217	13711.16
563.579	13771.95
563.941	13787.1
564.304	13801.11
564.666	13719.3
565.028	13795.23
565.39	13775.34
565.753	13805.17
566.115	13834.33
566.477	13910.93
566.839	13862.12
567.201	13853.31
567.563	13845.17
567.925	13981.89
568.287	13855.12
568.648	13905.96
569.01	13980.54
569.372	14090.14
569.734	13869.8
570.095	13994.55
570.457	13986.41
570.819	14025.05
571.18	14025.96
571.542	14032.96
571.903	14046.07
572.265	14018.5
572.626	14067.54
572.987	14070.03
573.349	14054.66
573.71	14113.41
574.071	14164.26
574.432	14169.91
574.794	14243.13
575.155	14079.52
575.516	14040.42
575.877	14143.7
576.238	14178.95
576.599	14205.39
576.96	14162.23
577.32	14157.71
577.681	14239.96
578.042	14305.5
578.403	14255.11
578.763	14226.18
579.124	14289.45
579.485	14319.51
579.845	14359.96
580.206	14289
580.566	14165.62
580.927	14253.98
581.287	14273.41
581.648	14249.68
582.008	14341.43
582.368	14298.72
582.728	14261.66
583.089	14306.63
583.449	14279.51
583.809	14245.39
584.169	14235.9
584.529	14166.75
584.889	14220.98
585.249	14213.75
585.609	14210.81
585.969	14147.76
586.329	14046.75
586.688	14162.9
587.048	14132.17
587.408	14017.37
587.768	14123.36
588.127	14090.36
588.487	14073.42
588.846	14170.14
589.206	13980.76
589.565	14168.1
589.925	14118.16
590.284	14031.61
590.643	14073.42
591.003	14131.04
591.362	14042.68
591.721	13960.65
592.08	14014.66
592.44	14060.31
592.799	14065.05
593.158	14052.85
593.517	13965.4
593.876	14044.26
594.235	13996.58
594.593	13977.37
594.952	13961.33
595.311	13971.95
595.67	13963.14
596.029	13978.05
596.387	14028.9
596.746	14034.09
597.104	13908.45
597.463	13953.64
597.822	13985.96
598.18	13889.92
598.538	13897.15
598.897	13955
599.255	13789.13
599.613	14069.35
599.972	13959.07
600.33	13950.71
600.688	13964.27
601.046	14020.99
601.404	13997.26
601.762	13944.83
602.12	14044.94
602.478	13981.21
602.836	13995.23
603.194	13938.28
603.552	13926.53
603.91	13848.56
604.268	13926.3
604.625	13849.01
604.983	13880.2
605.341	13814.89
605.698	13992.97
606.056	13932.63
606.413	13987.32
606.771	13920.65
607.128	13999.07
607.485	13967.43
607.843	13970.59
608.2	14030.93
608.557	14091.95
608.914	14017.15
609.272	14095.79
609.629	14034.77
609.986	14136.92
610.343	14013.76
610.7	14165.16
611.057	14139.63
611.414	14146.41
611.771	14066.18
612.127	14160.19
612.484	14079.29
612.841	14192.96
613.198	14112.74
613.554	14152.96
613.911	14192.06
614.267	14157.03
614.624	14233.64
614.98	14237.25
615.337	14323.13
615.693	14235.22
616.05	14276.35
616.406	14400.64
616.762	14275.22
617.118	14258.72
617.475	14219.4
617.831	14247.2
618.187	14245.61
618.543	14273.64
618.899	14347.08
619.255	14362.22
619.611	14354.31
619.967	14331.94
620.323	14309.79
620.678	14319.74
621.034	14314.09
621.39	14281.09
621.746	14276.57
622.101	14459.17
622.457	14376.68
622.812	14402.67
623.168	14339.17
623.523	14416.91
623.879	14454.42
624.234	14287.19
624.589	14425.95
624.945	14365.16
625.3	14320.41
625.655	14341.2
626.01	14336.69
626.365	14386.4
626.72	14349.34
627.075	14319.51
627.43	14351.83
627.785	14351.83
628.14	14385.5
628.495	14288.1
628.85	14267.31
629.205	14283.58
629.559	14291.26
629.914	14313.63
630.269	14272.73
630.623	14220.53
630.978	14274.09
631.332	14180.76
631.687	14259.63
632.041	14159.51
632.396	14291.49
632.75	14166.52
633.104	14237.93
633.459	14087.43
633.813	14118.39
634.167	14103.02
634.521	14053.3
634.875	14140.98
635.229	14096.01
635.583	14024.6
635.937	14051.95
636.291	14050.59
636.645	14000.87
636.999	14042.68
637.352	13928.11
637.706	13919.75
638.06	14017.6
638.413	13926.53
638.767	13872.29
639.121	13918.39
639.474	13837.49
639.828	13804.95
640.181	13909.13
640.534	13889.24
640.888	13768.34
641.241	13785.51
641.594	13788.68
641.947	13865.06
642.301	13809.92
642.654	13811.5
643.007	13784.16
643.36	13873.19
643.713	13820.54
644.066	13772.86
644.419	13716.36
644.771	13639.08
645.124	13449.93
645.477	13408.12
645.83	13435.69
646.182	13343.94
646.535	13280.44
646.888	13230.5
647.24	13181.01
647.593	13285.41
647.945	13239.09
648.298	13173.55
648.65	13266.88
649.002	13169.94
649.355	13269.37
649.707	13284.06
650.059	13360.89
650.411	13428.46
650.763	13495.58
651.115	13666.87
651.467	13640.21
651.819	13522.24
652.171	13562.92
652.523	13566.76
652.875	13492.64
653.227	13457.61
653.578	13559.3
653.93	13543.26
654.282	13531.06
654.633	13486.09
654.985	13442.02
655.337	13533.54
655.688	13538.06
656.039	13640.88
656.391	13513.2
656.742	13472.98
657.094	13533.99
657.445	13557.5
657.796	13554.56
658.147	13539.42
658.498	13530.83
658.849	13495.13
659.2	13564.5
659.551	13543.49
659.902	13641.56
660.253	13570.38
660.604	13555.01
660.955	13471.17
661.306	13611.51
661.656	13622.13
662.007	13654.44
662.358	13593.2
662.708	13561.56
663.059	13573.09
663.409	13538.06
663.76	13644.27
664.11	13600.43
664.461	13656.03
664.811	13672.52
665.161	13566.54
665.511	13591.17
665.862	13637.49
666.212	13661
666.562	13691.96
666.912	13607.89
667.262	13609.92
667.612	13650.15
667.962	13655.12
668.312	13670.26
668.662	13656.48
669.011	13655.57
669.361	13642.69
669.711	13518.4
670.06	13602.02
670.41	13616.25
670.76	13545.75
671.109	13609.02
671.459	13586.87
671.808	13560.89
672.157	13599.98
672.507	13490.38
672.856	13495.13
673.205	13561.34
673.554	13509.36
673.904	13393.89
674.253	13484.73
674.602	13529.25
674.951	13295.81
675.3	13186.66
675.649	13451.51
675.998	13375.13
676.346	13481.57
676.695	13492.87
677.044	13390.27
677.393	13430.72
677.741	13385.52
678.09	13418.07
678.438	13338.97
678.787	13397.73
679.135	13330.61
679.484	13248.58
679.832	13238.86
680.181	13122.93
680.529	13155.02
680.877	13261.23
681.225	13149.82
681.573	13221.23
681.922	13107.56
682.27	13046.32
682.618	13052.65
682.966	12952.09
683.314	13044.06
683.661	13015.82
684.009	12913.67
684.357	12925.42
684.705	12915.93
685.053	12881.58
685.4	12927.23
685.748	12857.18
686.095	12778.31
686.443	12755.71
686.79	12755.94
687.138	12815.82
687.485	12769.95
687.832	12708.93
688.18	12724.52
688.527	12637.07
688.874	12582.38
689.221	12502.84
689.568	12607.01
689.915	12527.47
690.262	12492.67
690.609	12453.8
690.956	12418.54
691.303	12395.72
691.65	12317.76
691.997	12242.95
692.344	12193.92
692.69	12172.22
693.037	12173.13
693.383	11961.61
693.73	12067.14
694.077	11975.39
694.423	11992.79
694.769	11892.46
695.116	11931.55
695.462	11899.69
695.808	11817.88
696.155	11843.19
696.501	11758.22
696.847	11755.28
697.193	11652.24
697.539	11725
697.885	11616.53
698.231	11591.45
698.577	11543.99
698.923	11509.87
699.269	11485.69
699.614	11534.72
699.96	11395.07
700.306	11373.15
700.651	11263.55
700.997	11288.18
701.342	11220.61
701.688	11254.51
702.033	11153.04
702.379	11038.01
702.724	11091.12
703.069	11035.98
703.415	10978.13
703.76	10876.66
704.105	10855.65
704.45	10925.48
704.795	10817
705.14	10755.54
705.485	10757.57
705.83	10717.57
706.175	10703.11
706.52	10718.25
706.865	10659.95
707.209	10675.54
707.554	10583.11
707.899	10581.3
708.243	10500.85
708.588	10525.94
708.932	10514.19
709.277	10329.56
709.621	10410.46
709.966	10328.2
710.31	10328.88
710.654	10317.81
710.998	10373.63
711.342	10285.94
711.687	10239.17
712.031	10227.19
712.375	10128.89
712.719	10228.54
713.063	10261.09
713.407	10218.38
713.75	10096.34
714.094	10116.68
714.438	10033.3
714.782	10024.03
715.125	9998.72
715.469	10061.54
715.812	10003.47
716.156	9980.42
716.499	9942.9
716.843	9995.1
717.186	9907.2
717.53	9948.33
717.873	9876.92
718.216	9882.11
718.559	9882.79
718.902	9736.13
719.246	9826.07
719.589	9739.29
719.932	9775.22
720.275	9786.52
720.617	9719.41
720.96	9756.92
721.303	9731.38
721.646	9652.29
721.989	9708.78
722.331	9715.34
722.674	9664.72
723.016	9679.41
723.359	9692.51
723.701	9703.81
724.044	9658.62
724.386	9696.13
724.729	9671.95
725.071	9605.51
725.413	9646.41
725.755	9575.45
726.097	9556.25
726.439	9568.22
726.782	9600.54
727.124	9583.14
727.465	9523.93
727.807	9549.69
728.149	9555.34
728.491	9526.64
728.833	9522.35
729.175	9523.48
729.516	9588.11
729.858	9448.45
730.199	9572.29
730.541	9463.59
730.882	9491.84
731.224	9564.61
731.565	9400.77
731.906	9461.79
732.248	9491.84
732.589	9431.28
732.93	9429.7
733.271	9462.01
733.612	9525.06
733.953	9444.61
734.294	9448.45
734.635	9434.44
734.976	9496.13
735.317	9360.77
735.658	9424.5
735.999	9494.78
736.339	9473.76
736.68	9432.63
737.021	9447.32
737.361	9392.41
737.702	9459.53
738.042	9463.82
738.383	9422.46
738.723	9482.58
739.063	9478.06
739.404	9565.96
739.744	9543.59
740.084	9488.68
740.424	9574.78
740.764	9549.47
741.104	9520.77
741.444	9541.33
741.784	9504.27
742.124	9557.38
742.464	9562.57
742.804	9550.82
743.143	9597.37
743.483	9702.23
743.823	9564.83
744.162	9713.08
744.502	9731.16
744.841	9741.55
745.181	9738.16
745.52	9760.76
745.86	9825.84
746.199	9899.74
746.538	9909.91
746.877	9942
747.216	9946.29
747.556	10061.32
747.895	10090.24
748.234	10121.2
748.573	10131.15
748.911	10246.85
749.25	10328.65
749.589	10413.17
749.928	10448.43
750.267	10549.67
750.605	10572.49
750.944	10590.34
751.283	10728.64
751.621	10824.91
751.96	10809.55
752.298	10913.5
752.636	11011.35
752.975	11099.03
753.313	11210.21
753.651	11347.61
753.989	11453.15
754.327	11549.41
754.666	11654.27
755.004	11810.2
755.342	11953.47
755.679	12074.6
756.017	12223.07
756.355	12379
756.693	12468.26
757.031	12673
757.368	12762.94
757.706	12955.93
758.044	13039.32
758.381	13192.76
758.719	13400.66
759.056	13574.9
759.394	13717.49
759.731	13863.93
760.068	13913.42
760.405	14096.01
760.743	14199.51
761.08	14493.52
761.417	14521.31
761.754	14760.4
762.091	15004.01
762.428	15110
762.765	15213.05
763.102	15448.07
763.438	15613.71
763.775	15752.92
764.112	15934.84
764.449	16058
764.785	16156.52
765.122	16374.6
765.458	16509.51
765.795	16639.45
766.131	16873.57
766.467	16939.55
766.804	17112.66
767.14	17254.57
767.476	17358.53
767.812	17426.55
768.148	17767.78
768.485	17672.87
768.821	17773.43
769.157	17926.2
769.492	18154.66
769.828	18122.12
770.164	18200.76
770.5	18292.06
770.836	18444.37
771.171	18448.89
771.507	18611.83
771.842	18673.75
772.178	18783.12
772.513	18807.08
772.849	19035.32
773.184	19040.06
773.519	19104.47
773.855	19250.68
774.19	19198.03
774.525	19208.87
774.86	19281.19
775.195	19376.33
775.53	19414.74
775.865	19429.66
776.2	19373.16
776.535	19325.25
776.87	19504.46
777.205	19560.73
777.539	19554.85
777.874	19720.95
778.209	19553.72
778.543	19654.96
778.878	19614.51
779.212	19718.92
779.547	19667.84
779.881	19795.98
780.215	19666.26
780.55	19820.61
780.884	19720.05
781.218	19731.12
781.552	19757.33
781.886	19788.29
782.22	19697.22
782.554	19734.74
782.888	19551.24
783.222	19654.29
783.556	19514.85
783.889	19664.45
784.223	19619.03
784.557	19500.84
784.89	19602.99
785.224	19522.99
785.557	19515.98
785.891	19499.26
786.224	19496.55
786.558	19476.66
786.891	19343.33
787.224	19331.13
787.557	19322.09
787.891	19386.5
788.224	19354.41
788.557	19398.47
788.89	19309.21
789.223	19358.93
789.556	19181.3
789.888	19230.57
790.221	19124.13
790.554	18956.22
790.887	19017.01
791.219	18997.13
791.552	18986.96
791.884	18900.18
792.217	18843.69
792.549	18895.89
792.882	18720.98
793.214	18829.9
793.546	18786.51
793.879	18773.18
794.211	18606.4
794.543	18694.99
794.875	18534.99
795.207	18679.4
795.539	18545.61
795.871	18584.71
796.203	18418.39
796.535	18376.8
796.867	18370.7
797.198	18263.81
797.53	18283.02
797.862	18218.62
798.193	18280.76
798.525	18086.64
798.856	18130.94
799.188	18023.14
799.519	17888.46
799.85	17953.09
800.182	17859.53
800.513	17950.83
800.844	17879.19
801.175	17850.94
801.506	17748.8
801.837	17730.27
802.168	17667.22
802.499	17661.12
802.83	17532.31
803.161	17478.75
803.491	17607.79
803.822	17527.34
804.153	17539.09
804.483	17242.37
804.814	17172.54
805.145	17259.77
805.475	17168.48
805.805	17210.51
806.136	17156.5
806.466	17119.44
806.796	17072.21
807.126	17037.41
807.457	16941.81
807.787	16998.76
808.117	16991.3
808.447	16909.72
808.777	16820.69
809.107	16884.19
809.436	16756.73
809.766	16718.54
810.096	16715.38
810.426	16601.03
810.755	16786.34
811.085	16615.95
811.414	16456.63
811.744	16369.85
812.073	16446.46
812.403	16488.49
812.732	16455.27
813.061	16345.67
813.39	16402.39
813.719	16320.59
814.049	16341.15
814.378	16170.99
814.707	16247.14
815.036	16188.16
815.365	16074.94
815.693	16003.99
816.022	16033.82
816.351	15929.41
816.68	15910.66
817.008	15937.55
817.337	15840.6
817.665	15838.34
817.994	15842.63
818.322	15782.52
818.651	15729.42
818.979	15717.21
819.307	15824.56
819.636	15700.04
819.964	15615.3
820.292	15725.12
820.62	15664.79
820.948	15594.96
821.276	15674.5
821.604	15609.87
821.932	15651.68
822.259	15636.76
822.587	15588.86
822.915	15622.98
823.243	15673.83
823.57	15606.26
823.898	15638.57
824.225	15594.05
824.553	15535.98
824.88	15618.46
825.207	15640.61
825.535	15610.55
825.862	15627.5
826.189	15542.76
826.516	15639.7
826.843	15624.33
827.17	15655.75
827.497	15744.56
827.824	15686.71
828.151	15646.48
828.478	15687.16
828.805	15726.71
829.131	15591.12
829.458	15639.48
829.785	15527.39
830.111	15603.32
830.438	15645.13
830.764	15620.95
831.09	15648.97
831.417	15545.47
831.743	15578.46
832.069	15628.18
832.395	15586.82
832.722	15551.12
833.048	15596.77
833.374	15463.66
833.7	15478.12
834.026	15398.8
834.351	15490.1
834.677	15403.78
835.003	15550.66
835.329	15439.71
835.654	15426.83
835.98	15342.08
836.306	15368.75
836.631	15276.55
836.956	15394.28
837.282	15380.27
837.607	15273.84
837.932	15203.56
838.258	15280.39
838.583	15250.79
838.908	15216.21
839.233	15293.95
839.558	15134.18
839.883	15090.79
840.208	15076.33
840.533	15111.58
840.858	15126.04
841.182	15094.63
841.507	15071.81
841.832	14970.57
842.156	15046.27
842.481	15016.67
842.805	14920.62
843.13	14841.76
843.454	14862.77
843.778	14753.62
844.103	14755.88
844.427	14781.19
844.751	14714.08
845.075	14722.66
845.399	14669.33
845.723	14537.36
846.047	14556.79
846.371	14418.04
846.695	14468.21
847.019	14276.35
847.343	14330.58
847.666	14168.1
847.99	14199.74
848.313	14135.33
848.637	14047.43
848.96	14067.77
849.284	14085.39
849.607	13889.69
849.931	13910.26
850.254	13776.47
850.577	13736.7
850.9	13646.76
851.223	13604.05
851.546	13490.83
851.869	13460.1
852.192	13459.19
852.515	13399.08
852.838	13328.35
853.161	13328.8
853.483	13312.08
853.806	13204.51
854.129	13198.41
854.451	13138.3
854.774	13095.59
855.096	12988.7
855.419	13047.23
855.741	12964.07
856.063	12915.71
856.385	12942.15
856.708	12798.65
857.03	12856.27
857.352	12839.55
857.674	12739.67
857.996	12730.85
858.318	12678.2
858.64	12642.72
858.961	12644.53
859.283	12560.69
859.605	12438.88
859.926	12588.71
860.248	12462.16
860.57	12441.82
860.891	12384.19
861.212	12333.8
861.534	12253.8
861.855	12267.59
862.176	12288.83
862.498	12260.13
862.819	12283.41
863.14	12233.01
863.461	12171.54
863.782	12202.5
864.103	12170.19
864.424	12155.5
864.745	12156.63
865.065	12035.95
865.386	11999.57
865.707	11979.01
866.027	12033.02
866.348	12028.05
866.668	12034.82
866.989	11928.39
867.309	11921.83
867.63	11884.55
867.95	11817.66
868.27	11770.88
868.59	11837.32
868.91	11782.63
869.23	11824.43
869.55	11716.64
869.87	11712.12
870.19	11774.27
870.51	11781.27
870.83	11754.15
871.15	11719.35
871.469	11644.1
871.789	11679.35
872.109	11592.8
872.428	11553.93
872.748	11567.49
873.067	11622.41
873.386	11536.76
873.706	11488.17
874.025	11472.35
874.344	11435.07
874.663	11456.53
874.982	11417.44
875.301	11441.85
875.62	11409.53
875.939	11334.96
876.258	11330.44
876.577	11307.61
876.896	11324.34
877.214	11216.77
877.533	11324.79
877.852	11260.61
878.17	11240.04
878.489	11257.67
878.807	11249.08
879.125	11179.71
879.444	11198.91
879.762	11151.01
880.08	11203.89
880.398	11108.75
880.716	11115.75
881.034	11051.35
881.352	11109.65
881.67	11012.93
881.988	11016.77
882.306	10999.82
882.624	10939.71
882.941	10972.48
883.259	10908.3
883.577	10835.99
883.894	10912.82
884.212	10884.8
884.529	10846.61
884.846	10795.08
885.164	10762.32
885.481	10724.35
885.798	10798.93
886.115	10702.2
886.432	10763.9
886.75	10688.42
887.067	10633.51
887.383	10611.36
887.7	10600.29
888.017	10508.31
888.334	10519.84
888.651	10456.34
888.967	10532.72
889.284	10472.38
889.6	10397.35
889.917	10341.76
890.233	10357.81
890.55	10310.8
890.866	10274.87
891.182	10316.9
891.498	10207.3
891.815	10166.63
892.131	10127.08
892.447	10186.06
892.763	10017.02
893.079	10014.54
893.395	10003.92
893.71	10000.3
894.026	9899.74
894.342	9952.85
894.657	9890.25
894.973	9912.39
895.289	9881.89
895.604	9842.11
895.92	9790.82
896.235	9738.39
896.55	9716.92
896.865	9729.57
897.181	9727.77
897.496	9602.12
897.811	9602.35
898.126	9520.77
898.441	9513.76
898.756	9487.77
899.071	9478.51
899.386	9452.29
899.7	9402.13
900.015	9344.27
900.33	9245.29
900.644	9292.3
900.959	9342.92
901.273	9277.38
901.588	9110.83
901.902	9090.72
902.216	9043.72
902.531	9113.09
902.845	9024.73
903.159	9021.8
903.473	8962.36
903.787	8897.51
904.101	8844.63
904.415	8876.94
904.729	8848.69
905.042	8777.51
905.356	8794.46
905.67	8756.04
905.984	8747.45
906.297	8702.48
906.611	8641.69
906.924	8612.09
907.237	8581.81
907.551	8641.02
907.864	8560.11
908.177	8612.54
908.491	8460
908.804	8390.63
909.117	8351.76
909.43	8299.33
909.743	8264.08
910.056	8309.95
910.368	8270.63
910.681	8162.61
910.994	8175.94
911.307	8179.11
911.619	8026.34
911.932	8136.4
912.244	8014.82
912.557	8070.64
912.869	7972.33
913.181	7926.23
913.494	7883.07
913.806	7861.15
914.118	7843.75
914.43	7728.72
914.742	7804.43
915.054	7765.56
915.366	7733.69
915.678	7663.87
915.99	7657.99
916.302	7614.83
916.613	7535.51
916.925	7559.69
917.236	7493.25
917.548	7454.38
917.859	7427.26
918.171	7435.85
918.482	7423.19
918.794	7406.47
919.105	7320.15
919.416	7206.03
919.727	7322.18
920.038	7258.45
920.349	7192.01
920.66	7179.36
920.971	7221.17
921.282	7125.8
921.593	7066.14
921.903	7050.55
922.214	7101.17
922.525	6994.51
922.835	6963.32
923.146	6916.77
923.456	6924.45
923.767	6921.06
924.077	6862.53
924.387	6823.44
924.697	6822.31
925.008	6800.61
925.318	6756.32
925.628	6759.48
925.938	6699.82
926.248	6655.31
926.558	6640.84
926.867	6641.75
927.177	6557.45
927.487	6519.94
927.796	6483.56
928.106	6491.69
928.416	6518.36
928.725	6456.44
929.034	6384.13
929.344	6390
929.653	6367.18
929.962	6335.09
930.271	6303
930.581	6300.51
930.89	6216.22
931.199	6238.59
931.508	6177.13
931.817	6206.28
932.125	6197.46
932.434	6110.91
932.743	6072.04
933.051	6089.9
933.36	6077.24
933.669	6045.6
933.977	5976
934.286	5963.35
934.594	6020.52
934.902	5920.86
935.21	5830.92
935.519	5936
935.827	5822.56
936.135	5837.47
936.443	5779.85
936.751	5762.22
937.059	5769.9
937.367	5742.33
937.674	5743.46
937.982	5641.55
938.29	5643.13
938.597	5675.67
938.905	5620.53
939.213	5587.76
939.52	5545.96
939.827	5540.53
940.135	5543.92
940.442	5492.4
940.749	5468.67
941.056	5474.09
941.363	5332.4
941.67	5379.63
941.977	5364.72
942.284	5315.45
942.591	5359.07
942.898	5330.59
943.205	5281.78
943.511	5265.96
943.818	5235.23
944.125	5205.63
944.431	5238.39
944.738	5221.44
945.044	5147.55
945.35	5107.1
945.657	5070.26
945.963	5073.43
946.269	5052.41
946.575	5037.49
946.881	4948.46
947.187	4984.84
947.493	5003.6
947.799	4990.72
948.105	4924.5
948.41	4899.65
948.716	4935.35
949.022	4847.44
949.327	4888.57
949.633	4807.67
949.938	4795.92
950.244	4773.09
950.549	4750.5
950.854	4781
951.16	4740.1
951.465	4684.28
951.77	4677.5
952.075	4649.03
952.38	4639.99
952.685	4636.15
952.99	4590.95
953.294	4564.06
953.599	4593.89
953.904	4576.72
954.209	4507.34
954.513	4493.55
954.818	4449.26
955.122	4469.37
955.426	4460.56
955.731	4423.05
956.035	4375.59
956.339	4409.04
956.643	4397.96
956.948	4358.42
957.252	4311.41
957.556	4301.69
957.86	4286.33
958.163	4291.07
958.467	4226.22
958.771	4252.66
959.075	4233.9
959.378	4201.13
959.682	4165.43
959.985	4142.6
960.289	4091.76
960.592	4079.55
960.896	4109.84
961.199	4101.93
961.502	4080.68
961.805	4072.55
962.108	4019.67
962.411	4040.46
962.714	3969.73
963.017	3991.65
963.32	3942.61
963.623	3987.13
963.926	3984.42
964.228	3895.38
964.531	3906.45
964.833	3871.42
965.136	3859.22
965.438	3786.68
965.741	3803.85
966.043	3851.31
966.345	3811.76
966.648	3802.27
966.95	3815.38
967.252	3730.86
967.554	3762.27
967.856	3714.82
968.158	3733.35
968.46	3702.16
968.761	3650.86
969.063	3682.95
969.365	3661.03
969.666	3644.99
969.968	3594.59
970.269	3599.57
970.571	3597.98
970.872	3581.49
971.174	3586.46
971.475	3558.66
971.776	3513.01
972.077	3525.22
972.378	3493.81
972.679	3496.52
972.98	3458.1
973.281	3452.23
973.582	3455.39
973.883	3392.79
974.183	3391.66
974.484	3390.31
974.785	3366.8
975.085	3355.28
975.386	3353.25
975.686	3340.14
975.986	3308.73
976.287	3323.64
976.587	3274.15
976.887	3287.48
977.187	3275.28
977.487	3256.3
977.787	3245
978.087	3198
978.387	3169.3
978.687	3152.12
978.987	3153.93
979.286	3123.65
979.586	3121.39
979.885	3101.73
980.185	3092.24
980.484	3062.18
980.784	3069.64
981.083	3065.12
981.382	3054.04
981.682	3019.24
981.981	3018.11
982.28	3014.5
982.579	3014.5
982.878	2973.14
983.177	2976.08
983.475	2969.75
983.774	2925.91
984.073	2922.97
984.372	2945.8
984.67	2915.52
984.969	2866.93
985.267	2873.26
985.566	2846.14
985.864	2863.54
986.162	2838.68
986.461	2809.08
986.759	2807.72
987.057	2779.02
987.355	2801.17
987.653	2741.96
987.951	2741.06
988.249	2755.75
988.547	2728.85
988.844	2734.96
989.142	2744.45
989.44	2681.17
989.737	2662.42
990.035	2671.46
990.332	2682.98
990.63	2614.28
990.927	2611.8
991.224	2623.09
991.521	2583.77
991.819	2613.38
992.116	2553.27
992.413	2581.74
992.71	2559.59
993.006	2559.82
993.303	2508.97
993.6	2476.21
993.897	2532.93
994.193	2493.61
994.49	2482.53
994.787	2484.12
995.083	2435.98
995.379	2475.98
995.676	2429.2
995.972	2433.04
996.268	2423.1
996.565	2415.87
996.861	2399.37
997.157	2364.8
997.453	2383.1
997.749	2324.12
998.044	2372.48
998.34	2344.01
998.636	2364.34
998.932	2341.29
999.227	2308.07
999.523	2268.53
999.818	2279.6
1000.114	2252.71
1000.409	2240.51
1000.704	2233.5
1001	2226.72
1001.295	2198.25
1001.59	2203.9
1001.885	2200.73
1002.18	2170.9
1002.475	2151.02
1002.77	2153.5
1003.065	2115.76
1003.359	2106.72
1003.654	2098.36
1003.949	2119.83
1004.243	2066.05
1004.538	2084.35
1004.832	2064.24
1005.127	2036.44
1005.421	2043.22
1005.715	2043.45
1006.009	2025.14
1006.304	2034.86
1006.598	1987.41
1006.892	2003
1007.186	1967.29
1007.48	1925.94
1007.773	1952.15
1008.067	1931.36
1008.361	1917.35
1008.655	1927.75
1008.948	1893.62
1009.242	1895.2
1009.535	1888.2
1009.829	1932.49
1010.122	1850.23
1010.415	1852.49
1010.708	1845.26
1011.001	1823.57
1011.295	1798.71
1011.588	1822.89
1011.881	1788.77
1012.173	1768.88
1012.466	1792.83
1012.759	1774.98
1013.052	1727.3
1013.344	1744.93
1013.637	1721.65
1013.93	1722.33
1014.222	1709.45
1014.514	1749.22
1014.807	1719.16
1015.099	1698.83
1015.391	1665.61
1015.683	1645.95
1015.976	1651.14
1016.268	1667.19
1016.56	1623.12
1016.851	1636.45
1017.143	1609.34
1017.435	1611.6
1017.727	1626.51
1018.018	1579.73
1018.31	1587.64
1018.602	1590.35
1018.893	1571.15
1019.185	1548.55
1019.476	1506.29
1019.767	1517.59
1020.058	1532.05
1020.35	1495.44
1020.641	1496.57
1020.932	1480.53
1021.223	1480.07
1021.514	1488.89
1021.804	1470.58
1022.095	1461.54
1022.386	1450.47
1022.677	1440.08
1022.967	1459.06
1023.258	1446.4
1023.548	1401.88
1023.839	1365.95
1024.129	1368.89
1024.419	1392.17
1024.709	1353.52
1025	1351.26
1025.29	1364.37
1025.58	1331.6
1025.87	1329.12
1026.16	1318.04
1026.449	1327.54
1026.739	1311.94
1027.029	1304.03
1027.319	1285.28
1027.608	1275.79
1027.898	1279.4
1028.187	1278.05
1028.477	1273.98
1028.766	1238.72
1029.055	1238.5
1029.344	1219.06
1029.634	1229.23
1029.923	1213.64
1030.212	1191.72
1030.501	1200.53
1030.79	1191.04
1031.078	1183.36
1031.367	1187.2
1031.656	1178.84
1031.945	1172.06
1032.233	1158.73
1032.522	1108.78
1032.81	1134.77
1033.099	1126.64
1033.387	1133.42
1033.675	1122.34
1033.963	1111.72
1034.251	1094.77
1034.54	1090.93
1034.828	1085.51
1035.116	1072.4
1035.403	1078.05
1035.691	1070.82
1035.979	1073.31
1036.267	1052.51
1036.554	1031.05
1036.842	1041.44
1037.129	1027.66
1037.417	1018.39
1037.704	1043.7
1037.992	1012.74
1038.279	1000.99
1038.566	982.91
1038.853	982.91
1039.14	982.91
