Data from hue_70_FLMS001491_49.txt Node
Date: Mon Feb 06 15:20:58 GMT 2017
User: dcchb
Spectrometer: FLMS00149
Trigger mode: 0
Integration Time (sec): 2.000000E-2
Scans to average: 10
Electric dark correction enabled: true
Nonlinearity correction enabled: false
Boxcar width: 0
XAxis mode: Wavelengths
Number of Pixels in Spectrum: 2048
>>>>>Begin Spectral Data<<<<<
341.393	-3.38
341.776	-3.38
342.16	-3.38
342.543	-72.53
342.927	-66.2
343.31	-53.32
343.693	-63.26
344.077	-68.46
344.46	-77.95
344.843	-65.75
345.226	-33.43
345.61	-9.48
345.993	-4.96
346.376	-4.05
346.759	2.95
347.142	2.05
347.525	48.6
347.908	47.47
348.291	75.72
348.674	93.8
349.057	110.07
349.44	105.77
349.823	152.55
350.206	178.31
350.588	207.69
350.971	225.32
351.354	241.82
351.737	255.6
352.119	249.05
352.502	264.19
352.884	265.32
353.267	277.52
353.65	266.67
354.032	306.45
354.414	304.19
354.797	309.84
355.179	329.05
355.562	331.3
355.944	333.11
356.326	324.07
356.709	348.71
357.091	325.2
357.473	348.93
357.855	341.25
358.238	342.83
358.62	307.12
359.002	329.5
359.384	332.43
359.766	321.81
360.148	354.13
360.53	356.61
360.912	340.34
361.294	348.48
361.676	342.38
362.057	353.45
362.439	336.5
362.821	338.76
363.203	322.27
363.584	320.68
363.966	342.38
364.348	325.88
364.729	303.96
365.111	313.23
365.493	306.45
365.874	316.16
366.256	307.35
366.637	312.55
367.019	326.79
367.4	313.45
367.781	296.73
368.163	321.81
368.544	306.9
368.925	290.18
369.306	310.29
369.688	320.01
370.069	294.24
370.45	321.14
370.831	313.23
371.212	290.4
371.593	303.51
371.974	311.19
372.355	309.84
372.736	275.04
373.117	307.58
373.498	315.94
373.879	327.01
374.26	327.46
374.641	319.78
375.021	299.67
375.402	295.6
375.783	310.51
376.163	318.42
376.544	314.36
376.925	336.73
377.305	308.25
377.686	320.46
378.066	315.71
378.447	312.1
378.827	306.67
379.208	338.76
379.588	305.09
379.968	326.56
380.349	320.46
380.729	344.64
381.109	318.88
381.489	331.53
381.87	328.59
382.25	341.93
382.63	319.78
383.01	329.5
383.39	300.57
383.77	348.48
384.15	333.56
384.53	362.49
384.91	347.12
385.29	347.8
385.67	344.86
386.049	347.58
386.429	328.59
386.809	376.95
387.189	343.96
387.568	349.61
387.948	344.41
388.328	352.77
388.707	358.42
389.087	345.32
389.466	351.87
389.846	365.2
390.225	361.59
390.605	357.29
390.984	362.26
391.363	358.2
391.743	344.86
392.122	357.07
392.501	363.62
392.881	364.98
393.26	355.03
393.639	340.34
394.018	348.71
394.397	370.85
394.776	367.91
395.155	356.84
395.534	372.66
395.913	367.01
396.292	390.74
396.671	358.87
397.05	369.27
397.429	366.33
397.808	379.44
398.186	386.22
398.565	376.28
398.944	374.92
399.323	382.38
399.701	386.44
400.08	390.96
400.458	383.73
400.837	397.97
401.215	372.89
401.594	372.89
401.972	383.28
402.351	389.83
402.729	377.18
403.107	389.83
403.486	385.77
403.864	402.04
404.242	400.68
404.62	402.49
404.999	389.16
405.377	393.9
405.755	399.33
406.133	410.85
406.511	402.72
406.889	393
407.267	426.9
407.645	424.86
408.023	399.1
408.401	438.42
408.779	401.13
409.156	425.77
409.534	414.69
409.912	424.18
410.29	421.25
410.667	437.52
411.045	445.2
411.422	442.49
411.8	438.65
412.178	457.63
412.555	459.89
412.933	441.81
413.31	456.95
413.687	451.75
414.065	459.89
414.442	450.85
414.819	454.24
415.197	480.23
415.574	452.88
415.951	458.99
416.328	470.96
416.705	462.37
417.082	470.96
417.46	474.35
417.837	489.49
418.214	477.06
418.591	476.61
418.967	489.94
419.344	482.26
419.721	498.31
420.098	494.46
420.475	491.75
420.852	512.99
421.228	516.38
421.605	512.99
421.982	516.84
422.358	492.88
422.735	530.17
423.111	500.79
423.488	520.9
423.864	533.33
424.241	522.94
424.617	527.91
424.994	548.02
425.37	532.43
425.746	541.47
426.123	532.2
426.499	545.08
426.875	548.47
427.251	563.39
427.627	547.34
428.003	545.76
428.379	572.88
428.756	562.03
429.132	562.71
429.507	552.32
429.883	553.9
430.259	579.89
430.635	561.13
431.011	591.86
431.387	597.51
431.763	599.09
432.138	609.94
432.514	597.74
432.89	610.17
433.265	630.96
433.641	605.42
434.016	618.53
434.392	624.86
434.767	644.74
435.143	635.03
435.518	632.99
435.894	653.78
436.269	651.07
436.644	663.27
437.02	657.17
437.395	658.98
437.77	679.77
438.145	659.21
438.52	673.22
438.895	696.49
439.271	699.88
439.646	703.05
440.021	691.3
440.395	694.46
440.77	684.74
441.145	690.62
441.52	719.09
441.895	726.55
442.27	725.42
442.645	742.59
443.019	697.17
443.394	722.26
443.769	744.18
444.143	739.66
444.518	761.58
444.892	733.33
445.267	748.02
445.641	766.1
446.016	750.28
446.39	748.47
446.764	753.44
447.139	759.54
447.513	789.82
447.887	771.75
448.262	779.65
448.636	782.14
449.01	795.47
449.384	795.02
449.758	779.65
450.132	790.95
450.506	804.29
450.88	826.43
451.254	817.85
451.628	811.52
452.002	850.61
452.376	820.11
452.75	850.39
453.123	844.06
453.497	860.1
453.871	856.71
454.244	872.76
454.618	902.82
454.992	889.71
455.365	889.48
455.739	927.45
456.112	912.98
456.486	915.24
456.859	923.15
457.232	949.14
457.606	953.44
457.979	964.96
458.352	976.03
458.725	1020.55
459.099	996.6
459.472	1024.62
459.845	1035.24
460.218	1051.74
460.591	1023.94
460.964	1028.01
461.337	1063.04
461.71	1097.84
462.083	1064.62
462.456	1088.35
462.829	1123.6
463.201	1118.4
463.574	1123.83
463.947	1164.73
464.32	1181.9
464.692	1200.21
465.065	1223.03
465.438	1209.25
465.81	1225.74
466.183	1241.56
466.555	1258.29
466.928	1281.79
467.3	1278.85
467.672	1304.84
468.045	1356.81
468.417	1371.05
468.789	1359.53
469.161	1378.28
469.534	1418.96
469.906	1449.47
470.278	1429.36
470.65	1474.55
471.022	1533.31
471.394	1539.18
471.766	1577.37
472.138	1611.95
472.51	1610.82
472.882	1688.33
473.253	1722.23
473.625	1713.42
473.997	1753.19
474.369	1809.46
474.74	1847.65
475.112	1861.43
475.484	1924.03
475.855	1948.21
476.227	2023.69
476.598	2066.63
476.97	2121.77
477.341	2143.23
477.713	2231.14
478.084	2258.71
478.455	2340.97
478.827	2374.41
479.198	2479.95
479.569	2509.1
479.94	2613.73
480.311	2630.23
480.682	2767.85
481.053	2786.83
481.424	2949.77
481.795	2996.77
482.166	3076.54
482.537	3110.21
482.908	3251.68
483.279	3354.95
483.65	3418.23
484.021	3510.43
484.391	3648.96
484.762	3693.48
485.133	3789.97
485.503	3901.38
485.874	4066.12
486.244	4105.89
486.615	4226.8
486.985	4330.52
487.356	4493.46
487.726	4553.34
488.097	4701.81
488.467	4796.27
488.837	5000.56
489.207	5107.9
489.578	5225.41
489.948	5334.56
490.318	5472.19
490.688	5555.8
491.058	5728
491.428	5908.33
491.798	6025.62
492.168	6187.87
492.538	6266.52
492.908	6454.31
493.278	6604.59
493.648	6661.53
494.017	6847.29
494.387	7034.63
494.757	7115.08
495.126	7304
495.496	7372.93
495.866	7535.64
496.235	7678.46
496.605	7840.03
496.974	7941.95
497.344	8103.76
497.713	8264.66
498.082	8344.88
498.452	8482.28
498.821	8600.69
499.19	8733.34
499.559	8891.31
499.928	9096.72
500.298	9133.79
500.667	9305.53
501.036	9315.48
501.405	9481.57
501.774	9591.85
502.143	9735.8
502.512	9739.42
502.88	9922.92
503.249	10041.78
503.618	10162.91
503.987	10224.83
504.356	10423.24
504.724	10549.34
505.093	10615.55
505.462	10752.5
505.83	10892.38
506.199	10996.79
506.567	11160.85
506.936	11175.77
507.304	11362.43
507.672	11484.68
508.041	11554.96
508.409	11642.87
508.777	11826.6
509.145	11880.61
509.514	11991.56
509.882	12054.39
510.25	12185.23
510.618	12256.87
510.986	12424.09
511.354	12550.87
511.722	12685.56
512.09	12755.16
512.458	12752
512.826	12868.15
513.193	12995.38
513.561	13044.19
513.929	13185.88
514.297	13333.45
514.664	13400.79
515.032	13420
515.4	13669.03
515.767	13695.93
516.135	13824.06
516.502	13717.17
516.869	14024.5
517.237	14109.47
517.604	14081.45
517.972	14229.02
518.339	14315.34
518.706	14334.78
519.073	14343.37
519.44	14580.65
519.808	14739.06
520.175	14625.17
520.542	14852.73
520.909	15038.49
521.276	15002.56
521.643	15120.97
522.009	15197.58
522.376	15327.75
522.743	15351.7
523.11	15576.78
523.477	15653.84
523.843	15728.19
524.21	15848.41
524.577	15996.43
524.943	16040.5
525.31	16125.24
525.676	16290.89
526.043	16304.67
526.409	16377.89
526.776	16462.41
527.142	16536.3
527.508	16618.11
527.874	16728.61
528.241	16842.96
528.607	16838.22
528.973	16987.14
529.339	16934.48
529.705	17062.62
530.071	17189.39
530.437	17197.75
530.803	17356.39
531.169	17351.2
531.535	17341.48
531.901	17387.81
532.267	17505.77
532.632	17586.22
532.998	17613.79
533.364	17707.12
533.73	17660.57
534.095	17840
534.461	17774.24
534.826	17906.89
535.192	17868.92
535.557	18034.79
535.923	17989.37
536.288	18007.68
536.653	18082.93
537.019	17976.26
537.384	18096.71
537.749	18144.17
538.114	18174.45
538.479	18088.13
538.845	18224.39
539.21	18365.41
539.575	18331.96
539.94	18296.93
540.305	18383.49
540.67	18349.81
541.034	18374.9
541.399	18477.27
541.764	18379.64
542.129	18386.88
542.494	18490.83
542.858	18517.27
543.223	18496.48
543.587	18580.77
543.952	18592.52
544.316	18464.84
544.681	18573.99
545.045	18595.01
545.41	18573.31
545.774	18743.48
546.138	18584.38
546.503	18783.48
546.867	18736.7
547.231	18799.07
547.595	18783.25
547.959	18837.48
548.324	18879.29
548.688	18840.2
549.052	18764.27
549.416	18879.52
549.779	18792.06
550.143	18857.37
550.507	18917.71
550.871	19034.99
551.235	18879.07
551.599	19114.77
551.962	19015.11
552.326	19047.87
552.689	19060.53
553.053	19000.19
553.417	19079.51
553.78	19246.29
554.143	19159.28
554.507	19207.42
554.87	19179.85
555.234	19323.12
555.597	19152.5
555.96	19248.55
556.323	19308.43
556.686	19361.09
557.05	19458.26
557.413	19543
557.776	19464.81
558.139	19630.01
558.502	19623
558.865	19672.27
559.228	19702.32
559.59	19764.24
559.953	19785.93
560.316	19856.22
560.679	19858.7
561.041	20005.14
561.404	19890.34
561.767	20097.79
562.129	20091.01
562.492	20225.25
562.854	20185.92
563.217	20209.65
563.579	20326.71
563.941	20366.26
564.304	20382.3
564.666	20549.08
565.028	20595.86
565.39	20548.4
565.753	20662.07
566.115	20635.63
566.477	20655.97
566.839	20810.99
567.201	20862.97
567.563	20800.37
567.925	20933.25
568.287	21095.96
568.648	21041.49
569.01	21132.34
569.372	21244.2
569.734	21123.75
570.095	21227.25
570.457	21385.44
570.819	21427.47
571.18	21326.01
571.542	21423.18
571.903	21556.74
572.265	21551.31
572.626	21447.36
572.987	21634.93
573.349	21623.4
573.71	21758.76
574.071	21731.65
574.432	21780.01
574.794	21895.94
575.155	21836.5
575.516	21800.12
575.877	21981.81
576.238	21964.18
576.599	22036.04
576.96	22036.5
577.32	22052.09
577.681	22074.69
578.042	22200.33
578.403	22142.26
578.763	22219.32
579.124	22296.38
579.485	22230.39
579.845	22280.33
580.206	22261.58
580.566	22193.33
580.927	22311.07
581.287	22242.14
581.648	22290.28
582.008	22316.49
582.368	22319.88
582.728	22423.38
583.089	22327.34
583.449	22373.66
583.809	22421.8
584.169	22464.51
584.529	22314.68
584.889	22377.5
585.249	22295.02
585.609	22290.05
585.969	22370.95
586.329	22284.17
586.688	22437.62
587.048	22304.96
587.408	22294.8
587.768	22382.48
588.127	22407.33
588.487	22264.06
588.846	22452.53
589.206	22290.73
589.565	22352.87
589.925	22471.06
590.284	22310.61
590.643	22359.2
591.003	22418.18
591.362	22485.52
591.721	22311.74
592.08	22417.5
592.44	22429.71
592.799	22401.46
593.158	22363.49
593.517	22347
593.876	22394.91
594.235	22437.16
594.593	22248.02
594.952	22510.83
595.311	22310.84
595.67	22420.44
596.029	22462.25
596.387	22397.39
596.746	22514.9
597.104	22466.54
597.463	22425.19
597.822	22430.84
598.18	22395.13
598.538	22469.25
598.897	22524.39
599.255	22499.08
599.613	22672.64
599.972	22569.82
600.33	22616.37
600.688	22452.76
601.046	22563.04
601.404	22559.19
601.762	22550.38
602.12	22708.8
602.478	22649.59
602.836	22557.16
603.194	22502.93
603.552	22607.33
603.91	22537.27
604.268	22614.11
604.625	22564.62
604.983	22615.01
605.341	22599.65
605.698	22640.1
606.056	22630.61
606.413	22709.02
606.771	22790.15
607.128	22786.08
607.485	22705.18
607.843	22746.99
608.2	22777.72
608.557	22926.87
608.914	22914.44
609.272	23015.91
609.629	23053.19
609.986	23069.69
610.343	22942.91
610.7	23063.59
611.057	23046.64
611.414	23118.5
611.771	23234.43
612.127	23243.92
612.484	23141.55
612.841	23323.92
613.198	23259.74
613.554	23198.27
613.911	23359.85
614.267	23351.94
614.624	23258.39
614.98	23467.19
615.337	23431.26
615.693	23412.73
616.05	23414.99
616.406	23634.19
616.762	23579.51
617.118	23569.79
617.475	23464.71
617.831	23553.75
618.187	23632.39
618.543	23733.85
618.899	23690.46
619.255	23725.94
619.611	23641.2
619.967	23740.86
620.323	23863.12
620.678	23734.76
621.034	23614.53
621.39	23620.64
621.746	23643.23
622.101	23967.07
622.457	23813.4
622.812	23843
623.168	23905.37
623.523	23770.69
623.879	23896.33
624.234	23757.81
624.589	23843.68
624.945	23830.35
625.3	23821.99
625.655	23863.12
626.01	23913.96
626.365	23888.65
626.72	23913.51
627.075	23786.73
627.43	23847.3
627.785	23827.64
628.14	23993.06
628.495	23920.97
628.85	23882.78
629.205	23857.92
629.559	23951.47
629.914	23781.31
630.269	23784.7
630.623	23775.89
630.978	23722.78
631.332	23884.58
631.687	23928.2
632.041	23808.65
632.396	23786.51
632.75	23749.67
633.104	23822.44
633.459	23662.44
633.813	23777.69
634.167	23733.63
634.521	23747.19
634.875	23702.89
635.229	23658.6
635.583	23498.83
635.937	23570.47
636.291	23539.96
636.645	23536.8
636.999	23625.38
637.352	23538.38
637.706	23392.85
638.06	23661.09
638.413	23406.86
638.767	23333.64
639.121	23381.77
639.474	23268.78
639.828	23371.38
640.181	23314.43
640.534	23385.84
640.888	23415.9
641.241	23127.09
641.594	23277.82
641.947	23273.98
642.301	23256.35
642.654	23202.12
643.007	23241.66
643.36	23226.07
643.713	23106.98
644.066	23206.18
644.419	23167.09
644.771	23016.81
645.124	22743.37
645.477	22747.44
645.83	22668.12
646.182	22579.08
646.535	22434
646.888	22510.83
647.24	22305.87
647.593	22451.4
647.945	22422.25
648.298	22389.71
648.65	22305.42
649.002	22271.52
649.355	22360.78
649.707	22281.24
650.059	22321.91
650.411	22689.59
650.763	22763.26
651.115	22908.11
651.467	22880.77
651.819	22880.32
652.171	22797.15
652.523	22748.79
652.875	22728.23
653.227	22673.77
653.578	22893.42
653.93	22812.07
654.282	22775.01
654.633	22644.16
654.985	22700.89
655.337	22734.78
655.688	22751.73
656.039	22733.43
656.391	22626.09
656.742	22694.56
657.094	22677.16
657.445	22808
657.796	22714.45
658.147	22723.94
658.498	22707.67
658.849	22793.31
659.2	22734.11
659.551	22679.42
659.902	22716.25
660.253	22754.44
660.604	22711.28
660.955	22715.58
661.306	22748.12
661.656	22586.99
662.007	22662.7
662.358	22801.67
662.708	22759.42
663.059	22691.62
663.409	22622.47
663.76	22727.33
664.11	22757.38
664.461	22788.57
664.811	22695.91
665.161	22734.33
665.511	22631.51
665.862	22714.45
666.212	22809.13
666.562	22776.82
666.912	22695.91
667.262	22757.83
667.612	22711.28
667.962	22810.04
668.312	22783.14
668.662	22934.55
669.011	22786.08
669.361	22704.28
669.711	22692.07
670.06	22664.28
670.41	22592.41
670.76	22555.58
671.109	22698.63
671.459	22649.14
671.808	22624.96
672.157	22662.02
672.507	22563.49
672.856	22552.42
673.205	22605.52
673.554	22595.8
673.904	22480.33
674.253	22645.75
674.602	22460.67
674.951	22177.96
675.3	22059.77
675.649	22469.48
675.998	22437.62
676.346	22492.3
676.695	22471.51
677.044	22381.8
677.393	22354.23
677.741	22315.36
678.09	22398.07
678.438	22302.93
678.787	22363.95
679.135	22294.12
679.484	22187
679.832	22181.35
680.181	22076.72
680.529	22233.55
680.877	22095.03
681.225	22022.03
681.573	22175.7
681.922	22016.84
682.27	22024.07
682.618	22046.67
682.966	21963.28
683.314	21980.45
683.661	21918.53
684.009	21796.73
684.357	21786.56
684.705	21724.19
685.053	21684.87
685.4	21628.82
685.748	21626.79
686.095	21568.26
686.443	21502.73
686.79	21395.38
687.138	21513.12
687.485	21453.24
687.832	21398.55
688.18	21409.85
688.527	21242.62
688.874	21302.73
689.221	21164.43
689.568	21035.62
689.915	20979.8
690.262	21043.98
690.609	20969.86
690.956	20990.65
691.303	20790.43
691.65	20825.23
691.997	20792.46
692.344	20668.17
692.69	20659.81
693.037	20636.53
693.383	20398.12
693.73	20425.01
694.077	20472.47
694.423	20428.63
694.769	20269.99
695.116	20232.7
695.462	20175.53
695.808	20163.55
696.155	20129.88
696.501	20011.47
696.847	19968.53
697.193	19775.99
697.539	19888.76
697.885	19710.68
698.231	19689.89
698.577	19641.76
698.923	19611.02
699.269	19482.67
699.614	19419.16
699.96	19347.3
700.306	19324.03
700.651	19375.1
700.997	19180.53
701.342	19123.13
701.688	19120.64
702.033	19059.85
702.379	19006.29
702.724	18891.27
703.069	19036.58
703.415	18804.04
703.76	18761.55
704.105	18769.01
704.45	18737.6
704.795	18651.95
705.14	18489.47
705.485	18513.88
705.83	18415.8
706.175	18429.36
706.52	18377.84
706.865	18325.41
707.209	18230.5
707.554	18276.14
707.899	18245.18
708.243	18138.29
708.588	18019.65
708.932	17971.07
709.277	17952.31
709.621	17909.83
709.966	17843.61
710.31	17872.09
710.654	17780.34
710.998	17714.8
711.342	17848.36
711.687	17722.71
712.031	17657.63
712.375	17571.98
712.719	17654.69
713.063	17503.51
713.407	17628.48
713.75	17520.23
714.094	17448.82
714.438	17268.94
714.782	17367.02
715.125	17320.01
715.469	17248.83
715.812	17225.55
716.156	17143.52
716.499	17097.87
716.843	17128.15
717.186	17014.48
717.53	17059.23
717.873	17114.59
718.216	17039.57
718.559	16939
718.902	16829.85
719.246	16852.9
719.589	16872.79
719.932	16827.14
720.275	16793.7
720.617	16823.75
720.96	16803.87
721.303	16853.81
721.646	16826.92
721.989	16723.64
722.331	16769.52
722.674	16594.15
723.016	16591.67
723.359	16669.18
723.701	16571.78
724.044	16496.98
724.386	16504.89
724.729	16536.98
725.071	16485.91
725.413	16527.72
725.755	16494.95
726.097	16387.61
726.439	16405.68
726.782	16451.78
727.124	16459.24
727.465	16322.52
727.807	16299.02
728.149	16326.82
728.491	16321.39
728.833	16357.32
729.175	16239.36
729.516	16231.45
729.858	16174.96
730.199	16263.32
730.541	16195.07
730.882	16128.63
731.224	16202.98
731.565	16073.72
731.906	16188.52
732.248	16149.42
732.589	16031.68
732.93	16044.34
733.271	16104.22
733.612	16129.76
733.953	16112.36
734.294	16027.62
734.635	16031.68
734.976	16072.13
735.317	15915.3
735.658	15970.89
735.999	16008.18
736.339	15994.4
736.68	16059.7
737.021	15956.88
737.361	15904.68
737.702	16013.83
738.042	16056.09
738.383	15989.2
738.723	15973.38
739.063	15970.22
739.404	15980.16
739.744	15960.72
740.084	15852.93
740.424	16014.73
740.764	15857
741.104	15965.47
741.444	15867.62
741.784	15904.68
742.124	15898.13
742.464	15951.01
742.804	15988.29
743.143	15953.94
743.483	15924.12
743.823	15999.82
744.162	15937.22
744.502	16039.37
744.841	15967.96
745.181	16164.56
745.52	16054.28
745.86	16153.94
746.199	16009.08
746.538	16096.54
746.877	16185.58
747.216	16260.6
747.556	16263.09
747.895	16208.85
748.234	16294.27
748.573	16250.21
748.911	16329.53
749.25	16380.6
749.589	16334.73
749.928	16482.74
750.267	16533.59
750.605	16493.59
750.944	16523.87
751.283	16583.53
751.621	16661.5
751.96	16630.31
752.298	16654.04
752.636	16736.52
752.975	16837.31
753.313	16802.74
753.651	16990.53
753.989	16984.88
754.327	17100.81
754.666	16992.11
755.004	17119.11
755.342	17213.12
755.679	17313.91
756.017	17227.58
756.355	17539.67
756.693	17418.99
757.031	17668.93
757.368	17543.73
757.706	17740.11
758.044	17729.27
758.381	17757.51
758.719	17829.6
759.056	17897.85
759.394	17958.86
759.731	17998.86
760.068	18054
760.405	18161.12
760.743	18212.19
761.08	18279.53
761.417	18275.69
761.754	18342.13
762.091	18398.17
762.428	18390.27
762.765	18422.13
763.102	18631.16
763.438	18533.54
763.775	18566.31
764.112	18688.34
764.449	18717.26
764.785	18684.49
765.122	18729.47
765.458	18767.43
765.795	18813.3
766.131	18805.17
766.467	18816.92
766.804	18799.52
767.14	18766.07
767.476	18953.64
767.812	18843.36
768.148	18880.2
768.485	18849.46
768.821	18826.64
769.157	18921.55
769.492	18799.07
769.828	18972.62
770.164	18805.17
770.5	18940.99
770.836	18899.63
771.171	18878.39
771.507	18854.21
771.842	18760.65
772.178	18848.78
772.513	18796.13
772.849	18757.26
773.184	18766.75
773.519	18804.04
773.855	18655.79
774.19	18674.78
774.525	18621.45
774.86	18642.24
775.195	18594.1
775.53	18692.86
775.865	18492.18
776.2	18529.47
776.535	18390.94
776.87	18400.89
777.205	18378.97
777.539	18263.49
777.874	18313.88
778.209	18224.62
778.543	18153.89
778.878	18083.83
779.212	18100.78
779.547	18008.58
779.881	18072.31
780.215	17963.38
780.55	18017.17
780.884	17928.58
781.218	17898.3
781.552	17855.82
781.886	17831.18
782.22	17736.27
782.554	17595.03
782.888	17596.16
783.222	17446.56
783.556	17417.18
783.889	17440.69
784.223	17273.01
784.557	17444.3
784.89	17397.75
785.224	17171.99
785.557	17190.07
785.891	17190.97
786.224	17062.84
786.558	17131.54
786.891	16999.34
787.224	16858.33
787.557	16853.58
787.891	16858.55
788.224	16807.93
788.557	16810.65
788.89	16750.99
789.223	16612.91
789.556	16518.9
789.888	16586.92
790.221	16535.85
790.554	16391.22
790.887	16379.24
791.219	16375.4
791.552	16398
791.884	16148.06
792.217	16107.39
792.549	16204.33
792.882	16027.62
793.214	15945.36
793.546	16014.51
793.879	15938.58
794.211	15776.55
794.543	15909.2
794.875	15863.33
795.207	15945.81
795.539	15751.46
795.871	15730.45
796.203	15657.68
796.535	15544.46
796.867	15557.57
797.198	15476.44
797.53	15504.24
797.862	15350.57
798.193	15399.38
798.525	15380.17
798.856	15251.36
799.188	15174.3
799.519	15064.25
799.85	15054.99
800.182	15101.09
800.513	14979.06
800.844	14890.24
801.175	14916.91
801.506	14905.38
801.837	14830.13
802.168	14758.95
802.499	14655.9
802.83	14758.72
803.161	14647.09
803.491	14640.53
803.822	14678.27
804.153	14549.24
804.483	14442.8
804.814	14414.78
805.145	14497.03
805.475	14488.22
805.805	14343.14
806.136	14400.99
806.466	14262.01
806.796	14291.39
807.126	14194.9
807.457	14160.32
807.787	14131.17
808.117	14042.58
808.447	14105.41
808.777	14022.92
809.107	14052.75
809.436	13915.13
809.766	13961.91
810.096	13866.09
810.426	13848.69
810.755	13789.26
811.085	13802.82
811.414	13748.35
811.744	13726.66
812.073	13619.77
812.403	13663.84
812.732	13524.63
813.061	13590.62
813.39	13426.55
813.719	13408.02
814.049	13462.26
814.378	13466.1
814.707	13340.45
815.036	13373.67
815.365	13266.33
815.693	13227.24
816.022	13210.97
816.351	13192.89
816.68	13126.67
817.008	13134.36
817.337	13076.51
817.665	12988.37
817.994	13060.69
818.322	13058.88
818.651	13013.23
818.979	12910.41
819.307	13042.16
819.636	12997.86
819.964	12902.05
820.292	12914.02
820.62	12893.46
820.948	12780.92
821.276	12944.08
821.604	12780.7
821.932	12871.99
822.259	12833.35
822.587	12795.38
822.915	12750.87
823.243	12741.6
823.57	12749.96
823.898	12784.31
824.225	12745.89
824.553	12712.45
824.88	12700.92
825.207	12786.34
825.535	12753.8
825.862	12742.5
826.189	12740.92
826.516	12743.86
826.843	12891.65
827.17	12832.67
827.497	12870.64
827.824	12762.84
828.151	12830.64
828.478	12739.57
828.805	12782.05
829.131	12719.23
829.458	12736.63
829.785	12661.38
830.111	12784.54
830.438	12715.84
830.764	12801.94
831.09	12770.98
831.417	12699.79
831.743	12689.62
832.069	12676.74
832.395	12693.92
832.722	12686.69
833.048	12577.08
833.374	12642.39
833.7	12592
834.026	12611.43
834.351	12664.31
834.677	12679
835.003	12590.19
835.329	12656.4
835.654	12521.04
835.98	12513.58
836.306	12614.37
836.631	12462.96
836.956	12445.11
837.282	12504.54
837.607	12404.43
837.932	12418.44
838.258	12414.38
838.583	12414.15
838.908	12364.89
839.233	12254.16
839.558	12322.18
839.883	12315.62
840.208	12224.78
840.533	12256.19
840.858	12224.78
841.182	12279.24
841.507	12185.91
841.832	12124.44
842.156	12169.41
842.481	12163.76
842.805	12061.62
843.13	12060.26
843.454	12077.66
843.778	11983.43
844.103	11923.77
844.427	11991.34
844.751	12008.29
845.075	11848.52
845.399	11829.76
845.723	11784.11
846.047	11819.36
846.371	11727.16
846.695	11681.97
847.019	11525.81
847.343	11581.86
847.666	11531.69
847.99	11420.5
848.313	11495.31
848.637	11339.38
848.96	11407.85
849.284	11340.05
849.607	11264.12
849.931	11278.14
850.254	11133.73
850.577	11088.08
850.9	11020.97
851.223	11030.01
851.546	10953.17
851.869	10815.77
852.192	10978.26
852.515	10851.25
852.838	10844.25
853.161	10723.8
853.483	10725.38
853.806	10731.26
854.129	10634.76
854.451	10585.05
854.774	10608.1
855.096	10527.87
855.419	10500.98
855.741	10464.37
856.063	10430.7
856.385	10400.19
856.708	10396.12
857.03	10340.31
857.352	10378.05
857.674	10280.42
857.996	10339.4
858.318	10266.41
858.64	10257.82
858.961	10189.35
859.283	10173.76
859.605	10099.18
859.926	10145.51
860.248	10095.79
860.57	10068.9
860.891	10048.34
861.212	10033.42
861.534	9990.26
861.855	9988
862.176	9951.39
862.498	9884.73
862.819	9928.11
863.14	9913.2
863.461	9941.67
863.782	9819.19
864.103	9860.32
864.424	9831.85
864.745	9830.04
865.065	9751.4
865.386	9755.01
865.707	9759.08
866.027	9729.25
866.348	9720.66
866.668	9761.34
866.989	9737.84
867.309	9600.21
867.63	9603.15
867.95	9609.03
868.27	9518.63
868.59	9566.99
868.91	9563.15
869.23	9527.45
869.55	9477.73
869.87	9540.55
870.19	9570.38
870.51	9500.56
870.83	9475.7
871.15	9437.28
871.469	9415.13
871.789	9389.37
872.109	9432.31
872.428	9437.28
872.748	9348.24
873.067	9371.75
873.386	9380.33
873.706	9348.69
874.025	9334.68
874.344	9283.84
874.663	9345.98
874.982	9298.53
875.301	9235.03
875.62	9195.48
875.939	9152.32
876.258	9185.31
876.577	9185.31
876.896	9191.41
877.214	9167.91
877.533	9079.1
877.852	9164.07
878.17	9207
878.489	9101.47
878.807	9111.86
879.125	9073.45
879.444	9072.09
879.762	9077.97
880.08	9059.89
880.398	9062.6
880.716	9044.52
881.034	8964.07
881.352	8926.33
881.67	8939.67
881.988	8994.35
882.306	8907.12
882.624	8901.25
882.941	8859.44
883.259	8856.5
883.577	8806.56
883.894	8738.32
884.212	8736.51
884.529	8754.81
884.846	8759.56
885.164	8725.21
885.481	8629.84
885.798	8713.46
886.115	8703.51
886.432	8641.37
886.75	8698.77
887.067	8617.41
887.383	8584.42
887.7	8621.03
888.017	8558.21
888.334	8524.99
888.651	8520.69
888.967	8495.84
889.284	8410.64
889.6	8419.45
889.917	8385.33
890.233	8384.2
890.55	8344.65
890.866	8388.72
891.182	8247.48
891.498	8331.55
891.815	8281.15
892.131	8290.19
892.447	8210.42
892.763	8182.17
893.079	8133.36
893.395	8101.04
893.71	8085.68
894.026	8090.65
894.342	8103.98
894.657	7987.83
894.973	7970.65
895.289	7992.57
895.604	7998.67
895.92	7930.88
896.235	7864.89
896.55	7896.08
896.865	7875.06
897.181	7876.87
897.496	7780.6
897.811	7830.32
898.126	7751.67
898.441	7700.83
898.756	7723.43
899.071	7676.65
899.386	7628.51
899.7	7551.23
900.015	7576.54
900.33	7484.34
900.644	7507.61
900.959	7502.64
901.273	7500.38
901.588	7434.39
901.902	7453.38
902.216	7368.41
902.531	7323.44
902.845	7384.45
903.159	7297
903.473	7275.08
903.787	7268.52
904.101	7185.36
904.415	7170.45
904.729	7214.06
905.042	7127.74
905.356	7133.84
905.67	7142.43
905.984	7079.83
906.297	7013.84
906.611	7029.21
906.924	6953.5
907.237	7003.9
907.551	6966.16
907.864	6939.04
908.177	6883.45
908.491	6871.47
908.804	6862.88
909.117	6799.16
909.43	6748.76
909.743	6726.62
910.056	6765.71
910.368	6685.71
910.681	6694.53
910.994	6600.29
911.307	6588.77
911.619	6591.03
911.932	6596
912.244	6504.48
912.557	6497.92
912.869	6471.48
913.181	6426.96
913.494	6446.4
913.806	6401.2
914.118	6372.05
914.43	6314.42
914.742	6387.42
915.054	6279.62
915.366	6266.06
915.678	6214.54
915.99	6228.55
916.302	6185.16
916.613	6134.09
916.925	6188.55
917.236	6138.16
917.548	6156.01
917.859	6065.62
918.171	6049.12
918.482	6063.81
918.794	6021.1
919.105	5969.57
919.416	5913.76
919.727	5914.43
920.038	5889.58
920.349	5874.89
920.66	5909.01
920.971	5838.05
921.282	5812.06
921.593	5774.33
921.903	5780.65
922.214	5728.45
922.525	5720.09
922.835	5643.93
923.146	5677.83
923.456	5629.92
923.767	5601.67
924.077	5568.91
924.387	5614.78
924.697	5540.43
925.008	5568.46
925.318	5505.63
925.628	5493.65
925.938	5498.4
926.248	5418.4
926.558	5410.72
926.867	5388.57
927.177	5361
927.487	5357.84
927.796	5304.51
928.106	5292.3
928.416	5281.01
928.725	5256.6
929.034	5252.08
929.344	5225.87
929.653	5221.12
929.962	5172.99
930.271	5154.23
930.581	5089.15
930.89	5093.89
931.199	5096.38
931.508	5062.48
931.817	5074.91
932.125	5058.41
932.434	5011.86
932.743	4989.04
933.051	4917.17
933.36	4934.12
933.669	4929.83
933.977	4880.56
934.286	4830.85
934.594	4889.15
934.902	4813.22
935.21	4803.28
935.519	4773.9
935.827	4725.99
936.135	4767.12
936.443	4766.44
936.751	4693.45
937.059	4733
937.367	4632.43
937.674	4667.69
937.982	4615.71
938.29	4641.02
938.597	4627.92
938.905	4541.14
939.213	4539.33
939.52	4549.73
939.827	4521.48
940.135	4488.26
940.442	4462.04
940.749	4434.02
941.056	4431.99
941.363	4402.84
941.67	4370.29
941.977	4378.43
942.284	4383.4
942.591	4352.22
942.898	4351.76
943.205	4309.96
943.511	4283.07
943.818	4281.94
944.125	4245.33
944.431	4238.32
944.738	4197.42
945.044	4218.43
945.35	4217.98
945.657	4134.82
945.963	4152
946.269	4102.28
946.575	4124.2
946.881	4047.59
947.187	4101.83
947.493	4024.32
947.799	4050.98
948.105	4007.37
948.41	4041.72
948.716	4015.73
949.022	3980.25
949.327	3948.16
949.633	3919.69
949.938	3957.42
950.244	3945.9
950.549	3909.97
950.854	3902.51
951.16	3921.94
951.465	3840.59
951.77	3836.3
952.075	3840.14
952.38	3771.21
952.685	3804.89
952.99	3739.8
953.294	3740.93
953.599	3743.42
953.904	3710.88
954.209	3696.41
954.513	3712.91
954.818	3666.58
955.122	3698.9
955.426	3615.96
955.731	3628.62
956.035	3601.05
956.339	3590.88
956.643	3614.38
956.948	3558.11
957.252	3577.77
957.556	3552.46
957.86	3497.1
958.163	3521.73
958.467	3476.98
958.771	3528.73
959.075	3438.12
959.378	3451.22
959.682	3469.53
959.985	3430.21
960.289	3396.76
960.592	3376.42
960.896	3373.94
961.199	3384.33
961.502	3354.73
961.805	3377.1
962.108	3310.21
962.411	3322.19
962.714	3274.05
963.017	3239.7
963.32	3251.91
963.623	3202.42
963.926	3212.81
964.228	3192.47
964.531	3187.5
964.833	3220.95
965.136	3160.38
965.438	3168.52
965.741	3143.66
966.043	3151.34
966.345	3146.82
966.648	3073.38
966.95	3079.71
967.252	3075.87
967.554	3072.02
967.856	3037.22
968.158	3033.38
968.46	3029.76
968.761	3012.59
969.063	2997.68
969.365	2969.65
969.666	2981.86
969.968	2952.7
970.269	2931.01
970.571	2960.39
970.872	2895.76
971.174	2906.83
971.475	2860.73
971.776	2907.28
972.077	2835.42
972.378	2866.15
972.679	2831.8
972.98	2806.04
973.281	2827.06
973.582	2813.95
973.883	2830
974.183	2776.21
974.484	2780.73
974.785	2768.53
975.085	2751.58
975.386	2796.78
975.686	2751.81
975.986	2720.62
976.287	2713.39
976.587	2691.92
976.887	2677.01
977.187	2679.72
977.487	2656.89
977.787	2640.85
978.087	2632.71
978.387	2653.5
978.687	2631.13
978.987	2614.86
979.286	2583.22
979.586	2568.31
979.885	2564.47
980.185	2561.75
980.484	2558.82
980.784	2564.47
981.083	2535.99
981.382	2539.38
981.682	2503.9
981.981	2498.93
982.28	2498.25
982.579	2477.69
982.878	2488.54
983.177	2480.85
983.475	2422.55
983.774	2450.12
984.073	2428.42
984.372	2364.47
984.67	2389.33
984.969	2396.34
985.267	2396.79
985.566	2354.75
985.864	2357.92
986.162	2358.14
986.461	2315.89
986.759	2361.53
987.057	2298.48
987.355	2284.93
987.653	2283.12
987.951	2276.34
988.249	2293.51
988.547	2246.96
988.844	2279.5
989.142	2278.6
989.44	2232.95
989.737	2221.88
990.035	2216.23
990.332	2171.93
990.63	2189.56
990.927	2190.24
991.224	2154.53
991.521	2156.12
991.819	2131.03
992.116	2138.71
992.413	2133.07
992.71	2136
993.006	2132.61
993.303	2094.65
993.6	2101.88
993.897	2070.92
994.193	2077.25
994.49	2074.76
994.787	2079.73
995.083	2059.85
995.379	2057.14
995.676	2053.97
995.972	2029.11
996.268	2005.84
996.565	1989.79
996.861	2016.91
997.157	2016.23
997.453	1988.66
997.749	1992.28
998.044	1935.56
998.34	1945.95
998.636	1884.94
998.932	1939.62
999.227	1891.72
999.523	1904.14
999.818	1877.7
1000.114	1854.88
1000.409	1853.07
1000.704	1847.65
1001	1867.31
1001.295	1832.28
1001.59	1831.83
1001.885	1833.86
1002.18	1820.76
1002.475	1818.5
1002.77	1820.98
1003.065	1777.82
1003.359	1775.56
1003.654	1773.75
1003.949	1760.87
1004.243	1741.44
1004.538	1741.89
1004.832	1736.92
1005.127	1745.5
1005.421	1710.93
1005.715	1698.27
1006.009	1712.51
1006.304	1669.8
1006.598	1699.86
1006.892	1689.24
1007.186	1626.64
1007.48	1642.46
1007.773	1652.63
1008.067	1627.77
1008.361	1632.74
1008.655	1609.46
1008.948	1608.11
1009.242	1581.89
1009.535	1591.61
1009.829	1570.82
1010.122	1547.54
1010.415	1571.5
1010.708	1569.69
1011.001	1545.74
1011.295	1536.02
1011.588	1513.42
1011.881	1499.18
1012.173	1507.32
1012.466	1524.72
1012.759	1514.78
1013.052	1492.86
1013.344	1450.37
1013.637	1459.41
1013.93	1446.08
1014.222	1440.65
1014.514	1433.65
1014.807	1439.52
1015.099	1437.26
1015.391	1425.51
1015.683	1414.21
1015.976	1390.71
1016.268	1385.74
1016.56	1384.16
1016.851	1403.37
1017.143	1371.28
1017.435	1368.34
1017.727	1375.35
1018.018	1351.84
1018.31	1328.57
1018.602	1328.79
1018.893	1340.32
1019.185	1313.88
1019.476	1290.15
1019.767	1306.65
1020.058	1273.2
1020.35	1282.24
1020.641	1297.16
1020.932	1271.62
1021.223	1259.19
1021.514	1250.6
1021.804	1230.94
1022.095	1244.95
1022.386	1230.04
1022.677	1245.86
1022.967	1221.68
1023.258	1199.76
1023.548	1216.93
1023.839	1202.92
1024.129	1166.31
1024.419	1180.32
1024.709	1172.64
1025	1172.19
1025.29	1138.52
1025.58	1158.4
1025.87	1129.02
1026.16	1126.76
1026.449	1151.85
1026.739	1128.57
1027.029	1087.22
1027.319	1115.47
1027.608	1085.41
1027.898	1082.25
1028.187	1098.52
1028.477	1080.66
1028.766	1077.5
1029.055	1057.84
1029.344	1058.07
1029.634	1066.43
1029.923	1056.94
1030.212	1026.88
1030.501	1030.27
1030.79	1047.9
1031.078	1037.95
1031.367	987.78
1031.656	1008.8
1031.945	995.24
1032.233	993.89
1032.522	984.62
1032.81	987.11
1033.099	963.38
1033.387	974.9
1033.675	960.89
1033.963	941.01
1034.251	946.2
1034.54	954.57
1034.828	948.69
1035.116	952.31
1035.403	927.22
1035.691	931.29
1035.979	937.84
1036.267	899.65
1036.554	914.11
1036.842	913.21
1037.129	901.46
1037.417	876.83
1037.704	856.71
1037.992	887.67
1038.279	878.64
1038.566	869.6
1038.853	869.6
1039.14	869.6
