Data from hue_36_FLMS001491_00003.txt Node
Date: Tue Feb 07 17:29:19 GMT 2017
User: dcchb
Spectrometer: FLMS00149
Trigger mode: 0
Integration Time (sec): 2.000000E-2
Scans to average: 10
Electric dark correction enabled: true
Nonlinearity correction enabled: false
Boxcar width: 0
XAxis mode: Wavelengths
Number of Pixels in Spectrum: 2048
>>>>>Begin Spectral Data<<<<<
341.393	-32.81
341.776	-32.81
342.16	-32.81
342.543	-43.21
342.927	-63.32
343.31	-75.75
343.693	-59.48
344.077	-73.71
344.46	-54.73
344.843	-38.23
345.226	-26.71
345.61	-30.32
345.993	-28.74
346.376	-7.95
346.759	16.68
347.142	40.86
347.525	32.05
347.908	59.17
348.291	51.48
348.674	93.97
349.057	101.42
349.44	136
349.823	137.13
350.206	158.82
350.588	214.42
350.971	199.95
351.354	220.06
351.737	238.37
352.119	256.45
352.502	256
352.884	272.04
353.267	303.45
353.65	310.23
354.032	305.71
354.414	318.37
354.797	315.43
355.179	312.49
355.562	317.92
355.944	332.6
356.326	345.94
356.709	344.36
357.091	343.68
357.473	333.96
357.855	333.28
358.238	344.81
358.62	323.79
359.002	344.36
359.384	341.42
359.766	351.13
360.148	349.55
360.53	329.21
360.912	326.73
361.294	346.62
361.676	343.68
362.057	340.06
362.439	357.46
362.821	333.28
363.203	326.28
363.584	336.45
363.966	346.39
364.348	342.77
364.729	335.09
365.111	338.93
365.493	317.69
365.874	335.77
366.256	319.5
366.637	319.5
367.019	321.31
367.4	334.86
367.781	302.32
368.163	311.81
368.544	317.24
368.925	326.95
369.306	326.95
369.688	323.11
370.069	344.58
370.45	337.12
370.831	318.82
371.212	321.53
371.593	344.81
371.974	306.84
372.355	311.14
372.736	307.75
373.117	329.21
373.498	335.32
373.879	329.44
374.26	314.07
374.641	311.59
375.021	334.19
375.402	315.2
375.783	312.04
376.163	321.98
376.544	325.15
376.925	315.2
377.305	321.76
377.686	321.31
378.066	330.57
378.447	350.91
378.827	342.1
379.208	345.26
379.588	335.09
379.968	348.65
380.349	333.06
380.729	337.8
381.109	328.76
381.489	333.96
381.87	334.86
382.25	342.77
382.63	364.69
383.01	335.32
383.39	355.2
383.77	344.36
384.15	360.4
384.53	364.92
384.91	356.33
385.29	347.75
385.67	340.74
386.049	385.94
386.429	355.43
386.809	326.28
387.189	367.18
387.568	361.53
387.948	346.84
388.328	357.46
388.707	361.76
389.087	360.85
389.466	377.12
389.846	368.99
390.225	357.91
390.605	383
390.984	373.06
391.363	345.94
391.743	367.86
392.122	375.77
392.501	379.61
392.881	390
393.26	373.28
393.639	381.19
394.018	375.54
394.397	385.94
394.776	357.24
395.155	387.52
395.534	377.35
395.913	392.72
396.292	355.2
396.671	384.13
397.05	394.98
397.429	373.96
397.808	384.58
398.186	396.56
398.565	382.77
398.944	399.27
399.323	384.35
399.701	407.63
400.08	392.72
400.458	384.81
400.837	399.95
401.215	399.72
401.594	404.47
401.972	412.15
402.351	425.03
402.729	411.02
403.107	422.32
403.486	424.35
403.864	422.77
404.242	428.87
404.62	417.12
404.999	402.43
405.377	416.44
405.755	415.31
406.133	415.54
406.511	406.73
406.889	412.15
407.267	440.17
407.645	430
408.023	428.65
408.401	443.79
408.779	458.93
409.156	422.32
409.534	444.69
409.912	445.6
410.29	467.97
410.667	459.83
411.045	450.57
411.422	446.5
411.8	468.65
412.178	464.8
412.555	466.39
412.933	479.72
413.31	452.6
413.687	480.85
414.065	496.89
414.442	478.82
414.819	483.11
415.197	473.39
415.574	471.36
415.951	489.89
416.328	478.14
416.705	469.32
417.082	500.06
417.46	506.38
417.837	490.57
418.214	504.8
418.591	516.33
418.967	512.49
419.344	521.75
419.721	521.53
420.098	520.62
420.475	513.84
420.852	502.32
421.228	559.04
421.605	509.1
421.982	522.66
422.358	531.7
422.735	529.44
423.111	549.77
423.488	547.06
423.864	540.96
424.241	543.9
424.617	552.71
424.994	530.11
425.37	583.9
425.746	568.53
426.123	572.37
426.499	548.64
426.875	556.55
427.251	567.63
427.627	581.19
428.003	567.63
428.379	578.7
428.756	597
429.132	607.85
429.507	599.94
429.883	601.98
430.259	612.14
430.635	613.73
431.011	608.08
431.387	609.43
431.763	618.92
432.138	642.65
432.514	637.91
432.89	667.51
433.265	673.16
433.641	635.87
434.016	661.41
434.392	665.7
434.767	676.78
435.143	666.61
435.518	676.55
435.894	674.06
436.269	660.73
436.644	713.16
437.02	691.69
437.395	691.69
437.77	707.96
438.145	718.36
438.52	705.48
438.895	751.58
439.271	750.22
439.646	729.2
440.021	736.21
440.395	751.12
440.77	731.01
441.145	736.21
441.52	767.85
441.895	770.56
442.27	758.36
442.645	771.91
443.019	738.92
443.394	783.21
443.769	788.41
444.143	759.94
444.518	787.96
444.892	797
445.267	782.54
445.641	805.36
446.016	792.71
446.39	815.53
446.764	819.37
447.139	805.36
447.513	810.78
447.887	782.31
448.262	829.54
448.636	845.36
449.01	848.07
449.384	845.81
449.758	828.18
450.132	854.17
450.506	865.7
450.88	871.12
451.254	854.4
451.628	853.49
452.002	887.17
452.376	878.58
452.75	883.1
453.123	875.19
453.497	890.56
453.871	874.96
454.244	912.48
454.618	937.56
454.992	935.3
455.365	923.1
455.739	978.01
456.112	967.84
456.486	977.11
456.859	996.09
457.232	1006.03
457.606	994.06
457.979	1000.84
458.352	1019.14
458.725	1051.91
459.099	1041.06
459.472	1047.16
459.845	1058.23
460.218	1064.79
460.591	1070.66
460.964	1107.73
461.337	1095.07
461.71	1095.07
462.083	1153.15
462.456	1147.95
462.829	1135.52
463.201	1156.99
463.574	1161.06
463.947	1189.08
464.32	1192.02
464.692	1227.04
465.065	1260.26
465.438	1250.55
465.81	1268.62
466.183	1286.7
466.555	1302.3
466.928	1288.29
467.3	1310.43
467.672	1298.68
468.045	1370.54
468.417	1368.06
468.789	1377.32
469.161	1408.73
469.534	1431.11
469.906	1457.32
470.278	1469.75
470.65	1485.79
471.022	1529.86
471.394	1561.95
471.766	1567.6
472.138	1556.07
472.51	1621.61
472.882	1668.84
473.253	1669.52
473.625	1709.74
473.997	1771.89
474.369	1770.31
474.74	1824.54
475.112	1850.76
475.484	1879.23
475.855	1892.11
476.227	1943.64
476.598	2003.97
476.97	2013.24
477.341	2104.76
477.713	2088.49
478.084	2178.21
478.455	2235.61
478.827	2238.77
479.198	2344.75
479.569	2376.62
479.94	2450.29
480.311	2482.38
480.682	2535.26
481.053	2650.96
481.424	2730.51
481.795	2737.74
482.166	2806.44
482.537	2862.93
482.908	2946.09
483.279	3039.88
483.65	3142.7
484.021	3184.51
484.391	3279.42
484.762	3299.53
485.133	3371.85
485.503	3407.78
485.874	3558.96
486.244	3667.43
486.615	3727.77
486.985	3822.68
487.356	3897.26
487.726	3953.98
488.097	4094.54
488.467	4151.26
488.837	4259.51
489.207	4373.4
489.578	4441.2
489.948	4513.51
490.318	4645.94
490.688	4694.3
491.058	4835.31
491.428	4916.44
491.798	5021.52
492.168	5198.47
492.538	5229.88
492.908	5301.29
493.278	5452.02
493.648	5465.8
494.017	5594.16
494.387	5656.08
494.757	5760.48
495.126	5932.91
495.496	5955.51
495.866	5993.47
496.235	6073.02
496.605	6217.42
496.974	6285.22
497.344	6344.42
497.713	6459
498.082	6533.35
498.452	6628.26
498.821	6702.83
499.19	6743.96
499.559	6924.97
499.928	6996.16
500.298	6996.38
500.667	7099.43
501.036	7176.49
501.405	7222.59
501.774	7298.07
502.143	7417.84
502.512	7427.11
502.88	7595.92
503.249	7623.26
503.618	7749.36
503.987	7793.2
504.356	7847.21
504.724	7924.72
505.093	7974.89
505.462	8053.53
505.83	8157.94
506.199	8192.96
506.567	8332.62
506.936	8362.68
507.304	8451.03
507.672	8447.19
508.041	8546.85
508.409	8598.6
508.777	8728.54
509.145	8775.09
509.514	8800.18
509.882	8888.31
510.25	8943.68
510.618	8951.13
510.986	8998.37
511.354	9101.19
511.722	9221.18
512.09	9347.96
512.458	9221.41
512.826	9474.28
513.193	9423.21
513.561	9541.4
513.929	9593.15
514.297	9651.68
514.664	9752.92
515.032	9705.69
515.4	9830.89
515.767	9821.62
516.135	10008.73
516.502	9927.38
516.869	10127.15
517.237	10072.24
517.604	10110.2
517.972	10236.07
518.339	10302.74
518.706	10257.54
519.073	10396.07
519.44	10411.44
519.808	10579.57
520.175	10501.83
520.542	10679.22
520.909	10814.81
521.276	10699.79
521.643	10837.86
522.009	10944.53
522.376	11026.56
522.743	11041.25
523.11	11129.83
523.477	11257.97
523.843	11282.6
524.21	11379.09
524.577	11446.44
524.943	11488.24
525.31	11531.86
525.676	11674.68
526.043	11731.85
526.409	11795.58
526.776	11941.11
527.142	11897.27
527.508	12005.97
527.874	12125.29
528.241	12110.15
528.607	12210.26
528.973	12330.03
529.339	12328.45
529.705	12395.34
530.071	12614.09
530.437	12630.36
530.803	12610.93
531.169	12777.7
531.535	12718.95
531.901	12834.65
532.267	12866.96
532.632	12854.53
532.998	12977.47
533.364	13094.53
533.73	13104.92
534.095	13227.86
534.461	13257.46
534.826	13343.79
535.192	13466.04
535.557	13449.55
535.923	13563.44
536.288	13523.9
536.653	13638.24
537.019	13579.94
537.384	13664.01
537.749	13768.64
538.114	13771.8
538.479	13768.41
538.845	13915.3
539.21	13872.36
539.575	13995.75
539.94	14009.76
540.305	14082.3
540.67	14058.12
541.034	14247.49
541.399	14198
541.764	14199.13
542.129	14273.71
542.494	14384.21
542.858	14472.8
543.223	14463.98
543.587	14571.1
543.952	14593.25
544.316	14660.14
544.681	14687.03
545.045	14789.63
545.41	14802.51
545.774	14838.44
546.138	14810.87
546.503	14954.82
546.867	14990.75
547.231	15127.7
547.595	15077.3
547.959	15240.01
548.324	15191.87
548.688	15277.07
549.052	15388.25
549.416	15357.52
549.779	15433.45
550.143	15506.22
550.507	15528.81
550.871	15569.72
551.235	15591.19
551.599	15737.85
551.962	15783.5
552.326	15766.55
552.689	15852.65
553.053	15875.25
553.417	15937.39
553.78	16074.79
554.143	15980.78
554.507	16069.37
554.87	16196.37
555.234	16286.31
555.597	16254.67
555.96	16344.84
556.323	16466.19
556.686	16361.34
557.05	16611.27
557.413	16589.8
557.776	16577.37
558.139	16682.68
558.502	16620.31
558.865	16760.19
559.228	16833.64
559.59	16962.22
559.953	16999.51
560.316	17141.43
560.679	17162.22
561.041	17238.15
561.404	17257.13
561.767	17421.87
562.129	17311.59
562.492	17557.69
562.854	17525.6
563.217	17417.13
563.579	17529.67
563.941	17720.17
564.304	17793.61
564.666	17881.3
565.028	17768.08
565.39	17915.87
565.753	17985.7
566.115	18147.96
566.477	18121.06
566.839	18201.06
567.201	18351.79
567.563	18388.17
567.925	18465.01
568.287	18454.84
568.648	18585.68
569.01	18692.12
569.372	18786.58
569.734	18725.34
570.095	18910.19
570.457	19030.19
570.819	19017.76
571.18	19098.66
571.542	19044.2
571.903	19132.11
572.265	19245.33
572.626	19330.3
572.987	19418.43
573.349	19421.82
573.71	19667.46
574.071	19789.27
574.432	19714.47
574.794	19996.27
575.155	20042.14
575.516	20029.04
575.877	20183.16
576.238	20272.64
576.599	20472.87
576.96	20479.87
577.32	20623.82
577.681	20819.52
578.042	20864.49
578.403	21098.39
578.763	21151.27
579.124	21238.04
579.485	21395.78
579.845	21599.16
580.206	21665.83
580.566	21757.35
580.927	21843.9
581.287	22203.22
581.648	22068.76
582.008	22379.03
582.368	22524.56
582.728	22718.46
583.089	22874.38
583.449	23012.46
583.809	23122.97
584.169	23307.59
584.529	23444.09
584.889	23820.8
585.249	23942.6
585.609	24071.87
585.969	24347.57
586.329	24561.35
586.688	24823.49
587.048	24978.74
587.408	25004.72
587.768	25310.7
588.127	25436.58
588.487	25700.75
588.846	25993.4
589.206	26183
589.565	26339.38
589.925	26797.22
590.284	26953.6
590.643	27145.91
591.003	27330.54
591.362	27731.21
591.721	27805.55
592.08	28081.93
592.44	28358.76
592.799	28535.03
593.158	28755.13
593.517	28954
593.876	29271.05
594.235	29292.97
594.593	29570.48
594.952	29822
595.311	30019.28
595.67	30413.4
596.029	30668.76
596.387	30727.51
596.746	31101.51
597.104	31064.45
597.463	31348.51
597.822	31653.81
598.18	31700.59
598.538	31837.31
598.897	32355.04
599.255	32169.96
599.613	32885.87
599.972	32870.05
600.33	33192.31
600.688	33158.18
601.046	33532.64
601.404	33719.97
601.762	33805.62
602.12	34146.63
602.478	34296.23
602.836	34463.01
603.194	34523.57
603.552	34713.85
603.91	34797.69
604.268	34944.8
604.625	35115.42
604.983	35490.1
605.341	35531
605.698	35684.67
606.056	35888.73
606.413	36125.56
606.771	36329.4
607.128	36579.79
607.485	36453.91
607.843	36554.48
608.2	36865.65
608.557	37140.22
608.914	37105.2
609.272	37305.64
609.629	37424.96
609.986	37668.12
610.343	37798.51
610.7	38065.4
611.057	38110.37
611.414	38250.93
611.771	38391.72
612.127	38495.44
612.484	38647.98
612.841	38855.66
613.198	38781.08
613.554	38852.72
613.911	39187.85
614.267	39135.2
614.624	39330.9
614.98	39494.74
615.337	39745.35
615.693	39656.99
616.05	39767.05
616.406	40059.92
616.762	40127.26
617.118	40250.65
617.475	40238.67
617.831	40369.07
618.187	40440.02
618.543	40618.78
618.899	40861.71
619.255	40706.91
619.611	40784.65
619.967	40913.91
620.323	41193.9
620.678	41017.64
621.034	41046.34
621.39	41023.29
621.746	41151.64
622.101	41611.97
622.457	41313.9
622.812	41463.05
623.168	41516.38
623.523	41650.84
623.879	41735.36
624.234	41543.05
624.589	41677.96
624.945	41908.69
625.3	41901.68
625.655	41947.56
626.01	42059.64
626.365	42147.32
626.72	42164.95
627.075	42182.35
627.43	42192.97
627.785	42044.05
628.14	42305.74
628.495	42295.34
628.85	42291.95
629.205	42105.97
629.559	42352.74
629.914	42268.68
630.269	42262.12
630.623	42241.78
630.978	42188.23
631.332	42411.05
631.687	42521.78
632.041	42244.95
632.396	42534.66
632.75	42330.14
633.104	42375.34
633.459	42237.04
633.813	42239.98
634.167	42224.38
634.521	42348.45
634.875	42442.23
635.229	42330.82
635.583	42159.3
635.937	42333.08
636.291	42203.59
636.645	42326.53
636.999	42170.83
637.352	42271.16
637.706	42078.4
638.06	42253.31
638.413	42166.98
638.767	42008.12
639.121	42002.47
639.474	41947.33
639.828	41950.94
640.181	42143.93
640.534	42108
640.888	41875.92
641.241	41791.85
641.594	41781.46
641.947	42035.24
642.301	42021
642.654	42031.39
643.007	41886.77
643.36	42016.48
643.713	41733.55
644.066	42088.34
644.419	41624.4
644.771	41512.76
645.124	41021.25
645.477	41153.45
645.83	40836.85
646.182	40749.17
646.535	40609.06
646.888	40766.57
647.24	40521.6
647.593	40688.15
647.945	40641.37
648.298	40407.48
648.65	40425.79
649.002	40446.13
649.355	40627.59
649.707	40496.97
650.059	40778.77
650.411	41130.4
650.763	41131.08
651.115	41532.2
651.467	41312.09
651.819	41370.4
652.171	41249.95
652.523	41202.49
652.875	41177.86
653.227	41042.72
653.578	41308.7
653.93	41329.27
654.282	41019.44
654.633	41054.7
654.985	41055.15
655.337	41075.71
655.688	41064.41
656.039	41144.19
656.391	40891.09
656.742	40916.17
657.094	41030.97
657.445	41029.39
657.796	41154.81
658.147	41016.73
658.498	40855.15
658.849	41016.05
659.2	40924.76
659.551	40930.41
659.902	41024.42
660.253	40863.97
660.604	40901.26
660.955	40874.82
661.306	40980.8
661.656	40881.82
662.007	40852.67
662.358	40842.95
662.708	40916.4
663.059	40863.97
663.409	40635.73
663.76	40944.19
664.11	40888.37
664.461	40909.39
664.811	40910.97
665.161	40758.43
665.511	40690.64
665.862	40801.6
666.212	40880.69
666.562	40797.75
666.912	40807.02
667.262	40801.6
667.612	40688.15
667.962	40813.35
668.312	40750.98
668.662	40823.97
669.011	40802.05
669.361	40749.39
669.711	40708.72
670.06	40583.98
670.41	40621.71
670.76	40612.45
671.109	40646.57
671.459	40504.2
671.808	40604.77
672.157	40702.62
672.507	40400.7
672.856	40386.69
673.205	40453.81
673.554	40739
673.904	40480.25
674.253	40602.51
674.602	40663.52
674.951	39955.74
675.3	39731.79
675.649	40550.98
675.998	40339.91
676.346	40430.53
676.695	40662.17
677.044	40298.11
677.393	40271.67
677.741	40281.84
678.09	40299.01
678.438	40275.28
678.787	40395.73
679.135	40376.07
679.484	40073.25
679.832	40209.3
680.181	39791.23
680.529	39966.36
680.877	39940.15
681.225	39943.77
681.573	40158.68
681.922	39861.28
682.27	39647.05
682.618	39865.58
682.966	39667.16
683.314	39709.87
683.661	39515.08
684.009	39454.06
684.357	39433.27
684.705	39367.06
685.053	39347.17
685.4	39218.81
685.748	39117.35
686.095	39063.11
686.443	38946.05
686.79	38956.22
687.138	38997.12
687.485	39019.5
687.832	38721.43
688.18	39009.1
688.527	38777.24
688.874	38658.38
689.221	38586.06
689.568	38551.26
689.915	38443.69
690.262	38555.33
690.609	38327.09
690.956	38195.34
691.303	38260.65
691.65	38107.88
691.997	38000.54
692.344	37796.48
692.69	37837.15
693.037	37835.35
693.383	37467
693.73	37683.49
694.077	37406.88
694.423	37383.38
694.769	37322.14
695.116	37256.38
695.462	37108.13
695.808	37089.15
696.155	36953.34
696.501	36821.14
696.847	36821.81
697.193	36550.18
697.539	36743.62
697.885	36398.32
698.231	36430.41
698.577	36461.82
698.923	36406.46
699.269	36183.64
699.614	35893.03
699.96	35998.79
700.306	35986.13
700.651	35824.1
700.997	35756.08
701.342	35650.32
701.688	35511.57
702.033	35545.01
702.379	35413.26
702.724	35362.87
703.069	35441.51
703.415	35022.77
703.76	35057.11
704.105	35046.04
704.45	34962.65
704.795	34813.28
705.14	34642.66
705.485	34796.56
705.83	34518.15
706.175	34519.28
706.52	34621.19
706.865	34312.95
707.209	34187.08
707.554	34147.08
707.899	34216.23
708.243	34018.95
708.588	34027.31
708.932	33812.18
709.277	33917.26
709.621	33780.99
709.966	33562.92
710.31	33571.73
710.654	33419.87
710.998	33419.87
711.342	33592.75
711.687	33252.64
712.031	33200.67
712.375	33064.85
712.719	33255.13
713.063	33173.32
713.407	33219.2
713.75	32957.51
714.094	32995.47
714.438	32890.62
714.782	32869.83
715.125	32656.5
715.469	32716.16
715.812	32727.91
716.156	32487.92
716.499	32591.87
716.843	32547.12
717.186	32310.75
717.53	32439.78
717.873	32441.14
718.216	32263.74
718.559	32166.8
718.902	31942.17
719.246	32072.11
719.589	31913.92
719.932	31782.85
720.275	31853.58
720.617	31861.27
720.96	31599.58
721.303	31728.84
721.646	31862.62
721.989	31490.88
722.331	31594.38
722.674	31374.73
723.016	31402.75
723.359	31400.04
723.701	31400.49
724.044	31184.9
724.386	31040.27
724.729	31288.4
725.071	31165.24
725.413	31167.95
725.755	30957.11
726.097	30905.59
726.439	30742.43
726.782	30835.53
727.124	31120.5
727.465	30839.37
727.807	30729.09
728.149	30622.43
728.491	30700.17
728.833	30659.72
729.175	30464.47
729.516	30489.55
729.858	30493.17
730.199	30395.09
730.541	30363.23
730.882	30359.16
731.224	30401.19
731.565	30304.92
731.906	30164.81
732.248	30180.18
732.589	30011.37
732.93	29867.65
733.271	30005.27
733.612	30016.34
733.953	29955.33
734.294	29897.25
734.635	29791.26
734.976	29939.51
735.317	29739.29
735.658	29714.66
735.999	29677.14
736.339	29611.83
736.68	29660.19
737.021	29589.91
737.361	29407.55
737.702	29620.42
738.042	29506.07
738.383	29448.22
738.723	29443.25
739.063	29299.75
739.404	29474.66
739.744	29312.41
740.084	29064.96
740.424	29281.9
740.764	29210.26
741.104	29325.51
741.444	29106.76
741.784	28923.72
742.124	29038.97
742.464	28888.01
742.804	28902.7
743.143	28871.06
743.483	28888.69
743.823	28627.68
744.162	28674.91
744.502	28691.86
744.841	28610.96
745.181	28710.84
745.52	28589.04
745.86	28610.96
746.199	28536.83
746.538	28504.97
746.877	28543.84
747.216	28357.63
747.556	28358.53
747.895	28425.42
748.234	28394.92
748.573	28231.08
748.911	28218.42
749.25	28162.61
749.589	27950.18
749.928	28041.93
750.267	28103.17
750.605	27968.04
750.944	27878.09
751.283	27766.46
751.621	27957.87
751.96	27755.16
752.298	27723.3
752.636	27721.26
752.975	27581.61
753.313	27550.65
753.651	27705.22
753.989	27515.84
754.327	27479.91
754.666	27218.23
755.004	27384.77
755.342	27410.99
755.679	27242.63
756.017	27100.04
756.355	27167.38
756.693	27049.87
757.031	27188.85
757.368	26955.18
757.706	26958.34
758.044	26810.1
758.381	26818.69
758.719	26700.5
759.056	26810.1
759.394	26712.7
759.731	26524.46
760.068	26437.68
760.405	26132.38
760.743	26287.85
761.08	26282.66
761.417	26165.6
761.754	26082.89
762.091	26034.08
762.428	25993.62
762.765	25765.61
763.102	25900.97
763.438	25796.57
763.775	25634.76
764.112	25685.16
764.449	25638.15
764.785	25536.01
765.122	25316.81
765.458	25327.88
765.795	25129.01
766.131	25115.68
766.467	25107.32
766.804	24961.11
767.14	24884.73
767.476	24856.03
767.812	24738.52
768.148	24732.87
768.485	24589.37
768.821	24356.38
769.157	24457.62
769.492	24398.64
769.828	24313.44
770.164	24136.95
770.5	24031.87
770.836	24092.21
771.171	23989.84
771.507	23870.52
771.842	23663.97
772.178	23682.05
772.513	23564.31
772.849	23592.11
773.184	23568.6
773.519	23529.96
773.855	23341.94
774.19	23152.34
774.525	23144.89
774.86	23121.38
775.195	23043.42
775.53	23020.14
775.865	22869.64
776.2	22706.71
776.535	22668.06
776.87	22531.12
777.205	22464.68
777.539	22278.69
777.874	22371.35
778.209	22224.01
778.543	22161.63
778.878	21991.92
779.212	22066.27
779.547	21980.62
779.881	21939.27
780.215	21727.07
780.55	21796.67
780.884	21654.3
781.218	21561.88
781.552	21509.22
781.886	21520.52
782.22	21337.48
782.554	21291.38
782.888	21094.32
783.222	21037.82
783.556	20919.86
783.889	20874.66
784.223	20720.54
784.557	20638.96
784.89	20635.35
785.224	20597.83
785.557	20496.59
785.891	20532.98
786.224	20357.84
786.558	20302.47
786.891	20237.62
787.224	20184.29
787.557	20150.39
787.891	20019.54
788.224	19914.01
788.557	20048.7
788.89	19943.16
789.223	19884.86
789.556	19717.86
789.888	19709.95
790.221	19663.4
790.554	19443.74
790.887	19455.49
791.219	19423.85
791.552	19389.05
791.884	19303.86
792.217	19241.03
792.549	19126.23
792.882	18889.63
793.214	18949.97
793.546	18867.94
793.879	18843.76
794.211	18757.43
794.543	18779.35
794.875	18672.46
795.207	18804.89
795.539	18569.19
795.871	18570.99
796.203	18317.89
796.535	18328.97
796.867	18330.55
797.198	18291.23
797.53	18223.89
797.862	18128.75
798.193	18121.74
798.525	18028.64
798.856	18007.85
799.188	17892.37
799.519	17744.12
799.85	17641.53
800.182	17753.16
800.513	17714.07
800.844	17494.19
801.175	17612.6
801.506	17599.27
801.837	17503
802.168	17431.14
802.499	17339.84
802.83	17364.25
803.161	17182.78
803.491	17180.52
803.822	17235.66
804.153	17117.93
804.483	17005.84
804.814	16988.44
805.145	16989.34
805.475	16932.17
805.805	16838.16
806.136	16874.54
806.466	16770.59
806.796	16735.79
807.126	16619.18
807.457	16564.72
807.787	16638.16
808.117	16478.39
808.447	16430.94
808.777	16416.48
809.107	16315.46
809.436	16353.43
809.766	16311.62
810.096	16208.12
810.426	16140.1
810.755	16190.27
811.085	16062.81
811.414	16165.86
811.744	15879.31
812.073	15960.89
812.403	15886.55
812.732	15806.32
813.061	15808.36
813.39	15805.87
813.719	15722.03
814.049	15778.07
814.378	15621.02
814.707	15632.99
815.036	15577.63
815.365	15571.98
815.693	15395.03
816.022	15485.2
816.351	15337.41
816.68	15323.4
817.008	15409.04
817.337	15140.35
817.665	15189.84
817.994	15231.65
818.322	15190.07
818.651	15193.46
818.979	15028.04
819.307	15160.24
819.636	15064.19
819.964	15031.43
820.292	14976.74
820.62	15067.58
820.948	14944.2
821.276	15031.65
821.604	14908.72
821.932	14892.45
822.259	14971.77
822.587	14975.38
822.915	14798.66
823.243	14960.92
823.57	14926.34
823.898	14923.41
824.225	14841.15
824.553	14876.18
824.88	14862.39
825.207	14962.28
825.535	14825.56
825.862	14966.57
826.189	14871.43
826.516	14864.43
826.843	14984.65
827.17	14884.99
827.497	14916.85
827.824	14858.78
828.151	14930.86
828.478	14889.06
828.805	14917.53
829.131	14906.23
829.458	14827.14
829.785	14728.61
830.111	14734.49
830.438	14941.71
830.764	14821.26
831.09	14836.86
831.417	14750.08
831.743	14713.92
832.069	14799.79
832.395	14685
832.722	14719.8
833.048	14680.7
833.374	14670.98
833.7	14633.47
834.026	14635.73
834.351	14714.82
834.677	14593.7
835.003	14599.35
835.329	14601.16
835.654	14565.9
835.98	14516.41
836.306	14608.84
836.631	14494.27
836.956	14602.29
837.282	14571.55
837.607	14470.54
837.932	14382.63
838.258	14440.26
838.583	14406.13
838.908	14255.4
839.233	14305.34
839.558	14324.33
839.883	14356.87
840.208	14202.52
840.533	14278.23
840.858	14297.21
841.182	14249.98
841.507	14159.81
841.832	14041.85
842.156	14135.18
842.481	14049.31
842.805	14022.64
843.13	14052.02
843.454	14060.38
843.778	13844.11
844.103	13929.31
844.427	13914.62
844.751	13942.19
845.075	13793.27
845.399	13776.77
845.723	13609.54
846.047	13741.07
846.371	13617.23
846.695	13581.3
847.019	13525.03
847.343	13505.14
847.666	13430.79
847.99	13323.68
848.313	13330.45
848.637	13164.13
848.96	13188.99
849.284	13234.19
849.607	13054.98
849.931	13014.3
850.254	12925.04
850.577	12867.42
850.9	12795.78
851.223	12854.31
851.546	12817.7
851.869	12602.79
852.192	12739.74
852.515	12572.06
852.838	12572.51
853.161	12532.96
853.483	12438.73
853.806	12406.86
854.129	12399.86
854.451	12335.23
854.774	12354.66
855.096	12367.09
855.419	12231.95
855.741	12237.6
856.063	12106.98
856.385	12108.79
856.708	12055.69
857.03	11968.91
857.352	12038.29
857.674	12031.96
857.996	11869.02
858.318	11883.04
858.64	11888.23
858.961	11805.52
859.283	11763.26
859.605	11696.37
859.926	11704.73
860.248	11756.48
860.57	11674.9
860.891	11657.5
861.212	11604.17
861.534	11558.3
861.855	11502.93
862.176	11428.81
862.498	11513.33
862.819	11504.97
863.14	11439.66
863.461	11462.71
863.782	11335.25
864.103	11428.81
864.424	11390.62
864.745	11384.07
865.065	11297.51
865.386	11299.55
865.707	11266.78
866.027	11299.1
866.348	11270.85
866.668	11291.41
866.989	11188.14
867.309	11132.55
867.63	11121.93
867.95	11177.06
868.27	11071.53
868.59	11113.11
868.91	11070.63
869.23	11055.26
869.55	11031.08
869.87	11095.71
870.19	10970.29
870.51	11000.57
870.83	11019.33
871.15	10909.73
871.469	10926.22
871.789	10976.17
872.109	10908.15
872.428	10856.62
872.748	10876.06
873.067	10796.96
873.386	10919.44
873.706	10828.6
874.025	10774.36
874.344	10753.8
874.663	10734.82
874.982	10686.23
875.301	10660.24
875.62	10723.29
875.939	10692.56
876.258	10700.02
876.577	10660.92
876.896	10654.59
877.214	10577.98
877.533	10601.26
877.852	10558.1
878.17	10606.01
878.489	10570.53
878.807	10575.95
879.125	10561.49
879.444	10553.58
879.762	10494.14
880.08	10523.75
880.398	10446.01
880.716	10426.58
881.034	10389.06
881.352	10377.54
881.67	10396.07
881.988	10367.37
882.306	10396.29
882.624	10264.55
882.941	10300.93
883.259	10275.17
883.577	10224.1
883.894	10175.74
884.212	10175.74
884.529	10135.96
884.846	10088.73
885.164	10093.03
885.481	10058.22
885.798	10026.36
886.115	9995.18
886.432	9930.54
886.75	10009.41
887.067	10019.13
887.383	9931.22
887.7	9924.67
888.017	9862.98
888.334	9860.49
888.651	9789.98
888.967	9778.91
889.284	9719.48
889.6	9733.26
889.917	9693.94
890.233	9755.41
890.55	9600.16
890.866	9640.16
891.182	9656.88
891.498	9579.59
891.815	9586.15
892.131	9469.31
892.447	9518.13
892.763	9484.23
893.079	9480.39
893.395	9377.34
893.71	9341.63
894.026	9391.58
894.342	9427.05
894.657	9276.55
894.973	9313.16
895.289	9258.47
895.604	9256.89
895.92	9114.97
896.235	9168.76
896.55	9143.67
896.865	9092.37
897.181	9086.27
897.496	9103.9
897.811	8999.72
898.126	8963.11
898.441	8906.84
898.756	8957.91
899.071	8874.98
899.386	8924.24
899.7	8804.25
900.015	8799.27
900.33	8684.48
900.644	8669.11
900.959	8725.15
901.273	8718.6
901.588	8584.36
901.902	8569.68
902.216	8566.29
902.531	8526.29
902.845	8521.77
903.159	8467.53
903.473	8354.54
903.787	8409.91
904.101	8356.35
904.415	8404.48
904.729	8340.76
905.042	8290.81
905.356	8236.35
905.67	8196.8
905.984	8185.28
906.297	8210.36
906.611	8202.91
906.924	8152.06
907.237	8063.02
907.551	8092.63
907.864	8066.41
908.177	8022.35
908.491	8010.59
908.804	7939.86
909.117	7903.7
909.43	7876.81
909.743	7821.45
910.056	7811.73
910.368	7803.37
910.681	7738.51
910.994	7706.2
911.307	7661.23
911.619	7664.16
911.932	7572.87
912.244	7526.77
912.557	7564.05
912.869	7525.18
913.181	7470.5
913.494	7509.36
913.806	7468.69
914.118	7400.67
914.43	7320.22
914.742	7317.28
915.054	7295.81
915.366	7312.76
915.678	7208.58
915.99	7197.06
916.302	7203.61
916.613	7166.1
916.925	7144.63
917.236	7144.63
917.548	7053.33
917.859	7062.37
918.171	6993.67
918.482	7032.99
918.794	6974.92
919.105	6983.73
919.416	6840.91
919.727	6881.58
920.038	6856.73
920.349	6780.57
920.66	6766.11
920.971	6802.94
921.282	6726.11
921.593	6682.04
921.903	6619.67
922.214	6633
922.525	6590.52
922.835	6529.96
923.146	6512.78
923.456	6551.42
923.767	6495.38
924.077	6474.36
924.387	6416.51
924.697	6398.66
925.008	6362.5
925.318	6349.85
925.628	6333.35
925.938	6310.98
926.248	6234.14
926.558	6214.03
926.867	6230.53
927.177	6187.37
927.487	6133.58
927.796	6067.37
928.106	6087.48
928.416	6071.44
928.725	6112.79
929.034	6046.58
929.344	6005.68
929.653	6067.14
929.962	5925.45
930.271	5932.46
930.581	5896.75
930.89	5861.27
931.199	5885
931.508	5835.51
931.817	5788.73
932.125	5769.3
932.434	5818.11
932.743	5724.78
933.051	5676.87
933.36	5647.49
933.669	5609.08
933.977	5603.43
934.286	5638.91
934.594	5609.53
934.902	5590.09
935.21	5527.95
935.519	5527.95
935.827	5501.73
936.135	5463.32
936.443	5423.32
936.751	5386.26
937.059	5417.89
937.367	5324.34
937.674	5341.06
937.982	5360.49
938.29	5335.41
938.597	5280.27
938.905	5233.04
939.213	5238.24
939.52	5214.74
939.827	5205.24
940.135	5186.26
940.442	5135.42
940.749	5132.48
941.056	5142.65
941.363	5061.29
941.67	5055.64
941.977	5029.88
942.284	5038.92
942.591	4972.48
942.898	5017
943.205	4938.58
943.511	4957.12
943.818	4954.86
944.125	4881.41
944.431	4869.21
944.738	4873.73
945.044	4850.45
945.35	4859.94
945.657	4799.15
945.963	4760.74
946.269	4747.63
946.575	4713.51
946.881	4698.37
947.187	4723
947.493	4674.86
947.799	4687.29
948.105	4590.8
948.41	4581.31
948.716	4598.71
949.022	4586.05
949.327	4537.47
949.633	4531.36
949.938	4514.42
950.244	4501.31
950.549	4421.08
950.854	4399.84
951.16	4394.87
951.465	4447.75
951.77	4415.66
952.075	4357.36
952.38	4334.98
952.685	4359.17
952.99	4332.95
953.294	4327.98
953.599	4291.6
953.904	4243.91
954.209	4175.22
954.513	4205.5
954.818	4202.78
955.122	4205.72
955.426	4175.89
955.731	4163.46
956.035	4118.95
956.339	4115.78
956.643	4111.04
956.948	4124.82
957.252	4076.01
957.556	4048.21
957.86	3999.85
958.163	3999.17
958.467	4050.25
958.771	3974.32
959.075	3969.12
959.378	3962.11
959.682	3929.57
959.985	3913.08
960.289	3896.35
960.592	3850.93
960.896	3878.05
961.199	3800.54
961.502	3785.85
961.805	3843.92
962.108	3733.64
962.411	3747.88
962.714	3733.42
963.017	3723.02
963.32	3738.39
963.623	3655.68
963.926	3717.6
964.228	3694.1
964.531	3689.35
964.833	3632.18
965.136	3643.7
965.438	3573.65
965.741	3611.16
966.043	3571.62
966.345	3568
966.648	3569.36
966.95	3548.34
967.252	3522.8
967.554	3527.1
967.856	3472.18
968.158	3411.17
968.46	3462.01
968.761	3457.27
969.063	3422.01
969.365	3396.48
969.666	3415.46
969.968	3381.34
970.269	3389.47
970.571	3349.25
970.872	3361.45
971.174	3299.31
971.475	3255.69
971.776	3275.8
972.077	3267.89
972.378	3283.94
972.679	3239.19
972.98	3228.35
973.281	3253.21
973.582	3206.2
973.883	3204.62
974.183	3158.74
974.484	3144.73
974.785	3152.64
975.085	3151.74
975.386	3135.02
975.686	3140.89
975.986	3094.34
976.287	3075.13
976.587	3033.78
976.887	3058.86
977.187	3062.48
977.487	3050.5
977.787	3012.76
978.087	2995.81
978.387	2974.34
978.687	2973.44
978.987	2990.61
979.286	2960.56
979.586	2942.25
979.885	2916.27
980.185	2928.02
980.484	2874.46
980.784	2867.9
981.083	2851.63
981.382	2833.1
981.682	2847.79
981.981	2869.49
982.28	2837.17
982.579	2788.36
982.878	2807.12
983.177	2758.98
983.475	2803.95
983.774	2767.57
984.073	2759.43
984.372	2725.08
984.67	2738.87
984.969	2716.72
985.267	2722.82
985.566	2703.62
985.864	2681.92
986.162	2676.72
986.461	2629.04
986.759	2627.01
987.057	2644.18
987.355	2620.23
987.653	2595.37
987.951	2601.02
988.249	2586.1
988.547	2593.79
988.844	2589.04
989.142	2559.89
989.44	2520.34
989.737	2510.4
990.035	2494.36
990.332	2469.5
990.63	2498.2
990.927	2467.69
991.224	2474.02
991.521	2444.19
991.819	2425.88
992.116	2459.33
992.413	2423.17
992.71	2441.25
993.006	2378.88
993.303	2420.23
993.6	2380.23
993.897	2358.77
994.193	2378.88
994.49	2337.98
994.787	2301.82
995.083	2314.93
995.379	2321.25
995.676	2292.1
995.972	2290.52
996.268	2260.92
996.565	2269.95
996.861	2273.34
997.157	2240.58
997.453	2247.81
997.749	2206.68
998.044	2214.59
998.34	2187.47
998.636	2194.7
998.932	2160.35
999.227	2161.93
999.523	2156.96
999.818	2129.62
1000.114	2109.51
1000.409	2130.07
1000.704	2111.09
1001	2095.72
1001.295	2079.68
1001.59	2093.91
1001.885	2062.95
1002.18	2068.6
1002.475	2071.54
1002.77	2040.58
1003.065	2019.11
1003.359	2010.98
1003.654	2000.58
1003.949	1997.87
1004.243	1962.84
1004.538	1961.94
1004.832	1963.3
1005.127	1957.87
1005.421	1929.62
1005.715	1958.78
1006.009	1928.49
1006.304	1907.48
1006.598	1894.37
1006.892	1900.02
1007.186	1869.06
1007.48	1876.97
1007.773	1855.28
1008.067	1855.05
1008.361	1835.39
1008.655	1845.33
1008.948	1813.24
1009.242	1812.79
1009.535	1768.5
1009.829	1772.34
1010.122	1767.14
1010.415	1766.01
1010.708	1744.09
1011.001	1714.26
1011.295	1761.72
1011.588	1732.12
1011.881	1721.04
1012.173	1731.21
1012.466	1699.57
1012.759	1670.65
1013.052	1689.4
1013.344	1681.04
1013.637	1652.12
1013.93	1669.97
1014.222	1635.85
1014.514	1623.64
1014.807	1629.97
1015.099	1606.47
1015.391	1606.7
1015.683	1565.79
1015.976	1590.2
1016.268	1566.92
1016.56	1570.31
1016.851	1536.64
1017.143	1530.76
1017.435	1523.31
1017.727	1504.55
1018.018	1527.6
1018.31	1507.49
1018.602	1502.74
1018.893	1482.18
1019.185	1476.53
1019.476	1483.31
1019.767	1469.52
1020.058	1465
1020.35	1441.5
1020.641	1436.53
1020.932	1420.71
1021.223	1422.75
1021.514	1380.94
1021.804	1387.94
1022.095	1374.16
1022.386	1362.41
1022.677	1351.56
1022.967	1339.36
1023.258	1348.62
1023.548	1342.97
1023.839	1337.55
1024.129	1327.15
1024.419	1312.69
1024.709	1329.87
1025	1315.4
1025.29	1281.28
1025.58	1291.22
1025.87	1268.4
1026.16	1264.78
1026.449	1270.88
1026.739	1257.33
1027.029	1248.06
1027.319	1212.81
1027.608	1239.25
1027.898	1204.67
1028.187	1231.11
1028.477	1210.77
1028.766	1182.98
1029.055	1189.53
1029.344	1189.3
1029.634	1176.88
1029.923	1151.79
1030.212	1145.92
1030.501	1151.57
1030.79	1116.54
1031.078	1163.99
1031.367	1123.32
1031.656	1100.49
1031.945	1112.24
1032.233	1112.47
1032.522	1101.85
1032.81	1106.6
1033.099	1086.93
1033.387	1067.73
1033.675	1091.91
1033.963	1053.72
1034.251	1064.11
1034.54	1027.73
1034.828	1033.83
1035.116	1015.3
1035.403	1026.6
1035.691	1011.46
1035.979	1016.43
1036.267	1005.58
1036.554	1006.26
1036.842	979.14
1037.129	972.36
1037.417	959.71
1037.704	969.88
1037.992	987.95
1038.279	965.81
1038.566	950.22
1038.853	950.22
1039.14	950.22
