Data from hue_210_FLMS001491_00032.txt Node
Date: Tue Feb 07 16:41:06 GMT 2017
User: dcchb
Spectrometer: FLMS00149
Trigger mode: 0
Integration Time (sec): 2.000000E-2
Scans to average: 10
Electric dark correction enabled: true
Nonlinearity correction enabled: false
Boxcar width: 0
XAxis mode: Wavelengths
Number of Pixels in Spectrum: 2048
>>>>>Begin Spectral Data<<<<<
341.393	-8.33
341.776	-8.33
342.16	-8.33
342.543	-41.78
342.927	-62.34
343.31	-53.98
343.693	-76.35
344.077	-79.07
344.46	-55.56
344.843	-51.5
345.226	-49.91
345.61	-44.04
345.993	-2.91
346.376	-14.43
346.759	17.88
347.142	19.91
347.525	51.55
347.908	63.76
348.291	72.12
348.674	102.17
349.057	100.36
349.44	138.1
349.823	130.65
350.206	170.19
350.588	192.57
350.971	206.58
351.354	220.36
351.737	244.54
352.119	259.23
352.502	248.16
352.884	263.75
353.267	273.02
353.65	271.43
354.032	280.92
354.414	311.21
354.797	294.48
355.179	310.08
355.562	306.69
355.944	334.48
356.326	328.38
356.709	326.57
357.091	324.99
357.473	338.1
357.855	336.74
358.238	328.61
358.62	319.79
359.002	326.12
359.384	322.73
359.766	339.45
360.148	336.29
360.53	346.91
360.912	363.18
361.294	333.8
361.676	313.92
362.057	347.36
362.439	322.73
362.821	324.31
363.203	337.19
363.584	345.1
363.966	312.79
364.348	330.64
364.729	317.53
365.111	324.54
365.493	332.67
365.874	329.74
366.256	335.61
366.637	310.08
367.019	332.9
367.4	327.03
367.781	318.21
368.163	320.7
368.544	304.88
368.925	319.79
369.306	327.93
369.688	318.44
370.069	335.84
370.45	323.64
370.831	298.55
371.212	296.52
371.593	299
371.974	332
372.355	336.52
372.736	294.94
373.117	321.83
373.498	290.19
373.879	323.86
374.26	319.12
374.641	315.73
375.021	321.83
375.402	320.92
375.783	303.75
376.163	338.1
376.544	315.5
376.925	313.24
377.305	343.3
377.686	342.17
378.066	339.91
378.447	321.15
378.827	325.67
379.208	334.93
379.588	343.52
379.968	319.79
380.349	333.13
380.729	327.48
381.109	333.13
381.489	303.98
381.87	352.34
382.25	323.18
382.63	353.47
383.01	316.63
383.39	356.4
383.77	345.33
384.15	365.89
384.53	329.51
384.91	352.56
385.29	367.93
385.67	346.46
386.049	371.09
386.429	355.27
386.809	358.89
387.189	378.55
387.568	363.41
387.948	357.76
388.328	390.98
388.707	347.59
389.087	349.17
389.466	351.43
389.846	364.99
390.225	364.76
390.605	360.7
390.984	390.3
391.363	370.64
391.743	364.54
392.122	384.2
392.501	376.97
392.881	388.04
393.26	367.02
393.639	394.37
394.018	390.3
394.397	389.62
394.776	390.98
395.155	401.15
395.534	404.76
395.913	414.48
396.292	406.57
396.671	404.76
397.05	412.67
397.429	410.86
397.808	391.66
398.186	415.16
398.565	411.09
398.944	418.77
399.323	414.93
399.701	433.46
400.08	431.88
400.458	407.48
400.837	444.31
401.215	435.27
401.594	438.89
401.972	415.61
402.351	442.5
402.729	433.46
403.107	439.11
403.486	455.61
403.864	459.9
404.242	442.5
404.62	465.55
404.999	451.99
405.377	462.39
405.755	491.09
406.133	488.6
406.511	478.43
406.889	494.25
407.267	488.6
407.645	499.22
408.023	494.25
408.401	511.65
408.779	512.78
409.156	529.73
409.534	510.52
409.912	538.55
410.29	539.45
410.667	550.07
411.045	570.86
411.422	564.99
411.8	574.02
412.178	572.89
412.555	577.87
412.933	606.11
413.31	620.8
413.687	622.84
414.065	640.69
414.442	638.2
414.819	644.31
415.197	649.5
415.574	672.55
415.951	682.04
416.328	681.14
416.705	699.67
417.082	697.41
417.46	722.95
417.837	718.88
418.214	714.13
418.591	746
418.967	726.56
419.344	735.6
419.721	758.2
420.098	751.65
420.475	778.99
420.852	803.85
421.228	816.28
421.605	810.4
421.982	830.51
422.358	845.88
422.735	884.3
423.111	875.26
423.488	864.86
423.864	901.7
424.241	916.39
424.617	941.47
424.994	943.73
425.37	951.87
425.746	962.94
426.123	1008.14
426.499	1013.79
426.875	1012.43
427.251	1058.53
427.627	1071.41
428.003	1074.8
428.379	1108.47
428.756	1082.94
429.132	1132.2
429.507	1116.84
429.883	1132.43
430.259	1171.52
430.635	1161.81
431.011	1165.87
431.387	1182.37
431.763	1209.04
432.138	1213.33
432.514	1241.13
432.89	1263.95
433.265	1309.82
433.641	1320.9
434.016	1346.66
434.392	1364.29
434.767	1388.01
435.143	1386.43
435.518	1436.6
435.894	1449.71
436.269	1470.27
436.644	1519.76
437.02	1518.41
437.395	1540.33
437.77	1562.7
438.145	1594.34
438.52	1614
438.895	1630.04
439.271	1670.49
439.646	1718.4
440.021	1746.65
440.395	1735.58
440.77	1734.22
441.145	1785.07
441.52	1826.19
441.895	1822.58
442.27	1840.43
442.645	1870.49
443.019	1912.07
443.394	1889.24
443.769	1941.22
444.143	1925.63
444.518	1941.9
444.892	1966.53
445.267	1986.87
445.641	1986.87
446.016	2027.55
446.39	2069.58
446.764	2046.98
447.139	2039.3
447.513	2075.68
447.887	2057.83
448.262	2127.88
448.636	2114.32
449.01	2147.32
449.384	2149.12
449.758	2183.7
450.132	2223.47
450.506	2225.73
450.88	2263.02
451.254	2234.09
451.628	2282
452.002	2286.75
452.376	2299.18
452.75	2325.16
453.123	2370.14
453.497	2387.99
453.871	2424.15
454.244	2452.85
454.618	2513.86
454.992	2467.76
455.365	2498.49
455.739	2572.84
456.112	2578.49
456.486	2620.52
456.859	2612.61
457.232	2673.4
457.606	2722.67
457.979	2754.53
458.352	2739.17
458.725	2773.97
459.099	2825.94
459.472	2855.77
459.845	2904.13
460.218	2905.94
460.591	2931.93
460.964	2960.63
461.337	3017.12
461.71	3065.48
462.083	3054.86
462.456	3077.01
462.829	3140.06
463.201	3181.19
463.574	3168.76
463.947	3261.19
464.32	3319.71
464.692	3288.53
465.065	3324.69
465.438	3383.89
465.81	3418.7
466.183	3503.21
466.555	3556.32
466.928	3606.94
467.3	3487.39
467.672	3637.9
468.045	3706.6
468.417	3700.72
468.789	3752.47
469.161	3759.93
469.534	3816.88
469.906	3903.88
470.278	3936.87
470.65	4001.5
471.022	4067.27
471.394	4129.86
471.766	4121.5
472.138	4199.69
472.51	4284.44
472.882	4311.78
473.253	4342.29
473.625	4391.78
473.997	4446.47
474.369	4471.32
474.74	4568.27
475.112	4619.79
475.484	4699.11
475.855	4782.05
476.227	4821.37
476.598	4946.79
476.97	4942.5
477.341	5102.72
477.713	5162.83
478.084	5238.76
478.455	5308.59
478.827	5293.67
479.198	5441.92
479.569	5471.52
479.94	5594.23
480.311	5671.29
480.682	5711.97
481.053	5839.42
481.424	6009.59
481.795	5953.54
482.166	6067.21
482.537	6174.1
482.908	6249.13
483.279	6247.77
483.65	6357.83
484.021	6515.56
484.391	6541.78
484.762	6624.03
485.133	6672.85
485.503	6788.32
485.874	6875.33
486.244	6903.58
486.615	7038.71
486.985	7040.97
487.356	7290.91
487.726	7214.08
488.097	7437.57
488.467	7376.33
488.837	7569.55
489.207	7633.95
489.578	7766.38
489.948	7800.28
490.318	7904
490.688	7907.62
491.058	8047.27
491.428	8113.49
491.798	8099.02
492.168	8301.5
492.538	8292.92
492.908	8369.07
493.278	8454.04
493.648	8447.94
494.017	8565.23
494.387	8586.24
494.757	8680.48
495.126	8704.66
495.496	8758.67
495.866	8751.89
496.235	8901.26
496.605	8947.59
496.974	8970.41
497.344	9072.11
497.713	9075.04
498.082	9175.15
498.452	9169.28
498.821	9208.15
499.19	9250.18
499.559	9266
499.928	9387.13
500.298	9368.14
500.667	9453.34
501.036	9465.32
501.405	9520
501.774	9512.55
502.143	9600.23
502.512	9615.82
502.88	9673.22
503.249	9650.17
503.618	9719.32
503.987	9730.39
504.356	9802.26
504.724	9826.21
505.093	9769.49
505.462	9803.16
505.83	9892.2
506.199	9889.49
506.567	10011.52
506.936	9946.21
507.304	10006.54
507.672	10017.39
508.041	10086.54
508.409	10119.99
508.777	10206.99
509.145	10243.37
509.514	10184.17
509.882	10228.91
510.25	10184.39
510.618	10310.27
510.986	10235.47
511.354	10301.45
511.722	10339.19
512.09	10459.64
512.458	10416.7
512.826	10435.69
513.193	10496.7
513.561	10433.65
513.929	10471.62
514.297	10522.46
514.664	10592.29
515.032	10554.1
515.4	10644.72
515.767	10653.31
516.135	10677.94
516.502	10571.05
516.869	10715.9
517.237	10746.41
517.604	10662.35
517.972	10705.96
518.339	10775.56
518.706	10730.59
519.073	10693.76
519.44	10818.73
519.808	10791.16
520.175	10677.26
520.542	10836.81
520.909	10878.61
521.276	10825.96
521.643	10855.56
522.009	10851.49
522.376	10906.41
522.743	10870.7
523.11	10974.88
523.477	11055.78
523.843	11015.33
524.21	11048.33
524.577	11057.82
524.943	11071.6
525.31	11050.81
525.676	11007.65
526.043	11167.64
526.409	11116.35
526.776	11188.43
527.142	11092.17
527.508	11147.98
527.874	11239.96
528.241	11175.55
528.607	11150.92
528.973	11166.06
529.339	11192.95
529.705	11159.28
530.071	11221.43
530.437	11232.28
530.803	11250.58
531.169	11244.48
531.535	11098.27
531.901	11093.97
532.267	11175.1
532.632	11123.58
532.998	11157.93
533.364	11160.19
533.73	11165.38
534.095	11179.62
534.461	11168.55
534.826	11114.76
535.192	11076.35
535.557	11096.23
535.923	11052.39
536.288	10976.69
536.653	11055.33
537.019	10956.8
537.384	11021.89
537.749	10851.95
538.114	10996.58
538.479	10960.64
538.845	10950.7
539.21	10863.47
539.575	10859.63
539.94	10859.63
540.305	10819.4
540.67	10704.38
541.034	10656.7
541.399	10632.52
541.764	10780.99
542.129	10690.37
542.494	10580.32
542.858	10662.35
543.223	10577.6
543.587	10564.27
543.952	10489.7
544.316	10571.28
544.681	10481.33
545.045	10452.86
545.41	10500.09
545.774	10414.67
546.138	10391.62
546.503	10337.61
546.867	10288.35
547.231	10311.85
547.595	10267.55
547.959	10272.53
548.324	10233.21
548.688	10164.51
549.052	10158.41
549.416	10116.6
549.779	10082.25
550.143	10081.35
550.507	10152.3
550.871	10058.75
551.235	10046.54
551.599	9969.26
551.962	9992.53
552.326	9933.33
552.689	9980.56
553.053	9878.86
553.417	9844.97
553.78	9872.54
554.143	9849.03
554.507	9859.43
554.87	9804.74
555.234	9837.74
555.597	9762.94
555.96	9749.83
556.323	9792.31
556.686	9685.65
557.05	9783.5
557.413	9771.97
557.776	9670.73
558.139	9698.08
558.502	9738.53
558.865	9720.45
559.228	9672.99
559.59	9727.68
559.953	9685.42
560.316	9665.99
560.679	9698.76
561.041	9743.27
561.404	9711.64
561.767	9744.4
562.129	9615.14
562.492	9694.69
562.854	9693.33
563.217	9654.01
563.579	9734.24
563.941	9699.43
564.304	9705.31
564.666	9768.81
565.028	9650.17
565.39	9753.9
565.753	9723.61
566.115	9755.25
566.477	9738.98
566.839	9758.42
567.201	9818.75
567.563	9844.29
567.925	9768.58
568.287	9753.67
568.648	9784.63
569.01	9791.86
569.372	9853.33
569.734	9807.23
570.095	9860.33
570.457	9886.55
570.819	9902.14
571.18	9835.7
571.542	9897.4
571.903	9854.01
572.265	9890.62
572.626	9944.4
572.987	9928.81
573.349	9940.33
573.71	9919.32
574.071	9998.64
574.432	10024.17
574.794	10090.61
575.155	10047.9
575.516	9942.82
575.877	10034.34
576.238	10044.96
576.599	10058.07
576.96	10051.06
577.32	10074.11
577.681	10106.43
578.042	10128.8
578.403	10104.4
578.763	10091.51
579.124	10120.67
579.485	10101.46
579.845	10144.62
580.206	10192.53
580.566	10143.04
580.927	10131.97
581.287	10221.68
581.648	10158.18
582.008	10265.3
582.368	10270.27
582.728	10349.59
583.089	10241.11
583.449	10270.49
583.809	10187.11
584.169	10266.65
584.529	10150.27
584.889	10291.74
585.249	10234.11
585.609	10276.37
585.969	10272.3
586.329	10243.37
586.688	10280.89
587.048	10263.71
587.408	10197.95
587.768	10265.75
588.127	10240.66
588.487	10258.29
588.846	10328.8
589.206	10297.84
589.565	10256.71
589.925	10331.96
590.284	10263.94
590.643	10322.24
591.003	10261.68
591.362	10395.91
591.721	10282.47
592.08	10352.07
592.44	10345.52
592.799	10365.18
593.158	10361.79
593.517	10358.17
593.876	10323.37
594.235	10283.37
594.593	10355.01
594.952	10342.36
595.311	10284.73
595.67	10314.11
596.029	10442.24
596.387	10450.6
596.746	10413.54
597.104	10319.98
597.463	10392.3
597.822	10322.47
598.18	10359.53
598.538	10314.79
598.897	10305.07
599.255	10322.47
599.613	10450.83
599.972	10449.02
600.33	10436.14
600.688	10374.44
601.046	10374.22
601.404	10487.89
601.762	10415.8
602.12	10382.81
602.478	10361.34
602.836	10452.63
603.194	10393.88
603.552	10414.9
603.91	10364.05
604.268	10372.64
604.625	10391.17
604.983	10450.6
605.341	10368.12
605.698	10402.24
606.056	10469.13
606.413	10382.81
606.771	10451.05
607.128	10474.33
607.485	10490.15
607.843	10484.95
608.2	10485.85
608.557	10473.43
608.914	10515.68
609.272	10521.56
609.629	10498.96
609.986	10533.54
610.343	10506.42
610.7	10584.83
611.057	10544.61
611.414	10544.16
611.771	10587.77
612.127	10682.69
612.484	10503.03
612.841	10611.05
613.198	10519.07
613.554	10567.21
613.911	10557.49
614.267	10606.08
614.624	10557.94
614.98	10584.83
615.337	10640.43
615.693	10648.34
616.05	10636.36
616.406	10733.31
616.762	10690.82
617.118	10609.92
617.475	10597.49
617.831	10642.23
618.187	10662.57
618.543	10676.81
618.899	10690.14
619.255	10621.44
619.611	10640.43
619.967	10776.47
620.323	10733.31
620.678	10661.67
621.034	10679.07
621.39	10680.43
621.746	10678.39
622.101	10766.07
622.457	10735.79
622.812	10662.57
623.168	10787.09
623.523	10705.74
623.879	10703.48
624.234	10698.73
624.589	10712.06
624.945	10791.83
625.3	10763.36
625.655	10696.92
626.01	10710.93
626.365	10724.04
626.72	10747.77
627.075	10647.43
627.43	10744.83
627.785	10673.65
628.14	10663.02
628.495	10715.68
628.85	10692.4
629.205	10671.84
629.559	10713.42
629.914	10604.72
630.269	10660.76
630.623	10655.57
630.978	10562.24
631.332	10653.53
631.687	10666.19
632.041	10588
632.396	10646.98
632.75	10594.78
633.104	10568.79
633.459	10535.57
633.813	10534.44
634.167	10458.96
634.521	10479.07
634.875	10604.27
635.229	10475.23
635.583	10447.21
635.937	10395.91
636.291	10437.95
636.645	10479.07
636.999	10391.85
637.352	10382.13
637.706	10329.25
638.06	10420.77
638.413	10391.17
638.767	10367.67
639.121	10352.3
639.474	10280.66
639.828	10333.32
640.181	10362.92
640.534	10283.6
640.888	10265.3
641.241	10228.69
641.594	10254.45
641.947	10254.67
642.301	10251.06
642.654	10227.33
643.007	10314.33
643.36	10175.35
643.713	10154.79
644.066	10240.44
644.419	10195.24
644.771	10138.07
645.124	10082.7
645.477	10070.5
645.83	9940.11
646.182	9959.99
646.535	9894.91
646.888	9894.23
647.24	9910.5
647.593	9909.37
647.945	9910.5
648.298	9862.14
648.65	9821.92
649.002	9797.28
649.355	9865.31
649.707	9795.7
650.059	9930.84
650.411	9981.69
650.763	10054.91
651.115	10074.11
651.467	10068.24
651.819	10049.26
652.171	10113.21
652.523	10058.07
652.875	10081.57
653.227	10075.24
653.578	10077.96
653.93	10092.64
654.282	10063.72
654.633	9999.54
654.985	10066.88
655.337	10080.67
655.688	10071.63
656.039	10073.89
656.391	10012.65
656.742	10071.85
657.094	10040.44
657.445	10107.33
657.796	10111.17
658.147	10041.12
658.498	10048.8
658.849	10062.14
659.2	10008.58
659.551	10074.57
659.902	10050.16
660.253	10037.05
660.604	10053.78
660.955	9969.48
661.306	10123.6
661.656	10091.74
662.007	10131.51
662.358	10121.12
662.708	10088.8
663.059	10068.69
663.409	10026.21
663.76	10158.63
664.11	10119.31
664.461	10160.44
664.811	10143.04
665.161	10131.51
665.511	10077.5
665.862	10136.94
666.212	10197.95
666.562	10117.05
666.912	10147.56
667.262	10112.3
667.612	10112.53
667.962	10085.64
668.312	10034.11
668.662	10122.47
669.011	10091.29
669.361	10122.25
669.711	10079.99
670.06	10087.67
670.41	10070.5
670.76	10023.27
671.109	10073.89
671.459	10051.97
671.808	10046.77
672.157	10062.59
672.507	10013.1
672.856	10035.47
673.205	10115.24
673.554	10063.72
673.904	10047.67
674.253	10047.9
674.602	10015.81
674.951	9862.14
675.3	9802.26
675.649	9991.63
675.998	9894.91
676.346	10007
676.695	10009.03
677.044	9896.72
677.393	9961.35
677.741	9912.54
678.09	9832.76
678.438	9886.1
678.787	9948.47
679.135	9885.87
679.484	9823.95
679.832	9861.92
680.181	9782.82
680.529	9849.71
680.877	9812.88
681.225	9752.99
681.573	9808.13
681.922	9734.46
682.27	9661.7
682.618	9717.51
682.966	9702.15
683.314	9778.53
683.661	9621.7
684.009	9621.92
684.357	9579.66
684.705	9506.67
685.053	9571.3
685.4	9545.31
685.748	9491.98
686.095	9481.59
686.443	9467.12
686.79	9444.07
687.138	9469.38
687.485	9402.49
687.832	9397.75
688.18	9395.04
688.527	9301.7
688.874	9348.48
689.221	9312.78
689.568	9286.34
689.915	9253.57
690.262	9258.77
690.609	9179.22
690.956	9150.75
691.303	9231.88
691.65	9087.02
691.997	9108.49
692.344	9070.3
692.69	9089.96
693.037	9061.94
693.383	8959.57
693.73	8946.46
694.077	8843.64
694.423	8864.43
694.769	8868.95
695.116	8826.01
695.462	8791.89
695.808	8759.35
696.155	8746.46
696.501	8743.3
696.847	8688.16
697.193	8653.81
697.539	8699.46
697.885	8559.58
698.231	8551.22
698.577	8518
698.923	8474.61
699.269	8451.33
699.614	8465.12
699.96	8430.32
700.306	8380.6
700.651	8400.71
700.997	8317.1
701.342	8281.62
701.688	8252.92
702.033	8228.74
702.379	8223.77
702.724	8145.8
703.069	8237.33
703.415	8045.69
703.76	8174.28
704.105	8095.86
704.45	8038.91
704.795	8010.67
705.14	7957.33
705.485	8031.23
705.83	7981.74
706.175	7958.46
706.52	7920.27
706.865	7900.84
707.209	7845.25
707.554	7786.04
707.899	7798.92
708.243	7775.42
708.588	7755.98
708.932	7751.24
709.277	7621.97
709.621	7670.11
709.966	7662.65
710.31	7619.26
710.654	7520.73
710.998	7586.27
711.342	7581.75
711.687	7566.83
712.031	7522.54
712.375	7461.08
712.719	7501.53
713.063	7493.62
713.407	7492.26
713.75	7474.41
714.094	7534.97
714.438	7455.65
714.782	7420.62
715.125	7396.9
715.469	7384.47
715.812	7342.43
716.156	7407.97
716.499	7333.39
716.843	7343.79
717.186	7296.11
717.53	7308.31
717.873	7357.57
718.216	7280.06
718.559	7255.43
718.902	7184.47
719.246	7231.02
719.589	7168.65
719.932	7202.55
720.275	7235.77
720.617	7221.08
720.96	7184.92
721.303	7189.44
721.646	7175.21
721.989	7161.42
722.331	7214.75
722.674	7059.05
723.016	7155.77
723.359	7113.51
723.701	7158.94
724.044	7101.76
724.386	7022.67
724.729	7130.01
725.071	7061.76
725.413	7057.24
725.755	7063.57
726.097	6983.8
726.439	7057.02
726.782	7035.1
727.124	7044.81
727.465	6999.17
727.807	7043.68
728.149	6993.74
728.491	6995.55
728.833	7014.31
729.175	6993.52
729.516	7006.4
729.858	6963.91
730.199	7010.47
730.541	7039.62
730.882	7052.5
731.224	6991.03
731.565	6954.65
731.906	6964.82
732.248	6989.67
732.589	6966.4
732.93	7007.98
733.271	6988.32
733.612	6994.42
733.953	6993.06
734.294	6927.3
734.635	6995.1
734.976	6958.49
735.317	6953.97
735.658	6985.61
735.999	6985.61
736.339	7029
736.68	7034.65
737.021	6967.08
737.361	6992.61
737.702	6991.71
738.042	6970.47
738.383	6971.6
738.723	7045.27
739.063	7054.76
739.404	7024.02
739.744	7029.9
740.084	7018.15
740.424	7099.28
740.764	7051.14
741.104	7074.64
741.444	7045.72
741.784	7095.89
742.124	7119.16
742.464	7123.23
742.804	7118.94
743.143	7118.03
743.483	7146.51
743.823	7210.23
744.162	7213.62
744.502	7238.26
744.841	7264.24
745.181	7349.44
745.52	7347.41
745.86	7380.4
746.199	7353.73
746.538	7384.01
746.877	7511.7
747.216	7508.08
747.556	7561.41
747.895	7591.92
748.234	7660.84
748.573	7737.23
748.911	7741.52
749.25	7765.25
749.589	7845.47
749.928	7892.93
750.267	8018.35
750.605	8063.32
750.944	8130.66
751.283	8184.67
751.621	8265.8
751.96	8338.34
752.298	8424.44
752.636	8551.44
752.975	8591.67
753.313	8690.42
753.651	8834.82
753.989	8868.95
754.327	9000.7
754.666	9041.37
755.004	9217.64
755.342	9329.73
755.679	9455.6
756.017	9536.05
756.355	9734.91
756.693	9830.73
757.031	9958.86
757.368	10091.06
757.706	10242.92
758.044	10429.13
758.381	10603.14
758.719	10640.2
759.056	10816.47
759.394	10966.75
759.731	11124.48
760.068	11314.98
760.405	11482.44
760.743	11690.34
761.08	11774.63
761.417	11975.98
761.754	12157.67
762.091	12359.48
762.428	12493.03
762.765	12654.61
763.102	12893.47
763.438	13032.68
763.775	13126.24
764.112	13342.95
764.449	13611.65
764.785	13681.02
765.122	13830.17
765.458	13946.55
765.795	14167.34
766.131	14345.87
766.467	14442.13
766.804	14643.03
767.14	14762.35
767.476	14956.47
767.812	15085.28
768.148	15311.26
768.485	15305.39
768.821	15421.09
769.157	15672.84
769.492	15734.76
769.828	15879.84
770.164	15906.28
770.5	16153.95
770.836	16222.43
771.171	16266.49
771.507	16411.12
771.842	16412.7
772.178	16675.07
772.513	16793.26
772.849	16748.51
773.184	16857.89
773.519	17047.72
773.855	17025.34
774.19	17119.8
774.525	17086.81
774.86	17363.64
775.195	17451.09
775.53	17496.29
775.865	17463.52
776.2	17478.44
776.535	17481.6
776.87	17652.45
777.205	17648.83
777.539	17682.05
777.874	17803.18
778.209	17731.54
778.543	17731.54
778.878	17747.36
779.212	17926.79
779.547	17896.05
779.881	17991.65
780.215	17868.48
780.55	17957.3
780.884	17906
781.218	17964.98
781.552	18041.81
781.886	18108.25
782.22	18098.76
782.554	18085.43
782.888	18037.97
783.222	18053.34
783.556	17993
783.889	18050.4
784.223	17886.56
784.557	17860.35
784.89	18021.93
785.224	17974.02
785.557	18018.09
785.891	17987.13
786.224	17997.97
786.558	18017.18
786.891	17873.91
787.224	17929.27
787.557	17849.95
787.891	17884.98
788.224	17863.74
788.557	17990.74
788.89	17937.18
789.223	17978.09
789.556	17896.05
789.888	17857.41
790.221	17788.71
790.554	17680.24
790.887	17651.77
791.219	17637.76
791.552	17690.41
791.884	17535.61
792.217	17585.55
792.549	17532.45
792.882	17469.85
793.214	17402.96
793.546	17518.66
793.879	17406.12
794.211	17354.83
794.543	17470.76
794.875	17365.9
795.207	17454.71
795.539	17422.4
795.871	17376.97
796.203	17261.72
796.535	17160.26
796.867	17165.9
797.198	17110.76
797.53	17110.99
797.862	16998.68
798.193	17119.58
798.525	16962.75
798.856	16948.51
799.188	16800.04
799.519	16826.03
799.85	16706.71
800.182	16773.15
800.513	16792.36
800.844	16743.32
801.175	16725.92
801.506	16744.22
801.837	16650.44
802.168	16564.11
802.499	16541.06
802.83	16471.46
803.161	16410.22
803.491	16500.39
803.822	16567.73
804.153	16399.15
804.483	16309.2
804.814	16254.97
805.145	16204.8
805.475	16254.74
805.805	16211.58
806.136	16206.61
806.466	16171.35
806.796	16146.72
807.126	16068.31
807.457	15956.9
807.787	16088.42
808.117	15965.71
808.447	15925.26
808.777	15954.64
809.107	15893.17
809.436	15887.07
809.766	15729.11
810.096	15735.21
810.426	15664.48
810.755	15756.9
811.085	15692.27
811.414	15686.17
811.744	15629.9
812.073	15555.33
812.403	15556.23
812.732	15489.56
813.061	15426.52
813.39	15379.06
813.719	15340.42
814.049	15403.69
814.378	15518.72
814.707	15330.92
815.036	15283.69
815.365	15232.17
815.693	15103.36
816.022	15216.8
816.351	15150.14
816.68	15018.16
817.008	15158.95
817.337	14968.45
817.665	14943.59
817.994	15109.91
818.322	14985.4
818.651	14937.94
818.979	14871.5
819.307	14952.86
819.636	14914.21
819.964	14799.87
820.292	14920.31
820.62	14909.92
820.948	14885.06
821.276	14902.01
821.604	14752.18
821.932	14795.12
822.259	14790.83
822.587	14804.61
822.915	14678.74
823.243	14789.24
823.57	14791.28
823.898	14774.1
824.225	14756.7
824.553	14718.74
824.88	14786.53
825.207	14789.02
825.535	14788.11
825.862	14864.04
826.189	14758.28
826.516	14845.29
826.843	14847.32
827.17	14835.12
827.497	14895
827.824	14932.29
828.151	14902.01
828.478	14785.4
828.805	14928.45
829.131	14854.33
829.458	14911.73
829.785	14759.87
830.111	14858.62
830.438	14937.26
830.764	14977.94
831.09	14776.59
831.417	14740.88
831.743	14856.36
832.069	14839.19
832.395	14778.17
832.722	14797.15
833.048	14863.14
833.374	14814.55
833.7	14717.16
834.026	14739.08
834.351	14688
834.677	14742.24
835.003	14779.3
835.329	14666.31
835.654	14663.37
835.98	14650.72
836.306	14686.42
836.631	14602.81
836.956	14645.97
837.282	14680.55
837.607	14717.61
837.932	14559.42
838.258	14537.27
838.583	14521
838.908	14499.53
839.233	14568.91
839.558	14471.74
839.883	14444.39
840.208	14327.79
840.533	14299.09
840.858	14303.83
841.182	14389.03
841.507	14312.42
841.832	14248.92
842.156	14217.96
842.481	14232.42
842.805	14248.02
843.13	14183.84
843.454	14166.21
843.778	14057.96
844.103	14059.55
844.427	14041.24
844.751	14010.51
845.075	13940.23
845.399	13906.56
845.723	13824.75
846.047	13944.29
846.371	13803.06
846.695	13777.29
847.019	13641.25
847.343	13608.94
847.666	13511.09
847.99	13461.82
848.313	13487.81
848.637	13325.55
848.96	13393.35
849.284	13351.77
849.607	13326.68
849.931	13233.13
850.254	13145.67
850.577	13071.1
850.9	13007.37
851.223	13020.7
851.546	12902.51
851.869	12834.95
852.192	12875.17
852.515	12777.09
852.838	12729.19
853.161	12740.03
853.483	12661.39
853.806	12683.08
854.129	12604.22
854.451	12554.05
854.774	12509.53
855.096	12493.26
855.419	12428.18
855.741	12391.34
856.063	12307.73
856.385	12334.17
856.708	12310.89
857.03	12192.02
857.352	12204.91
857.674	12133.27
857.996	12095.76
858.318	12002.2
858.64	11969.43
858.961	11945.7
859.283	11999.26
859.605	11923.56
859.926	11917
860.248	11900.73
860.57	11765.14
860.891	11866.38
861.212	11783.9
861.534	11740.06
861.855	11668.87
862.176	11681.3
862.498	11749.55
862.819	11740.96
863.14	11614.41
863.461	11635.88
863.782	11590.68
864.103	11632.72
864.424	11577.12
864.745	11570.35
865.065	11478.6
865.386	11420.97
865.707	11419.61
866.027	11497.13
866.348	11445.38
866.668	11459.39
866.989	11409.22
867.309	11267.08
867.63	11431.82
867.95	11350.69
868.27	11260.98
868.59	11278.15
868.91	11337.58
869.23	11262.56
869.55	11218.72
869.87	11246.06
870.19	11179.85
870.51	11172.84
870.83	11247.87
871.15	11127.19
871.469	11171.71
871.789	11117.93
872.109	11097.59
872.428	10979.85
872.748	11041.77
873.067	11034.77
873.386	11029.79
873.706	11001.77
874.025	10938.72
874.344	10923.81
874.663	10936.24
874.982	11010.13
875.301	10898.05
875.62	10956.12
875.939	10896.01
876.258	10931.04
876.577	10786.41
876.896	10865.96
877.214	10761.78
877.533	10780.54
877.852	10791.61
878.17	10828.9
878.489	10751.16
878.807	10810.82
879.125	10713.19
879.444	10724.04
879.762	10671.61
880.08	10688.56
880.398	10653.99
880.716	10636.81
881.034	10611.5
881.352	10545.06
881.67	10537.6
881.988	10635.23
882.306	10477.49
882.624	10475.23
882.941	10423.03
883.259	10373.09
883.577	10407.21
883.894	10383.71
884.212	10399.98
884.529	10345.52
884.846	10300.55
885.164	10300.1
885.481	10256.03
885.798	10279.76
886.115	10151.63
886.432	10154.34
886.75	10123.6
887.067	10165.41
887.383	10076.6
887.7	10159.31
888.017	10050.61
888.334	10097.39
888.651	10024.4
888.967	9953.44
889.284	9976.04
889.6	9924.74
889.917	9824.18
890.233	9946.43
890.55	9840.45
890.866	9826.66
891.182	9735.59
891.498	9739.66
891.815	9766.1
892.131	9709.6
892.447	9634.58
892.763	9643.16
893.079	9677.74
893.395	9622.83
893.71	9563.84
894.026	9554.35
894.342	9508.93
894.657	9449.27
894.973	9449.72
895.289	9442.94
895.604	9415.6
895.92	9301.48
896.235	9279.56
896.55	9318.88
896.865	9269.84
897.181	9235.72
897.496	9244.76
897.811	9168.83
898.126	9167.47
898.441	9120.69
898.756	9076.85
899.071	9094.7
899.386	9015.61
899.7	8957.98
900.015	8908.49
900.33	8817.42
900.644	8867.37
900.959	8865.33
901.273	8787.59
901.588	8802.28
901.902	8695.62
902.216	8669.63
902.531	8708.27
902.845	8613.59
903.159	8614.72
903.473	8508.73
903.787	8525
904.101	8507.83
904.415	8487.04
904.729	8471.9
905.042	8368.17
905.356	8439.81
905.67	8348.96
905.984	8336.08
906.297	8300.6
906.611	8277.78
906.924	8273.26
907.237	8206.14
907.551	8177.67
907.864	8168.63
908.177	8120.49
908.491	8023.77
908.804	7980.61
909.117	8018.35
909.43	7911.68
909.743	7877.11
910.056	7916.88
910.368	7908.75
910.681	7783.33
910.994	7811.57
911.307	7778.81
911.619	7730.22
911.932	7679.37
912.244	7689.09
912.557	7655.42
912.869	7569.55
913.181	7568.19
913.494	7538.14
913.806	7427.18
914.118	7466.5
914.43	7393.51
914.742	7410.68
915.054	7402.09
915.366	7388.08
915.678	7359.83
915.99	7317.8
916.302	7266.73
916.613	7259.5
916.925	7225.83
917.236	7099.28
917.548	7124.59
917.859	7059.73
918.171	7042.78
918.482	7088.88
918.794	7011.14
919.105	7000.3
919.416	6982.22
919.727	6977.02
920.038	6977.7
920.349	6881.88
920.66	6881.2
920.971	6929.56
921.282	6814.76
921.593	6720.98
921.903	6768.89
922.214	6731.6
922.525	6679.85
922.835	6729.57
923.146	6669.46
923.456	6609.57
923.767	6541.55
924.077	6581.32
924.387	6570.48
924.697	6466.98
925.008	6423.36
925.318	6475.34
925.628	6425.4
925.938	6455.45
926.248	6356.02
926.558	6314.21
926.867	6311.27
927.177	6259.75
927.487	6242.12
927.796	6228.79
928.106	6232.41
928.416	6152.86
928.725	6179.98
929.034	6093.88
929.344	6155.8
929.653	6083.48
929.962	6045.74
930.271	6042.58
930.581	6048.23
930.89	5946.99
931.199	5977.95
931.508	5926.65
931.817	5935.01
932.125	5892.53
932.434	5882.81
932.743	5855.24
933.051	5782.48
933.36	5775.7
933.669	5786.99
933.977	5810.04
934.286	5760.1
934.594	5741.12
934.902	5616.83
935.21	5657.96
935.519	5631.07
935.827	5585.64
936.135	5583.84
936.443	5591.97
936.751	5535.02
937.059	5538.19
937.367	5468.36
937.674	5476.27
937.982	5497.74
938.29	5415.03
938.597	5416.16
938.905	5376.16
939.213	5328.25
939.52	5294.13
939.827	5351.53
940.135	5285.31
940.442	5231.08
940.749	5257.29
941.056	5216.39
941.363	5164.41
941.67	5183.39
941.977	5151.53
942.284	5098.88
942.591	5169.16
942.898	5081.02
943.205	5109.27
943.511	5079.67
943.818	5062.04
944.125	5007.13
944.431	4983.4
944.738	4929.39
945.044	4925.55
945.35	4915.15
945.657	4914.25
945.963	4883.97
946.269	4836.06
946.575	4810.52
946.881	4841.48
947.187	4812.78
947.493	4744.54
947.799	4782.5
948.105	4743.63
948.41	4720.58
948.716	4730.98
949.022	4696.85
949.327	4685.33
949.633	4612.34
949.938	4625.44
950.244	4635.84
950.549	4578.44
950.854	4521.04
951.16	4523.75
951.465	4493.24
951.77	4464.32
952.075	4449.63
952.38	4433.58
952.685	4427.03
952.99	4411.66
953.294	4379.35
953.599	4396.75
953.904	4374.38
954.209	4335.28
954.513	4363.08
954.818	4316.3
955.122	4301.84
955.426	4275.62
955.731	4216.19
956.035	4247.6
956.339	4179.13
956.643	4210.99
956.948	4170.54
957.252	4130.99
957.556	4160.82
957.86	4133.7
958.163	4102.29
958.467	4084.67
958.771	4080.82
959.075	4064.1
959.378	4066.59
959.682	4037.44
959.985	4007.15
960.289	3980.49
960.592	3982.97
960.896	4000.6
961.199	3948.17
961.502	3968.51
961.805	3914.95
962.108	3891.68
962.411	3882.19
962.714	3815.52
963.017	3835.18
963.32	3851.45
963.623	3796.76
963.926	3785.92
964.228	3796.09
964.531	3768.29
964.833	3753.38
965.136	3662.53
965.438	3722.87
965.741	3672.93
966.043	3684
966.345	3655.07
966.648	3665.47
966.95	3649.88
967.252	3619.14
967.554	3573.49
967.856	3544.12
968.158	3555.19
968.46	3573.49
968.761	3509.99
969.063	3527.17
969.365	3521.74
969.666	3489.65
969.968	3434.97
970.269	3488.52
970.571	3481.52
970.872	3404.91
971.174	3379.83
971.475	3402.88
971.776	3420.73
972.077	3361.97
972.378	3333.73
972.679	3335.31
972.98	3349.09
973.281	3305.48
973.582	3275.2
973.883	3251.24
974.183	3256.21
974.484	3272.26
974.785	3277.46
975.085	3265.93
975.386	3196.55
975.686	3204.92
975.986	3185.71
976.287	3181.87
976.587	3102.32
976.887	3125.14
977.187	3154.75
977.487	3123.34
977.787	3135.54
978.087	3105.94
978.387	3084.24
978.687	3013.51
978.987	3076.11
979.286	3001.53
979.586	3016.67
979.885	2994.98
980.185	2950.91
980.484	2966.05
980.784	2929.67
981.083	2945.26
981.382	2931.48
981.682	2928.09
981.981	2885.6
982.28	2891.93
982.579	2867.98
982.878	2872.5
983.177	2860.97
983.475	2846.06
983.774	2808.54
984.073	2819.62
984.372	2778.71
984.67	2787.75
984.969	2739.17
985.267	2761.09
985.566	2789.11
985.864	2766.96
986.162	2739.84
986.461	2719.73
986.759	2716.34
987.057	2677.92
987.355	2665.04
987.653	2690.8
987.951	2690.35
988.249	2695.78
988.547	2645.38
988.844	2643.8
989.142	2610.13
989.44	2601.09
989.737	2588.21
990.035	2555.67
990.332	2578.72
990.63	2542.11
990.927	2550.02
991.224	2543.69
991.521	2490.81
991.819	2519.28
992.116	2523.35
992.413	2451.72
992.71	2446.52
993.006	2472.51
993.303	2451.94
993.6	2437.93
993.897	2422.56
994.193	2433.18
994.49	2389.34
994.787	2393.64
995.083	2363.58
995.379	2369.68
995.676	2360.87
995.972	2331.27
996.268	2335.79
996.565	2297.14
996.861	2295.34
997.157	2285.17
997.453	2305.73
997.749	2296.24
998.044	2246.52
998.34	2259.86
998.636	2267.54
998.932	2225.73
999.227	2233.19
999.523	2188.22
999.818	2189.12
1000.114	2183.02
1000.409	2120.42
1000.704	2165.17
1001	2145.28
1001.295	2106.64
1001.59	2103.93
1001.885	2126.75
1002.18	2109.13
1002.475	2116.36
1002.77	2059.64
1003.065	2075
1003.359	2051.73
1003.654	2073.19
1003.949	2032.07
1004.243	2020.31
1004.538	2002.91
1004.832	1998.39
1005.127	2004.27
1005.421	2020.31
1005.715	1958.39
1006.009	1975.8
1006.304	1959.75
1006.598	1916.36
1006.892	1917.27
1007.186	1893.31
1007.48	1884.95
1007.773	1890.83
1008.067	1907.1
1008.361	1865.29
1008.655	1852.41
1008.948	1826.65
1009.242	1846.53
1009.535	1841.11
1009.829	1829.58
1010.122	1798.85
1010.415	1821.9
1010.708	1766.99
1011.001	1781
1011.295	1745.29
1011.588	1756.59
1011.881	1719.53
1012.173	1726.76
1012.466	1734.67
1012.759	1723.82
1013.052	1673.66
1013.344	1702.81
1013.637	1679.53
1013.93	1674.33
1014.222	1652.64
1014.514	1658.06
1014.807	1665.3
1015.099	1623.49
1015.391	1591.4
1015.683	1610.16
1015.976	1618.52
1016.268	1583.04
1016.56	1568.12
1016.851	1565.41
1017.143	1569.93
1017.435	1560.44
1017.727	1571.74
1018.018	1519.08
1018.31	1522.7
1018.602	1506.43
1018.893	1493.55
1019.185	1507.11
1019.476	1487.67
1019.767	1500.78
1020.058	1463.49
1020.35	1475.47
1020.641	1470.72
1020.932	1476.83
1021.223	1435.47
1021.514	1437.96
1021.804	1435.24
1022.095	1399.31
1022.386	1417.84
1022.677	1421.69
1022.967	1397.51
1023.258	1384.17
1023.548	1378.07
1023.839	1358.18
1024.129	1349.15
1024.419	1327.68
1024.709	1335.36
1025	1341.24
1025.29	1308.24
1025.58	1292.42
1025.87	1295.59
1026.16	1290.39
1026.449	1278.86
1026.739	1265.98
1027.029	1263.05
1027.319	1257.17
1027.608	1232.76
1027.898	1242.71
1028.187	1238.41
1028.477	1221.24
1028.766	1208.81
1029.055	1182.82
1029.344	1187.79
1029.634	1180.79
1029.923	1192.54
1030.212	1142.15
1030.501	1192.09
1030.79	1147.34
1031.078	1159.55
1031.367	1145.08
1031.656	1142.15
1031.945	1110.51
1032.233	1130.85
1032.522	1106.21
1032.81	1126.78
1033.099	1080.45
1033.387	1105.31
1033.675	1077.06
1033.963	1094.01
1034.251	1076.61
1034.54	1047.46
1034.828	1057.4
1035.116	1096.5
1035.403	1042.71
1035.691	1027.8
1035.979	1026.44
1036.267	1030.28
1036.554	1018.31
1036.842	1016.05
1037.129	1005.2
1037.417	1011.75
1037.704	999.78
1037.992	991.41
1038.279	978.31
1038.566	960.68
1038.853	960.68
1039.14	960.68
