Data from hue_100_FLMS001491_00090.txt Node
Date: Tue Feb 07 17:03:47 GMT 2017
User: dcchb
Spectrometer: FLMS00149
Trigger mode: 0
Integration Time (sec): 2.000000E-2
Scans to average: 10
Electric dark correction enabled: true
Nonlinearity correction enabled: false
Boxcar width: 0
XAxis mode: Wavelengths
Number of Pixels in Spectrum: 2048
>>>>>Begin Spectral Data<<<<<
341.393	7.42
341.776	7.42
342.16	7.42
342.543	-47.05
342.927	-40.72
343.31	-51.11
343.693	-80.49
344.077	-57.67
344.46	-56.31
344.843	-36.88
345.226	-43.21
345.61	-28.74
345.993	-19.7
346.376	-8.18
346.759	10.58
347.142	12.84
347.525	22.56
347.908	51.26
348.291	72.05
348.674	96.45
349.057	116.56
349.44	117.47
349.823	139.16
350.206	168.54
350.588	199.73
350.971	199.27
351.354	229.78
351.737	247.41
352.119	226.62
352.502	260.29
352.884	296.9
353.267	291.02
353.65	289.44
354.032	305.26
354.414	300.74
354.797	311.36
355.179	315.66
355.562	306.16
355.944	321.08
356.326	344.13
356.709	335.09
357.091	324.47
357.473	350.23
357.855	337.58
358.238	346.62
358.62	358.14
359.002	328.76
359.384	358.14
359.766	370.12
360.148	339.84
360.53	334.86
360.912	341.64
361.294	335.32
361.676	338.03
362.057	337.12
362.439	340.74
362.821	339.38
363.203	337.58
363.584	340.06
363.966	338.71
364.348	330.8
364.729	339.16
365.111	323.34
365.493	313.62
365.874	325.82
366.256	334.41
366.637	332.38
367.019	331.25
367.4	335.32
367.781	332.15
368.163	313.17
368.544	344.36
368.925	324.47
369.306	312.49
369.688	326.05
370.069	305.71
370.45	301.19
370.831	313.4
371.212	330.57
371.593	329.21
371.974	321.31
372.355	314.98
372.736	335.09
373.117	317.01
373.498	309.33
373.879	325.6
374.26	327.63
374.641	336.67
375.021	306.84
375.402	344.13
375.783	328.76
376.163	324.92
376.544	337.35
376.925	324.69
377.305	347.29
377.686	302.32
378.066	319.5
378.447	329.44
378.827	349.55
379.208	347.29
379.588	329.67
379.968	337.8
380.349	357.91
380.729	353.85
381.109	334.19
381.489	349.78
381.87	360.63
382.25	364.47
382.63	338.03
383.01	360.63
383.39	357.91
383.77	360.63
384.15	369.67
384.53	367.63
384.91	349.1
385.29	341.87
385.67	364.69
386.049	364.69
386.429	368.76
386.809	370.12
387.189	382.32
387.568	371.93
387.948	372.38
388.328	384.81
388.707	377.35
389.087	370.12
389.466	372.15
389.846	377.57
390.225	379.83
390.605	383.45
390.984	397.46
391.363	370.8
391.743	398.59
392.122	388.87
392.501	379.38
392.881	394.98
393.26	398.59
393.639	375.09
394.018	376.9
394.397	395.43
394.776	385.94
395.155	411.92
395.534	379.83
395.913	387.52
396.292	405.6
396.671	406.73
397.05	392.04
397.429	407.4
397.808	413.73
398.186	413.05
398.565	401.3
398.944	419.16
399.323	411.47
399.701	411.47
400.08	437.46
400.458	424.58
400.837	426.84
401.215	431.81
401.594	418.48
401.972	427.97
402.351	434.07
402.729	420.06
403.107	429.55
403.486	448.76
403.864	432.49
404.242	440.17
404.62	433.17
404.999	458.25
405.377	450.34
405.755	433.62
406.133	452.38
406.511	452.38
406.889	467.29
407.267	474.3
407.645	464.58
408.023	470
408.401	506.61
408.779	486.5
409.156	489.21
409.534	479.95
409.912	461.87
410.29	480.4
410.667	495.09
411.045	486.72
411.422	531.02
411.8	494.86
412.178	528.76
412.555	503.45
412.933	530.57
413.31	512.26
413.687	532.37
414.065	541.64
414.442	532.6
414.819	511.58
415.197	524.69
415.574	552.26
415.951	541.64
416.328	550.23
416.705	546.38
417.082	561.3
417.46	548.64
417.837	580.96
418.214	550.9
418.591	555.42
418.967	564.46
419.344	560.62
419.721	590.45
420.098	582.54
420.475	578.7
420.852	620.28
421.228	596.33
421.605	588.87
421.982	626.61
422.358	629.09
422.735	614.4
423.111	599.94
423.488	601.07
423.864	631.35
424.241	614.63
424.617	629.09
424.994	646.95
425.37	665.25
425.746	653.05
426.123	665.7
426.499	651.92
426.875	657.34
427.251	664.35
427.627	680.17
428.003	686.49
428.379	691.24
428.756	690.33
429.132	683.1
429.507	698.24
429.883	705.93
430.259	707.96
430.635	724.91
431.011	704.12
431.387	745.47
431.763	747.28
432.138	751.58
432.514	765.14
432.89	754.06
433.265	753.38
433.641	801.97
434.016	796.55
434.392	774.63
434.767	808.52
435.143	785.47
435.518	829.54
435.894	820.73
436.269	814.4
436.644	808.52
437.02	820.28
437.395	841.97
437.77	876.32
438.145	858.24
438.52	872.03
438.895	877.9
439.271	897.34
439.646	911.35
440.021	899.82
440.395	905.47
440.77	869.54
441.145	889.65
441.52	914.51
441.895	936.43
442.27	935.75
442.645	938.46
443.019	955.86
443.394	969.88
443.769	970.33
444.143	949.31
444.518	984.56
444.892	955.86
445.267	972.81
445.641	992.7
446.016	976.88
446.39	980.5
446.764	992.93
447.139	997.9
447.513	1003.77
447.887	1000.84
448.262	1002.87
448.636	1030.21
449.01	1031.34
449.384	1043.09
449.758	1077.67
450.132	1068.63
450.506	1077.67
450.88	1082.19
451.254	1064.11
451.628	1086.93
452.002	1103.21
452.376	1132.13
452.75	1131.23
453.123	1141.4
453.497	1125.13
453.871	1160.38
454.244	1218.46
454.618	1176.65
454.992	1187.27
455.365	1179.14
455.739	1232.02
456.112	1232.02
456.486	1225.46
456.859	1252.81
457.232	1274.5
457.606	1289.19
457.979	1318.12
458.352	1347.72
458.725	1348.62
459.099	1364.22
459.472	1347.49
459.845	1398.79
460.218	1395.63
460.591	1442.63
460.964	1425.23
461.337	1482.4
461.71	1476.53
462.083	1519.47
462.456	1497.77
462.829	1535.96
463.201	1561.05
463.574	1567.6
463.947	1582.74
464.32	1629.07
464.692	1659.12
465.065	1665.22
465.438	1700.48
465.81	1721.72
466.183	1708.39
466.555	1758.33
466.928	1749.97
467.3	1774.6
467.672	1880.13
468.045	1841.94
468.417	1896.86
468.789	1873.35
469.161	1933.92
469.534	1984.76
469.906	2010.53
470.278	2007.59
470.65	2073.8
471.022	2122.84
471.394	2185.44
471.766	2157.19
472.138	2219.56
472.51	2296.39
472.882	2331.65
473.253	2382.27
473.625	2443.06
473.997	2479.89
474.369	2504.75
474.74	2543.85
475.112	2636.27
475.484	2622.26
475.855	2731.19
476.227	2754.24
476.598	2907.9
476.97	2935.25
477.341	3023.61
477.713	3090.95
478.084	3119.88
478.455	3248.46
478.827	3294.56
479.198	3407.78
479.569	3441.68
479.94	3583.59
480.311	3671.05
480.682	3781.55
481.053	3889.35
481.424	4016.8
481.795	4102.9
482.166	4189.45
482.537	4249.56
482.908	4381.54
483.279	4498.6
483.65	4627.41
484.021	4792.6
484.391	4829.44
484.762	4945.14
485.133	5051.58
485.503	5205.47
485.874	5385.8
486.244	5444.33
486.615	5585.35
486.985	5784.21
487.356	5890.2
487.726	6022.4
488.097	6201.38
488.467	6266.01
488.837	6488.15
489.207	6633.91
489.578	6807.24
489.948	6946.44
490.318	7108.25
490.688	7174.23
491.058	7376.49
491.428	7532.19
491.798	7701.22
492.168	7895.34
492.538	7940.31
492.908	8103.93
493.278	8323.13
493.648	8362
494.017	8513.41
494.387	8700.52
494.757	8822.32
495.126	8994.07
495.496	9090.34
495.866	9271.8
496.235	9430.9
496.605	9543.21
496.974	9611.46
497.344	9803.32
497.713	9936.87
498.082	10083.99
498.452	10294.83
498.821	10269.74
499.19	10401.49
499.559	10634.93
499.928	10696.85
500.298	10855.49
500.667	10912.89
501.036	10977.97
501.405	11156.27
501.774	11260.9
502.143	11291.64
502.512	11422.71
502.88	11530.05
503.249	11602.36
503.618	11735.69
503.987	11780.89
504.356	11953.54
504.724	12028.79
505.093	12165.97
505.462	12170.26
505.83	12282.8
506.199	12401.89
506.567	12610.7
506.936	12581.32
507.304	12750.81
507.672	12820.86
508.041	12838.72
508.409	12926.17
508.777	13131.14
509.145	13159.16
509.514	13203.68
509.882	13374.75
510.25	13363
510.618	13400.74
510.986	13492.03
511.354	13624.01
511.722	13720.73
512.09	13774.28
512.458	13812.25
512.826	13921.4
513.193	13907.16
513.561	13939.48
513.929	14092.47
514.297	14038.68
514.664	14267.61
515.032	14209.3
515.4	14321.61
515.767	14409.75
516.135	14408.17
516.502	14349.64
516.869	14689.74
517.237	14612.68
517.604	14471.67
517.972	14638.89
518.339	14752.34
518.706	14754.6
519.073	14873.24
519.44	14860.13
519.808	14900.58
520.175	14913.92
520.542	15088.83
520.909	15100.35
521.276	15115.72
521.643	15255.15
522.009	15298.99
522.376	15326.33
522.743	15374.24
523.11	15547.57
523.477	15516.61
523.843	15520.91
524.21	15669.83
524.577	15687
524.943	15740.11
525.31	15730.17
525.676	15828.47
526.043	15863.5
526.409	15908.92
526.776	16088.35
527.142	15990.05
527.508	16051.96
527.874	16155.24
528.241	16079.76
528.607	16118.63
528.973	16208.57
529.339	16133.32
529.705	16232.98
530.071	16220.55
530.437	16219.42
530.803	16351.62
531.169	16355.91
531.535	16343.71
531.901	16285.18
532.267	16361.56
532.632	16396.59
532.998	16333.77
533.364	16427.55
533.73	16360.88
534.095	16426.42
534.461	16464.61
534.826	16453.54
535.192	16437.27
535.557	16459.64
535.923	16442.69
536.288	16367.89
536.653	16440.66
537.019	16322.01
537.384	16394.55
537.749	16365.4
538.114	16276.14
538.479	16262.58
538.845	16345.74
539.21	16138.74
539.575	16214.9
539.94	16216.25
540.305	16191.17
540.67	16160.66
541.034	16248.12
541.399	16253.32
541.764	16164.28
542.129	16215.35
542.494	16124.05
542.858	16029.59
543.223	16024.62
543.587	16089.25
543.952	15997.96
544.316	15923.15
544.681	15934.68
545.045	15888.13
545.41	15873.21
545.774	15952.98
546.138	15864.85
546.503	15983.94
546.867	15739.2
547.231	15790.5
547.595	15773.55
547.959	15795.7
548.324	15771.52
548.688	15671.64
549.052	15704.4
549.416	15645.2
549.779	15576.27
550.143	15596.84
550.507	15655.82
550.871	15630.06
551.235	15526.56
551.599	15570.4
551.962	15549.15
552.326	15544.86
552.689	15558.19
553.053	15479.1
553.417	15466.67
553.78	15534.01
554.143	15480.23
554.507	15414.47
554.87	15462.38
555.234	15526.33
555.597	15375.82
555.96	15376.95
556.323	15385.54
556.686	15407.46
557.05	15414.02
557.413	15374.47
557.776	15390.06
558.139	15397.29
558.502	15428.25
558.865	15305.09
559.228	15444.98
559.59	15387.8
559.953	15461.47
560.316	15539.44
560.679	15473.22
561.041	15474.13
561.404	15564.97
561.767	15525.88
562.129	15412.43
562.492	15634.35
562.854	15466.22
563.217	15512.09
563.579	15528.14
563.941	15574.46
564.304	15603.16
564.666	15628.25
565.028	15493.56
565.39	15707.12
565.753	15748.24
566.115	15612.43
566.477	15735.82
566.839	15748.02
567.201	15843.16
567.563	15812.88
567.925	15824.85
568.287	15890.39
568.648	15750.73
569.01	15906.21
569.372	15962.02
569.734	15937.17
570.095	15916.83
570.457	15975.58
570.819	15913.44
571.18	15987.79
571.542	16044.06
571.903	16034.79
572.265	16001.8
572.626	16042.47
572.987	16142.13
573.349	16012.87
573.71	16137.84
574.071	16132.64
574.432	16089.48
574.794	16294.67
575.155	16176.26
575.516	16083.6
575.877	16233.43
576.238	16252.64
576.599	16330.83
576.96	16218.51
577.32	16205.63
577.681	16220.55
578.042	16315.46
578.403	16242.02
578.763	16277.5
579.124	16295.35
579.485	16289.7
579.845	16360.66
580.206	16383.03
580.566	16312.3
580.927	16374.67
581.287	16465.06
581.648	16311.62
582.008	16336.93
582.368	16245.86
582.728	16279.53
583.089	16248.12
583.449	16246.54
583.809	16284.28
584.169	16257.84
584.529	16193.66
584.889	16368.57
585.249	16191.85
585.609	16178.29
585.969	16251.73
586.329	16179.87
586.688	16160.21
587.048	16235.46
587.408	16129.25
587.768	16237.5
588.127	16236.59
588.487	16042.7
588.846	16286.31
589.206	16089.03
589.565	16098.52
589.925	16218.29
590.284	16136.26
590.643	16198.63
591.003	16127.9
591.362	16128.35
591.721	16030.72
592.08	16117.95
592.44	16115.92
592.799	16107.56
593.158	16043.15
593.517	16054
593.876	16137.84
594.235	16053.77
594.593	16048.58
594.952	15995.24
595.311	15921.57
595.67	16055.35
596.029	16057.84
596.387	16087.22
596.746	16028.24
597.104	15995.92
597.463	16020.33
597.822	15997.73
598.18	15888.81
598.538	15994.57
598.897	16026.88
599.255	15975.58
599.613	16103.94
599.972	16101.91
600.33	16066.43
600.688	15953.66
601.046	16025.75
601.404	16042.7
601.762	16148.46
602.12	16110.27
602.478	16104.17
602.836	16105.75
603.194	15954.34
603.552	16096.48
603.91	15999.99
604.268	16072.3
604.625	15927
604.983	16072.53
605.341	16032.3
605.698	16037.95
606.056	15989.82
606.413	16035.92
606.771	16142.36
607.128	16067.56
607.485	16091.06
607.843	15977.62
608.2	16147.1
608.557	16139.65
608.914	16158.63
609.272	16120.66
609.629	16258.29
609.986	16139.87
610.343	16164.73
610.7	16326.31
611.057	16256.48
611.414	16209.02
611.771	16217.61
612.127	16382.13
612.484	16296.25
612.841	16292.41
613.198	16244.05
613.554	16301.45
613.911	16403.37
614.267	16386.19
614.624	16327.89
614.98	16294.9
615.337	16356.36
615.693	16423.03
616.05	16373.99
616.406	16440.2
616.762	16506.19
617.118	16466.42
617.475	16407.66
617.831	16516.59
618.187	16479.52
618.543	16525.62
618.899	16577.83
619.255	16575.57
619.611	16446.08
619.967	16597.26
620.323	16524.95
620.678	16487.21
621.034	16451.05
621.39	16525.62
621.746	16447.43
622.101	16616.47
622.457	16455.12
622.812	16538.96
623.168	16514.1
623.523	16497.6
623.879	16643.36
624.234	16576.7
624.589	16530.37
624.945	16631.84
625.3	16566.98
625.655	16539.41
626.01	16593.19
626.365	16562.46
626.72	16505.29
627.075	16553.65
627.43	16539.86
627.785	16502.35
628.14	16578.28
628.495	16583.7
628.85	16549.13
629.205	16473.2
629.559	16582.8
629.914	16481.56
630.269	16372.63
630.623	16548.22
630.978	16366.98
631.332	16453.08
631.687	16486.53
632.041	16501.22
632.396	16453.76
632.75	16295.12
633.104	16415.8
633.459	16373.99
633.813	16277.04
634.167	16287.66
634.521	16309.13
634.875	16301
635.229	16304.39
635.583	16183.49
635.937	16218.74
636.291	16153.43
636.645	16196.59
636.999	16125.64
637.352	16178.74
637.706	16080.89
638.06	16111.62
638.413	16088.12
638.767	16060.55
639.121	16067.56
639.474	15990.05
639.828	15976.26
640.181	16054.22
640.534	16037.95
640.888	15975.81
641.241	15816.94
641.594	15939.65
641.947	15906.43
642.301	15925.87
642.654	15887.68
643.007	15905.3
643.36	15862.37
643.713	15844.29
644.066	15924.74
644.419	15769.26
644.771	15726.78
645.124	15624.63
645.477	15518.87
645.83	15338.99
646.182	15395.71
646.535	15273.45
646.888	15359.1
647.24	15309.61
647.593	15346.9
647.945	15305.77
648.298	15279.33
648.65	15232.33
649.002	15217.41
649.355	15284.53
649.707	15297.63
650.059	15428.93
650.411	15566.78
650.763	15640.22
651.115	15745.08
651.467	15641.35
651.819	15596.16
652.171	15616.95
652.523	15673.9
652.875	15541.02
653.227	15556.38
653.578	15636.83
653.93	15672.31
654.282	15574.92
654.633	15561.13
654.985	15534.92
655.337	15598.19
655.688	15671.18
656.039	15742.14
656.391	15517.74
656.742	15622.15
657.094	15658.75
657.445	15659.21
657.796	15641.35
658.147	15606.33
658.498	15687.91
658.849	15619.43
659.2	15680.22
659.551	15541.24
659.902	15680
660.253	15607.91
660.604	15668.92
660.955	15586.67
661.306	15629.6
661.656	15557.06
662.007	15658.08
662.358	15660.56
662.708	15626.44
663.059	15664.63
663.409	15567.91
663.76	15700.79
664.11	15697.4
664.461	15709.38
664.811	15704.4
665.161	15664.86
665.511	15670.05
665.862	15612.88
666.212	15725.19
666.562	15791.63
666.912	15674.12
667.262	15652.88
667.612	15635.48
667.962	15771.97
668.312	15622.15
668.662	15697.17
669.011	15652.65
669.361	15600.45
669.711	15628.25
670.06	15647
670.41	15576.05
670.76	15544.41
671.109	15596.16
671.459	15620.34
671.808	15568.81
672.157	15540.57
672.507	15525.65
672.856	15526.56
673.205	15598.42
673.554	15467.57
673.904	15576.95
674.253	15579.43
674.602	15482.49
674.951	15343.06
675.3	15254.25
675.649	15492.43
675.998	15469.16
676.346	15526.78
676.695	15461.02
677.044	15386.45
677.393	15436.39
677.741	15451.75
678.09	15361.14
678.438	15391.64
678.787	15292.21
679.135	15343.06
679.484	15308.26
679.832	15384.64
680.181	15204.98
680.529	15240.69
680.877	15253.12
681.225	15117.3
681.573	15261.03
681.922	15146.9
682.27	15174.93
682.618	15103.74
682.966	15038.66
683.314	15095.83
683.661	14947.59
684.009	14967.02
684.357	14932.45
684.705	14923.18
685.053	14851.32
685.4	14915.72
685.748	14828.27
686.095	14740.14
686.443	14694.49
686.79	14649.74
687.138	14678.89
687.485	14701.04
687.832	14541.95
688.18	14589.86
688.527	14460.37
688.874	14399.8
689.221	14466.7
689.568	14374.95
689.915	14400.93
690.262	14416.53
690.609	14325
690.956	14307.15
691.303	14268.96
691.65	14132.92
691.997	14204.78
692.344	14107.38
692.69	14082.07
693.037	14040.04
693.383	13928.4
693.73	13958.23
694.077	13882.53
694.423	13800.5
694.769	13833.72
695.116	13791.23
695.462	13736.55
695.808	13656.32
696.155	13695.87
696.501	13647.51
696.847	13637.57
697.193	13417.23
697.539	13539.04
697.885	13315.99
698.231	13400.28
698.577	13387.18
698.923	13317.12
699.269	13225.6
699.614	13157.13
699.96	13134.08
700.306	13144.47
700.651	13027.41
700.997	12992.38
701.342	12914.65
701.688	12930.69
702.033	12853.18
702.379	12835.33
702.724	12779.51
703.069	12833.97
703.415	12707.87
703.76	12615.9
704.105	12554.43
704.45	12610.7
704.795	12515.79
705.14	12525.5
705.485	12455.68
705.83	12402.8
706.175	12393.98
706.52	12399.63
706.865	12374.32
707.209	12283.7
707.554	12249.81
707.899	12250.03
708.243	12203.25
708.588	12188.56
708.932	12064.73
709.277	12058.62
709.621	12017.04
709.966	11986.99
710.31	12022.24
710.654	11885.75
710.998	11934.79
711.342	11946.99
711.687	11845.97
712.031	11804.62
712.375	11733.43
712.719	11783.38
713.063	11683.49
713.407	11738.18
713.75	11663.15
714.094	11730.95
714.438	11662.25
714.782	11667.67
715.125	11619.09
715.469	11627.45
715.812	11583.61
716.156	11479.88
716.499	11471.07
716.843	11560.56
717.186	11369.6
717.53	11540.67
717.873	11519.65
718.216	11414.8
718.559	11428.36
718.902	11292.77
719.246	11344.07
719.589	11304.75
719.932	11263.84
720.275	11318.98
720.617	11265.88
720.96	11226.33
721.303	11225.65
721.646	11231.53
721.989	11164.18
722.331	11232.43
722.674	11097.97
723.016	11209.83
723.359	11194.92
723.701	11179.55
724.044	11115.82
724.386	11107.24
724.729	11134.81
725.071	11143.85
725.413	11115.15
725.755	11088.25
726.097	10962.83
726.439	10984.3
726.782	10979.56
727.124	11046.45
727.465	11055.26
727.807	11018.88
728.149	10965.77
728.491	10967.58
728.833	10938.43
729.175	10922.83
729.516	11001.25
729.858	10916.96
730.199	10942.95
730.541	10903.85
730.882	10843.74
731.224	10997.63
731.565	10968.48
731.906	10922.38
732.248	10922.38
732.589	10846.9
732.93	10857.98
733.271	10888.03
733.612	10866.11
733.953	10911.31
734.294	10809.16
734.635	10826.11
734.976	10839.67
735.317	10822.95
735.658	10812.78
735.999	10884.42
736.339	10869.5
736.68	10943.17
737.021	10914.02
737.361	10861.59
737.702	10908.15
738.042	10832.22
738.383	10879.45
738.723	10892.1
739.063	10807.13
739.404	10872.21
739.744	10898.2
740.084	10898.88
740.424	11014.81
740.764	10972.55
741.104	11013
741.444	10987.01
741.784	10965.55
742.124	10997.63
742.464	10996.28
742.804	10929.39
743.143	11008.03
743.483	11105.88
743.823	11038.99
744.162	11080.8
744.502	11126.9
744.841	11170.74
745.181	11226.78
745.52	11183.62
745.86	11228.14
746.199	11224.07
746.538	11282.37
746.877	11383.39
747.216	11452.76
747.556	11418.64
747.895	11530.5
748.234	11538.19
748.573	11604.17
748.911	11680.1
749.25	11681.01
749.589	11744.96
749.928	11844.17
750.267	11938.85
750.605	11959.64
750.944	12038.51
751.283	12118.96
751.621	12190.6
751.96	12231.05
752.298	12506.3
752.636	12543.58
752.975	12552.85
753.313	12655.22
753.651	12820.64
753.989	12923.01
754.327	12961.88
754.666	13086.85
755.004	13346.5
755.342	13312.15
755.679	13529.77
756.017	13577
756.355	13735.87
756.693	13875.98
757.031	14051.11
757.368	14133.15
757.706	14316.87
758.044	14383.99
758.381	14577.43
758.719	14718.67
759.056	14861.71
759.394	15134.25
759.731	15200.24
760.068	15336.73
760.405	15439.78
760.743	15511.87
761.08	15696.49
761.417	15960.89
761.754	16049.25
762.091	16220.77
762.428	16422.35
762.765	16482.91
763.102	16805.62
763.438	16825.05
763.775	17069.79
764.112	17232.27
764.449	17462.32
764.785	17517.46
765.122	17674.97
765.458	17784.35
765.795	18031.8
766.131	18127.62
766.467	18312.47
766.804	18305.24
767.14	18440.15
767.476	18536.19
767.812	18695.74
768.148	18817.54
768.485	18865.22
768.821	18977.31
769.157	19138.21
769.492	19165.78
769.828	19373.69
770.164	19272.67
770.5	19537.3
770.836	19664.3
771.171	19633.79
771.507	19836.05
771.842	19724.86
772.178	19856.61
772.513	20022.48
772.849	20045.98
773.184	20091.86
773.519	20235.81
773.855	20273.77
774.19	20227
774.525	20246.66
774.86	20415.47
775.195	20450.27
775.53	20406.88
775.865	20460.66
776.2	20415.92
776.535	20320.33
776.87	20538.4
777.205	20509.02
777.539	20505.18
777.874	20581.34
778.209	20557.84
778.543	20617.04
778.878	20395.58
779.212	20584.5
779.547	20533.43
779.881	20626.76
780.215	20605.97
780.55	20727.55
780.884	20546.99
781.218	20568.23
781.552	20618.85
781.886	20564.16
782.22	20533.66
782.554	20528.01
782.888	20462.24
783.222	20468.8
783.556	20394.68
783.889	20412.98
784.223	20358.52
784.557	20256.83
784.89	20339.54
785.224	20340.89
785.557	20393.77
785.891	20275.13
786.224	20314.23
786.558	20300.67
786.891	20222.93
787.224	20052.31
787.557	20045.08
787.891	20174.34
788.224	20144.96
788.557	20024.74
788.89	20065.42
789.223	20054.35
789.556	19935.25
789.888	19899.77
790.221	19972.31
790.554	19708.37
790.887	19739.33
791.219	19631.31
791.552	19666.56
791.884	19597.86
792.217	19546.11
792.549	19568.93
792.882	19471.76
793.214	19459.78
793.546	19471.31
793.879	19466.34
794.211	19227.02
794.543	19275.83
794.875	19281.71
795.207	19468.37
795.539	19183.41
795.871	19273.8
796.203	19124.65
796.535	18992.9
796.867	18990.42
797.198	18851.44
797.53	18941.38
797.862	18859.35
798.193	18860.7
798.525	18817.09
798.856	18787.71
799.188	18568.28
799.519	18550.88
799.85	18529.87
800.182	18556.53
800.513	18571.9
800.844	18405.58
801.175	18526.7
801.506	18428.63
801.837	18349.76
802.168	18299.14
802.499	18344.11
802.83	18116.54
803.161	18091.23
803.491	18108.41
803.822	18176.65
804.153	18192.25
804.483	17984.57
804.814	17880.84
805.145	17863.22
805.475	17897.79
805.805	17706.84
806.136	17766.72
806.466	17766.95
806.796	17732.15
807.126	17631.13
807.457	17541.87
807.787	17557.46
808.117	17452.38
808.447	17395.88
808.777	17481.31
809.107	17364.47
809.436	17352.72
809.766	17362.44
810.096	17315.89
810.426	17189.79
810.755	17271.37
811.085	17093.97
811.414	17180.97
811.744	17098.49
812.073	17038.15
812.403	16996.35
812.732	16968.78
813.061	16980.53
813.39	16777.82
813.719	16844.71
814.049	16872.51
814.378	16867.08
814.707	16794.77
815.036	16770.14
815.365	16634.55
815.693	16511.39
816.022	16568.56
816.351	16575.34
816.68	16438.4
817.008	16523.59
817.337	16298.74
817.665	16322.69
817.994	16400.88
818.322	16341.45
818.651	16231.85
818.979	16237.72
819.307	16354.33
819.636	16180.78
819.964	16168.35
820.292	16280.21
820.62	16194.79
820.948	16166.76
821.276	16198.63
821.604	16181.23
821.932	16225.52
822.259	16154.11
822.587	16078.18
822.915	16111.85
823.243	16181.91
823.57	16064.39
823.898	16162.7
824.225	16090.83
824.553	16145.3
824.88	16114.11
825.207	16166.31
825.535	16082.25
825.862	16171.51
826.189	16123.6
826.516	16213.32
826.843	16227.55
827.17	16207.44
827.497	16147.56
827.824	16139.87
828.151	16161.34
828.478	16180.32
828.805	16230.72
829.131	16111.4
829.458	16079.99
829.785	16157.5
830.111	16025.75
830.438	16139.65
830.764	16180.78
831.09	16136.03
831.417	16035.24
831.743	16170.15
832.069	16071.4
832.395	15974.45
832.722	16126.99
833.048	16017.84
833.374	16076.82
833.7	15857.85
834.026	15918.86
834.351	15962.93
834.677	15913.66
835.003	15986.66
835.329	15981.68
835.654	15957.96
835.98	15936.94
836.306	15917.28
836.631	15840.67
836.956	15932.42
837.282	15925.41
837.607	15874.57
837.932	15801.12
838.258	15755.7
838.583	15714.57
838.908	15600.9
839.233	15686.1
839.558	15714.35
839.883	15619.89
840.208	15654.69
840.533	15538.08
840.858	15596.38
841.182	15520.68
841.507	15474.13
841.832	15430.96
842.156	15438.42
842.481	15333.79
842.805	15297.41
843.13	15279.33
843.454	15350.51
843.778	15178.77
844.103	15261.7
844.427	15080.01
844.751	15196.62
845.075	15108.71
845.399	15060.35
845.723	14948.94
846.047	15018.55
846.371	14940.36
846.695	14890.41
847.019	14829.17
847.343	14757.54
847.666	14631.21
847.99	14536.3
848.313	14588.95
848.637	14539.69
848.96	14427.83
849.284	14406.13
849.607	14353.03
849.931	14303.31
850.254	14233.93
850.577	14155.74
850.9	14098.12
851.223	14071.68
851.546	13985.58
851.869	13929.08
852.192	14002.75
852.515	13761.86
852.838	13774.74
853.161	13739.71
853.483	13663.78
853.806	13566.61
854.129	13604.35
854.451	13555.76
854.774	13552.6
855.096	13437.12
855.419	13339.04
855.741	13366.39
856.063	13358.48
856.385	13349.21
856.708	13260.4
857.03	13198.71
857.352	13176.33
857.674	13184.24
857.996	13198.93
858.318	13055.66
858.64	13012.95
858.961	13019.95
859.283	12912.61
859.605	12894.31
859.926	12923.01
860.248	12844.59
860.57	12817.93
860.891	12799.62
861.212	12811.82
861.534	12629.91
861.855	12591.94
862.176	12689.12
862.498	12636.46
862.819	12618.61
863.14	12542.23
863.461	12570.47
863.782	12518.5
864.103	12480.99
864.424	12469.23
864.745	12554.66
865.065	12383.36
865.386	12414.32
865.707	12477.6
866.027	12375.9
866.348	12371.61
866.668	12369.35
866.989	12323.25
867.309	12222.46
867.63	12256.13
867.95	12250.71
868.27	12203.93
868.59	12190.15
868.91	12138.4
869.23	12244.61
869.55	12109.47
869.87	12253.42
870.19	12154.89
870.51	12100.2
870.83	12125.74
871.15	12056.59
871.469	12022.92
871.789	12089.81
872.109	12008.46
872.428	11862.7
872.748	11883.49
873.067	11972.07
873.386	11912.41
873.706	11781.79
874.025	11839.19
874.344	11778.86
874.663	11845.52
874.982	11710.38
875.301	11761.68
875.62	11719.2
875.939	11712.64
876.258	11712.42
876.577	11775.47
876.896	11720.78
877.214	11685.53
877.533	11626.32
877.852	11608.69
878.17	11589.71
878.489	11573.21
878.807	11613.66
879.125	11530.05
879.444	11570.73
879.762	11490.28
880.08	11421.13
880.398	11468.81
880.716	11448.02
881.034	11424.06
881.352	11402.6
881.67	11410.51
881.988	11398.75
882.306	11387.45
882.624	11295.93
882.941	11196.27
883.259	11223.39
883.577	11188.82
883.894	11185.88
884.212	11176.61
884.529	11136.61
884.846	11136.61
885.164	11093.23
885.481	11105.65
885.798	11053.45
886.115	10965.77
886.432	11013.91
886.75	10978.88
887.067	10968.93
887.383	11004.87
887.7	10916.28
888.017	10833.57
888.334	10857.53
888.651	10799
888.967	10804.42
889.284	10737.75
889.6	10735.49
889.917	10627.25
890.233	10709.51
890.55	10637.64
890.866	10619.57
891.182	10581.37
891.498	10532.11
891.815	10512
892.131	10484.65
892.447	10425.9
892.763	10422.51
893.079	10397.65
893.395	10347.03
893.71	10309.97
894.026	10339.35
894.342	10251.67
894.657	10188.62
894.973	10236.52
895.289	10142.29
895.604	10183.19
895.92	10084.66
896.235	10055.96
896.55	10071.11
896.865	10003.54
897.181	9929.19
897.496	9987.49
897.811	9964.22
898.126	9821.62
898.441	9805.8
898.756	9800.6
899.071	9710.66
899.386	9741.85
899.7	9651.46
900.015	9621.85
900.33	9595.19
900.644	9528.07
900.959	9561.51
901.273	9537.56
901.588	9486.71
901.902	9451.46
902.216	9390.67
902.531	9371.24
902.845	9382.54
903.159	9312.03
903.473	9272.26
903.787	9212.82
904.101	9174.41
904.415	9086.5
904.729	9122.66
905.042	9081.98
905.356	8995.65
905.67	8979.83
905.984	8996.78
906.297	8921.3
906.611	8927.86
906.924	8903.68
907.237	8914.53
907.551	8838.82
907.864	8801.53
908.177	8739.61
908.491	8748.65
908.804	8750.46
909.117	8616
909.43	8552.5
909.743	8571.03
910.056	8553.18
910.368	8493.52
910.681	8405.61
910.994	8488.32
911.307	8421.21
911.619	8341.43
911.932	8355.44
912.244	8287.42
912.557	8225.05
912.869	8200.42
913.181	8176.47
913.494	8175.34
913.806	8166.3
914.118	8109.35
914.43	8056.92
914.742	8034.32
915.054	7981.89
915.366	8000.2
915.678	7956.58
915.99	7824.38
916.302	7872.52
916.613	7797.94
916.925	7726.99
917.236	7803.59
917.548	7689.47
917.859	7683.82
918.171	7629.36
918.482	7646.54
918.794	7616.25
919.105	7558.4
919.416	7507.56
919.727	7558.4
920.038	7484.51
920.349	7458.97
920.66	7372.42
920.971	7443.38
921.282	7373.1
921.593	7277.73
921.903	7259.2
922.214	7282.03
922.525	7216.27
922.835	7163.16
923.146	7128.81
923.456	7143.5
923.767	7112.99
924.077	7105.31
924.387	7035.93
924.697	7051.52
925.008	7021.69
925.318	6942.37
925.628	6960.23
925.938	6898.99
926.248	6816.5
926.558	6846.11
926.867	6836.84
927.177	6838.2
927.487	6769.05
927.796	6748.48
928.106	6685.21
928.416	6670.97
928.725	6635.72
929.034	6603.63
929.344	6629.61
929.653	6587.36
929.962	6540.58
930.271	6512.55
930.581	6473.23
930.89	6501.26
931.199	6391.88
931.508	6374.25
931.817	6374.25
932.125	6368.38
932.434	6367.47
932.743	6262.39
933.051	6306.23
933.36	6256.06
933.669	6219
933.977	6141.04
934.286	6187.37
934.594	6211.77
934.902	6125.45
935.21	6122.96
935.519	6073.47
935.827	6076.63
936.135	6068.95
936.443	6016.75
936.751	5957.77
937.059	5958.45
937.367	5942.4
937.674	5896.53
937.982	5872.12
938.29	5865.34
938.597	5856.75
938.905	5758.22
939.213	5744.21
939.52	5729.52
939.827	5750.31
940.135	5655.4
940.442	5624.89
940.749	5666.25
941.056	5623.09
941.363	5534.5
941.67	5578.12
941.977	5534.73
942.284	5463.09
942.591	5496.08
942.898	5467.38
943.205	5498.12
943.511	5486.59
943.818	5371.12
944.125	5353.49
944.431	5334.51
944.738	5346.03
945.044	5311.46
945.35	5306.71
945.657	5262.42
945.963	5251.57
946.269	5242.31
946.575	5187.62
946.881	5138.81
947.187	5111.69
947.493	5114.17
947.799	5137
948.105	5085.7
948.41	5020.16
948.716	5081.86
949.022	5031.01
949.327	4996.89
949.633	4959.6
949.938	4949.43
950.244	4955.99
950.549	4880.51
950.854	4851.13
951.16	4850.45
951.465	4827.4
951.77	4830.79
952.075	4806.16
952.38	4784.69
952.685	4758.25
952.99	4734.3
953.294	4779.49
953.599	4701.3
953.904	4651.81
954.209	4661.08
954.513	4635.09
954.818	4602.32
955.122	4643.68
955.426	4541.53
955.731	4543.34
956.035	4525.94
956.339	4488.43
956.643	4508.77
956.948	4515.55
957.252	4463.34
957.556	4455.89
957.86	4406.62
958.163	4393.97
958.467	4404.14
958.771	4345.38
959.075	4349.22
959.378	4277.81
959.682	4359.84
959.985	4275.55
960.289	4280.75
960.592	4268.32
960.896	4254.99
961.199	4240.75
961.502	4207.76
961.805	4165.72
962.108	4171.83
962.411	4103.35
962.714	4157.14
963.017	4133.18
963.32	4105.61
963.623	4088.66
963.926	4064.94
964.228	4038.5
964.531	3996.91
964.833	3967.31
965.136	3999.85
965.438	3989.01
965.741	3938.61
966.043	3942
966.345	3955.79
966.648	3902.45
966.95	3915.33
967.252	3854.32
967.554	3848.9
967.856	3849.35
968.158	3788.56
968.46	3819.97
968.761	3800.08
969.063	3774.55
969.365	3749.69
969.666	3736.36
969.968	3736.13
970.269	3695.23
970.571	3685.06
970.872	3664.04
971.174	3669.24
971.475	3656.13
971.776	3638.73
972.077	3590.37
972.378	3609.35
972.679	3612.74
972.98	3588.56
973.281	3553.08
973.582	3516.48
973.883	3514.89
974.183	3548.34
974.484	3523.25
974.785	3485.06
975.085	3483.93
975.386	3462.69
975.686	3429.25
975.986	3412.3
976.287	3365.07
976.587	3397.16
976.887	3396.93
977.187	3321
977.487	3347.21
977.787	3281.68
978.087	3283.71
978.387	3305.41
978.687	3290.72
978.987	3288.01
979.286	3261.79
979.586	3184.28
979.885	3209.36
980.185	3244.39
980.484	3184.28
980.784	3148.35
981.083	3166.2
981.382	3169.82
981.682	3106.77
981.981	3115.13
982.28	3112.64
982.579	3034.45
982.878	3088.92
983.177	3033.32
983.475	3057.28
983.774	3024.96
984.073	3011.86
984.372	2975.92
984.67	2981.12
984.969	2967.11
985.267	2973.21
985.566	2935.93
985.864	2939.54
986.162	2973.44
986.461	2917.17
986.759	2908.36
987.057	2863.84
987.355	2850.73
987.653	2852.09
987.951	2825.42
988.249	2846.66
988.547	2843.5
988.844	2821.13
989.142	2797.85
989.44	2772.99
989.737	2774.57
990.035	2759.21
990.332	2710.85
990.63	2718.53
990.927	2759.43
991.224	2708.81
991.521	2673.11
991.819	2671.3
992.116	2647.35
992.413	2623.84
992.71	2625.43
993.006	2624.52
993.303	2608.02
993.6	2594.24
993.897	2581.81
994.193	2583.39
994.49	2558.76
994.787	2521.25
995.083	2552.43
995.379	2520.12
995.676	2537.97
995.972	2486.45
996.268	2499.55
996.565	2474.92
996.861	2474.02
997.157	2465.66
997.453	2441.02
997.749	2427.46
998.044	2422.04
998.34	2384.75
998.636	2393.79
998.932	2394.24
999.227	2389.95
999.523	2360.57
999.818	2321.03
1000.114	2360.8
1000.409	2364.19
1000.704	2300.91
1001	2307.24
1001.295	2294.81
1001.59	2280.58
1001.885	2304.53
1002.18	2241.48
1002.475	2237.41
1002.77	2205.55
1003.065	2210.97
1003.359	2234.93
1003.654	2178.21
1003.949	2191.31
1004.243	2167.36
1004.538	2125.1
1004.832	2149.05
1005.127	2117.42
1005.421	2120.13
1005.715	2076.29
1006.009	2106.57
1006.304	2100.02
1006.598	2066.8
1006.892	2040.81
1007.186	2045.1
1007.48	2048.72
1007.773	2012.11
1008.067	2004.65
1008.361	1971.66
1008.655	1992.45
1008.948	1973.69
1009.242	1979.79
1009.535	1961.94
1009.829	1949.74
1010.122	1917.2
1010.415	1910.42
1010.708	1922.62
1011.001	1932.56
1011.295	1905.44
1011.588	1878.33
1011.881	1863.64
1012.173	1859.12
1012.466	1803.98
1012.759	1826.8
1013.052	1832.9
1013.344	1824.99
1013.637	1803.3
1013.93	1763.3
1014.222	1772.57
1014.514	1780.25
1014.807	1766.24
1015.099	1752.23
1015.391	1752.68
1015.683	1730.31
1015.976	1734.15
1016.268	1705.45
1016.56	1697.99
1016.851	1676.98
1017.143	1653.93
1017.435	1652.12
1017.727	1646.24
1018.018	1636.3
1018.31	1631.55
1018.602	1622.97
1018.893	1634.72
1019.185	1599.46
1019.476	1584.32
1019.767	1566.47
1020.058	1564.44
1020.35	1556.75
1020.641	1532.35
1020.932	1526.02
1021.223	1512.23
1021.514	1530.99
1021.804	1511.56
1022.095	1505.91
1022.386	1486.25
1022.677	1452.12
1022.967	1455.74
1023.258	1450.77
1023.548	1441.05
1023.839	1442.63
1024.129	1451.44
1024.419	1434.27
1024.709	1419.58
1025	1405.12
1025.29	1384.78
1025.58	1351.56
1025.87	1380.26
1026.16	1380.03
1026.449	1364.89
1026.739	1345.23
1027.029	1332.35
1027.319	1318.57
1027.608	1311.11
1027.898	1334.39
1028.187	1322.63
1028.477	1303.2
1028.766	1280.15
1029.055	1303.88
1029.344	1281.51
1029.634	1255.97
1029.923	1223.43
1030.212	1252.13
1030.501	1243.77
1030.79	1226.82
1031.078	1241.28
1031.367	1208.97
1031.656	1201.28
1031.945	1178.23
1032.233	1172.58
1032.522	1158.35
1032.81	1161.96
1033.099	1145.24
1033.387	1141.62
1033.675	1155.18
1033.963	1145.24
1034.251	1151.57
1034.54	1107.95
1034.828	1117.22
1035.116	1127.84
1035.403	1095.97
1035.691	1095.75
1035.979	1093.71
1036.267	1075.86
1036.554	1097.56
1036.842	1049.65
1037.129	1074.28
1037.417	1043.77
1037.704	1060.49
1037.992	1060.27
1038.279	1026.82
1038.566	1003.32
1038.853	1003.32
1039.14	1003.32
