Data from hue_34_FLMS001491_00090.txt Node
Date: Tue Feb 07 17:26:20 GMT 2017
User: dcchb
Spectrometer: FLMS00149
Trigger mode: 0
Integration Time (sec): 2.000000E-2
Scans to average: 10
Electric dark correction enabled: true
Nonlinearity correction enabled: false
Boxcar width: 0
XAxis mode: Wavelengths
Number of Pixels in Spectrum: 2048
>>>>>Begin Spectral Data<<<<<
341.393	-12.12
341.776	-12.12
342.16	-12.12
342.543	-77.43
342.927	-80.14
343.31	-67.26
343.693	-64.77
344.077	-51.67
344.46	-50.08
344.843	-49.41
345.226	-40.37
345.61	-24.32
345.993	-40.59
346.376	-4.66
346.759	-9.18
347.142	27.88
347.525	36.02
347.908	44.83
348.291	76.69
348.674	107.43
349.057	109.46
349.44	111.72
349.823	135
350.206	176.8
350.588	200.08
350.971	208.89
351.354	229.91
351.737	244.37
352.119	264.71
352.502	258.84
352.884	288.21
353.267	289.57
353.65	293.18
354.032	287.76
354.414	283.47
354.797	312.17
355.179	323.24
355.562	323.69
355.944	308.1
356.326	312.84
356.709	325.73
357.091	342.9
357.473	327.53
357.855	325.95
358.238	327.99
358.62	346.52
359.002	332.28
359.384	339.51
359.766	345.39
360.148	336.57
360.53	352.17
360.912	350.58
361.294	337.03
361.676	360.08
362.057	334.31
362.439	327.53
362.821	365.72
363.203	326.18
363.584	332.28
363.966	303.58
364.348	332.51
364.729	332.96
365.111	337.7
365.493	334.77
365.874	315.1
366.256	308.78
366.637	320.75
367.019	314.43
367.4	311.71
367.781	318.72
368.163	297.93
368.544	331.83
368.925	302.22
369.306	321.43
369.688	317.59
370.069	299.74
370.45	318.95
370.831	310.81
371.212	299.29
371.593	317.14
371.974	309.68
372.355	339.06
372.736	329.79
373.117	334.09
373.498	310.13
373.879	314.43
374.26	315.1
374.641	320.3
375.021	315.78
375.402	319.62
375.783	309.68
376.163	317.82
376.544	327.31
376.925	330.02
377.305	344.03
377.686	339.28
378.066	319.62
378.447	321.88
378.827	328.66
379.208	328.44
379.588	324.37
379.968	318.49
380.349	323.24
380.729	344.71
381.109	323.92
381.489	337.48
381.87	346.06
382.25	326.18
382.63	349.68
383.01	330.02
383.39	332.51
383.77	340.19
384.15	337.25
384.53	350.36
384.91	351.04
385.29	336.57
385.67	342
386.049	347.19
386.429	355.1
386.809	362.34
387.189	347.19
387.568	367.08
387.948	341.77
388.328	357.14
388.707	367.98
389.087	354.2
389.466	357.36
389.846	354.88
390.225	379.51
390.605	353.75
390.984	365.5
391.363	362.11
391.743	365.5
392.122	367.31
392.501	353.3
392.881	367.08
393.26	364.14
393.639	372.05
394.018	386.52
394.397	373.86
394.776	379.06
395.155	400.3
395.534	374.99
395.913	400.98
396.292	414.54
396.671	379.06
397.05	384.03
397.429	375.67
397.808	390.58
398.186	387.19
398.565	394.42
398.944	384.93
399.323	386.06
399.701	396.46
400.08	394.88
400.458	392.62
400.837	411.83
401.215	415.89
401.594	408.44
401.972	396.01
402.351	400.3
402.729	387.87
403.107	396.01
403.486	390.13
403.864	387.87
404.242	399.62
404.62	416.8
404.999	420.19
405.377	428.55
405.755	421.09
406.133	422.67
406.511	425.61
406.889	425.84
407.267	422.22
407.645	435.78
408.023	420.41
408.401	427.42
408.779	427.19
409.156	436.91
409.534	417.25
409.912	433.29
410.29	462.67
410.667	437.59
411.045	447.08
411.422	475.78
411.8	421.77
412.178	466.74
412.555	472.61
412.933	449.11
413.31	480.98
413.687	473.07
414.065	457.93
414.442	471.48
414.819	482.33
415.197	480.07
415.574	487.53
415.951	494.54
416.328	513.74
416.705	486.4
417.082	485.72
417.46	514.42
417.837	518.94
418.214	503.57
418.591	491.15
418.967	494.76
419.344	500.86
419.721	514.2
420.098	501.99
420.475	507.64
420.852	504.7
421.228	541.09
421.605	523.91
421.982	535.44
422.358	542.44
422.735	534.08
423.111	513.52
423.488	544.03
423.864	551.93
424.241	560.3
424.617	561.43
424.994	535.66
425.37	545.16
425.746	551.03
426.123	540.41
426.499	582.22
426.875	584.93
427.251	573.63
427.627	578.83
428.003	568.43
428.379	609.56
428.756	578.83
429.132	576.57
429.507	610.24
429.883	639.84
430.259	607.75
430.635	601.42
431.011	613.85
431.387	599.84
431.763	636.9
432.138	633.29
432.514	632.38
432.89	639.62
433.265	646.17
433.641	667.64
434.016	662.89
434.392	652.72
434.767	666.51
435.143	676.45
435.518	670.35
435.894	689.78
436.269	692.04
436.644	694.3
437.02	696.34
437.395	719.39
437.77	694.76
438.145	707.64
438.52	728.88
438.895	734.98
439.271	733.62
439.646	695.66
440.021	743.12
440.395	736.11
440.77	724.81
441.145	751.03
441.52	743.57
441.895	764.58
442.27	761.65
442.645	777.01
443.019	754.42
443.394	756
443.769	792.61
444.143	761.65
444.518	775.66
444.892	794.41
445.267	794.19
445.641	785.6
446.016	771.36
446.39	807.97
446.764	836.9
447.139	814.75
447.513	806.84
447.887	822.66
448.262	820.63
448.636	815.43
449.01	821.76
449.384	847.97
449.758	828.99
450.132	861.76
450.506	828.09
450.88	859.5
451.254	881.87
451.628	869.21
452.002	879.61
452.376	876.67
452.75	889.1
453.123	889.33
453.497	891.13
453.871	918.7
454.244	921.42
454.618	915.31
454.992	932.04
455.365	946.73
455.739	949.21
456.112	954.18
456.486	962.55
456.859	985.14
457.232	975.65
457.606	1011.58
457.979	1013.62
458.352	1003
458.725	1042.09
459.099	1033.73
459.472	1030.57
459.845	1062.43
460.218	1077.57
460.591	1088.87
460.964	1070.57
461.337	1089.32
461.71	1092.71
462.083	1120.06
462.456	1120.73
462.829	1162.54
463.201	1167.96
463.574	1164.12
463.947	1185.36
464.32	1204.8
464.692	1194.4
465.065	1220.84
465.438	1239.83
465.81	1263.78
466.183	1286.6
466.555	1282.76
466.928	1315.3
467.3	1307.62
467.672	1329.54
468.045	1342.2
468.417	1363.44
468.789	1362.53
469.161	1393.72
469.534	1459.26
469.906	1427.84
470.278	1482.08
470.65	1454.51
471.022	1491.12
471.394	1544.68
471.766	1551.91
472.138	1549.87
472.51	1614.96
472.882	1665.35
473.253	1670.55
473.625	1676.42
473.997	1709.87
474.369	1722.07
474.74	1806.82
475.112	1775.18
475.484	1863.09
475.855	1867.15
476.227	1883.43
476.598	1980.6
476.97	1993.03
477.341	2018.79
477.713	2081.61
478.084	2106.24
478.455	2199.8
478.827	2179.01
479.198	2290.42
479.569	2253.13
479.94	2357.54
480.311	2416.52
480.682	2493.58
481.053	2552.11
481.424	2597.3
481.795	2640.24
482.166	2714.59
482.537	2768.6
482.908	2868.71
483.279	2867.35
483.65	2990.97
484.021	3046.33
484.391	3115.94
484.762	3149.15
485.133	3235.71
485.503	3332.43
485.874	3417.4
486.244	3487.45
486.615	3550.73
486.985	3635.7
487.356	3670.95
487.726	3762.47
488.097	3884.5
488.467	3969.47
488.837	4013.31
489.207	4131.5
489.578	4237.04
489.948	4235.91
490.318	4377.82
490.688	4402.45
491.058	4537.82
491.428	4616.69
491.798	4676.35
492.168	4835.89
492.538	4847.19
492.908	4942.55
493.278	5056.9
493.648	5093.51
494.017	5179.61
494.387	5290.57
494.757	5405.37
495.126	5465.48
495.496	5525.59
495.866	5549.32
496.235	5695.3
496.605	5726.94
496.974	5771.91
497.344	5892.36
497.713	5931
498.082	6046.48
498.452	6119.02
498.821	6233.37
499.19	6208.06
499.559	6372.35
499.928	6415.96
500.298	6373.25
500.667	6505.9
501.036	6518.11
501.405	6666.8
501.774	6699.8
502.143	6765.1
502.512	6828.61
502.88	6914.93
503.249	6928.72
503.618	7025.21
503.987	7066.11
504.356	7131.65
504.724	7195.38
505.093	7172.78
505.462	7289.61
505.83	7330.97
506.199	7381.13
506.567	7537.06
506.936	7520.11
507.304	7608.92
507.672	7641.01
508.041	7725.76
508.409	7793.78
508.777	7837.17
509.145	7876.71
509.514	7924.85
509.882	8023.6
510.25	8087.1
510.618	8151.06
510.986	8186.76
511.354	8241
511.722	8339.53
512.09	8377.27
512.458	8350.83
512.826	8502.91
513.193	8460.2
513.561	8530.48
513.929	8663.13
514.297	8682.57
514.664	8684.15
515.032	8755.56
515.4	8819.97
515.767	8855.22
516.135	8947.42
516.502	8865.61
516.869	9048.66
517.237	9054.08
517.604	9032.84
517.972	9099.51
518.339	9179.5
518.706	9214.76
519.073	9264.7
519.44	9346.73
519.808	9446.84
520.175	9390.12
520.542	9506.05
520.909	9586.27
521.276	9538.82
521.643	9725.03
522.009	9676.21
522.376	9742.88
522.743	9804.35
523.11	9898.13
523.477	9937.68
523.843	10025.13
524.21	10144.9
524.577	10156.88
524.943	10196.65
525.31	10216.09
525.676	10357.55
526.043	10460.83
526.409	10432.35
526.776	10610.43
527.142	10530.43
527.508	10677.54
527.874	10786.24
528.241	10750.08
528.607	10822.4
528.973	10921.83
529.339	10875.96
529.705	10994.15
530.071	11115.05
530.437	11196.17
530.803	11229.17
531.169	11228.04
531.535	11199.56
531.901	11293.8
532.267	11354.59
532.632	11385.77
532.998	11392.33
533.364	11517.97
533.73	11567.46
534.095	11727.69
534.461	11719.55
534.826	11747.57
535.192	11835.48
535.557	11935.14
535.923	11846.78
536.288	11953.44
536.653	11964.97
537.019	11965.19
537.384	12091.07
537.749	12147.34
538.114	12244.73
538.479	12278.63
538.845	12309.59
539.21	12232.31
539.575	12340.55
539.94	12390.49
540.305	12461.9
540.67	12448.35
541.034	12468.68
541.399	12650.6
541.764	12582.13
542.129	12670.71
542.494	12629.58
542.858	12746.42
543.223	12808.34
543.587	12899.41
543.952	12950.25
544.316	12915.23
544.681	12936.47
545.045	13065.73
545.41	13090.36
545.774	13170.81
546.138	13218.72
546.503	13219.4
546.867	13180.98
547.231	13351.6
547.595	13276.8
547.959	13411.48
548.324	13441.31
548.688	13532.84
549.052	13587.75
549.416	13576.22
549.779	13658.26
550.143	13688.54
550.507	13750.23
550.871	13800.4
551.235	13799.95
551.599	13883.79
551.962	13920.85
552.326	13953.16
552.689	14083.56
553.053	14020.51
553.417	14017.34
553.78	14208.07
554.143	14195.87
554.507	14249.65
554.87	14345.92
555.234	14437.9
555.597	14322.19
555.96	14459.14
556.323	14450.78
556.686	14525.8
557.05	14596.09
557.413	14566.93
557.776	14633.82
558.139	14682.86
558.502	14770.54
558.865	14828.62
559.228	14928.05
559.59	14929.86
559.953	14982.29
560.316	15125.34
560.679	15170.53
561.041	15236.75
561.404	15189.97
561.767	15309.06
562.129	15303.86
562.492	15506.34
562.854	15420.02
563.217	15446.01
563.579	15490.3
563.941	15604.65
564.304	15633.12
564.666	15677.86
565.028	15786.56
565.39	15828.14
565.753	15927.12
566.115	15847.13
566.477	15951.76
566.839	16064.07
567.201	16121.24
567.563	16109.94
567.925	16258.41
568.287	16208.02
568.648	16344.51
569.01	16387.68
569.372	16493.89
569.734	16522.14
570.095	16592.64
570.457	16573.89
570.819	16722.81
571.18	16748.12
571.542	16880.54
571.903	16909.92
572.265	17001.9
572.626	17079.64
572.987	17168.9
573.349	17266.98
573.71	17276.01
574.071	17386.97
574.432	17421.1
574.794	17676.23
575.155	17646.17
575.516	17565.5
575.877	17750.8
576.238	17921.65
576.599	18066.73
576.96	18148.99
577.32	18199.38
577.681	18429.66
578.042	18450.22
578.403	18569.77
578.763	18684.57
579.124	18899.25
579.485	18982.64
579.845	19263.08
580.206	19273.25
580.566	19389.86
580.927	19467.37
581.287	19668.27
581.648	19906.45
582.008	20120.69
582.368	20110.52
582.728	20402.71
583.089	20501.69
583.449	20709.6
583.809	20879.31
584.169	21169.7
584.529	21212.41
584.889	21526.98
585.249	21651.49
585.609	21827.08
585.969	22142.78
586.329	22312.27
586.688	22533.96
587.048	22719.49
587.408	22893.04
587.768	23043.32
588.127	23392.01
588.487	23560.82
588.846	23912.45
589.206	23949.06
589.565	24140.24
589.925	24555.37
590.284	24805.31
590.643	25024.29
591.003	25240.78
591.362	25509.47
591.721	25802.34
592.08	26012.28
592.44	26311.71
592.799	26534.3
593.158	26736.78
593.517	27052.25
593.876	27231.01
594.235	27435.07
594.593	27857.21
594.952	28083.64
595.311	28157.76
595.67	28508.04
596.029	28818.54
596.387	29115.7
596.746	29426.43
597.104	29510.72
597.463	29595.46
597.822	30030.03
598.18	30079.75
598.538	30228.67
598.897	30758.6
599.255	30780.97
599.613	31345.25
599.972	31400.16
600.33	31686.26
600.688	31777.33
601.046	32019.36
601.404	32362.62
601.762	32453.02
602.12	32646.68
602.478	32823.85
602.836	33220
603.194	33365.31
603.552	33411.86
603.91	33446.21
604.268	33728.01
604.625	33984.05
604.983	34316.47
605.341	34285.74
605.698	34546.52
606.056	34820.19
606.413	34873.07
606.771	35203.45
607.128	35417.01
607.485	35375.88
607.843	35407.06
608.2	35837.56
608.557	36100.15
608.914	36067.61
609.272	36302.41
609.629	36619.46
609.986	36728.84
610.343	36734.94
610.7	37217.41
611.057	37226.45
611.414	37250.86
611.771	37483.84
612.127	37621.69
612.484	37719.54
612.841	37858.98
613.198	37875.93
613.554	38141.91
613.911	38345.29
614.267	38432.97
614.624	38436.59
614.98	38654.89
615.337	38872.73
615.693	38810.36
616.05	39030.47
616.406	39289.45
616.762	39217.58
617.118	39380.29
617.475	39334.87
617.831	39663.9
618.187	39806.27
618.543	39900.73
618.899	40039.94
619.255	40192.93
619.611	40155.41
619.967	40281.96
620.323	40442.64
620.678	40434.05
621.034	40334.39
621.39	40478.12
621.746	40538.91
622.101	41006.01
622.457	40521.28
622.812	40871.1
623.168	40886.02
623.523	41058.21
623.879	41249.4
624.234	41081.26
624.589	41137.76
624.945	41263.86
625.3	41365.78
625.655	41426.34
626.01	41344.08
626.365	41416.62
626.72	41419.79
627.075	41478.32
627.43	41407.81
627.785	41473.34
628.14	41566.45
628.495	41573.23
628.85	41744.75
629.205	41583.62
629.559	41909.72
629.914	41797.63
630.269	41685.77
630.623	41655.26
630.978	41589.05
631.332	41852.32
631.687	41861.36
632.041	41791.3
632.396	41987.46
632.75	41720.34
633.104	41740.46
633.459	41601.25
633.813	41697.52
634.167	41646.9
634.521	41679.89
634.875	41817.06
635.229	41725.99
635.583	41679.44
635.937	41604.19
636.291	41631.31
636.645	41740
636.999	41708.14
637.352	41830.85
637.706	41454.59
638.06	41578.43
638.413	41549.5
638.767	41486.9
639.121	41607.13
639.474	41414.36
639.828	41423.18
640.181	41494.36
640.534	41406.23
640.888	41509.5
641.241	41227.02
641.594	41417.75
641.947	41653
642.301	41468.6
642.654	41480.12
643.007	41420.69
643.36	41399.45
643.713	41347.92
644.066	41502.72
644.419	41309.96
644.771	41061.38
645.124	40562.63
645.477	40505.69
645.83	40342.75
646.182	40187.95
646.535	40013.95
646.888	40164.9
647.24	40014.63
647.593	40316.54
647.945	40104.34
648.298	40023.21
648.65	39789.55
649.002	39849.88
649.355	40048.3
649.707	39892.82
650.059	40015.76
650.411	40587.27
650.763	40597.21
651.115	40943.41
651.467	40938.22
651.819	40927.37
652.171	40712.46
652.523	40835.85
652.875	40685.34
653.227	40513.82
653.578	40726.47
653.93	40776.64
654.282	40615.29
654.633	40556.31
654.985	40709.52
655.337	40570.32
655.688	40593.59
656.039	40776.19
656.391	40425.01
656.742	40511.79
657.094	40424.33
657.445	40650.32
657.796	40533.93
658.147	40471.79
658.498	40488.51
658.849	40581.62
659.2	40513.37
659.551	40379.14
659.902	40530.32
660.253	40430.66
660.604	40450.55
660.955	40252.59
661.306	40473.82
661.656	40412.36
662.007	40395.86
662.358	40368.74
662.708	40367.38
663.059	40451.45
663.409	40185.24
663.76	40552.24
664.11	40338.01
664.461	40397.89
664.811	40369.64
665.161	40314.5
665.511	40055.75
665.862	40248.74
666.212	40426.37
666.562	40447.83
666.912	40205.81
667.262	40093.27
667.612	40130.55
667.962	40227.5
668.312	40193.6
668.662	40406.25
669.011	40319.48
669.361	40193.83
669.711	40128.97
670.06	40053.27
670.41	40092.14
670.76	40031.35
671.109	40256.88
671.459	40103.21
671.808	40062.08
672.157	40150.89
672.507	39810.34
672.856	40087.39
673.205	40036.77
673.554	40075.87
673.904	40056.43
674.253	40161.74
674.602	39977.11
674.951	39347.98
675.3	39208.32
675.649	39765.14
675.998	39816.21
676.346	39857.34
676.695	40002.65
677.044	39557.91
677.393	39698.93
677.741	39788.64
678.09	39838.36
678.438	39714.07
678.787	39853.5
679.135	39748.19
679.484	39558.59
679.832	39736.44
680.181	39428.88
680.529	39525.6
680.877	39425.94
681.225	39473.85
681.573	39588.2
681.922	39275.44
682.27	39228.43
682.618	39219.39
682.966	39162.44
683.314	39387.3
683.661	39025.73
684.009	38957.48
684.357	38830.7
684.705	38897.14
685.053	38929.68
685.4	38727.65
685.748	38567.66
686.095	38664.38
686.443	38492.18
686.79	38375.12
687.138	38481.11
687.485	38441.33
687.832	38297.38
688.18	38330.15
688.527	38176.03
688.874	38250.83
689.221	38171.74
689.568	38043.6
689.915	37921.57
690.262	37993.44
690.609	37758.41
690.956	37571.53
691.303	37584.63
691.65	37505.99
691.997	37501.47
692.344	37197.75
692.69	37293.12
693.037	37208.82
693.383	36999.11
693.73	37013.12
694.077	36827.37
694.423	36846.8
694.769	36679.35
695.116	36591.21
695.462	36719.35
695.808	36580.59
696.155	36621.72
696.501	36230.77
696.847	36395.06
697.193	36067.16
697.539	36311.45
697.885	36080.04
698.231	35790.1
698.577	35801.63
698.923	35718.47
699.269	35688.64
699.614	35458.36
699.96	35415.42
700.306	35541.52
700.651	35305.37
700.997	35249.78
701.342	35166.17
701.688	34978.37
702.033	35014.53
702.379	34876.91
702.724	34878.26
703.069	34821.54
703.415	34473.75
703.76	34586.75
704.105	34515.56
704.45	34482.34
704.795	34255.23
705.14	34152.41
705.485	34106.53
705.83	33955.58
706.175	33983.15
706.52	33864.73
706.865	33926.42
707.209	33859.99
707.554	33712.64
707.899	33769.14
708.243	33497.51
708.588	33374.57
708.932	33262.04
709.277	33331.64
709.621	33329.83
709.966	33141.13
710.31	33132.77
710.654	32844.64
710.998	32984.3
711.342	32868.15
711.687	32864.08
712.031	32828.37
712.375	32635.16
712.719	32668.6
713.063	32647.36
713.407	32654.82
713.75	32535.27
714.094	32469.97
714.438	32319.23
714.782	32312.91
715.125	32197.66
715.469	32309.07
715.812	32088.96
716.156	31981.39
716.499	31823.2
716.843	31953.37
717.186	31693.49
717.53	31893.03
717.873	31785.24
718.216	31872.24
718.559	31609.88
718.902	31320.39
719.246	31444
719.589	31301.18
719.932	31246.27
720.275	31368.75
720.617	31213.28
720.96	31135.09
721.303	31074.3
721.646	31112.49
721.989	30995.43
722.331	30920.18
722.674	31092.15
723.016	30973.28
723.359	31035.2
723.701	30946.16
724.044	30709.11
724.386	30630.47
724.729	30921.08
725.071	30635.21
725.413	30619.17
725.755	30565.61
726.097	30466.63
726.439	30345.5
726.782	30345.5
727.124	30424.37
727.465	30196.58
727.807	30262.79
728.149	30185.05
728.491	30128.33
728.833	30200.42
729.175	30005.85
729.516	30121.55
729.858	29884.72
730.199	30091.72
730.541	29947.09
730.882	29801.79
731.224	29978.73
731.565	29813.54
731.906	29656.25
732.248	29834.33
732.589	29553.21
732.93	29666.88
733.271	29527.9
733.612	29535.81
733.953	29520.66
734.294	29466.65
734.635	29290.16
734.976	29469.59
735.317	29329.71
735.658	29287.45
735.999	29251.52
736.339	29278.64
736.68	29193.89
737.021	29117.74
737.361	28976.95
737.702	29127.23
738.042	29096.49
738.383	29008.59
738.723	29004.75
739.063	28878.87
739.404	28979.44
739.744	28861.7
740.084	28699.67
740.424	28812.43
740.764	28646.79
741.104	28847.24
741.444	28671.42
741.784	28584.64
742.124	28635.26
742.464	28604.76
742.804	28582.61
743.143	28418.55
743.483	28523.18
743.823	28277.99
744.162	28239.57
744.502	28369.73
744.841	28219.46
745.181	28294.03
745.52	28185.78
745.86	28187.59
746.199	28168.16
746.538	28203.18
746.877	28169.74
747.216	28125.9
747.556	28036.41
747.895	28104.2
748.234	27942.85
748.573	27895.85
748.911	27807.49
749.25	27797.32
749.589	27747.38
749.928	27655.85
750.267	27731.33
750.605	27695.63
750.944	27496.31
751.283	27554.39
751.621	27715.29
751.96	27420.38
752.298	27484.56
752.636	27457.89
752.975	27231.23
753.313	27158.24
753.651	27293.83
753.989	27208.41
754.327	27124.8
754.666	26999.15
755.004	27036.44
755.342	27031.92
755.679	26930.68
756.017	26752.6
756.355	26719.38
756.693	26632.38
757.031	26634.86
757.368	26548.09
757.706	26504.92
758.044	26436.45
758.381	26451.14
758.719	26369.56
759.056	26284.59
759.394	26256.34
759.731	26031.94
760.068	26138.15
760.405	26006.63
760.743	25861.78
761.08	26043.92
761.417	25850.25
761.754	25733.42
762.091	25716.7
762.428	25669.01
762.765	25501.34
763.102	25560.09
763.438	25558.96
763.775	25349.47
764.112	25263.38
764.449	25457.04
764.785	25228.12
765.122	24974.12
765.458	24949.71
765.795	24838.3
766.131	24964.85
766.467	24820
766.804	24672.2
767.14	24499.55
767.476	24560.12
767.812	24463.17
768.148	24449.61
768.485	24348.82
768.821	24146.57
769.157	24173.23
769.492	24082.39
769.828	24208.94
770.164	23828.61
770.5	23812.34
770.836	23749.52
771.171	23653.93
771.507	23617.09
771.842	23555.17
772.178	23390.66
772.513	23281.51
772.849	23227.95
773.184	23192.24
773.519	23221.62
773.855	23012.14
774.19	22945.47
774.525	22974.4
774.86	22943.89
775.195	22843.78
775.53	22652.14
775.865	22570.79
776.2	22547.74
776.535	22296
776.87	22391.36
777.205	22186.85
777.539	22147.3
777.874	22148.2
778.209	22012.61
778.543	22024.36
778.878	21779.17
779.212	21683.36
779.547	21753.64
779.881	21795.22
780.215	21545.05
780.55	21585.28
780.884	21415.11
781.218	21294.44
781.552	21400.43
781.886	21179.87
782.22	21087.21
782.554	21102.13
782.888	20807.9
783.222	20704.63
783.556	20798.86
783.889	20778.52
784.223	20518.64
784.557	20490.85
784.89	20563.84
785.224	20383.96
785.557	20355.71
785.891	20246.11
786.224	20193
786.558	20193.45
786.891	20002.04
787.224	19945.32
787.557	19832.56
787.891	19745.55
788.224	19813.12
788.557	19737.42
788.89	19724.54
789.223	19614.48
789.556	19509.63
789.888	19524.32
790.221	19362.06
790.554	19241.61
790.887	19197.09
791.219	19156.87
791.552	19127.72
791.884	18978.57
792.217	18966.59
792.549	18876.65
792.882	18849.08
793.214	18698.12
793.546	18758.91
793.879	18577
794.211	18480.28
794.543	18638.01
794.875	18497.23
795.207	18613.38
795.539	18393.73
795.871	18424.46
796.203	18288.87
796.535	18264.92
796.867	18169.32
797.198	18066.28
797.53	18031.25
797.862	17972.27
798.193	18049.1
798.525	17829.45
798.856	17900.41
799.188	17587.42
799.519	17659.96
799.85	17608.66
800.182	17595.55
800.513	17490.92
800.844	17346.52
801.175	17496.8
801.506	17361.66
801.837	17310.36
802.168	17281.89
802.499	17164.38
802.83	17141.78
803.161	17105.85
803.491	16994.67
803.822	17099.97
804.153	16962.35
804.483	16770.72
804.814	16753.77
805.145	16763.71
805.475	16697.27
805.805	16653.66
806.136	16649.82
806.466	16634.68
806.796	16559.42
807.126	16451.18
807.457	16420.22
807.787	16379.09
808.117	16413.44
808.447	16152.43
808.777	16388.58
809.107	16224.06
809.436	16222.94
809.766	16124.86
810.096	16079.89
810.426	16061.58
810.755	16003.73
811.085	16100.45
811.414	15902.94
811.744	15742.04
812.073	15781.59
812.403	15700.46
812.732	15667.02
813.061	15739.33
813.39	15547.92
813.719	15557.64
814.049	15525.1
814.378	15573.46
814.707	15497.08
815.036	15436.29
815.365	15379.12
815.693	15211.44
816.022	15256.41
816.351	15248.27
816.68	15158.78
817.008	15227.25
817.337	15014.15
817.665	15117.2
817.994	15117.2
818.322	15038.33
818.651	14957.66
818.979	14951.78
819.307	15009.41
819.636	14980.26
819.964	14850.09
820.292	14905
820.62	14817.32
820.948	14816.64
821.276	14893.03
821.604	14828.62
821.932	14792.69
822.259	14825.91
822.587	14780.49
822.915	14700.94
823.243	14740.71
823.57	14713.82
823.898	14728.29
824.225	14734.61
824.553	14747.95
824.88	14742.07
825.207	14778.91
825.535	14679.47
825.862	14725.35
826.189	14617.33
826.516	14720.83
826.843	14686.48
827.17	14617.33
827.497	14742.52
827.824	14719.7
828.151	14699.13
828.478	14719.7
828.805	14695.97
829.131	14644.45
829.458	14643.77
829.785	14606.71
830.111	14693.26
830.438	14646.93
830.764	14664.56
831.09	14642.41
831.417	14596.76
831.743	14686.25
832.069	14617.1
832.395	14514.28
832.722	14589.53
833.048	14520.61
833.374	14584.11
833.7	14505.01
834.026	14493.49
834.351	14394.06
834.677	14449.65
835.003	14488.29
835.329	14395.86
835.654	14406.49
835.98	14381.63
836.306	14387.28
836.631	14330.78
836.956	14413.27
837.282	14390.44
837.607	14251.69
837.932	14159.49
838.258	14255.08
838.583	14331.23
838.908	14193.38
839.233	14237.68
839.558	14189.54
839.883	14120.62
840.208	14047.62
840.533	14127.17
840.858	14083.1
841.182	14041.07
841.507	14023.67
841.832	14037.68
842.156	13963.11
842.481	13981.41
842.805	13943.67
843.13	13863.45
843.454	13861.19
843.778	13786.39
844.103	13764.92
844.427	13807.41
844.751	13708.42
845.075	13677.47
845.399	13695.54
845.723	13556.56
846.047	13509.11
846.371	13465.04
846.695	13408.55
847.019	13372.16
847.343	13363.35
847.666	13348.66
847.99	13166.07
848.313	13218.27
848.637	13094.66
848.96	13083.13
849.284	13085.84
849.607	12896.92
849.931	12914.32
850.254	12834.1
850.577	12770.14
850.9	12742.57
851.223	12698.28
851.546	12574.44
851.869	12543.94
852.192	12610.83
852.515	12472.53
852.838	12373.77
853.161	12399.76
853.483	12315.47
853.806	12223.49
854.129	12223.27
854.451	12199.31
854.774	12201.8
855.096	12171.74
855.419	12102.59
855.741	12009.49
856.063	12007
856.385	11931.3
856.708	11887.68
857.03	11866.89
857.352	11850.85
857.674	11886.33
857.996	11829.6
858.318	11737.63
858.64	11749.61
858.961	11742.15
859.283	11643.17
859.605	11612.89
859.926	11639.55
860.248	11666.44
860.57	11477.75
860.891	11612.89
861.212	11494.47
861.534	11402.5
861.855	11523.17
862.176	11438.65
862.498	11454.92
862.819	11367.02
863.14	11333.57
863.461	11410.63
863.782	11266.23
864.103	11231.65
864.424	11283.18
864.745	11261.03
865.065	11236.85
865.386	11241.37
865.707	11146.01
866.027	11169.96
866.348	11182.84
866.668	11164.08
866.989	11072.11
867.309	11003.64
867.63	11004.77
867.95	11017.42
868.27	10912.79
868.59	10964.32
868.91	11020.36
869.23	10960.25
869.55	10938.78
869.87	11010.42
870.19	10892
870.51	10927.48
870.83	10932.45
871.15	10833.7
871.469	10793.25
871.789	10868.05
872.109	10812.91
872.428	10747.82
872.748	10766.36
873.067	10808.61
873.386	10723.87
873.706	10673.02
874.025	10648.39
874.344	10673.25
874.663	10677.32
874.982	10619.69
875.301	10636.87
875.62	10602.29
875.939	10595.96
876.258	10567.26
876.577	10463.09
876.896	10467.83
877.214	10480.94
877.533	10501.73
877.852	10496.53
878.17	10447.49
878.489	10482.75
878.807	10410.21
879.125	10386.03
879.444	10440.04
879.762	10410.88
880.08	10347.84
880.398	10322.3
880.716	10306.25
881.034	10294.5
881.352	10334.05
881.67	10208.63
881.988	10271.91
882.306	10195.07
882.624	10239.14
882.941	10139.48
883.259	10099.93
883.577	10053.83
883.894	10087.96
884.212	9996.88
884.529	10064
884.846	9971.8
885.164	9996.88
885.481	9992.36
885.798	9948.07
886.115	9871.24
886.432	9873.27
886.75	9813.16
887.067	9815.87
887.383	9787.4
887.7	9807.74
888.017	9787.17
888.334	9742.43
888.651	9699.94
888.967	9744.24
889.284	9718.7
889.6	9745.37
889.917	9625.37
890.233	9594.41
890.55	9584.24
890.866	9542.21
891.182	9521.87
891.498	9469.21
891.815	9472.15
892.131	9467.18
892.447	9352.16
892.763	9398.71
893.079	9336.56
893.395	9305.6
893.71	9342.66
894.026	9296.56
894.342	9253.85
894.657	9186.06
894.973	9156
895.289	9179.96
895.604	9146.96
895.92	9044.59
896.235	8974.76
896.55	9016.34
896.865	8955.1
897.181	8873.75
897.496	8942.22
897.811	8911.71
898.126	8916.91
898.441	8828.33
898.756	8875.11
899.071	8763.02
899.386	8719.18
899.7	8668.33
900.015	8680.31
900.33	8682.12
900.644	8636.92
900.959	8644.38
901.273	8570.25
901.588	8537.26
901.902	8491.39
902.216	8477.6
902.531	8466.75
902.845	8413.42
903.159	8371.62
903.473	8387.89
903.787	8296.14
904.101	8268.34
904.415	8257.27
904.729	8274.9
905.042	8255.23
905.356	8197.61
905.67	8202.13
905.984	8194.22
906.297	8133.66
906.611	8061.34
906.924	8052.53
907.237	8018.18
907.551	8015.69
907.864	7962.36
908.177	7923.49
908.491	7917.62
908.804	7827.68
909.117	7812.53
909.43	7755.59
909.743	7774.34
910.056	7791.97
910.368	7687.57
910.681	7653.67
910.994	7564.63
911.307	7618.64
911.619	7530.51
911.932	7556.27
912.244	7420.23
912.557	7440.12
912.869	7395.37
913.181	7407.35
913.494	7428.59
913.806	7290.74
914.118	7285.77
914.43	7257.52
914.742	7274.47
915.054	7241.02
915.366	7214.58
915.678	7175.72
915.99	7137.98
916.302	7068.37
916.613	6996.28
916.925	7067.92
917.236	7030.86
917.548	6970.97
917.859	6959.22
918.171	6899.34
918.482	6911.09
918.794	6876.29
919.105	6842.62
919.416	6838.55
919.727	6739.12
920.038	6774.6
920.349	6692.79
920.66	6706.35
920.971	6679.91
921.282	6650.31
921.593	6618.89
921.903	6557.88
922.214	6559.69
922.525	6562.62
922.835	6488.28
923.146	6437.43
923.456	6491.44
923.767	6418.67
924.077	6429.97
924.387	6376.64
924.697	6329.41
925.008	6307.94
925.318	6327.15
925.628	6258.9
925.938	6217.32
926.248	6197.89
926.558	6210.54
926.867	6143.65
927.177	6112.92
927.487	6055.07
927.796	6062.3
928.106	6086.48
928.416	6016.65
928.725	6035.41
929.034	5953.83
929.344	5941.17
929.653	5954.5
929.962	5863.43
930.271	5821.4
930.581	5855.52
930.89	5801.06
931.199	5804.45
931.508	5754.06
931.817	5771.91
932.125	5741.4
932.434	5763.32
932.743	5651.01
933.051	5641.29
933.36	5661.63
933.669	5564.01
933.977	5537.34
934.286	5543.22
934.594	5536.44
934.902	5557
935.21	5459.6
935.519	5446.27
935.827	5456.66
936.135	5420.73
936.443	5378.7
936.751	5360.17
937.059	5325.37
937.367	5305.48
937.674	5364.24
937.982	5280.4
938.29	5293.05
938.597	5250.12
938.905	5185.94
939.213	5129.89
939.52	5172.38
939.827	5136.22
940.135	5093.51
940.442	5080.18
940.749	5081.76
941.056	5023.46
941.363	5070.01
941.67	5058.03
941.977	5002.21
942.284	4969.9
942.591	4928.09
942.898	4886.06
943.205	4915.21
943.511	4867.3
943.818	4877.02
944.125	4798.83
944.431	4849
944.738	4766.06
945.044	4819.85
945.35	4757.47
945.657	4737.81
945.963	4722.45
946.269	4653.3
946.575	4636.12
946.881	4641.77
947.187	4637.48
947.493	4626.4
947.799	4620.3
948.105	4629.12
948.41	4550.47
948.716	4533.52
949.022	4528.33
949.327	4509.34
949.633	4454.43
949.938	4452.62
950.244	4450.59
950.549	4443.58
950.854	4388.67
951.16	4368.33
951.465	4338.95
951.77	4366.98
952.075	4291.95
952.38	4327.65
952.685	4291.95
952.99	4282.91
953.294	4243.81
953.599	4247.66
953.904	4195
954.209	4204.27
954.513	4152.74
954.818	4119.3
955.122	4134.89
955.426	4098.28
955.731	4100.99
956.035	4050.37
956.339	4078.85
956.643	4051.05
956.948	4040.88
957.252	4019.19
957.556	3994.1
957.86	3981.22
958.163	3984.16
958.467	3934.22
958.771	3927.44
959.075	3905.29
959.378	3889.47
959.682	3905.29
959.985	3901.9
960.289	3851.06
960.592	3824.62
960.896	3813.32
961.199	3805.86
961.502	3803.83
961.805	3726.99
962.108	3728.35
962.411	3753.66
962.714	3737.61
963.017	3740.33
963.32	3714.34
963.623	3650.84
963.926	3663.49
964.228	3615.13
964.531	3632.31
964.833	3626.66
965.136	3575.58
965.438	3538.75
965.741	3555.7
966.043	3566.32
966.345	3528.81
966.648	3494.68
966.95	3502.14
967.252	3482.93
967.554	3450.16
967.856	3444.29
968.158	3421.24
968.46	3428.02
968.761	3398.41
969.063	3368.81
969.365	3424.18
969.666	3382.14
969.968	3337.17
970.269	3320.45
970.571	3309.6
970.872	3320.68
971.174	3289.72
971.475	3308.02
971.776	3267.34
972.077	3252.65
972.378	3235.93
972.679	3242.94
972.98	3193.45
973.281	3211.07
973.582	3229.6
973.883	3184.18
974.183	3126.33
974.484	3167.23
974.785	3101.02
975.085	3116.16
975.386	3102.83
975.686	3057.41
975.986	3070.74
976.287	3076.39
976.587	3004.53
976.887	3008.82
977.187	3035.94
977.487	3023.73
977.787	3002.27
978.087	3023.73
978.387	2994.58
978.687	2968.37
978.987	2929.27
979.286	2960.23
979.586	2928.6
979.885	2889.27
980.185	2866.45
980.484	2870.97
980.784	2862.83
981.083	2849.05
981.382	2840.01
981.682	2814.93
981.981	2812.67
982.28	2792.78
982.579	2747.58
982.878	2795.04
983.177	2748.71
983.475	2765.44
983.774	2753.46
984.073	2685.21
984.372	2706.91
984.67	2684.99
984.969	2702.84
985.267	2682.73
985.566	2618.1
985.864	2651.54
986.162	2645.66
986.461	2619.68
986.759	2621.48
987.057	2575.38
987.355	2593.91
987.653	2588.94
987.951	2572.67
988.249	2586.91
988.547	2543.29
988.844	2555.05
989.142	2500.13
989.44	2534.93
989.737	2479.12
990.035	2461.04
990.332	2456.29
990.63	2473.24
990.927	2452
991.224	2449.29
991.521	2419.23
991.819	2416.29
992.116	2392.56
992.413	2384.65
992.71	2352.34
993.006	2387.82
993.303	2389.17
993.6	2345.79
993.897	2370.87
994.193	2343.3
994.49	2321.61
994.787	2323.64
995.083	2255.62
995.379	2275.05
995.676	2280.48
995.972	2253.58
996.268	2264.21
996.565	2243.64
996.861	2250.65
997.157	2219.91
997.453	2197.32
997.749	2185.34
998.044	2178.56
998.34	2209.97
998.636	2175.39
998.932	2173.13
999.227	2113.48
999.523	2136.07
999.818	2114.15
1000.114	2103.08
1000.409	2125.68
1000.704	2069.18
1001	2084.1
1001.295	2062.86
1001.59	2090.2
1001.885	2030.99
1002.18	2020.82
1002.475	2030.31
1002.77	2011.56
1003.065	1989.18
1003.359	1986.02
1003.654	1995.74
1003.949	1969.3
1004.243	1953.93
1004.538	1962.97
1004.832	1944.21
1005.127	1922.07
1005.421	1889.98
1005.715	1906.02
1006.009	1891.79
1006.304	1870.77
1006.598	1871
1006.892	1887.72
1007.186	1834.16
1007.48	1827.16
1007.773	1861.96
1008.067	1835.97
1008.361	1812.01
1008.655	1792.81
1008.948	1795.29
1009.242	1812.69
1009.535	1761.17
1009.829	1763.88
1010.122	1750.32
1010.415	1748.06
1010.708	1739.93
1011.001	1751.45
1011.295	1722.07
1011.588	1714.84
1011.881	1707.16
1012.173	1679.59
1012.466	1686.59
1012.759	1662.41
1013.052	1656.99
1013.344	1626.93
1013.637	1655.86
1013.93	1641.4
1014.222	1612.47
1014.514	1619.25
1014.807	1611.34
1015.099	1573.6
1015.391	1579.48
1015.683	1602.75
1015.976	1556.88
1016.268	1534.06
1016.56	1535.64
1016.851	1565.02
1017.143	1527.95
1017.435	1564.79
1017.727	1511.91
1018.018	1502.42
1018.31	1503.1
1018.602	1507.16
1018.893	1459.93
1019.185	1438.92
1019.476	1429.43
1019.767	1470.55
1020.058	1445.92
1020.35	1425.58
1020.641	1398.69
1020.932	1412.7
1021.223	1384.91
1021.514	1373.83
1021.804	1355.76
1022.095	1367.51
1022.386	1343.1
1022.677	1356.43
1022.967	1357.34
1023.258	1340.84
1023.548	1349.2
1023.839	1334.74
1024.129	1300.39
1024.419	1302.65
1024.709	1267.85
1025	1289.54
1025.29	1310.11
1025.58	1267.17
1025.87	1277.57
1026.16	1251.58
1026.449	1254.74
1026.739	1240.73
1027.029	1232.82
1027.319	1219.04
1027.608	1234.18
1027.898	1202.09
1028.187	1202.54
1028.477	1210
1028.766	1180.39
1029.055	1160.28
1029.344	1178.81
1029.634	1182.65
1029.923	1142.88
1030.212	1152.82
1030.501	1155.31
1030.79	1137.91
1031.078	1141.98
1031.367	1132.48
1031.656	1123.67
1031.945	1120.51
1032.233	1117.8
1032.522	1101.52
1032.81	1073.05
1033.099	1087.06
1033.387	1076.21
1033.675	1061.98
1033.963	1043.67
1034.251	1048.87
1034.54	1054.97
1034.828	1062.66
1035.116	1035.76
1035.403	1022.88
1035.691	999.61
1035.979	995.99
1036.267	961.42
1036.554	980.4
1036.842	979.49
1037.129	989.21
1037.417	969.78
1037.704	980.4
1037.992	983.11
1038.279	958.25
1038.566	930.23
1038.853	930.23
1039.14	930.23
