Data from hue_20_FLMS001491_75.txt Node
Date: Mon Feb 06 15:34:38 GMT 2017
User: dcchb
Spectrometer: FLMS00149
Trigger mode: 0
Integration Time (sec): 2.000000E-2
Scans to average: 10
Electric dark correction enabled: true
Nonlinearity correction enabled: false
Boxcar width: 0
XAxis mode: Wavelengths
Number of Pixels in Spectrum: 2048
>>>>>Begin Spectral Data<<<<<
341.393	0.64
341.776	0.64
342.16	0.64
342.543	-47.5
342.927	-55.63
343.31	-72.36
343.693	-66.48
344.077	-53.6
344.46	-62.19
344.843	-48.18
345.226	-31
345.61	-23.54
345.993	-6.82
346.376	-23.32
346.759	-0.04
347.142	16.68
347.525	35.66
347.908	58.04
348.291	70.24
348.674	83.35
349.057	123.57
349.44	126.73
349.823	158.15
350.206	174.64
350.588	206.28
350.971	232.04
351.354	240.18
351.737	226.39
352.119	281.08
352.502	257.35
352.884	286.28
353.267	275.88
353.65	294.64
354.032	308.42
354.414	325.6
354.797	313.62
355.179	324.02
355.562	328.99
355.944	345.03
356.326	348.65
356.709	363.56
357.091	330.12
357.473	363.79
357.855	360.17
358.238	329.21
358.62	342.1
359.002	351.13
359.384	341.42
359.766	343.9
360.148	352.26
360.53	373.06
360.912	356.11
361.294	331.93
361.676	351.36
362.057	325.15
362.439	333.51
362.821	343.45
363.203	334.41
363.584	346.39
363.966	330.57
364.348	342.32
364.729	330.12
365.111	321.53
365.493	330.34
365.874	343.23
366.256	332.38
366.637	323.56
367.019	327.63
367.4	330.34
367.781	340.29
368.163	331.25
368.544	326.95
368.925	321.31
369.306	332.6
369.688	314.98
370.069	336.22
370.45	328.76
370.831	307.97
371.212	319.72
371.593	324.24
371.974	315.66
372.355	300.29
372.736	331.93
373.117	326.28
373.498	331.25
373.879	315.66
374.26	330.34
374.641	324.02
375.021	341.19
375.402	318.82
375.783	311.14
376.163	327.18
376.544	354.3
376.925	338.71
377.305	344.36
377.686	338.03
378.066	327.86
378.447	352.04
378.827	350.46
379.208	350.46
379.588	325.6
379.968	320.85
380.349	346.62
380.729	359.72
381.109	328.99
381.489	372.6
381.87	338.71
382.25	340.29
382.63	365.15
383.01	357.91
383.39	343.68
383.77	386.16
384.15	359.04
384.53	357.01
384.91	359.95
385.29	350.68
385.67	364.69
386.049	347.97
386.429	367.41
386.809	366.5
387.189	368.99
387.568	385.94
387.948	392.94
388.328	379.38
388.707	367.63
389.087	383.45
389.466	374.19
389.846	377.57
390.225	369.89
390.605	378.25
390.984	385.71
391.363	377.57
391.743	389.33
392.122	379.83
392.501	382.55
392.881	398.37
393.26	394.52
393.639	392.04
394.018	391.81
394.397	391.59
394.776	392.72
395.155	402.66
395.534	391.59
395.913	399.95
396.292	403.34
396.671	407.63
397.05	385.71
397.429	407.63
397.808	412.83
398.186	409.89
398.565	410.34
398.944	408.08
399.323	413.05
399.701	427.07
400.08	435.43
400.458	422.09
400.837	427.97
401.215	420.29
401.594	439.49
401.972	423.45
402.351	414.18
402.729	425.03
403.107	421.87
403.486	427.52
403.864	435.2
404.242	431.58
404.62	441.3
404.999	445.82
405.377	415.09
405.755	436.78
406.133	438.14
406.511	450.79
406.889	456.89
407.267	418.25
407.645	437.91
408.023	462.77
408.401	431.81
408.779	446.95
409.156	481.75
409.534	462.54
409.912	456.67
410.29	471.81
410.667	463
411.045	502.54
411.422	478.36
411.8	479.27
412.178	459.83
412.555	480.17
412.933	496.89
413.31	494.63
413.687	492.37
414.065	496.67
414.442	505.71
414.819	513.39
415.197	519.94
415.574	508.42
415.951	532.6
416.328	537.8
416.705	502.09
417.082	535.99
417.46	520.62
417.837	517.91
418.214	550.23
418.591	562.65
418.967	560.39
419.344	547.51
419.721	569.21
420.098	562.65
420.475	562.43
420.852	531.47
421.228	577.12
421.605	572.6
421.982	538.7
422.358	578.7
422.735	585.93
423.111	569.21
423.488	574.63
423.864	584.35
424.241	582.32
424.617	594.52
424.994	587.51
425.37	598.13
425.746	601.98
426.123	631.35
426.499	610.79
426.875	627.29
427.251	597.91
427.627	638.58
428.003	627.96
428.379	653.05
428.756	651.24
429.132	637.45
429.507	634.07
429.883	650.56
430.259	676.1
430.635	668.19
431.011	668.64
431.387	689.43
431.763	669.32
432.138	692.14
432.514	721.75
432.89	684.23
433.265	715.87
433.641	719.94
434.016	725.59
434.392	721.75
434.767	741.63
435.143	744.34
435.518	745.7
435.894	771.24
436.269	758.58
436.644	754.74
437.02	750.22
437.395	766.49
437.77	794.51
438.145	778.47
438.52	767.62
438.895	791.58
439.271	804.91
439.646	805.13
440.021	822.31
440.395	790.9
440.77	793.84
441.145	822.99
441.52	850.78
441.895	847.39
442.27	866.6
442.645	848.3
443.019	845.13
443.394	853.49
443.769	838.81
444.143	852.59
444.518	854.85
444.892	859.6
445.267	859.37
445.641	851.69
446.016	872.25
446.39	900.95
446.764	883.78
447.139	887.84
447.513	891.01
447.887	869.99
448.262	883.1
448.636	904.34
449.01	902.08
449.384	932.59
449.758	935.3
450.132	950.67
450.506	935.75
450.88	950.67
451.254	950.89
451.628	982.53
452.002	940.95
452.376	979.59
452.75	996.54
453.123	978.46
453.497	1006.94
453.871	1022.3
454.244	1021.4
454.618	1026.37
454.992	1065.69
455.365	1003.1
455.739	1052.13
456.112	1086.26
456.486	1064.11
456.859	1063.66
457.232	1108.18
457.606	1116.09
457.979	1124.67
458.352	1126.48
458.725	1136.65
459.099	1126.71
459.472	1169.87
459.845	1158.12
460.218	1192.47
460.591	1192.47
460.964	1186.37
461.337	1226.59
461.71	1252.58
462.083	1213.03
462.456	1246.93
462.829	1255.97
463.201	1282.64
463.574	1286.03
463.947	1284.9
464.32	1345.23
464.692	1342.75
465.065	1349.75
465.438	1356.08
465.81	1358.57
466.183	1368.96
466.555	1425.68
466.928	1415.29
467.3	1441.95
467.672	1485.57
468.045	1452.35
468.417	1475.4
468.789	1527.6
469.161	1519.69
469.534	1516.08
469.906	1578.67
470.278	1579.58
470.65	1612.12
471.022	1624.55
471.394	1621.61
471.766	1685.56
472.138	1681.72
472.51	1727.6
472.882	1733.92
473.253	1787.26
473.625	1801.49
473.997	1796.97
474.369	1834.71
474.74	1843.98
475.112	1904.77
475.484	1962.17
475.855	1960.81
476.227	1990.41
476.598	2027.02
476.97	1996.29
477.341	2116.06
477.713	2104.76
478.084	2127.36
478.455	2206.23
478.827	2210.29
479.198	2291.2
479.569	2309.95
479.94	2369.39
480.311	2387.92
480.682	2462.49
481.053	2516.95
481.424	2543.85
481.795	2561.92
482.166	2608.48
482.537	2671.53
482.908	2703.16
483.279	2738.19
483.65	2779.09
484.021	2813.67
484.391	2872.42
484.762	2913.55
485.133	2961.01
485.503	3007.34
485.874	3071.06
486.244	3094.11
486.615	3190.61
486.985	3231.29
487.356	3285.97
487.726	3308.57
488.097	3393.77
488.467	3422.69
488.837	3492.52
489.207	3530.94
489.578	3556.47
489.948	3626.08
490.318	3667.43
490.688	3724.83
491.058	3756.47
491.428	3786.07
491.798	3848.44
492.168	3909.69
492.538	3968.21
492.908	3991.94
493.278	4058.61
493.648	4070.13
494.017	4151.94
494.387	4207.53
494.757	4220.64
495.126	4262.22
495.496	4291.14
495.866	4294.53
496.235	4377.92
496.605	4430.35
496.974	4456.79
497.344	4485.94
497.713	4553.51
498.082	4598.03
498.452	4637.58
498.821	4634.64
499.19	4695.65
499.559	4659.95
499.928	4720.96
500.298	4772.71
500.667	4806.61
501.036	4799.15
501.405	4847.06
501.774	4913.5
502.143	4934.52
502.512	4954.18
502.88	5012.26
503.249	4977.45
503.618	5057.9
503.987	5073.95
504.356	5138.35
504.724	5122.53
505.093	5151.91
505.462	5152.82
505.83	5195.98
506.199	5294.06
506.567	5300.38
506.936	5299.93
507.304	5367.95
507.672	5392.58
508.041	5358.46
508.409	5426.48
508.777	5478.46
509.145	5541.51
509.514	5496.08
509.882	5534.5
510.25	5575.18
510.618	5589.42
510.986	5590.55
511.354	5621.5
511.722	5677.77
512.09	5718.45
512.458	5731.78
512.826	5754.83
513.193	5855.4
513.561	5809.52
513.929	5826.47
514.297	5869.41
514.664	5923.64
515.032	5911.67
515.4	5981.04
515.767	6010.65
516.135	6074.15
516.502	5982.4
516.869	6049.06
517.237	6143.52
517.604	6145.33
517.972	6167.48
518.339	6212
518.706	6203.41
519.073	6237.53
519.44	6253.58
519.808	6318.66
520.175	6321.15
520.542	6393.46
520.909	6431.2
521.276	6392.11
521.643	6471.65
522.009	6489.96
522.376	6574.7
522.743	6529.73
523.11	6637.3
523.477	6631.65
523.843	6683.85
524.21	6730.85
524.577	6788.03
524.943	6763.62
525.31	6878.19
525.676	6877.29
526.043	6857.18
526.409	6978.98
526.776	7047.68
527.142	7038.87
527.508	7087.68
527.874	7145.08
528.241	7227.34
528.607	7249.71
528.973	7241.35
529.339	7255.81
529.705	7318.18
530.071	7357.96
530.437	7372.42
530.803	7448.12
531.169	7462.81
531.535	7470.04
531.901	7488.57
532.267	7571.74
532.632	7558.63
532.998	7591.85
533.364	7720.88
533.73	7675.91
534.095	7783.26
534.461	7778.74
534.826	7834.78
535.192	7830.71
535.557	7967.88
535.923	7916.81
536.288	7960.43
536.653	7996.81
537.019	8012.4
537.384	8082.46
537.749	8080.88
538.114	8139.4
538.479	8145.28
538.845	8182.57
539.21	8166.07
539.575	8210.82
539.94	8247.2
540.305	8300.3
540.67	8273.19
541.034	8331.26
541.399	8356.35
541.764	8384.14
542.129	8475.44
542.494	8431.37
542.858	8442
543.223	8546.17
543.587	8622.78
543.952	8605.61
544.316	8676.79
544.681	8644.7
545.045	8652.16
545.41	8759.05
545.774	8736.9
546.138	8786.62
546.503	8810.57
546.867	8785.26
547.231	8894.64
547.595	8888.31
547.959	8965.6
548.324	8999.5
548.688	9016.67
549.052	9027.06
549.416	9029.78
549.779	9071.13
550.143	9141.41
550.507	9139.15
550.871	9165.37
551.235	9232.48
551.599	9304.8
551.962	9370.11
552.326	9382.76
552.689	9369.43
553.053	9366.94
553.417	9354.29
553.78	9479.93
554.143	9466.15
554.507	9533.72
554.87	9551.8
555.234	9620.04
555.597	9611.46
555.96	9668.4
556.323	9714.05
556.686	9687.39
557.05	9764.67
557.413	9719.93
557.776	9804.22
558.139	9847.83
558.502	9837.89
558.865	9852.58
559.228	9946.59
559.59	10050.54
559.953	10071.56
560.316	10105.23
560.679	10105.45
561.041	10182.29
561.404	10159.69
561.767	10278.78
562.129	10216.41
562.492	10331.89
562.854	10308.39
563.217	10328.95
563.579	10333.7
563.941	10415.95
564.304	10508.61
564.666	10537.08
565.028	10564.2
565.39	10624.31
565.753	10715.38
566.115	10732.78
566.477	10737.3
566.839	10785.66
567.201	10789.5
567.563	10844.64
567.925	10935.94
568.287	10905.89
568.648	10968.93
569.01	11050.97
569.372	11053.45
569.734	11073.34
570.095	11167.35
570.457	11216.84
570.819	11203.96
571.18	11229.04
571.542	11389.94
571.903	11327.57
572.265	11434.46
572.626	11485.76
572.987	11503.38
573.349	11595.13
573.71	11644.62
574.071	11723.49
574.432	11720.33
574.794	11876.03
575.155	11964.61
575.516	11936.59
575.877	11985.86
576.238	12137.27
576.599	12175
576.96	12285.51
577.32	12355.11
577.681	12438.95
578.042	12492.96
578.403	12580.19
578.763	12664.94
579.124	12704.03
579.485	12853.86
579.845	12989.67
580.206	13011.82
580.566	13114.64
580.927	13229.44
581.287	13434.41
581.648	13479.6
582.008	13599.15
582.368	13723.44
582.728	13928.18
583.089	14122.3
583.449	14201.84
583.809	14336.3
584.169	14564.55
584.529	14672.34
584.889	15055.38
585.249	15044.99
585.609	15276.39
585.969	15534.46
586.329	15659.66
586.688	15967.45
587.048	16092.64
587.408	16407.89
587.768	16589.58
588.127	16826.63
588.487	17033.18
588.846	17450.12
589.206	17501.42
589.565	17867.28
589.925	18173.49
590.284	18338.23
590.643	18768.96
591.003	19021.15
591.362	19286.91
591.721	19702.04
592.08	19909.26
592.44	20281.01
592.799	20623.14
593.158	20779.07
593.517	21153.98
593.876	21478.71
594.235	21696.11
594.593	22120.05
594.952	22443.21
595.311	22703.77
595.67	23122.74
596.029	23452.45
596.387	23778.54
596.746	24116.84
597.104	24371.29
597.463	24805.86
597.822	25214.44
598.18	25423.7
598.538	25858.71
598.897	26351.58
599.255	26327.85
599.613	27100.94
599.972	27300.93
600.33	27636.07
600.688	27815.27
601.046	28359.21
601.404	28718.98
601.762	29021.12
602.12	29516.47
602.478	29824.03
602.836	30077.81
603.194	30238.03
603.552	30545.82
603.91	30848.41
604.268	31243.43
604.625	31556.87
604.983	32118.44
605.341	32108.04
605.698	32525.43
606.056	32891.07
606.413	33134.23
606.771	33467.55
607.128	33799.07
607.485	33769.69
607.843	34190.47
608.2	34622.1
608.557	34931.24
608.914	35118.36
609.272	35374.85
609.629	35735.52
609.986	36225.67
610.343	36134.6
610.7	36798.54
611.057	36677.64
611.414	37063.84
611.771	37229.71
612.127	37628.12
612.484	37841.22
612.841	38269.23
613.198	38205.96
613.554	38464.48
613.911	38806.85
614.267	39128.65
614.624	39123.22
614.98	39390.11
615.337	39868.29
615.693	39832.36
616.05	39847.5
616.406	40346.47
616.762	40281.84
617.118	40444.32
617.475	40731.77
617.831	40889.73
618.187	41139.67
618.543	41366.1
618.899	41696.49
619.255	41666.21
619.611	41856.48
619.967	42070.26
620.323	42212.18
620.678	42162.46
621.034	42271.61
621.39	42456.69
621.746	42566.3
622.101	43027.75
622.457	42770.13
622.812	43055.32
623.168	43178.71
623.523	43329.44
623.879	43456.89
624.234	43234.08
624.589	43708.41
624.945	43740.95
625.3	43764.46
625.655	43876.77
626.01	43933.49
626.365	44040.16
626.72	43987.5
627.075	44040.83
627.43	44345.46
627.785	44328.74
628.14	44439.92
628.495	44554.27
628.85	44485.79
629.205	44408.73
629.559	44772.79
629.914	44569.18
630.269	44712.23
630.623	44674.49
630.978	44722.85
631.332	44960.36
631.687	45034.93
632.041	44855.05
632.396	44907.93
632.75	44719.46
633.104	45022.28
633.459	44889.85
633.813	44898.66
634.167	44948.38
634.521	44891.88
634.875	45003.75
635.229	45007.36
635.583	44822.73
635.937	44848.95
636.291	44886.91
636.645	45039.45
636.999	44843.07
637.352	45041.71
637.706	44875.39
638.06	45059.34
638.413	44904.77
638.767	44858.44
639.121	45039.68
639.474	44747.03
639.828	44877.2
640.181	44852.56
640.534	44904.09
640.888	44894.14
641.241	44853.47
641.594	44809.4
641.947	44845.56
642.301	44767.82
642.654	44878.55
643.007	44810.3
643.36	44798.78
643.713	44662.06
644.066	44896.63
644.419	44591.1
644.771	44462.07
645.124	44067.27
645.477	44025.47
645.83	43752.25
646.182	43769.65
646.535	43420.51
646.888	43682.2
647.24	43308.65
647.593	43761.74
647.945	43501.64
648.298	43430.91
648.65	43429.55
649.002	43259.39
649.355	43347.74
649.707	43274.98
650.059	43575.08
650.411	44039.48
650.763	44061.17
651.115	44539.13
651.467	44409.19
651.819	44477.88
652.171	44344.78
652.523	44345.68
652.875	44263.2
653.227	44065.01
653.578	44377.32
653.93	44371.45
654.282	44236.31
654.633	44144.33
654.985	44171
655.337	44135.75
655.688	44100.72
656.039	44301.39
656.391	43863.21
656.742	43940.5
657.094	43943.21
657.445	44162.86
657.796	44047.84
658.147	44018.01
658.498	44032.47
658.849	44132.58
659.2	43988.86
659.551	43846.04
659.902	43994.73
660.253	43927.16
660.604	43953.15
660.955	43951.34
661.306	43978.91
661.656	43816.88
662.007	43879.03
662.358	43886.94
662.708	43888.75
663.059	43752.71
663.409	43555.65
663.76	43927.16
664.11	43893.49
664.461	43788.41
664.811	43734.63
665.161	43792.7
665.511	43767.17
665.862	43811.01
666.212	43950.21
666.562	43903.21
666.912	43875.64
667.262	43604.01
667.612	43782.76
667.962	43810.11
668.312	43672.48
668.662	44027.73
669.011	43794.74
669.361	43747.73
669.711	43597
670.06	43638.36
670.41	43662.09
670.76	43513.62
671.109	43773.27
671.459	43613.27
671.808	43549.77
672.157	43583.44
672.507	43372.38
672.856	43479.49
673.205	43314.07
673.554	43485.37
673.904	43391.59
674.253	43699.15
674.602	43486.72
674.951	42845.38
675.3	42674.32
675.649	43433.84
675.998	43263.68
676.346	43384.58
676.695	43351.13
677.044	43283.57
677.393	43293.73
677.741	43403.11
678.09	43188.2
678.438	42927.87
678.787	43195.43
679.135	43199.73
679.484	43033.85
679.832	43105.72
680.181	42956.12
680.529	43027.75
680.877	42919.06
681.225	42858.49
681.573	43107.3
681.922	42729.68
682.27	42565.17
682.618	42606.07
682.966	42560.87
683.314	42675.45
683.661	42487.2
684.009	42343.48
684.357	42188.23
684.705	42239.75
685.053	42168.79
685.4	42030.04
685.748	41901.68
686.095	42033.88
686.443	41839.08
686.79	41746.88
687.138	41925.86
687.485	41935.8
687.832	41779.2
688.18	41691.74
688.527	41554.57
688.874	41583.95
689.221	41380.11
689.568	41233.68
689.915	41336.27
690.262	41217.4
690.609	41089.27
690.956	40990.52
691.303	40944.42
691.65	40756.4
691.997	40748.72
692.344	40559.12
692.69	40603.41
693.037	40448.16
693.383	40328.39
693.73	40350.76
694.077	40130.65
694.423	40127.94
694.769	39973.6
695.116	39862.86
695.462	39911
695.808	39753.49
696.155	39887.04
696.501	39489.09
696.847	39542.19
697.193	39276.67
697.539	39282.09
697.885	39126.61
698.231	39022.89
698.577	38958.48
698.923	38913.74
699.269	38661.77
699.614	38559.85
699.96	38518.04
700.306	38660.86
700.651	38388.1
700.997	38320.08
701.342	38242.12
701.688	38269.46
702.033	37951.28
702.379	38013.65
702.724	37936.81
703.069	37973.65
703.415	37651.85
703.76	37581.57
704.105	37567.56
704.45	37438.3
704.795	37267.45
705.14	37243.27
705.485	37115.14
705.83	36994.01
706.175	37087.8
706.52	37086.44
706.865	36841.47
707.209	36871.76
707.554	36660.91
707.899	36840.12
708.243	36647.58
708.588	36521.48
708.932	36403.75
709.277	36263.64
709.621	36250.3
709.966	36012.8
710.31	36173.47
710.654	35765.57
710.998	35840.6
711.342	35966.47
711.687	35761.5
712.031	35613.26
712.375	35475.64
712.719	35592.02
713.063	35491
713.407	35680.38
713.75	35386.6
714.094	35441.96
714.438	35186.6
714.782	35282.65
715.125	35021.18
715.469	35062.99
715.812	34855.99
716.156	34755.88
716.499	34735.54
716.843	34877.91
717.186	34589.78
717.53	34757.01
717.873	34681.31
718.216	34584.13
718.559	34448.77
718.902	34197.48
719.246	34366.51
719.589	34266.63
719.932	34080.87
720.275	34174.88
720.617	34071.15
720.96	33956.13
721.303	34059.4
721.646	34072.96
721.989	33779.63
722.331	33805.17
722.674	33821.44
723.016	33801.33
723.359	33595.46
723.701	33708.9
724.044	33416.71
724.386	33366.54
724.729	33515.69
725.071	33348.01
725.413	33285.41
725.755	33326.76
726.097	33151.18
726.439	32954.8
726.782	33013.1
727.124	33125.41
727.465	33041.8
727.807	32901.69
728.149	32841.81
728.491	32812.2
728.833	32843.61
729.175	32628.25
729.516	32643.85
729.858	32512.32
730.199	32632.09
730.541	32623.73
730.882	32520.68
731.224	32541.47
731.565	32308.26
731.906	32289.05
732.248	32384.87
732.589	32172.22
732.93	32169.73
733.271	32060.13
733.612	32101.94
733.953	32147.59
734.294	31976.97
734.635	31947.59
734.976	31901.72
735.317	31858.33
735.658	31779.24
735.999	31883.41
736.339	31802.29
736.68	31720.03
737.021	31706.47
737.361	31606.81
737.702	31715.06
738.042	31692.01
738.383	31488.62
738.723	31503.08
739.063	31444.55
739.404	31425.8
739.744	31322.3
740.084	31244.33
740.424	31291.34
740.764	31163.66
741.104	31278.46
741.444	31114.17
741.784	31000.72
742.124	30994.62
742.464	31017.9
742.804	31071.01
743.143	30854.06
743.483	30966.15
743.823	30744.91
744.162	30760.73
744.502	30784.46
744.841	30656.1
745.181	30700.17
745.52	30713.27
745.86	30572.49
746.199	30473.28
746.538	30441.87
746.877	30535.65
747.216	30528.42
747.556	30410.01
747.895	30372.27
748.234	30360.74
748.573	30185.6
748.911	30179.96
749.25	30177.92
749.589	29930.02
749.928	30023.12
750.267	30043.24
750.605	30024.93
750.944	29994.42
751.283	29816.8
751.621	29937.93
751.96	29801.21
752.298	29617.03
752.636	29692.28
752.975	29636.47
753.313	29445.51
753.651	29652.96
753.989	29462.01
754.327	29369.81
754.666	29179.76
755.004	29296.59
755.342	29321.45
755.679	29180.21
756.017	28959.42
756.355	29074.67
756.693	28915.13
757.031	29031.28
757.368	28852.08
757.706	28820.44
758.044	28637.4
758.381	28674.23
758.719	28478.3
759.056	28543.61
759.394	28487.12
759.731	28261.36
760.068	28247.12
760.405	28246.67
760.743	28044.64
761.08	28185.88
761.417	27899.79
761.754	27821.37
762.091	27806.23
762.428	27749.28
762.765	27633.13
763.102	27656.18
763.438	27511.1
763.775	27447.37
764.112	27556.07
764.449	27483.08
764.785	27344.55
765.122	27100.04
765.458	27042.64
765.795	26982.98
766.131	27004.45
766.467	26771.46
766.804	26732.81
767.14	26605.81
767.476	26583.21
767.812	26509.09
768.148	26606.04
768.485	26385.93
768.821	26207.86
769.157	26115.88
769.492	26171.92
769.828	26127.63
770.164	25885.15
770.5	25793.63
770.836	25799.51
771.171	25659.4
771.507	25585.05
771.842	25456.46
772.178	25487.42
772.513	25333.53
772.849	25274.1
773.184	25127.88
773.519	25136.25
773.855	25060.09
774.19	25004.72
774.525	24727.9
774.86	24827.1
775.195	24679.08
775.53	24559.54
775.865	24413.1
776.2	24355.7
776.535	24225.99
776.87	24171.3
777.205	24086.33
777.539	24000
777.874	24129.04
778.209	23740.35
778.543	23820.57
778.878	23681.37
779.212	23588.04
779.547	23541.71
779.881	23506.46
780.215	23309.85
780.55	23304.88
780.884	23288.16
781.218	23214.04
781.552	23223.53
781.886	23042.74
782.22	22923.87
782.554	22830.77
782.888	22645.92
783.222	22587.84
783.556	22521.63
783.889	22422.42
784.223	22253.38
784.557	22120.96
784.89	22182.43
785.224	22101.3
785.557	22052.03
785.891	22001.19
786.224	21816.11
786.558	21800.51
786.891	21582.22
787.224	21509.45
787.557	21460.86
787.891	21316.01
788.224	21366.63
788.557	21318.27
788.89	21252.28
789.223	21325.5
789.556	21123.47
789.888	21018.16
790.221	21036.69
790.554	20874.21
790.887	20917.83
791.219	20730.94
791.552	20663.37
791.884	20619.3
792.217	20611.39
792.549	20523.94
792.882	20408.69
793.214	20251.63
793.546	20298.63
793.879	20127.11
794.211	20147.68
794.543	20103.61
794.875	20114.46
795.207	20123.27
795.539	20066.77
795.871	19876.27
796.203	19836.27
796.535	19629.27
796.867	19630.18
797.198	19687.58
797.53	19585.43
797.862	19411.65
798.193	19490.52
798.525	19307.25
798.856	19335.72
799.188	19143.64
799.519	19077.65
799.85	19062.73
800.182	18931.44
800.513	18953.58
800.844	18852.12
801.175	18930.99
801.506	18817.99
801.837	18717.43
802.168	18673.36
802.499	18611.9
802.83	18519.92
803.161	18473.6
803.491	18482.64
803.822	18445.12
804.153	18346.37
804.483	18128.29
804.814	18195.64
805.145	18084.23
805.475	18106.6
805.805	17974.4
806.136	18003.55
806.466	17998.81
806.796	17887.85
807.126	17740.51
807.457	17715.88
807.787	17728.53
808.117	17649.21
808.447	17573.28
808.777	17687.63
809.107	17564.24
809.436	17502.77
809.766	17486.5
810.096	17455.32
810.426	17461.19
810.755	17321.54
811.085	17291.93
811.414	17275.66
811.744	17135.78
812.073	17096.01
812.403	17095.1
812.732	16951.38
813.061	17054.2
813.39	16879.74
813.719	16900.53
814.049	16976.01
814.378	16879.97
814.707	16820.76
815.036	16774.43
815.365	16757.03
815.693	16465.74
816.022	16646.53
816.351	16541.44
816.68	16376.02
817.008	16470.94
817.337	16263.48
817.665	16235.01
817.994	16331.73
818.322	16320.21
818.651	16183.26
818.979	16106.65
819.307	16253.77
819.636	16183.71
819.964	16110.27
820.292	16097.39
820.62	16053.09
820.948	16034.56
821.276	16082.25
821.604	16005.64
821.932	16081.12
822.259	16056.94
822.587	16023.04
822.915	15904.85
823.243	16031.63
823.57	15923.61
823.898	15934.23
824.225	15941.01
824.553	15877.96
824.88	15953.89
825.207	16010.38
825.535	15893.1
825.862	16061.68
826.189	15898.3
826.516	15958.41
826.843	16045.64
827.17	15926.77
827.497	16004.51
827.824	15967.45
828.151	15941.01
828.478	16002.93
828.805	16001.34
829.131	15857.62
829.458	15807
829.785	15771.97
830.111	15839.09
830.438	16002.25
830.764	15848.58
831.09	15850.39
831.417	15767
831.743	15887.45
832.069	15883.16
832.395	15724.06
832.722	15821.69
833.048	15760.22
833.374	15801.58
833.7	15686.1
834.026	15720
834.351	15774.01
834.677	15675.93
835.003	15659.66
835.329	15744.85
835.654	15756.61
835.98	15628.93
836.306	15687
836.631	15649.94
836.956	15589.83
837.282	15507.35
837.607	15523.62
837.932	15547.35
838.258	15468.03
838.583	15486.78
838.908	15350.97
839.233	15390.06
839.558	15427.8
839.883	15260.35
840.208	15221.7
840.533	15281.59
840.858	15297.63
841.182	15247.01
841.507	15246.56
841.832	15089.5
842.156	15095.83
842.481	15166.79
842.805	15079.11
843.13	14990.75
843.454	15031.88
843.778	14983.07
844.103	14959.79
844.427	14916.4
844.751	14951.2
845.075	14880.02
845.399	14776.52
845.723	14714.37
846.047	14690.42
846.371	14552.12
846.695	14566.58
847.019	14438.67
847.343	14422.86
847.666	14291.33
847.99	14239.36
848.313	14261.73
848.637	14155.74
848.96	14145.35
849.284	14192.35
849.607	14021.96
849.931	14013.15
850.254	13899.03
850.577	13869.2
850.9	13756.21
851.223	13738.58
851.546	13616.1
851.869	13527.96
852.192	13558.7
852.515	13572.26
852.838	13516.44
853.161	13471.47
853.483	13350.79
853.806	13302.66
854.129	13293.62
854.451	13224.02
854.774	13147.63
855.096	13120.52
855.419	13141.08
855.741	13083
856.063	12996.68
856.385	12987.86
856.708	12938.83
857.03	12941.31
857.352	12845.27
857.674	12847.53
857.996	12859.96
858.318	12771.15
858.64	12643.24
858.961	12653.18
859.283	12670.36
859.605	12572.28
859.926	12626.29
860.248	12544.71
860.57	12480.99
860.891	12508.1
861.212	12499.74
861.534	12428.33
861.855	12377.03
862.176	12372.97
862.498	12340.65
862.819	12361.21
863.14	12217.94
863.461	12276.7
863.782	12227.43
864.103	12264.72
864.424	12158.51
864.745	12233.31
865.065	12196.25
865.386	12141.11
865.707	12044.84
866.027	12072.18
866.348	12128.9
866.668	12091.84
866.989	11965.97
867.309	11972.07
867.63	12024.95
867.95	11914.9
868.27	11976.37
868.59	11856.6
868.91	11898.4
869.23	11898.63
869.55	11834.22
869.87	11943.15
870.19	11850.04
870.51	11788.35
870.83	11784.96
871.15	11729.59
871.469	11721.46
871.789	11740.21
872.109	11709.71
872.428	11599.88
872.748	11703.6
873.067	11619.77
873.386	11688.24
873.706	11702.7
874.025	11571.63
874.344	11561.69
874.663	11601.46
874.982	11527.79
875.301	11502.71
875.62	11430.39
875.939	11458.87
876.258	11373.67
876.577	11360.79
876.896	11415.25
877.214	11358.08
877.533	11382.94
877.852	11332.99
878.17	11337.29
878.489	11374.12
878.807	11295.48
879.125	11210.06
879.444	11233.11
879.762	11235.37
880.08	11238.08
880.398	11190.4
880.716	11195.14
881.034	11099.55
881.352	11143.17
881.67	11056.39
881.988	11121.47
882.306	11038.54
882.624	11080.57
882.941	10957.18
883.259	10952.66
883.577	10930.74
883.894	10961.7
884.212	10904.3
884.529	10819.11
884.846	10860.69
885.164	10795.61
885.481	10807.58
885.798	10749.05
886.115	10715.83
886.432	10697.53
886.75	10667.25
887.067	10683.97
887.383	10689.62
887.7	10622.96
888.017	10596.06
888.334	10577.08
888.651	10533.47
888.967	10474.03
889.284	10450.98
889.6	10416.63
889.917	10406.69
890.233	10416.86
890.55	10393.58
890.866	10350.42
891.182	10297.99
891.498	10288.95
891.815	10234.04
892.131	10183.42
892.447	10159.92
892.763	10213.47
893.079	10116.98
893.395	10087.15
893.71	10073.37
894.026	9989.98
894.342	10023.42
894.657	9987.94
894.973	9946.59
895.289	9930.09
895.604	9897.55
895.92	9809.87
896.235	9831.11
896.55	9819.59
896.865	9720.38
897.181	9731.91
897.496	9695.07
897.811	9650.1
898.126	9577.56
898.441	9578.69
898.756	9602.19
899.071	9553.38
899.386	9549.31
899.7	9442.2
900.015	9380.5
900.33	9311.8
900.644	9280.62
900.959	9357.9
901.273	9289.66
901.588	9252.6
901.902	9238.13
902.216	9171.47
902.531	9075.88
902.845	9197.68
903.159	9087.63
903.473	9038.59
903.787	9060.51
904.101	8999.72
904.415	8988.87
904.729	8930.57
905.042	8862.32
905.356	8903.9
905.67	8896.45
905.984	8846.5
906.297	8749.11
906.611	8730.12
906.924	8754.76
907.237	8730.35
907.551	8680.18
907.864	8609
908.177	8587.3
908.491	8550.69
908.804	8483.35
909.117	8482.67
909.43	8446.74
909.743	8383.69
910.056	8386.4
910.368	8316.8
910.681	8277.48
910.994	8244.94
911.307	8199.52
911.619	8172.62
911.932	8166.52
912.244	8116.35
912.557	8120.2
912.869	8001.1
913.181	8072.74
913.494	8033.19
913.806	7949.58
914.118	7907.32
914.43	7908.22
914.742	7884.27
915.054	7821.9
915.366	7820.09
915.678	7731.73
915.99	7715.69
916.302	7689.7
916.613	7682.69
916.925	7636.82
917.236	7584.62
917.548	7562.7
917.859	7591.62
918.171	7468.01
918.482	7452.42
918.794	7427.33
919.105	7429.82
919.416	7371.97
919.727	7372.87
920.038	7357.28
920.349	7237.51
920.66	7253.1
920.971	7221.46
921.282	7204.06
921.593	7162.93
921.903	7098.98
922.214	7107.12
922.525	7120.45
922.835	7005.42
923.146	7035.93
923.456	6992.54
923.767	6936.5
924.077	6978.08
924.387	6927.91
924.697	6860.79
925.008	6873.45
925.318	6845.43
925.628	6792.77
925.938	6830.74
926.248	6703.06
926.558	6647.69
926.867	6689.73
927.177	6668.48
927.487	6607.24
927.796	6560.92
928.106	6595.94
928.416	6504.87
928.725	6556.62
929.034	6451.54
929.344	6447.25
929.653	6420.58
929.962	6400.02
930.271	6360.92
930.581	6329.51
930.89	6260.58
931.199	6240.7
931.508	6242.73
931.817	6271.66
932.125	6239.12
932.434	6179.46
932.743	6090.87
933.051	6142.62
933.36	6089.29
933.669	6054.49
933.977	6014.49
934.286	6025.34
934.594	5976.3
934.902	5985.11
935.21	5934.04
935.519	5934.94
935.827	5886.58
936.135	5897.43
936.443	5854.72
936.751	5779.69
937.059	5796.42
937.367	5776.75
937.674	5760.03
937.982	5790.99
938.29	5763.87
938.597	5713.03
938.905	5572.01
939.213	5657.66
939.52	5572.69
939.827	5592.8
940.135	5560.26
940.442	5532.24
940.749	5517.78
941.056	5463.54
941.363	5440.72
941.67	5351.23
941.977	5388.29
942.284	5378.12
942.591	5362.08
942.898	5271.23
943.205	5299.48
943.511	5300.84
943.818	5226.26
944.125	5249.31
944.431	5256.09
944.738	5249.54
945.044	5187.39
945.35	5126.6
945.657	5093.83
945.963	5092.71
946.269	5083.44
946.575	5069.2
946.881	5027.85
947.187	5031.01
947.493	4983.33
947.799	4988.75
948.105	4949.66
948.41	4946.95
948.716	4919.83
949.022	4918.47
949.327	4857.23
949.633	4798.02
949.938	4839.15
950.244	4828.53
950.549	4782.43
950.854	4753.73
951.16	4723
951.465	4757.57
951.77	4689.1
952.075	4696.11
952.38	4647.75
952.685	4634.64
952.99	4570.46
953.294	4621.08
953.599	4555.54
953.904	4530.46
954.209	4498.37
954.513	4532.49
954.818	4463.57
955.122	4528.88
955.426	4418.6
955.731	4465.38
956.035	4412.27
956.339	4416.79
956.643	4427.19
956.948	4323.69
957.252	4400.97
957.556	4356.45
957.86	4340.41
958.163	4309
958.467	4267.87
958.771	4234.65
959.075	4215.89
959.378	4166.4
959.682	4227.64
959.985	4222.22
960.289	4149.91
960.592	4130.7
960.896	4113.52
961.199	4133.18
961.502	4127.76
961.805	4080.53
962.108	4087.53
962.411	4045.5
962.714	3987.65
963.017	4013.86
963.32	4003.24
963.623	3991.72
963.926	3947.42
964.228	3933.19
964.531	3884.15
964.833	3918.72
965.136	3909.01
965.438	3843.47
965.741	3831.27
966.043	3828.33
966.345	3837.82
966.648	3794.21
966.95	3809.8
967.252	3744.72
967.554	3742.01
967.856	3680.76
968.158	3678.73
968.46	3716.47
968.761	3688.45
969.063	3636.92
969.365	3680.54
969.666	3631.5
969.968	3623.14
970.269	3610.26
970.571	3587.21
970.872	3565.97
971.174	3575.91
971.475	3568.9
971.776	3510.6
972.077	3549.69
972.378	3484.39
972.679	3502.46
972.98	3464.5
973.281	3429.02
973.582	3406.87
973.883	3399.64
974.183	3390.38
974.484	3390.83
974.785	3350.83
975.085	3362.36
975.386	3351.28
975.686	3336.59
975.986	3311.73
976.287	3326.42
976.587	3279.65
976.887	3263.83
977.187	3240.55
977.487	3284.62
977.787	3240.1
978.087	3243.04
978.387	3199.65
978.687	3211.62
978.987	3175.92
979.286	3128.46
979.586	3136.37
979.885	3091.63
980.185	3043.27
980.484	3088.01
980.784	3075.81
981.083	3080.78
981.382	3056.6
981.682	3064.28
981.981	3050.95
982.28	3000.33
982.579	3004.17
982.878	2984.74
983.177	2981.12
983.475	2960.78
983.774	2943.61
984.073	2935.02
984.372	2914.46
984.67	2890.5
984.969	2903.38
985.267	2839.66
985.566	2858.41
985.864	2878.75
986.162	2893.67
986.461	2843.5
986.759	2766.21
987.057	2836.04
987.355	2751.98
987.653	2811.64
987.951	2786.1
988.249	2783.84
988.547	2780
988.844	2745.42
989.142	2748.36
989.44	2702.49
989.737	2710.62
990.035	2666.55
990.332	2664.29
990.63	2696.38
990.927	2628.82
991.224	2655.93
991.521	2624.97
991.819	2602.6
992.116	2573.45
992.413	2563.73
992.71	2577.74
993.006	2567.12
993.303	2574.81
993.6	2524.41
993.897	2517.18
994.193	2487.8
994.49	2480.12
994.787	2464.3
995.083	2463.17
995.379	2442.83
995.676	2453.9
995.972	2425.88
996.268	2445.54
996.565	2403.06
996.861	2422.27
997.157	2401.02
997.453	2366.22
997.749	2352.66
998.044	2364.64
998.34	2362.83
998.636	2334.59
998.932	2305.66
999.227	2300.91
999.523	2338.88
999.818	2227.02
1000.114	2271.08
1000.409	2274.93
1000.704	2213.91
1001	2215.49
1001.295	2199.67
1001.59	2231.09
1001.885	2252.78
1002.18	2172.1
1002.475	2173.23
1002.77	2166.23
1003.065	2143.86
1003.359	2151.77
1003.654	2142.5
1003.949	2131.2
1004.243	2141.82
1004.538	2081.94
1004.832	2091.88
1005.127	2043.29
1005.421	2058.43
1005.715	2072.67
1006.009	2013.24
1006.304	2013.01
1006.598	2029.73
1006.892	2001.03
1007.186	1994.03
1007.48	1993.13
1007.773	1953.13
1008.067	1958.32
1008.361	1940.92
1008.655	1911.77
1008.948	1930.75
1009.242	1913.81
1009.535	1904.77
1009.829	1884.43
1010.122	1913.35
1010.415	1886.01
1010.708	1845.78
1011.001	1819.57
1011.295	1839.01
1011.588	1807.82
1011.881	1824.09
1012.173	1815.28
1012.466	1816.18
1012.759	1799.46
1013.052	1735.51
1013.344	1751.78
1013.637	1773.02
1013.93	1738.22
1014.222	1735.51
1014.514	1726.01
1014.807	1737.09
1015.099	1702.29
1015.391	1710.2
1015.683	1667.26
1015.976	1675.62
1016.268	1639.91
1016.56	1673.13
1016.851	1637.65
1017.143	1644.89
1017.435	1653.93
1017.727	1584.55
1018.018	1617.54
1018.31	1603.98
1018.602	1571.22
1018.893	1559.46
1019.185	1583.87
1019.476	1568.05
1019.767	1568.5
1020.058	1537.32
1020.35	1531.22
1020.641	1547.04
1020.932	1502.74
1021.223	1486.7
1021.514	1502.97
1021.804	1490.54
1022.095	1475.4
1022.386	1472.01
1022.677	1444.67
1022.967	1430.43
1023.258	1415.06
1023.548	1399.24
1023.839	1403.99
1024.129	1403.54
1024.419	1424.33
1024.709	1362.86
1025	1359.7
1025.29	1349.3
1025.58	1355.63
1025.87	1345.01
1026.16	1321.5
1026.449	1314.73
1026.739	1325.8
1027.029	1325.8
1027.319	1296.87
1027.608	1307.27
1027.898	1300.04
1028.187	1283.99
1028.477	1267.27
1028.766	1266.59
1029.055	1266.14
1029.344	1257.1
1029.634	1231.56
1029.923	1258.46
1030.212	1226.82
1030.501	1200.6
1030.79	1183.43
1031.078	1193.15
1031.367	1199.47
1031.656	1181.4
1031.945	1186.37
1032.233	1185.24
1032.522	1159.93
1032.81	1155.86
1033.099	1144.11
1033.387	1156.31
1033.675	1136.88
1033.963	1102.75
1034.251	1117.67
1034.54	1098.46
1034.828	1082.19
1035.116	1096.88
1035.403	1089.42
1035.691	1066.37
1035.979	1078.12
1036.267	1090.55
1036.554	1080.61
1036.842	1050.1
1037.129	1049.87
1037.417	1049.2
1037.704	1037.44
1037.992	1013.94
1038.279	1017.33
1038.566	1003.55
1038.853	1003.55
1039.14	1003.55
