Data from hue_36_FLMS001491_00072.txt Node
Date: Tue Feb 07 17:30:16 GMT 2017
User: dcchb
Spectrometer: FLMS00149
Trigger mode: 0
Integration Time (sec): 2.000000E-2
Scans to average: 10
Electric dark correction enabled: true
Nonlinearity correction enabled: false
Boxcar width: 0
XAxis mode: Wavelengths
Number of Pixels in Spectrum: 2048
>>>>>Begin Spectral Data<<<<<
341.393	-11.19
341.776	-11.19
342.16	-11.19
342.543	-56.16
342.927	-86.44
343.31	-73.78
343.693	-58.19
344.077	-71.3
344.46	-55.25
344.843	-42.82
345.226	-48.7
345.61	-34.46
345.993	-19.55
346.376	-12.09
346.759	19.1
347.142	34.69
347.525	21.58
347.908	57.29
348.291	74.24
348.674	96.83
349.057	112.43
349.44	126.44
349.823	138.41
350.206	140
350.588	164.4
350.971	220.9
351.354	220.67
351.737	213.21
352.119	241.69
352.502	258.86
352.884	278.07
353.267	266.32
353.65	292.08
354.032	294.34
354.414	304.06
354.797	306.09
355.179	331.18
355.562	329.14
355.944	330.73
356.326	330.27
356.709	344.28
357.091	342.48
357.473	332.76
357.855	355.58
358.238	363.95
358.62	339.09
359.002	342.25
359.384	333.44
359.766	357.39
360.148	327.34
360.53	332.76
360.912	332.53
361.294	331.18
361.676	356.49
362.057	331.18
362.439	326.88
362.821	337.05
363.203	331.86
363.584	325.3
363.966	359.65
364.348	343.83
364.729	313.78
365.111	324.4
365.493	325.98
365.874	326.66
366.256	302.93
366.637	315.36
367.019	321.91
367.4	328.01
367.781	313.1
368.163	313.55
368.544	306.09
368.925	329.37
369.306	313.78
369.688	320.33
370.069	328.01
370.45	307.9
370.831	320.78
371.212	327.34
371.593	307.68
371.974	325.75
372.355	320.1
372.736	328.01
373.117	322.59
373.498	308.81
373.879	307.68
374.26	310.39
374.641	330.27
375.021	306.77
375.402	329.37
375.783	349.71
376.163	335.02
376.544	344.74
376.925	326.66
377.305	330.95
377.686	321.69
378.066	326.21
378.447	316.94
378.827	343.61
379.208	330.95
379.588	315.81
379.968	356.94
380.349	338.64
380.729	339.09
381.109	324.62
381.489	321.01
381.87	336.38
382.25	337.73
382.63	326.88
383.01	333.44
383.39	362.14
383.77	343.15
384.15	356.26
384.53	337.05
384.91	353.55
385.29	342.7
385.67	368.01
386.049	352.65
386.429	335.02
386.809	368.92
387.189	348.35
387.568	367.33
387.948	348.35
388.328	364.17
388.707	338.18
389.087	368.69
389.466	347.9
389.846	372.53
390.225	378.86
390.605	368.92
390.984	382.48
391.363	371.4
391.743	378.41
392.122	361.69
392.501	365.53
392.881	371.85
393.26	368.01
393.639	361.69
394.018	363.27
394.397	385.19
394.776	386.09
395.155	384.28
395.534	367.33
395.913	374.11
396.292	404.85
396.671	387
397.05	380.44
397.429	396.49
397.808	392.87
398.186	387.9
398.565	385.41
398.944	402.14
399.323	380.22
399.701	393.55
400.08	369.82
400.458	408.24
400.837	391.97
401.215	383.15
401.594	406.88
401.972	388.58
402.351	425.41
402.729	405.98
403.107	406.43
403.486	396.26
403.864	394.9
404.242	413.89
404.62	407.11
404.999	423.83
405.377	417.73
405.755	426.99
406.133	405.98
406.511	429.71
406.889	436.03
407.267	425.19
407.645	424.51
408.023	433.1
408.401	430.61
408.779	437.62
409.156	465.41
409.534	436.94
409.912	460.67
410.29	445.53
410.667	440.55
411.045	467.45
411.422	455.47
411.8	471.74
412.178	461.34
412.555	445.07
412.933	478.74
413.31	477.39
413.687	479.87
414.065	464.73
414.442	474.9
414.819	491.17
415.197	491.85
415.574	479.42
415.951	495.24
416.328	500.66
416.705	481.91
417.082	479.65
417.46	503.38
417.837	509.03
418.214	504.51
418.591	499.53
418.967	489.59
419.344	492.3
419.721	498.18
420.098	523.94
420.475	530.49
420.852	491.4
421.228	523.26
421.605	519.65
421.982	543.83
422.358	532.98
422.735	548.12
423.111	532.98
423.488	557.84
423.864	546.54
424.241	560.1
424.617	525.52
424.994	568.01
425.37	572.98
425.746	562.36
426.123	563.26
426.499	556.93
426.875	581.11
427.251	572.3
427.627	581.79
428.003	595.35
428.379	593.54
428.756	578.4
429.132	585.86
429.507	603.26
429.883	619.31
430.259	607.1
430.635	625.86
431.011	605.75
431.387	621.11
431.763	617.05
432.138	611.4
432.514	633.32
432.89	633.99
433.265	642.13
433.641	638.06
434.016	654.33
434.392	671.06
434.767	671.06
435.143	660.66
435.518	680.77
435.894	684.84
436.269	721.22
436.644	713.31
437.02	693.65
437.395	693.43
437.77	693.2
438.145	716.25
438.52	728.68
438.895	735.46
439.271	747.21
439.646	734.1
440.021	742.92
440.395	730.72
440.77	744.5
441.145	750.6
441.52	747.66
441.895	746.99
442.27	778.85
442.645	751.73
443.019	771.17
443.394	769.36
443.769	789.92
444.143	790.37
444.518	788.34
444.892	789.7
445.267	815.68
445.641	786.76
446.016	803.48
446.39	784.73
446.764	793.31
447.139	813.42
447.513	807.1
447.887	829.02
448.262	818.85
448.636	829.7
449.01	838.51
449.384	839.86
449.758	877.6
450.132	873.99
450.506	858.62
450.88	858.4
451.254	868.11
451.628	875.12
452.002	871.73
452.376	872.63
452.75	894.1
453.123	886.64
453.497	909.92
453.871	913.31
454.244	896.13
454.618	929.13
454.992	930.48
455.365	948.34
455.739	962.12
456.112	968.22
456.486	965.96
456.859	981.33
457.232	1018.39
457.606	1003.7
457.979	1003.02
458.352	1000.54
458.725	1037.15
459.099	1056.58
459.472	1049.12
459.845	1062.91
460.218	1053.87
460.591	1077.15
460.964	1088.9
461.337	1105.17
461.71	1103.59
462.083	1110.37
462.456	1151.72
462.829	1137.03
463.201	1151.72
463.574	1180.87
463.947	1167.99
464.32	1236.46
464.692	1189.69
465.065	1238.27
465.438	1222.23
465.81	1266.29
466.183	1249.8
466.555	1291.15
466.928	1285.5
467.3	1305.62
467.672	1334.99
468.045	1381.32
468.417	1389
468.789	1395.78
469.161	1392.39
469.534	1438.04
469.906	1462.45
470.278	1470.58
470.65	1461.77
471.022	1519.62
471.394	1510.36
471.766	1564.59
472.138	1578.15
472.51	1615.66
472.882	1665.83
473.253	1687.07
473.625	1697.92
473.997	1737.69
474.369	1749.9
474.74	1776.56
475.112	1826.28
475.484	1866.96
475.855	1917.35
476.227	1972.04
476.598	2018.37
476.97	2022.43
477.341	2057.69
477.713	2125.93
478.084	2136.78
478.455	2264.91
478.827	2264.23
479.198	2351.92
479.569	2362.08
479.94	2429.65
480.311	2475.75
480.682	2548.29
481.053	2645.92
481.424	2694.28
481.795	2752.13
482.166	2780.15
482.537	2888.17
482.908	2975.85
483.279	3032.8
483.65	3090.2
484.021	3204.32
484.391	3225.11
484.762	3322.06
485.133	3383.75
485.503	3487.7
485.874	3607.25
486.244	3654.71
486.615	3750.75
486.985	3833.23
487.356	3891.54
487.726	3945.32
488.097	4105.77
488.467	4173.56
488.837	4301.47
489.207	4388.92
489.578	4492.88
489.948	4563.16
490.318	4677.96
490.688	4788.24
491.058	4898.52
491.428	4996.59
491.798	5059.41
492.168	5161.79
492.538	5264.38
492.908	5408.33
493.278	5468.9
493.648	5542.57
494.017	5648.78
494.387	5770.58
494.757	5861.65
495.126	5973.74
495.496	5957.92
495.866	6118.6
496.235	6245.82
496.605	6331.25
496.974	6396.33
497.344	6441.75
497.713	6497.8
498.082	6594.29
498.452	6792.48
498.821	6813.27
499.19	6954.96
499.559	6963.09
499.928	7081.96
500.298	7116.99
500.667	7250.77
501.036	7302.52
501.405	7398.11
501.774	7403.08
502.143	7607.14
502.512	7632.68
502.88	7746.8
503.249	7738.67
503.618	7805.33
503.987	7896.18
504.356	7953.35
504.724	8040.13
505.093	8117.19
505.462	8249.61
505.83	8278.54
506.199	8413
506.567	8497.52
506.936	8511.98
507.304	8671.07
507.672	8672.65
508.041	8769.37
508.409	8814.57
508.777	8979.54
509.145	8937.73
509.514	9012.31
509.882	9144.28
510.25	9146.54
510.618	9240.55
510.986	9211.85
511.354	9397.83
511.722	9450.26
512.09	9469.47
512.458	9523.03
512.826	9566.64
513.193	9648.22
513.561	9723.47
513.929	9839.63
514.297	9901.55
514.664	9937.7
515.032	10059.28
515.4	10076.68
515.767	10177.7
516.135	10233.29
516.502	10187.19
516.869	10336.11
517.237	10400.52
517.604	10324.59
517.972	10466.05
518.339	10509.22
518.706	10637.57
519.073	10599.38
519.44	10727.97
519.808	10824.69
520.175	10818.81
520.542	10991.46
520.909	10995.76
521.276	11017
521.643	11111.91
522.009	11175.41
522.376	11250.21
522.743	11313.26
523.11	11437.1
523.477	11476.2
523.843	11501.73
524.21	11646.36
524.577	11720.71
524.943	11776.3
525.31	11862.85
525.676	12016.52
526.043	12019.46
526.409	12065.56
526.776	12230.98
527.142	12299.9
527.508	12339.22
527.874	12415.61
528.241	12537.41
528.607	12520.46
528.973	12594.36
529.339	12688.37
529.705	12796.39
530.071	12884.07
530.437	12959.32
530.803	13071.18
531.169	13071.41
531.535	13032.09
531.901	13123.38
532.267	13089.49
532.632	13224.17
532.998	13312.53
533.364	13426.2
533.73	13467.56
534.095	13550.49
534.461	13549.36
534.826	13734.22
535.192	13697.15
535.557	13732.41
535.923	13758.17
536.288	13871.16
536.653	13895.34
537.019	14008.56
537.384	13916.58
537.749	14060.99
538.114	14134.43
538.479	14154.54
538.845	14256.01
539.21	14189.34
539.575	14269.12
539.94	14362.45
540.305	14493.74
540.67	14445.38
541.034	14495.33
541.399	14514.99
541.764	14553.63
542.129	14724.02
542.494	14781.42
542.858	14843.11
543.223	14837.01
543.587	14930.79
543.952	14946.61
544.316	15039.72
544.681	15008.76
545.045	15137.79
545.41	15180.05
545.774	15213.05
546.138	15257.34
546.503	15265.93
546.867	15303.44
547.231	15476.99
547.595	15489.65
547.959	15545.69
548.324	15543.89
548.688	15642.19
549.052	15675.63
549.416	15737.1
549.779	15754.95
550.143	15843.31
550.507	15949.3
550.871	15928.06
551.235	15954.95
551.599	16120.14
551.962	16180.93
552.326	16240.36
552.689	16295.96
553.053	16242.4
553.417	16326.69
553.78	16522.62
554.143	16378.67
554.507	16502.28
554.87	16624.31
555.234	16683.52
555.597	16646.45
555.96	16629.73
556.323	16812.78
556.686	16840.57
557.05	16886.67
557.413	16990.17
557.776	17055.71
558.139	17073.56
558.502	17178.19
558.865	17225.87
559.228	17271.52
559.59	17380.9
559.953	17305.19
560.316	17496.83
560.679	17569.37
561.041	17706.77
561.404	17719.42
561.767	17856.14
562.129	17829.02
562.492	18016.14
562.854	17899.76
563.217	17919.42
563.579	18097.26
563.941	18226.98
564.304	18281.21
564.666	18337.48
565.028	18416.58
565.39	18439.18
565.753	18563.69
566.115	18646.63
566.477	18714.2
566.839	18709.45
567.201	18917.13
567.563	18824.7
567.925	18965.26
568.287	18945.38
568.648	19092.49
569.01	19128.42
569.372	19297.91
569.734	19138.37
570.095	19377
570.457	19519.83
570.819	19515.76
571.18	19574.29
571.542	19685.25
571.903	19718.46
572.265	19741.74
572.626	19849.76
572.987	19986.25
573.349	20076.2
573.71	20204.55
574.071	20222.41
574.432	20314.83
574.794	20557.09
575.155	20509.63
575.516	20611.77
575.877	20715.5
576.238	20797.53
576.599	20957.98
576.96	21002.5
577.32	21117.75
577.681	21273.9
578.042	21470.28
578.403	21583.73
578.763	21519.1
579.124	21787.34
579.485	21901.01
579.845	22007.9
580.206	22129.93
580.566	22278.85
580.927	22362.24
581.287	22621.89
581.648	22754.77
582.008	22936.23
582.368	23094.2
582.728	23251.93
583.089	23368.76
583.449	23478.82
583.809	23724.01
584.169	23911.8
584.529	24031.57
584.889	24412.13
585.249	24400.6
585.609	24633.14
585.969	24969.85
586.329	25031.32
586.688	25270.63
587.048	25460.01
587.408	25559.21
587.768	25759.66
588.127	26058.64
588.487	26328.01
588.846	26585.18
589.206	26644.61
589.565	26816.13
589.925	27185.39
590.284	27333.63
590.643	27540.18
591.003	27831.25
591.362	28180.16
591.721	28240.05
592.08	28531.11
592.44	28815.17
592.799	29096.98
593.158	29187.37
593.517	29354.37
593.876	29621.03
594.235	29759.1
594.593	30102.6
594.952	30330.84
595.311	30397.05
595.67	30760.43
596.029	31120.42
596.387	31405.84
596.746	31613.97
597.104	31627.53
597.463	31929.22
597.822	32156.56
598.18	32274.29
598.538	32407.4
598.897	32873.37
599.255	32785.24
599.613	33411.44
599.972	33395.62
600.33	33509.74
600.688	33655.73
601.046	34029.05
601.404	34271.3
601.762	34362.37
602.12	34740.44
602.478	34863.15
602.836	35075.57
603.194	35020.44
603.552	35175.46
603.91	35351.5
604.268	35649.8
604.625	35755.33
604.983	35999.62
605.341	35932.73
605.698	36181.08
606.056	36501.3
606.413	36541.98
606.771	36750.79
607.128	36996.88
607.485	36980.61
607.843	37026.71
608.2	37395.29
608.557	37747.6
608.914	37616.53
609.272	37786.24
609.629	37962.73
609.986	38376.51
610.343	38169.73
610.7	38644.52
611.057	38584.18
611.414	38746.66
611.771	38850.39
612.127	39094.45
612.484	39149.37
612.841	39293.09
613.198	39269.14
613.554	39425.97
613.911	39649.24
614.267	39858.5
614.624	39857.82
614.98	39965.84
615.337	40211.26
615.693	40236.57
616.05	40217.13
616.406	40672.04
616.762	40556.79
617.118	40614.64
617.475	40677.91
617.831	40919.04
618.187	40990.45
618.543	41013.05
618.899	41290.1
619.255	41106.6
619.611	41261.63
619.967	41590.43
620.323	41638.34
620.678	41620.04
621.034	41473.15
621.39	41580.04
621.746	41506.82
622.101	42065
622.457	41943.19
622.812	41867.71
623.168	41979.8
623.523	42147.25
623.879	42214.14
624.234	41972.12
624.589	42318.32
624.945	42298.44
625.3	42463.63
625.655	42397.87
626.01	42490.07
626.365	42642.83
626.72	42530.52
627.075	42516.51
627.43	42612.33
627.785	42600.35
628.14	42695.26
628.495	42666.11
628.85	42696.17
629.205	42581.59
629.559	42777.97
629.914	42693.91
630.269	42752.66
630.623	42533.01
630.978	42636.05
631.332	42802.83
631.687	42895.03
632.041	42797.18
632.396	42961.92
632.75	42683.96
633.104	42879.66
633.459	42721.25
633.813	42778.65
634.167	42750.4
634.521	42686.67
634.875	42805.99
635.229	42715.15
635.583	42577.3
635.937	42533.01
636.291	42551.76
636.645	42741.14
636.999	42568.26
637.352	42764.41
637.706	42407.13
638.06	42622.04
638.413	42548.15
638.767	42460.92
639.121	42581.14
639.474	42434.25
639.828	42545.21
640.181	42341.6
640.534	42441.93
640.888	42325.55
641.241	42199.91
641.594	42337.76
641.947	42411.2
642.301	42425.44
642.654	42344.08
643.007	42433.35
643.36	42383.18
643.713	42284.2
644.066	42348.6
644.419	42189.06
644.771	41924.43
645.124	41483.54
645.477	41447.16
645.83	41293.94
646.182	41102.08
646.535	41185.02
646.888	41125.59
647.24	40940.96
647.593	41215.98
647.945	41067.51
648.298	40965.82
648.65	41008.75
649.002	40838.59
649.355	40936.66
649.707	40831.81
650.059	41015.08
650.411	41577.78
650.763	41540.26
651.115	41887.6
651.467	41738
651.819	41818.9
652.171	41807.6
652.523	41579.13
652.875	41644.67
653.227	41434.73
653.578	41706.59
653.93	41779.35
654.282	41471.11
654.633	41440.15
654.985	41548.17
655.337	41470.89
655.688	41462.75
656.039	41774.38
656.391	41256.2
656.742	41481.28
657.094	41440.61
657.445	41527.38
657.796	41450.1
658.147	41490.77
658.498	41432.47
658.849	41532.81
659.2	41410.78
659.551	41321.74
659.902	41454.84
660.253	41274.73
660.604	41418.46
660.955	41259.14
661.306	41366.26
661.656	41281.74
662.007	41307.73
662.358	41264.34
662.708	41229.09
663.059	41191.12
663.409	41024.12
663.76	41279.25
664.11	41204
664.461	41284.45
664.811	41297.33
665.161	41160.16
665.511	41069.77
665.862	41088.3
666.212	41295.75
666.562	41133.95
666.912	41116.32
667.262	41078.81
667.612	41068.64
667.962	41135.3
668.312	41074.29
668.662	41293.94
669.011	41057.34
669.361	41093.5
669.711	41002.2
670.06	40980.5
670.41	40965.59
670.76	40934.18
671.109	41057.34
671.459	41039.94
671.808	41065.02
672.157	40964.46
672.507	40730.34
672.856	40770.11
673.205	40940.96
673.554	40917.23
673.904	40895.76
674.253	41036.77
674.602	40979.83
674.951	40519.27
675.3	40307.53
675.649	40729.44
675.998	40686.05
676.346	40920.84
676.695	41015.76
677.044	40505.49
677.393	40677.24
677.741	40736.67
678.09	40686.5
678.438	40560.18
678.787	40641.3
679.135	40604.47
679.484	40329.67
679.832	40651.93
680.181	40228.66
680.529	40534.87
680.877	40416.68
681.225	40147.98
681.573	40592.94
681.922	40193.86
682.27	40148.44
682.618	40179.4
682.966	40057.14
683.314	40078.61
683.661	40030.25
684.009	39920.42
684.357	39774.66
684.705	39675.23
685.053	39775.79
685.4	39732.63
685.748	39553.2
686.095	39531.73
686.443	39443.6
686.79	39302.36
687.138	39434.56
687.485	39210.16
687.832	39233.66
688.18	39275.92
688.527	39036.15
688.874	39025.75
689.221	38988.24
689.568	38859.2
689.915	38736.27
690.262	38809.49
690.609	38592.77
690.956	38655.59
691.303	38397.3
691.65	38361.82
691.997	38355.04
692.344	38147.58
692.69	38175.83
693.037	38055.16
693.383	37940.36
693.73	37977.87
694.077	37794.6
694.423	37778.1
694.769	37545.79
695.116	37590.76
695.462	37492.46
695.808	37519.13
696.155	37476.64
696.501	37329.3
696.847	37277.55
697.193	36976.09
697.539	37088.18
697.885	36934.51
698.231	36762.31
698.577	36747.4
698.923	36767.96
699.269	36490.45
699.614	36462.43
699.96	36223.57
700.306	36424.24
700.651	36119.16
700.997	36035.1
701.342	35978.83
701.688	35920.75
702.033	35845.5
702.379	35890.24
702.724	35724.82
703.069	35811.6
703.415	35376.36
703.76	35483.7
704.105	35377.26
704.45	35343.59
704.795	35083.71
705.14	35038.06
705.485	35063.6
705.83	34819.08
706.175	34802.81
706.52	34741.12
706.865	34633.1
707.209	34700.44
707.554	34560.33
707.899	34647.56
708.243	34289.15
708.588	34419.09
708.932	34084.87
709.277	34111.31
709.621	34176.62
709.966	33895.27
710.31	34069.05
710.654	33719
710.998	33854.14
711.342	33769.39
711.687	33662.5
712.031	33664.54
712.375	33456.86
712.719	33466.13
713.063	33439.46
713.407	33514.03
713.75	33204.89
714.094	33189.97
714.438	33103.65
714.782	33225.23
715.125	33041.5
715.469	33026.59
715.812	32904.56
716.156	32822.98
716.499	32729.65
716.843	32860.04
717.186	32599.26
717.53	32796.76
717.873	32730.78
718.216	32650.78
718.559	32477
718.902	32276.78
719.246	32381.63
719.589	32212.37
719.932	32172.15
720.275	32079.5
720.617	32213.5
720.96	31981.42
721.303	31985.26
721.646	32050.34
721.989	31771.03
722.331	31992.49
722.674	31711.14
723.016	31851.25
723.359	31683.57
723.701	31755.89
724.044	31543.24
724.386	31533.97
724.729	31579.4
725.071	31491.49
725.413	31452.39
725.755	31375.56
726.097	31318.84
726.439	31161.1
726.782	31128.11
727.124	31305.73
727.465	31089.24
727.807	31063.93
728.149	30964.04
728.491	30976.47
728.833	30930.6
729.175	30876.59
729.516	30771.06
729.858	30716.59
730.199	30676.14
730.541	30717.72
730.882	30648.12
731.224	30726.54
731.565	30557.28
731.906	30557.95
732.248	30604.73
732.589	30338.98
732.93	30289.26
733.271	30271.86
733.612	30410.16
733.953	30376.49
734.294	30113.45
734.635	30169.72
734.976	30098.76
735.317	29925.65
735.658	30092.88
735.999	29976.5
736.339	29972.66
736.68	30050.17
737.021	29977.86
737.361	29819.22
737.702	29834.58
738.042	29853.34
738.383	29734.7
738.723	29832.32
739.063	29541.94
739.404	29632.1
739.744	29501.94
740.084	29514.37
740.424	29449.96
740.764	29463.52
741.104	29624.87
741.444	29300.59
741.784	29180.59
742.124	29423.52
742.464	29333.8
742.804	29226.24
743.143	29175.39
743.483	29153.02
743.823	28869.86
744.162	28890.88
744.502	29051.55
744.841	28899.47
745.181	28934.49
745.52	28921.61
745.86	28788.51
746.199	28761.84
746.538	28745.12
746.877	28665.57
747.216	28788.06
747.556	28641.62
747.895	28682.3
748.234	28625.8
748.573	28479.59
748.911	28327.73
749.25	28477.56
749.589	28329.99
749.928	28316.88
750.267	28384
750.605	28281.86
750.944	28251.57
751.283	28110.33
751.621	28196.66
751.96	28124.8
752.298	27994.18
752.636	27997.34
752.975	27830.12
753.313	27703.57
753.651	27899.49
753.989	27671.02
754.327	27650.01
754.666	27542.44
755.004	27564.59
755.342	27554.64
755.679	27511.71
756.017	27339.28
756.355	27454.53
756.693	27301.54
757.031	27280.75
757.368	27071.94
757.706	27138.38
758.044	27060.42
758.381	27094.77
758.719	26786.98
759.056	26894.55
759.394	26824.04
759.731	26603.26
760.068	26558.06
760.405	26420.66
760.743	26388.12
761.08	26626.98
761.417	26263.38
761.754	26363.49
762.091	26261.12
762.428	26032.65
762.765	25961.92
763.102	25951.97
763.438	25900.22
763.775	25734.8
764.112	25767.12
764.449	25873.11
764.785	25646.22
765.122	25496.39
765.458	25298.66
765.795	25361.03
766.131	25346.11
766.467	25247.36
766.804	25120.36
767.14	25001.72
767.476	25037.87
767.812	24864.32
768.148	24879.46
768.485	24651.89
768.821	24582.52
769.157	24648.28
769.492	24433.14
769.828	24490.09
770.164	24263.2
770.5	24196.09
770.836	24243.09
771.171	23993.38
771.507	23961.06
771.842	23824.12
772.178	23787.06
772.513	23719.72
772.849	23729.21
773.184	23644.69
773.519	23622.32
773.855	23407.63
774.19	23442.43
774.525	23276.34
774.86	23264.36
775.195	23169
775.53	23141.88
775.865	22971.26
776.2	22837.7
776.535	22636.58
776.87	22700.53
777.205	22721.55
777.539	22526.98
777.874	22463.03
778.209	22404.27
778.543	22277.95
778.878	22310.03
779.212	22195.69
779.547	22058.06
779.881	22091.28
780.215	21899.2
780.55	21976.48
780.884	21851.97
781.218	21696.04
781.552	21635.48
781.886	21522.94
782.22	21520
782.554	21461.7
782.888	21234.13
783.222	21208.82
783.556	21054.93
783.889	21009.73
784.223	20936.06
784.557	20787.81
784.89	20904.65
785.224	20767.7
785.557	20678.89
785.891	20539.69
786.224	20661.94
786.558	20544.88
786.891	20345.11
787.224	20248.62
787.557	20145.57
787.891	20137.66
788.224	20249.75
788.557	20058.12
788.89	20017.89
789.223	20111.22
789.556	19889.53
789.888	19786.03
790.221	19760.05
790.554	19628.75
790.887	19601.86
791.219	19447.06
791.552	19508.98
791.884	19289.1
792.217	19331.36
792.549	19250.45
792.882	19171.59
793.214	19078.26
793.546	18976.79
793.879	18922.78
794.211	18793.07
794.543	18764.14
794.875	18805.72
795.207	18843.01
795.539	18702.67
795.871	18645.27
796.203	18514.88
796.535	18440.53
796.867	18325.96
797.198	18367.09
797.53	18394.21
797.862	18202.57
798.193	18184.72
798.525	18081.22
798.856	18048
799.188	17916.93
799.519	17800.32
799.85	17779.08
800.182	17809.81
800.513	17786.31
800.844	17589.03
801.175	17717.84
801.506	17688.69
801.837	17527.56
802.168	17556.26
802.499	17484.17
802.83	17335.7
803.161	17318.98
803.491	17305.42
803.822	17411.18
804.153	17176.38
804.483	17065.43
804.814	17014.58
805.145	17113.79
805.475	17062.49
805.805	16979.78
806.136	16935.71
806.466	16901.14
806.796	16842.83
807.126	16832.21
807.457	16796.51
807.787	16777.07
808.117	16663.86
808.447	16588.38
808.777	16628.83
809.107	16571.88
809.436	16417.53
809.766	16436.97
810.096	16346.58
810.426	16387.93
810.755	16308.16
811.085	16278.56
811.414	16138.22
811.744	16126.69
812.073	16046.47
812.403	16000.37
812.732	15955.63
813.061	16020.93
813.39	15924.21
813.719	15876.76
814.049	15896.64
814.378	15845.57
814.707	15749.53
815.036	15723.77
815.365	15630.66
815.693	15502.3
816.022	15527.84
816.351	15500.04
816.68	15355.19
817.008	15485.58
817.337	15227.06
817.665	15315.19
817.994	15239.94
818.322	15346.83
818.651	15149.32
818.979	15132.14
819.307	15120.39
819.636	15125.59
819.964	15001.98
820.292	15146.61
820.62	15140.28
820.948	15112.71
821.276	15001.3
821.604	15048.76
821.932	15075.65
822.259	15083.78
822.587	14988.87
822.915	15018.93
823.243	15075.65
823.57	14978.7
823.898	15071.58
824.225	14897.12
824.553	14881.98
824.88	14889.89
825.207	14946.84
825.535	15000.85
825.862	15004.01
826.189	14887.63
826.516	15058.7
826.843	15031.81
827.17	14946.16
827.497	15028.42
827.824	14950.91
828.151	14976.89
828.478	14974.86
828.805	15029.55
829.131	14901.42
829.458	14867.74
829.785	14827.97
830.111	14927.4
830.438	14894.64
830.764	14912.04
831.09	14993.39
831.417	14833.17
831.743	14935.77
832.069	14840.4
832.395	14824.13
832.722	14823.23
833.048	14825.26
833.374	14844.02
833.7	14774.41
834.026	14800.4
834.351	14818.48
834.677	14712.49
835.003	14787.07
835.329	14693.96
835.654	14763.34
835.98	14692.61
836.306	14598.15
836.631	14546.62
836.956	14630.24
837.282	14675.66
837.607	14582.1
837.932	14597.24
838.258	14545.27
838.583	14485.16
838.908	14492.16
839.233	14444.25
839.558	14352.73
839.883	14350.47
840.208	14324.93
840.533	14301.21
840.858	14267.31
841.182	14299.4
841.507	14288.78
841.832	14228.44
842.156	14199.29
842.481	14211.94
842.805	14119.74
843.13	14088.78
843.454	13994.77
843.778	14018.95
844.103	14027.77
844.427	13938.96
844.751	14055.56
845.075	13903.93
845.399	13848.11
845.723	13876.58
846.047	13741.45
846.371	13667.32
846.695	13734.89
847.019	13632.97
847.343	13512.98
847.666	13449.25
847.99	13443.83
848.313	13426.43
848.637	13281.8
848.96	13347.11
849.284	13285.41
849.607	13170.84
849.931	13142.14
850.254	13059.88
850.577	12914.8
850.9	12862.6
851.223	12884.29
851.546	12800
851.869	12770.85
852.192	12854.92
852.515	12645.66
852.838	12703.51
853.161	12629.61
853.483	12579.67
853.806	12463.74
854.129	12510.52
854.451	12484.53
854.774	12434.59
855.096	12334.48
855.419	12328.6
855.741	12351.2
856.063	12209.06
856.385	12271.88
856.708	12183.52
857.03	12070.98
857.352	12097.42
857.674	12114.37
857.996	11970.19
858.318	11926.81
858.64	11942.85
858.961	11864.66
859.283	11810.88
859.605	11811.1
859.926	11823.98
860.248	11770.88
860.57	11720.93
860.891	11786.7
861.212	11728.39
861.534	11614.95
861.855	11544.44
862.176	11650.65
862.498	11738.56
862.819	11570.2
863.14	11570.2
863.461	11591.9
863.782	11469.19
864.103	11525.91
864.424	11452.47
864.745	11498.57
865.065	11420.83
865.386	11310.32
865.707	11382.64
866.027	11356.88
866.348	11314.84
866.668	11335.18
866.989	11243.66
867.309	11256.09
867.63	11273.71
867.95	11228.52
868.27	11225.58
868.59	11194.17
868.91	11152.81
869.23	11115.75
869.55	11098.35
869.87	11156.43
870.19	11103.55
870.51	11125.02
870.83	11140.39
871.15	11015.42
871.469	11055.42
871.789	11012.7
872.109	11021.07
872.428	10908.53
872.748	10936.55
873.067	10907.17
873.386	10897.91
873.706	10915.53
874.025	10793.28
874.344	10795.76
874.663	10804.35
874.982	10798.25
875.301	10751.24
875.62	10755.08
875.939	10706.5
876.258	10723.9
876.577	10712.15
876.896	10707.63
877.214	10701.3
877.533	10696.33
877.852	10606.61
878.17	10619.95
878.489	10649.32
878.807	10579.95
879.125	10537.01
879.444	10532.72
879.762	10535.2
880.08	10593.28
880.398	10479.16
880.716	10479.16
881.034	10504.7
881.352	10421.08
881.67	10496.56
881.988	10467.18
882.306	10340.41
882.624	10323.91
882.941	10329.33
883.259	10271.26
883.577	10249.79
883.894	10203.01
884.212	10292.27
884.529	10231.71
884.846	10184.48
885.164	10143.12
885.481	10160.75
885.798	10147.19
886.115	10081.43
886.432	10005.73
886.75	10012.05
887.067	10087.31
887.383	10023.58
887.7	10012.51
888.017	9935.22
888.334	9890.7
888.651	9949
888.967	9921.66
889.284	9865.84
889.6	9859.29
889.917	9736.35
890.233	9782.91
890.55	9721.89
890.866	9702.68
891.182	9697.71
891.498	9667.66
891.815	9616.13
892.131	9636.47
892.447	9553.31
892.763	9534.55
893.079	9499.3
893.395	9427.66
893.71	9407.32
894.026	9415.46
894.342	9387.21
894.657	9283.48
894.973	9282.35
895.289	9322.35
895.604	9256.14
895.92	9219.31
896.235	9218.85
896.55	9124.17
896.865	9137.5
897.181	9116.03
897.496	9083.26
897.811	9089.37
898.126	9103.38
898.441	8970.27
898.756	8950.16
899.071	8898.18
899.386	8948.58
899.7	8862.48
900.015	8835.36
900.33	8779.54
900.644	8778.87
900.959	8756.72
901.273	8730.96
901.588	8676.95
901.902	8627
902.216	8591.3
902.531	8556.05
902.845	8565.99
903.159	8493
903.473	8475.37
903.787	8446.44
904.101	8427.69
904.415	8431.3
904.729	8412.32
905.042	8341.59
905.356	8296.39
905.67	8290.06
905.984	8290.52
906.297	8261.59
906.611	8169.39
906.924	8195.6
907.237	8202.38
907.551	8125.55
907.864	8122.84
908.177	8069.28
908.491	8080.58
908.804	8015.27
909.117	7994.03
909.43	7921.49
909.743	7862.51
910.056	7873.58
910.368	7748.84
910.681	7798.55
910.994	7719.46
911.307	7736.18
911.619	7634.94
911.932	7643.98
912.244	7619.57
912.557	7570.76
912.869	7577.31
913.181	7582.74
913.494	7509.07
913.806	7425.91
914.118	7453.48
914.43	7391.56
914.742	7355.4
915.054	7356.08
915.366	7305.01
915.678	7295.29
915.99	7281.5
916.302	7183.2
916.613	7156.99
916.925	7201.96
917.236	7134.84
917.548	7048.29
917.859	7074.73
918.171	7020.04
918.482	7033.15
918.794	7029.98
919.105	7015.52
919.416	6931.46
919.727	6939.37
920.038	6831.8
920.349	6789.31
920.66	6797.22
920.971	6786.38
921.282	6784.12
921.593	6707.28
921.903	6704.8
922.214	6658.69
922.525	6620.05
922.835	6615.53
923.146	6564.23
923.456	6557.68
923.767	6518.36
924.077	6498.02
924.387	6429.55
924.697	6387.97
925.008	6414.86
925.318	6351.36
925.628	6399.94
925.938	6360.62
926.248	6290.12
926.558	6273.62
926.867	6268.65
927.177	6243.34
927.487	6237.92
927.796	6136.67
928.106	6158.37
928.416	6112.49
928.725	6115.88
929.034	6029.11
929.344	6075.43
929.653	5986.17
929.962	6051.03
930.271	5941.65
930.581	5928.54
930.89	5971.26
931.199	5900.3
931.508	5884.03
931.817	5856.68
932.125	5843.58
932.434	5781.43
932.743	5796.57
933.051	5765.61
933.36	5644.48
933.669	5636.8
933.977	5630.02
934.286	5655.56
934.594	5597.25
934.902	5594.99
935.21	5518.84
935.519	5561.55
935.827	5511.83
936.135	5466.18
936.443	5440.87
936.751	5428.9
937.059	5435.45
937.367	5382.34
937.674	5369.69
937.982	5395.9
938.29	5303.7
938.597	5333.08
938.905	5283.82
939.213	5260.99
939.52	5265.06
939.827	5249.01
940.135	5192.29
940.442	5183.03
940.749	5164.72
941.056	5167.21
941.363	5109.36
941.67	5122.01
941.977	5049.7
942.284	5045.4
942.591	5071.62
942.898	5055.57
943.205	4987.1
943.511	4933.99
943.818	4908.46
944.125	4894.22
944.431	4932.86
944.738	4875.69
945.044	4846.09
945.35	4832.53
945.657	4790.04
945.963	4785.3
946.269	4777.61
946.575	4736.71
946.881	4740.33
947.187	4741.91
947.493	4701.23
947.799	4705.3
948.105	4637.73
948.41	4646.09
948.716	4642.7
949.022	4609.94
949.327	4590.5
949.633	4545.08
949.938	4526.55
950.244	4538.98
950.549	4486.55
950.854	4467.11
951.16	4450.39
951.465	4465.76
951.77	4422.37
952.075	4387.34
952.38	4368.59
952.685	4397.51
952.99	4343.28
953.294	4336.27
953.599	4289.94
953.904	4280.23
954.209	4220.34
954.513	4247.91
954.818	4240.68
955.122	4201.13
955.426	4188.7
955.731	4141.25
956.035	4179.89
956.339	4097.18
956.643	4133.56
956.948	4098.99
957.252	4113.23
957.556	4101.02
957.86	4042.49
958.163	4042.04
958.467	4001.82
958.771	4002.95
959.075	4002.27
959.378	3975.15
959.682	3960.01
959.985	3942.38
960.289	3935.83
960.592	3945.09
960.896	3899.45
961.199	3864.87
961.502	3879.56
961.805	3862.84
962.108	3783.97
962.411	3811.09
962.714	3762.73
963.017	3779.22
963.32	3752.78
963.623	3762.73
963.926	3746.68
964.228	3679.11
964.531	3661.03
964.833	3658.55
965.136	3633.69
965.438	3650.41
965.741	3599.11
966.043	3601.37
966.345	3613.13
966.648	3559.12
966.95	3547.14
967.252	3548.49
967.554	3500.13
967.856	3514.14
968.158	3501.04
968.46	3501.94
968.761	3475.73
969.063	3467.37
969.365	3427.59
969.666	3430.76
969.968	3370.42
970.269	3391.66
970.571	3367.26
970.872	3369.06
971.174	3303.98
971.475	3320.7
971.776	3337.65
972.077	3328.61
972.378	3276.19
972.679	3270.76
972.98	3256.3
973.281	3249.52
973.582	3219.92
973.883	3210.42
974.183	3220.59
974.484	3164.78
974.785	3169.3
975.085	3176.98
975.386	3186.47
975.686	3156.41
975.986	3092.69
976.287	3114.83
976.587	3052.46
976.887	3087.72
977.187	3046.13
977.487	3075.29
977.787	3059.02
978.087	2978.57
978.387	2990.54
978.687	3002.75
978.987	2999.13
979.286	2978.11
979.586	3007.04
979.885	2972.24
980.185	2910.09
980.484	2887.49
980.784	2889.08
981.083	2899.02
981.382	2897.66
981.682	2835.97
981.981	2843.88
982.28	2845.91
982.579	2793.03
982.878	2799.81
983.177	2795.97
983.475	2758.91
983.774	2767.95
984.073	2746.03
984.372	2737.89
984.67	2749.19
984.969	2746.48
985.267	2711.23
985.566	2706.71
985.864	2701.74
986.162	2677.33
986.461	2638.01
986.759	2667.39
987.057	2640.27
987.355	2642.76
987.653	2618.12
987.951	2611.34
988.249	2601.4
988.547	2574.96
988.844	2588.29
989.142	2583.1
989.44	2539.93
989.737	2534.06
990.035	2540.84
990.332	2507.39
990.63	2497.9
990.927	2481.18
991.224	2482.53
991.521	2480.5
991.819	2513.04
992.116	2486.83
992.413	2433.5
992.71	2418.58
993.006	2416.77
993.303	2410.45
993.6	2406.38
993.897	2383.1
994.193	2350.33
994.49	2334.51
994.787	2315.31
995.083	2338.81
995.379	2339.03
995.676	2297.23
995.972	2320.28
996.268	2275.76
996.565	2274.18
996.861	2288.41
997.157	2262.65
997.453	2231.01
997.749	2236.89
998.044	2212.71
998.34	2259.26
998.636	2214.52
998.932	2185.82
999.227	2174.52
999.523	2169.55
999.818	2136.1
1000.114	2145.59
1000.409	2149.89
1000.704	2096.33
1001	2105.37
1001.295	2077.8
1001.59	2094.3
1001.885	2077.8
1002.18	2052.94
1002.475	2042.55
1002.77	1999.16
1003.065	2015.88
1003.359	2021.08
1003.654	1992.83
1003.949	2007.97
1004.243	1978.82
1004.538	1974.98
1004.832	1986.73
1005.127	1959.16
1005.421	1954.64
1005.715	1950.12
1006.009	1946.05
1006.304	1930.91
1006.598	1890.68
1006.892	1878.71
1007.186	1880.74
1007.48	1890.23
1007.773	1874.64
1008.067	1860.18
1008.361	1822.44
1008.655	1830.57
1008.948	1836.22
1009.242	1807.52
1009.535	1805.26
1009.829	1755.32
1010.122	1784.92
1010.415	1760.74
1010.708	1769.78
1011.001	1725.04
1011.295	1757.81
1011.588	1760.74
1011.881	1715.77
1012.173	1753.74
1012.466	1707.19
1012.759	1719.62
1013.052	1691.14
1013.344	1681.42
1013.637	1669.22
1013.93	1638.49
1014.222	1641.65
1014.514	1672.16
1014.807	1627.64
1015.099	1608.43
1015.391	1624.48
1015.683	1595.55
1015.976	1582.44
1016.268	1589.68
1016.56	1569.79
1016.851	1581.31
1017.143	1548.09
1017.435	1531.6
1017.727	1514.42
1018.018	1525.04
1018.31	1516.68
1018.602	1490.24
1018.893	1487.31
1019.185	1512.62
1019.476	1463.35
1019.767	1473.07
1020.058	1439.85
1020.35	1443.92
1020.641	1423.35
1020.932	1427.65
1021.223	1421.09
1021.514	1400.98
1021.804	1396.46
1022.095	1388.55
1022.386	1379.74
1022.677	1372.28
1022.967	1344.71
1023.258	1360.76
1023.548	1354.2
1023.839	1348.1
1024.129	1326.18
1024.419	1325.73
1024.709	1306.75
1025	1320.53
1025.29	1287.08
1025.58	1299.06
1025.87	1268.55
1026.16	1257.26
1026.449	1285.05
1026.739	1243.47
1027.029	1240.76
1027.319	1238.05
1027.608	1221.1
1027.898	1206.63
1028.187	1216.8
1028.477	1212.28
1028.766	1207.76
1029.055	1183.58
1029.344	1179.74
1029.634	1158.05
1029.923	1167.54
1030.212	1160.53
1030.501	1146.07
1030.79	1154.88
1031.078	1119.86
1031.367	1140.2
1031.656	1119.86
1031.945	1108.33
1032.233	1089.35
1032.522	1096.13
1032.81	1104.72
1033.099	1091.84
1033.387	1076.92
1033.675	1066.75
1033.963	1088.67
1034.251	1071.95
1034.54	1040.54
1034.828	1089.12
1035.116	1029.92
1035.403	1033.08
1035.691	1013.87
1035.979	1035.11
1036.267	1003.25
1036.554	1023.59
1036.842	1007.77
1037.129	979.07
1037.417	968.68
1037.704	995.79
1037.992	957.15
1038.279	952.18
1038.566	952.63
1038.853	952.63
1039.14	952.63
