Data from hue_38_FLMS001491_00085.txt Node
Date: Tue Feb 07 17:32:06 GMT 2017
User: dcchb
Spectrometer: FLMS00149
Trigger mode: 0
Integration Time (sec): 2.000000E-2
Scans to average: 10
Electric dark correction enabled: true
Nonlinearity correction enabled: false
Boxcar width: 0
XAxis mode: Wavelengths
Number of Pixels in Spectrum: 2048
>>>>>Begin Spectral Data<<<<<
341.393	-31.72
341.776	-31.72
342.16	-31.72
342.543	-78.05
342.927	-64.04
343.31	-76.24
343.693	-76.01
344.077	-50.7
344.46	-46.64
344.843	-48.22
345.226	-34.43
345.61	-34.21
345.993	-33.98
346.376	-17.03
346.759	17.09
347.142	22.97
347.525	33.36
347.908	50.08
348.291	77.65
348.674	99.35
349.057	116.97
349.44	130.08
349.823	151.78
350.206	156.3
350.588	210.76
350.971	214.15
351.354	229.97
351.737	246.69
352.119	249.85
352.502	251.66
352.884	249.4
353.267	279.68
353.65	291.66
354.032	298.21
354.414	308.61
354.797	312.22
355.179	326.69
355.562	338.66
355.944	325.78
356.326	331.88
356.709	336.4
357.091	339.12
357.473	352.67
357.855	321.04
358.238	350.41
358.62	343.18
359.002	326.23
359.384	349.51
359.766	336.86
360.148	364.65
360.53	331.43
360.912	343.18
361.294	343.64
361.676	345.44
362.057	340.7
362.439	328.27
362.821	338.21
363.203	352
363.584	342.73
363.966	331.66
364.348	321.49
364.729	334.82
365.111	317.87
365.493	320.36
365.874	344.99
366.256	302.96
366.637	323.3
367.019	321.49
367.4	320.81
367.781	326.91
368.163	322.39
368.544	307.03
368.925	334.14
369.306	328.27
369.688	328.49
370.069	318.78
370.45	334.37
370.831	302.51
371.212	327.36
371.593	318.32
371.974	318.78
372.355	329.4
372.736	299.12
373.117	335.73
373.498	333.47
373.879	314.48
374.26	318.1
374.641	323.75
375.021	311.32
375.402	327.82
375.783	309.06
376.163	344.54
376.544	323.3
376.925	332.11
377.305	321.04
377.686	352.67
378.066	320.36
378.447	328.72
378.827	344.31
379.208	331.66
379.588	316.07
379.968	338.44
380.349	347.7
380.729	334.37
381.109	331.66
381.489	338.44
381.87	356.29
382.25	331.88
382.63	332.79
383.01	345.67
383.39	343.18
383.77	343.41
384.15	365.1
384.53	368.72
384.91	366.69
385.29	355.39
385.67	344.54
386.049	336.4
386.429	356.29
386.809	359.45
387.189	344.76
387.568	330.98
387.948	362.17
388.328	367.14
388.707	344.31
389.087	358.78
389.466	355.84
389.846	349.28
390.225	380.02
390.605	380.47
390.984	363.75
391.363	396.74
391.743	377.53
392.122	362.84
392.501	367.59
392.881	370.98
393.26	377.31
393.639	389.96
394.018	378.66
394.397	377.53
394.776	386.12
395.155	372.56
395.534	374.59
395.913	392
396.292	379.79
396.671	396.29
397.05	403.52
397.429	384.54
397.808	397.87
398.186	384.76
398.565	400.13
398.944	400.81
399.323	395.16
399.701	413.24
400.08	401.71
400.458	397.87
400.837	417.98
401.215	407.14
401.594	395.16
401.972	394.48
402.351	404.65
402.729	406.68
403.107	415.72
403.486	414.82
403.864	414.37
404.242	410.07
404.62	414.59
404.999	415.05
405.377	402.62
405.755	414.37
406.133	431.54
406.511	433.8
406.889	432.45
407.267	421.15
407.645	432.67
408.023	443.52
408.401	418.21
408.779	448.49
409.156	463.63
409.534	466.57
409.912	456.63
410.29	449.39
410.667	471.32
411.045	461.82
411.422	466.12
411.8	469.51
412.178	467.47
412.555	464.99
412.933	469.06
413.31	460.02
413.687	479.45
414.065	505.21
414.442	474.93
414.819	494.14
415.197	496.85
415.574	514.03
415.951	523.29
416.328	507.92
416.705	509.73
417.082	497.76
417.46	501.15
417.837	517.64
418.214	503.63
418.591	510.18
418.967	515.61
419.344	521.94
419.721	514.48
420.098	516.29
420.475	522.84
420.852	526
421.228	550.64
421.605	546.34
421.982	541.6
422.358	560.13
422.735	556.51
423.111	552.22
423.488	556.74
423.864	559.45
424.241	574.36
424.617	569.39
424.994	566.23
425.37	559
425.746	566
426.123	578.88
426.499	573.23
426.875	571.43
427.251	595.61
427.627	615.04
428.003	597.41
428.379	619.56
428.756	603.52
429.132	604.19
429.507	604.42
429.883	615.72
430.259	644.42
430.635	649.16
431.011	675.6
431.387	648.03
431.763	657.98
432.138	662.95
432.514	663.63
432.89	649.16
433.265	653.68
433.641	670.41
434.016	671.54
434.392	687.58
434.767	709.5
435.143	682.61
435.518	691.65
435.894	697.3
436.269	726.68
436.644	731.42
437.02	738.88
437.395	721.93
437.77	726.68
438.145	731.42
438.52	744.98
438.895	766.67
439.271	732.55
439.646	788.82
440.021	777.75
440.395	767.58
440.77	757.86
441.145	781.36
441.52	783.17
441.895	790.63
442.27	793.57
442.645	782.04
443.019	798.99
443.394	801.25
443.769	841.7
444.143	818.2
444.518	839.67
444.892	825.88
445.267	821.36
445.641	850.51
446.016	841.93
446.39	825.2
446.764	845.77
447.139	833.34
447.513	865.43
447.887	860.23
448.262	846.9
448.636	881.25
449.01	906.56
449.384	914.47
449.758	883.06
450.132	872.66
450.506	888.71
450.88	880.34
451.254	894.36
451.628	902.72
452.002	914.02
452.376	940
452.75	917.18
453.123	931.64
453.497	941.13
453.871	956.5
454.244	970.74
454.618	954.92
454.992	963.51
455.365	965.99
455.739	1003.05
456.112	998.53
456.486	1013.45
456.859	1030.62
457.232	1016.39
457.606	1021.36
457.979	1055.48
458.352	1076.27
458.725	1042.83
459.099	1072.66
459.472	1138.19
459.845	1120.11
460.218	1151.07
460.591	1117.4
460.964	1144.97
461.337	1156.27
461.71	1207.57
462.083	1225.87
462.456	1221.13
462.829	1239.2
463.201	1236.94
463.574	1233.33
463.947	1242.82
464.32	1310.16
464.692	1306.32
465.065	1296.38
465.438	1313.33
465.81	1357.62
466.183	1355.13
466.555	1383.83
466.928	1417.28
467.3	1410.73
467.672	1434.23
468.045	1454.57
468.417	1462.02
468.789	1487.56
469.161	1489.82
469.534	1529.37
469.906	1556.03
470.278	1575.24
470.65	1589.93
471.022	1634.45
471.394	1673.54
471.766	1695.46
472.138	1703.15
472.51	1735.69
472.882	1794.67
473.253	1827.21
473.625	1823.37
473.997	1904.95
474.369	1936.81
474.74	1946.3
475.112	1977.94
475.484	2061.1
475.855	2076.7
476.227	2089.8
476.598	2202.8
476.97	2241.44
477.341	2278.05
477.713	2323.24
478.084	2352.85
478.455	2415.9
478.827	2464.71
479.198	2566.63
479.569	2612.73
479.94	2692.73
480.311	2720.97
480.682	2808.88
481.053	2904.7
481.424	2963.45
481.795	3030.57
482.166	3094.75
482.537	3158.7
482.908	3276.89
483.279	3324.12
483.65	3429.66
484.021	3533.83
484.391	3627.39
484.762	3649.08
485.133	3738.12
485.503	3842.07
485.874	3957.78
486.244	3978.57
486.615	4097.21
486.985	4240.93
487.356	4348.95
487.726	4405.68
488.097	4528.16
488.467	4604.99
488.837	4748.04
489.207	4843.86
489.578	4933.12
489.948	5022.61
490.318	5151.42
490.688	5202.72
491.058	5392.99
491.428	5480.9
491.798	5534.68
492.168	5694.23
492.538	5792.08
492.908	5879.08
493.278	6009.47
493.648	6040.21
494.017	6206.08
494.387	6332.63
494.757	6401.1
495.126	6543.47
495.496	6541.66
495.866	6698.04
496.235	6776.69
496.605	6944.37
496.974	6949.34
497.344	7152.27
497.713	7190.46
498.082	7267.52
498.452	7371.02
498.821	7472.26
499.19	7574.86
499.559	7715.19
499.928	7722.2
500.298	7784.57
500.667	7950.44
501.036	7998.57
501.405	8096.88
501.774	8148.18
502.143	8276.31
502.512	8339.81
502.88	8465.23
503.249	8423.65
503.618	8517.66
503.987	8726.69
504.356	8723.08
504.724	8765.11
505.093	8866.35
505.462	8918.32
505.83	8982.73
506.199	9092.33
506.567	9197.64
506.936	9272.89
507.304	9358.09
507.672	9482.15
508.041	9548.82
508.409	9625.2
508.777	9771.41
509.145	9770.05
509.514	9769.83
509.882	9930.95
510.25	9866.77
510.618	10007.34
510.986	10104.06
511.354	10185.18
511.722	10247.33
512.09	10331.85
512.458	10367.55
512.826	10498.17
513.193	10513.76
513.561	10660.65
513.929	10645.96
514.297	10714.89
514.664	10883.92
515.032	10866.75
515.4	10962.11
515.767	10981.32
516.135	11108.32
516.502	11045.73
516.869	11294.31
517.237	11325.27
517.604	11275.78
517.972	11367.98
518.339	11548.76
518.706	11561.19
519.073	11641.87
519.44	11709.89
519.808	11777.01
520.175	11766.61
520.542	11986.04
520.909	12005.25
521.276	12016.32
521.643	12194.85
522.009	12232.14
522.376	12289.54
522.743	12375.86
523.11	12459.7
523.477	12619.47
523.843	12584.44
524.21	12750.31
524.577	12906.47
524.943	12895.85
525.31	12971.55
525.676	13026.69
526.043	13108.5
526.409	13210.42
526.776	13318.44
527.142	13323.18
527.508	13437.3
527.874	13494.25
528.241	13667.13
528.607	13667.58
528.973	13757.52
529.339	13887.91
529.705	13903.05
530.071	14141.69
530.437	14112.09
530.803	14190.73
531.169	14221.01
531.535	14253.33
531.901	14352.08
532.267	14380.78
532.632	14563.37
532.998	14629.81
533.364	14701.45
533.73	14695.8
534.095	14862.35
534.461	14902.57
534.826	14963.14
535.192	14972.4
535.557	15074.55
535.923	15117.03
536.288	15131.04
536.653	15323.35
537.019	15239.74
537.384	15296.24
537.749	15330.81
538.114	15380.53
538.479	15534.2
538.845	15575.55
539.21	15568.32
539.575	15726.51
539.94	15710.91
540.305	15767.64
540.67	15783.68
541.034	15912.72
541.399	15942.09
541.764	15956.33
542.129	16018.93
542.494	16133.95
542.858	16190.68
543.223	16134.63
543.587	16260.28
543.952	16322.65
544.316	16481.97
544.681	16407.17
545.045	16554.51
545.41	16619.59
545.774	16653.94
546.138	16621.85
546.503	16856.87
546.867	16727.16
547.231	16980.71
547.595	17010.99
547.959	17052.12
548.324	17093.03
548.688	17078.34
549.052	17244.21
549.416	17166.24
549.779	17353.36
550.143	17310.42
550.507	17364.88
550.871	17442.62
551.235	17473.58
551.599	17653.24
551.962	17596.06
552.326	17612.56
552.689	17785.89
553.053	17763.74
553.417	17827.24
553.78	18055.26
554.143	17963.96
554.507	18003.28
554.87	18078.76
555.234	18297.97
555.597	18165.54
555.96	18338.64
556.323	18416.61
556.686	18367.57
557.05	18480.56
557.413	18534.34
557.776	18568.01
558.139	18812.53
558.502	18661.12
558.865	18731.63
559.228	18982.69
559.59	19007.1
559.953	19042.13
560.316	19158.73
560.679	19240.54
561.041	19213.65
561.404	19384.49
561.767	19450.48
562.129	19413.42
562.492	19634.65
562.854	19614.54
563.217	19608.21
563.579	19662.45
563.941	19832.39
564.304	19960.07
564.666	19982.89
565.028	19957.13
565.39	20073.51
565.753	20187.41
566.115	20309.44
566.477	20317.12
566.839	20343.56
567.201	20598.7
567.563	20447.29
567.925	20717.79
568.287	20779.48
568.648	20671.46
569.01	20884.79
569.372	20986.48
569.734	20989.19
570.095	21170.66
570.457	21279.36
570.819	21303.54
571.18	21361.39
571.542	21480.03
571.903	21459.92
572.265	21610.19
572.626	21601.38
572.987	21703.98
573.349	21875.72
573.71	22004.76
574.071	22089.73
574.432	22214.25
574.794	22353.68
575.155	22409.04
575.516	22443.39
575.877	22517.97
576.238	22721.8
576.599	22834.34
576.96	22785.3
577.32	22983.49
577.681	23218.97
578.042	23348
578.403	23399.3
578.763	23503.03
579.124	23597.71
579.485	23782.57
579.845	23933.07
580.206	24082.9
580.566	24157.47
580.927	24321.31
581.287	24468.42
581.648	24574.18
582.008	24851.24
582.368	25017.79
582.728	25116.32
583.089	25284.22
583.449	25392.02
583.809	25606.93
584.169	25841.27
584.529	25986.8
584.889	26279
585.249	26265.67
585.609	26441.03
585.969	26841.92
586.329	26784.97
586.688	27231.29
587.048	27283.27
587.408	27377.5
587.768	27680.09
588.127	27860.43
588.487	28065.17
588.846	28418.38
589.206	28466.29
589.565	28694.98
589.925	28971.36
590.284	29035.99
590.643	29455.86
591.003	29815.4
591.362	29909.86
591.721	30093.59
592.08	30147.37
592.44	30590.07
592.799	30703.97
593.158	30861.25
593.517	30985.99
593.876	31289.94
594.235	31410.84
594.593	31638.86
594.952	31910.49
595.311	31989.36
595.67	32246.98
596.029	32632.05
596.387	32855.1
596.746	33057.58
597.104	32994.75
597.463	33221.19
597.822	33527.62
598.18	33609.88
598.538	33810.55
598.897	34146.81
599.255	33985.01
599.613	34622.51
599.972	34632.22
600.33	34776.63
600.688	34922.39
601.046	35221.59
601.404	35485.76
601.762	35540.22
602.12	35695.93
602.478	35956.94
602.836	36015.47
603.194	36121.68
603.552	36139.08
603.91	36300.88
604.268	36481.22
604.625	36681.44
604.983	36885.27
605.341	36800.98
605.698	37063.12
606.056	37327.52
606.413	37404.81
606.771	37560.28
607.128	37757.34
607.485	37632.37
607.843	37883.89
608.2	38227.61
608.557	38363.65
608.914	38264.45
609.272	38635.06
609.629	38763.87
609.986	39184.42
610.343	38910.53
610.7	39230.07
611.057	39294.48
611.414	39422.38
611.771	39562.72
612.127	39748.47
612.484	39835.48
612.841	39996.83
613.198	40008.35
613.554	40027.34
613.911	40381.68
614.267	40348.91
614.624	40423.03
614.98	40658.51
615.337	40781.22
615.693	40638.62
616.05	40621.22
616.406	41113.18
616.762	40840.65
617.118	41105.73
617.475	41176.23
617.831	41398.6
618.187	41508.88
618.543	41493.97
618.899	41647.63
619.255	41805.37
619.611	41710.23
619.967	42015.08
620.323	41910.9
620.678	41980.73
621.034	41897.8
621.39	42019.6
621.746	41967.63
622.101	42600.38
622.457	42300.27
622.812	42373.04
623.168	42351.8
623.523	42581.17
623.879	42822.29
624.234	42483.32
624.589	42643.09
624.945	42665.23
625.3	42733.71
625.655	42681.28
626.01	42823.42
626.365	42896.19
626.72	42886.25
627.075	42901.61
627.43	42873.82
627.785	42855.06
628.14	43163.98
628.495	43071.33
628.85	42950.65
629.205	42912.69
629.559	43197.2
629.914	43028.84
630.269	43050.76
630.623	43020.48
630.978	42964.44
631.332	43239
631.687	43164.2
632.041	43098.67
632.396	43123.08
632.75	43203.3
633.104	43229.29
633.459	42936.19
633.813	42916.53
634.167	42959.69
634.521	43158.1
634.875	43226.12
635.229	43171.21
635.583	42946.36
635.937	42860.71
636.291	42947.26
636.645	42912.69
636.999	42965.34
637.352	43177.09
637.706	42866.81
638.06	43085.79
638.413	42898
638.767	42898.67
639.121	42876.08
639.474	42702.3
639.828	42606.03
640.181	42885.12
640.534	42697.55
640.888	42543.66
641.241	42572.36
641.594	42670.43
641.947	42729.19
642.301	42568.97
642.654	42621.85
643.007	42607.38
643.36	42505.46
643.713	42526.25
644.066	42813.7
644.419	42305.7
644.771	42064.35
645.124	41771.47
645.477	41778.25
645.83	41567.18
646.182	41269.34
646.535	41295.55
646.888	41341.43
647.24	41166.06
647.593	41442.44
647.945	41321.09
648.298	41212.39
648.65	41152.05
649.002	41072.06
649.355	41246.06
649.707	41198.38
650.059	41432.5
650.411	41752.49
650.763	41819.38
651.115	42189.54
651.467	42048.08
651.819	42046.27
652.171	42094.85
652.523	42041.52
652.875	41963.33
653.227	41786.16
653.578	42096.66
653.93	41997.68
654.282	41817.8
654.633	41663
654.985	41914.29
655.337	41869.77
655.688	41831.36
656.039	41911.13
656.391	41694.19
656.742	41802.43
657.094	41712.72
657.445	41905.71
657.796	41808.53
658.147	41734.86
658.498	41728.31
658.849	41832.71
659.2	41722.89
659.551	41608.99
659.902	41687.86
660.253	41703.68
660.604	41808.08
660.955	41563.34
661.306	41744.13
661.656	41557.92
662.007	41739.16
662.358	41615.54
662.708	41719.04
663.059	41618.93
663.409	41237.25
663.76	41549.33
664.11	41606.05
664.461	41452.61
664.811	41594.53
665.161	41443.57
665.511	41373.74
665.862	41461.65
666.212	41625.04
666.562	41692.38
666.912	41452.84
667.262	41583.23
667.612	41418.04
667.962	41448.77
668.312	41426.62
668.662	41565.83
669.011	41460.52
669.361	41481.31
669.711	41433.63
670.06	41320.41
670.41	41400.86
670.76	41135.78
671.109	41354.99
671.459	41275.67
671.808	41385.04
672.157	41412.16
672.507	41147.99
672.856	41173.97
673.205	41275.21
673.554	41365.83
673.904	41127.87
674.253	41491.93
674.602	41165.84
674.951	40639.3
675.3	40577.61
675.649	41121.32
675.998	41068.21
676.346	41134.43
676.695	41119.96
677.044	40875.45
677.393	41005.84
677.741	41119.51
678.09	40944.6
678.438	40869.58
678.787	41078.61
679.135	41023.7
679.484	40685.4
679.832	40934.88
680.181	40759.07
680.529	40849.24
680.877	40602.46
681.225	40583.48
681.573	40738.51
681.922	40491.96
682.27	40437.72
682.618	40365.18
682.966	40343.94
683.314	40490.6
683.661	40373.32
684.009	40090.84
684.357	39940.79
684.705	39964.06
685.053	39909.83
685.4	40028.47
685.748	39851.75
686.095	39861.92
686.443	39814.01
686.79	39556.16
687.138	39688.36
687.485	39649.72
687.832	39630.06
688.18	39487.69
688.527	39328.6
688.874	39366.56
689.221	39268.26
689.568	39190.75
689.915	39163.63
690.262	39079.79
690.609	38995.05
690.956	38890.42
691.303	38856.07
691.65	38666.24
691.997	38797.99
692.344	38521.39
692.69	38567.49
693.037	38532.46
693.383	38139.48
693.73	38293.37
694.077	38057.22
694.423	38115.75
694.769	37943.1
695.116	37930.22
695.462	37755.31
695.808	37648.42
696.155	37640.51
696.501	37548.98
696.847	37467.4
697.193	37147.64
697.539	37416.11
697.885	36953.29
698.231	37023.35
698.577	37041.2
698.923	36929.79
699.269	36826.97
699.614	36550.82
699.96	36494.32
700.306	36538.16
700.651	36337.94
700.997	36306.98
701.342	36333.88
701.688	36160.77
702.033	36022.92
702.379	36100.43
702.724	35928.69
703.069	36085.75
703.415	35658.41
703.76	35669.71
704.105	35588.58
704.45	35655.93
704.795	35402.37
705.14	35324.86
705.485	35211.64
705.83	35092.55
706.175	35188.59
706.52	35045.1
706.865	34842.84
707.209	34810.53
707.554	34823.86
707.899	34788.38
708.243	34613.02
708.588	34551.78
708.932	34245.12
709.277	34309.75
709.621	34294.15
709.966	34145.01
710.31	34162.18
710.654	33837.9
710.998	34111.33
711.342	34141.16
711.687	33914.73
712.031	33821.85
712.375	33608.52
712.719	33701.63
713.063	33564.91
713.407	33840.38
713.75	33530.79
714.094	33512.25
714.438	33355.87
714.782	33452.59
715.125	33213.05
715.469	33257.8
715.812	33061.87
716.156	32849
716.499	33000.4
716.843	32955.21
717.186	32759.05
717.53	32927.86
717.873	32823.46
718.216	32794.99
718.559	32610.58
718.902	32456.91
719.246	32439.51
719.589	32373.3
719.932	32339.4
720.275	32434.32
720.617	32237.26
720.96	32236.13
721.303	32148.9
721.646	32194.32
721.989	31953.2
722.331	32073.42
722.674	32011.95
723.016	31938.28
723.359	31952.07
723.701	31922.24
724.044	31653.77
724.386	31510.27
724.729	31872.3
725.071	31564.74
725.413	31550.72
725.755	31588.69
726.097	31312.31
726.439	31394.57
726.782	31353.22
727.124	31541.46
727.465	31301.47
727.807	31197.74
728.149	31289.71
728.491	31116.39
728.833	31166.1
729.175	31154.12
729.516	30885.66
729.858	30921.36
730.199	30968.59
730.541	30958.42
730.882	30809.95
731.224	30977.63
731.565	30639.56
731.906	30629.17
732.248	30595.72
732.589	30586
732.93	30552.33
733.271	30536.06
733.612	30504.88
733.953	30596.62
734.294	30329.29
734.635	30334.26
734.976	30404.77
735.317	30079.35
735.658	30226.69
735.999	30089.07
736.339	30124.09
736.68	30147.15
737.021	29997.32
737.361	29892.01
737.702	30028.05
738.042	30040.93
738.383	29943.99
738.723	30083.87
739.063	29850.43
739.404	29918.9
739.744	29773.82
740.084	29694.95
740.424	29734.5
740.764	29748.96
741.104	29754.61
741.444	29560.04
741.784	29474.85
742.124	29622.19
742.464	29543.09
742.804	29487.28
743.143	29424.45
743.483	29421.51
743.823	29239.6
744.162	29187.62
744.502	29230.56
744.841	29134.52
745.181	29245.25
745.52	29038.25
745.86	29111.69
746.199	29008.87
746.538	29105.14
746.877	28977.68
747.216	28897.46
747.556	28887.07
747.895	28897.91
748.234	28790.34
748.573	28576.11
748.911	28630.35
749.25	28744.02
749.589	28570.69
749.928	28654.08
750.267	28687.52
750.605	28465.61
750.944	28369.11
751.283	28317.14
751.621	28378.6
751.96	28187.2
752.298	28137.03
752.636	28173.64
752.975	27911.95
753.313	27966.19
753.651	28104.26
753.989	27888.67
754.327	27864.04
754.666	27770.03
755.004	27921.89
755.342	27891.61
755.679	27678.96
756.017	27553.77
756.355	27706.98
756.693	27505.18
757.031	27604.39
757.368	27471.28
757.706	27357.61
758.044	27397.61
758.381	27283.72
758.719	27334.34
759.056	27221.35
759.394	27058.19
759.731	26871.53
760.068	26890.96
760.405	26950.39
760.743	26821.13
761.08	26848.47
761.417	26623.4
761.754	26465.43
762.091	26604.41
762.428	26465.21
762.765	26308.6
763.102	26354.48
763.438	26234.25
763.775	26111.32
764.112	26138.89
764.449	26148.61
764.785	25908.84
765.122	25880.82
765.458	25748.39
765.795	25698.45
766.131	25724.44
766.467	25444.44
766.804	25379.36
767.14	25313.37
767.476	25301.62
767.812	25096.2
768.148	25149.08
768.485	25129.88
768.821	24972.82
769.157	24838.81
769.492	24750.22
769.828	24709.55
770.164	24484.47
770.5	24541.87
770.836	24545.94
771.171	24384.36
771.507	24271.14
771.842	24073.86
772.178	24143.24
772.513	24069.56
772.849	23937.82
773.184	23873.19
773.519	23784.83
773.855	23691.5
774.19	23618.05
774.525	23404.5
774.86	23637.03
775.195	23410.37
775.53	23356.14
775.865	23213.09
776.2	23236.59
776.535	23003.6
776.87	23083.83
777.205	22866.21
777.539	22750.73
777.874	22850.16
778.209	22615.14
778.543	22567.46
778.878	22466.44
779.212	22491.08
779.547	22293.11
779.881	22254.02
780.215	22125.66
780.55	22204.53
780.884	21970.19
781.218	21982.39
781.552	22022.39
781.886	21799.57
782.22	21800.92
782.554	21667.14
782.888	21499.24
783.222	21411.56
783.556	21291.56
783.889	21230.32
784.223	21137.66
784.557	21099.93
784.89	21175.86
785.224	20966.82
785.557	20917.78
785.891	20813.38
786.224	20786.49
786.558	20792.14
786.891	20640.5
787.224	20585.81
787.557	20461.3
787.891	20392.83
788.224	20424.01
788.557	20389.66
788.89	20341.3
789.223	20249.78
789.556	20160.29
789.888	20105.38
790.221	20057.69
790.554	19849.79
790.887	19817.93
791.219	19723.92
791.552	19656.57
791.884	19722.11
792.217	19597.14
792.549	19449.57
792.882	19407.99
793.214	19289.13
793.546	19293.65
793.879	19281.44
794.211	19041.22
794.543	19135.91
794.875	19057.72
795.207	18965.07
795.539	18813.66
795.871	18981.11
796.203	18775.69
796.535	18653.89
796.867	18645.75
797.198	18600.78
797.53	18509.94
797.862	18414.12
798.193	18452.09
798.525	18280.11
798.856	18272.43
799.188	18227.91
799.519	18065.43
799.85	18019.55
800.182	17990.18
800.513	18111.98
800.844	17874.02
801.175	17984.75
801.506	17956.96
801.837	17783.18
802.168	17833.8
802.499	17729.62
802.83	17620.92
803.161	17607.14
803.491	17532.34
803.822	17535.73
804.153	17487.14
804.483	17339.35
804.814	17222.06
805.145	17326.47
805.475	17226.35
805.805	17076.08
806.136	17046.7
806.466	17126.02
806.796	17072.69
807.126	16894.84
807.457	16866.59
807.787	16831.79
808.117	16875.63
808.447	16833.14
808.777	16822.3
809.107	16673.6
809.436	16620.72
809.766	16676.31
810.096	16496.43
810.426	16493.94
810.755	16519.25
811.085	16507.5
811.414	16441.52
811.744	16254.63
812.073	16292.14
812.403	16243.56
812.732	16147.97
813.061	16138.02
813.39	16156.1
813.719	16015.54
814.049	16074.97
814.378	16034.52
814.707	15919.27
815.036	15931.93
815.365	15806.51
815.693	15619.62
816.022	15788.65
816.351	15662.55
816.68	15559.51
817.008	15650.8
817.337	15551.37
817.665	15499.62
817.994	15454.88
818.322	15551.6
818.651	15349.79
818.979	15442.22
819.307	15410.13
819.636	15309.12
819.964	15223.7
820.292	15266.63
820.62	15261.43
820.948	15207.42
821.276	15343.69
821.604	15210.14
821.932	15263.02
822.259	15311.15
822.587	15208.55
822.915	15151.38
823.243	15277.93
823.57	15195
823.898	15125.62
824.225	15066.86
824.553	15186.18
824.88	15161.1
825.207	15209.91
825.535	15104.6
825.862	15110.93
826.189	15069.58
826.516	15150.03
826.843	15181.21
827.17	15232.06
827.497	15184.6
827.824	15220.76
828.151	15236.35
828.478	15116.35
828.805	15262.79
829.131	15116.13
829.458	15058.73
829.785	15050.82
830.111	15098.05
830.438	15108.67
830.764	15107.09
831.09	15122
831.417	15064.15
831.743	15107.77
832.069	15096.02
832.395	15024.6
832.722	15059.86
833.048	15028.45
833.374	15014.66
833.7	14897.6
834.026	14889.02
834.351	14989.8
834.677	14990.26
835.003	14903.93
835.329	14950.48
835.654	14838.17
835.98	14834.55
836.306	14893.31
836.631	14812.18
836.956	14939.86
837.282	14844.95
837.607	14749.36
837.932	14772.86
838.258	14708.46
838.583	14653.09
838.908	14605.18
839.233	14629.14
839.558	14589.81
839.883	14468.01
840.208	14470.5
840.533	14489.7
840.858	14518.63
841.182	14522.02
841.507	14452.64
841.832	14394.79
842.156	14312.53
842.481	14360.44
842.805	14384.17
843.13	14361.12
843.454	14326.32
843.778	14285.64
844.103	14108.7
844.427	14090.17
844.751	14144.4
845.075	14128.36
845.399	14089.71
845.723	14023.28
846.047	14041.35
846.371	13960.23
846.695	13880
847.019	13740.12
847.343	13766.11
847.666	13622.61
847.99	13668.03
848.313	13611.08
848.637	13512.1
848.96	13452.44
849.284	13534.47
849.607	13400.01
849.931	13253.8
850.254	13261.94
850.577	13219.45
850.9	13113.47
851.223	13141.72
851.546	12946.47
851.869	12940.14
852.192	12961.38
852.515	12898.33
852.838	12824.21
853.161	12782.4
853.483	12708.28
853.806	12722.97
854.129	12676.64
854.451	12547.83
854.774	12598.91
855.096	12481.39
855.419	12521.85
855.741	12460.6
856.063	12371.79
856.385	12386.03
856.708	12272.36
857.03	12268.07
857.352	12258.35
857.674	12226.94
857.996	12073.27
858.318	12019.26
858.64	12115.53
858.961	12051.58
859.283	12014.29
859.605	11971.58
859.926	11973.84
860.248	11932.48
860.57	11896.1
860.891	11847.06
861.212	11799.6
861.534	11774.75
861.855	11745.6
862.176	11754.86
862.498	11737.01
862.819	11790.57
863.14	11636.67
863.461	11665.6
863.782	11564.36
864.103	11656.11
864.424	11600.06
864.745	11613.17
865.065	11558.71
865.386	11535.21
865.707	11524.13
866.027	11481.87
866.348	11543.34
866.668	11430.58
866.989	11502.21
867.309	11316
867.63	11374.31
867.95	11422.44
868.27	11302.89
868.59	11370.46
868.91	11343.35
869.23	11249.11
869.55	11274.2
869.87	11290.01
870.19	11278.26
870.51	11214.76
870.83	11242.11
871.15	11127.53
871.469	11139.74
871.789	11100.41
872.109	11124.59
872.428	11151.71
872.748	11133.86
873.067	11088.21
873.386	11084.14
873.706	11004.15
874.025	11020.42
874.344	10952.62
874.663	11021.09
874.982	10956.92
875.301	10906.07
875.62	10964.6
875.939	10849.57
876.258	10895.22
876.577	10892.06
876.896	10836.01
877.214	10832.62
877.533	10835.79
877.852	10790.37
878.17	10714.66
878.489	10807.09
878.807	10744.04
879.125	10751.27
879.444	10727.77
879.762	10665.62
880.08	10701.55
880.398	10583.59
880.716	10680.54
881.034	10533.2
881.352	10596.92
881.67	10563.25
881.988	10554.67
882.306	10498.4
882.624	10470.83
882.941	10430.83
883.259	10445.06
883.577	10353.99
883.894	10359.19
884.212	10301.57
884.529	10324.62
884.846	10277.84
885.164	10334.33
885.481	10270.38
885.798	10316.48
886.115	10221.34
886.432	10206.65
886.75	10175.47
887.067	10198.74
887.383	10082.59
887.7	10151.74
888.017	10083.72
888.334	10035.81
888.651	10010.05
888.967	10010.5
889.284	9942.48
889.6	9921.91
889.917	9859.32
890.233	9926.66
890.55	9847.79
890.866	9804.4
891.182	9752.88
891.498	9745.87
891.815	9685.31
892.131	9774.57
892.447	9753.56
892.763	9635.82
893.079	9649.15
893.395	9657.74
893.71	9584.52
894.026	9607.12
894.342	9519.21
894.657	9418.42
894.973	9472.21
895.289	9396.73
895.604	9460.91
895.92	9383.4
896.235	9316.73
896.55	9335.04
896.865	9294.59
897.181	9237.86
897.496	9265.89
897.811	9159.45
898.126	9143.18
898.441	9155.83
898.756	9099.79
899.071	9053.46
899.386	9128.94
899.7	8946.57
900.015	9019.79
900.33	8897.99
900.644	8906.35
900.959	8931.88
901.273	8842.17
901.588	8788.84
901.902	8721.49
902.216	8748.84
902.531	8771.89
902.845	8660.03
903.159	8681.04
903.473	8653.25
903.787	8542.52
904.101	8527.6
904.415	8533.7
904.729	8503.42
905.042	8419.13
905.356	8382.52
905.67	8359.24
905.984	8369.86
906.297	8323.76
906.611	8277.89
906.924	8286.25
907.237	8292.8
907.551	8173.49
907.864	8203.99
908.177	8148.4
908.491	8095.3
908.804	8108.63
909.117	8025.01
909.43	7957.22
909.743	7938.92
910.056	7928.07
910.368	7906.15
910.681	7890.1
910.994	7879.03
911.307	7765.13
911.619	7810.33
911.932	7811.91
912.244	7714.97
912.557	7737.34
912.869	7597.68
913.181	7666.83
913.494	7582.31
913.806	7560.62
914.118	7568.98
914.43	7467.52
914.742	7517.23
915.054	7444.69
915.366	7448.53
915.678	7365.37
915.99	7373.51
916.302	7317.24
916.613	7263.91
916.925	7266.62
917.236	7285.83
917.548	7215.77
917.859	7199.73
918.171	7171.48
918.482	7128.32
918.794	7040.18
919.105	7066.62
919.416	7005.83
919.727	6999.73
920.038	6969.68
920.349	6947.76
920.66	6905.72
920.971	6912.73
921.282	6860.53
921.593	6820.3
921.903	6721.32
922.214	6757.03
922.525	6740.75
922.835	6661.89
923.146	6639.29
923.456	6622.11
923.767	6629.35
924.077	6647.88
924.387	6548.44
924.697	6573.98
925.008	6440.2
925.318	6471.16
925.628	6401.78
925.938	6423.48
926.248	6408.56
926.558	6398.84
926.867	6297.6
927.177	6293.54
927.487	6244.95
927.796	6274.78
928.106	6196.14
928.416	6222.35
928.725	6129.02
929.034	6174.44
929.344	6171.73
929.653	6126.76
929.962	6009.7
930.271	5998.85
930.581	5981.9
930.89	6050.6
931.199	6002.24
931.508	5917.95
931.817	5930.15
932.125	5885.64
932.434	5834.11
932.743	5831.85
933.051	5775.58
933.36	5769.71
933.669	5758.86
933.977	5717.73
934.286	5733.1
934.594	5702.82
934.902	5675.7
935.21	5651.07
935.519	5611.97
935.827	5574.68
936.135	5564.74
936.443	5522.71
936.751	5489.04
937.059	5489.04
937.367	5487.23
937.674	5440.22
937.982	5415.82
938.29	5401.81
938.597	5429.83
938.905	5292.66
939.213	5343.05
939.52	5250.4
939.827	5359.77
940.135	5261.7
940.442	5232.32
940.749	5210.4
941.056	5277.74
941.363	5167.91
941.67	5128.59
941.977	5116.16
942.284	5073.91
942.591	5110.29
942.898	5081.59
943.205	5078.65
943.511	5014.02
943.818	5030.29
944.125	4942.61
944.431	4971.76
944.738	4919.33
945.044	4934.25
945.35	4920.24
945.657	4876.62
945.963	4879.56
946.269	4830.75
946.575	4823.74
946.881	4819
947.187	4731.32
947.493	4729.28
947.799	4739.23
948.105	4670.07
948.41	4693.8
948.716	4704.42
949.022	4653.58
949.327	4644.31
949.633	4561.15
949.938	4611.77
950.244	4594.37
950.549	4530.42
950.854	4529.74
951.16	4529.06
951.465	4519.57
951.77	4448.16
952.075	4436.63
952.38	4462.17
952.685	4394.15
952.99	4396.41
953.294	4365.68
953.599	4326.81
953.904	4350.76
954.209	4332.23
954.513	4346.92
954.818	4270.09
955.122	4281.84
955.426	4250.88
955.731	4226.7
956.035	4184.21
956.339	4169.52
956.643	4196.42
956.948	4163.87
957.252	4095.4
957.556	4129.98
957.86	4111.45
958.163	4123.87
958.467	4068.06
958.771	4045.46
959.075	4026.7
959.378	4071.67
959.682	4054.27
959.985	3973.14
960.289	3939.02
960.592	3965.23
960.896	3934.05
961.199	3909.42
961.502	3908.51
961.805	3899.02
962.108	3843.43
962.411	3860.38
962.714	3860.38
963.017	3810.21
963.32	3822.41
963.623	3767.27
963.926	3782.64
964.228	3702.19
964.531	3782.19
964.833	3708.07
965.136	3698.12
965.438	3653.38
965.741	3669.65
966.043	3630.33
966.345	3628.75
966.648	3662.19
966.95	3642.76
967.252	3577.9
967.554	3568.63
967.856	3569.54
968.158	3539.71
968.46	3500.39
968.761	3514.17
969.063	3510.33
969.365	3471.46
969.666	3404.12
969.968	3476.21
970.269	3402.54
970.571	3387.17
970.872	3382.2
971.174	3357.79
971.475	3359.15
971.776	3335.19
972.077	3339.71
972.378	3360.96
972.679	3310.79
972.98	3294.74
973.281	3299.26
973.582	3283.44
973.883	3268.98
974.183	3238.93
974.484	3249.32
974.785	3168.65
975.085	3186.05
975.386	3217.01
975.686	3164.35
975.986	3132.26
976.287	3113.96
976.587	3107.18
976.887	3138.36
977.187	3100.85
977.487	3089.33
977.787	3082.55
978.087	3084.81
978.387	3000.74
978.687	3059.95
978.987	3018.37
979.286	2989.89
979.586	3005.94
979.885	2990.12
980.185	2965.26
980.484	2923.91
980.784	2931.36
981.083	2925.04
981.382	2948.31
981.682	2927.52
981.981	2878.03
982.28	2867.18
982.579	2857.47
982.878	2853.85
983.177	2833.29
983.475	2808.88
983.774	2827.64
984.073	2823.34
984.372	2791.71
984.67	2788.09
984.969	2758.03
985.267	2744.93
985.566	2723.23
985.864	2723.69
986.162	2727.98
986.461	2718.04
986.759	2660.18
987.057	2665.16
987.355	2674.42
987.653	2621.99
987.951	2624.25
988.249	2644.37
988.547	2597.59
988.844	2623.12
989.142	2633.74
989.44	2576.57
989.737	2581.77
990.035	2545.84
990.332	2557.36
990.63	2508.55
990.927	2522.56
991.224	2500.64
991.521	2500.64
991.819	2473.97
992.116	2469
992.413	2465.61
992.71	2461.77
993.006	2459.06
993.303	2448.66
993.6	2423.58
993.897	2414.32
994.193	2412.06
994.49	2384.94
994.787	2400.76
995.083	2358.95
995.379	2392.17
995.676	2312.17
995.972	2315.79
996.268	2303.58
996.565	2321.21
996.861	2294.09
997.157	2300.65
997.453	2233.98
997.749	2261.55
998.044	2247.09
998.34	2245.73
998.636	2240.99
998.932	2214.55
999.227	2170.48
999.523	2162.8
999.818	2181.1
1000.114	2162.57
1000.409	2146.98
1000.704	2151.5
1001	2152.18
1001.295	2156.02
1001.59	2099.75
1001.885	2096.36
1002.18	2095.45
1002.475	2079.41
1002.77	2054.78
1003.065	2052.52
1003.359	2024.95
1003.654	2040.54
1003.949	2015
1004.243	2021.78
1004.538	2003.48
1004.832	2008.68
1005.127	1995.79
1005.421	1954.44
1005.715	1965.51
1006.009	1949.02
1006.304	1952.63
1006.598	1913.54
1006.892	1901.11
1007.186	1923.03
1007.48	1880.77
1007.773	1892.52
1008.067	1848
1008.361	1848.45
1008.655	1837.38
1008.948	1831.96
1009.242	1868.11
1009.535	1832.86
1009.829	1819.53
1010.122	1763.48
1010.415	1789.47
1010.708	1798.06
1011.001	1809.36
1011.295	1765.52
1011.588	1719.19
1011.881	1715.12
1012.173	1724.16
1012.466	1681.68
1012.759	1719.87
1013.052	1677.84
1013.344	1703.15
1013.637	1638.74
1013.93	1665.86
1014.222	1657.5
1014.514	1635.35
1014.807	1655.46
1015.099	1635.35
1015.391	1614.34
1015.683	1634.67
1015.976	1629.48
1016.268	1559.65
1016.56	1563.72
1016.851	1582.47
1017.143	1592.19
1017.435	1560.1
1017.727	1557.61
1018.018	1523.94
1018.31	1526.65
1018.602	1531.17
1018.893	1502.02
1019.185	1486.88
1019.476	1472.87
1019.767	1499.54
1020.058	1485.53
1020.35	1450.27
1020.641	1423.83
1020.932	1421.8
1021.223	1387.22
1021.514	1415.7
1021.804	1436.71
1022.095	1396.26
1022.386	1360.56
1022.677	1391.29
1022.967	1360.56
1023.258	1362.82
1023.548	1311.75
1023.839	1353.78
1024.129	1343.83
1024.419	1346.09
1024.709	1324.4
1025	1334.12
1025.29	1322.37
1025.58	1281.01
1025.87	1285.53
1026.16	1274.01
1026.449	1279.66
1026.739	1291.41
1027.029	1272.65
1027.319	1247.57
1027.608	1254.57
1027.898	1234.01
1028.187	1243.05
1028.477	1238.98
1028.766	1210.05
1029.055	1196.72
1029.344	1201.01
1029.634	1176.16
1029.923	1171.18
1030.212	1193.78
1030.501	1138.64
1030.79	1126.89
1031.078	1166.66
1031.367	1159.21
1031.656	1146.55
1031.945	1127.34
1032.233	1123.5
1032.522	1110.62
1032.81	1103.39
1033.099	1086.67
1033.387	1099.77
1033.675	1107.46
1033.963	1057.97
1034.251	1058.42
1034.54	1055.48
1034.828	1037.18
1035.116	1023.39
1035.403	1029.49
1035.691	1038.76
1035.979	1025.2
1036.267	1039.89
1036.554	998.99
1036.842	1011.19
1037.129	1001.7
1037.417	1001.7
1037.704	1014.13
1037.992	955.82
1038.279	988.14
1038.566	968.7
1038.853	968.7
1039.14	968.7
