Data from hue_340_FLMS001491_59.txt Node
Date: Mon Feb 06 15:43:19 GMT 2017
User: dcchb
Spectrometer: FLMS00149
Trigger mode: 0
Integration Time (sec): 2.000000E-2
Scans to average: 10
Electric dark correction enabled: true
Nonlinearity correction enabled: false
Boxcar width: 0
XAxis mode: Wavelengths
Number of Pixels in Spectrum: 2048
>>>>>Begin Spectral Data<<<<<
341.393	-5.59
341.776	-5.59
342.16	-5.59
342.543	-45.59
342.927	-63.22
343.31	-50.11
343.693	-78.81
344.077	-62.31
344.46	-59.83
344.843	-45.37
345.226	-49.43
345.61	-42.65
345.993	-32.26
346.376	-14.18
346.759	11.58
347.142	24.69
347.525	60.39
347.908	47.74
348.291	64.24
348.674	98.13
349.057	128.19
349.44	104.91
349.823	133.84
350.206	148.3
350.588	180.39
350.971	211.58
351.354	220.16
351.737	232.59
352.119	253.16
352.502	274.63
352.884	267.17
353.267	288.64
353.65	290.22
354.032	313.95
354.414	314.4
354.797	302.2
355.179	315.3
355.562	315.75
355.944	314.85
356.326	304.91
356.709	331.35
357.091	350.33
357.473	345.58
357.855	347.39
358.238	339.26
358.62	343.55
359.002	336.54
359.384	340.61
359.766	359.6
360.148	325.47
360.53	347.39
360.912	334.96
361.294	348.07
361.676	338.13
362.057	331.35
362.439	326.38
362.821	337.9
363.203	311.01
363.584	314.4
363.966	318.01
364.348	307.62
364.729	308.52
365.111	326.38
365.493	320.05
365.874	308.07
366.256	311.46
366.637	307.85
367.019	322.31
367.4	331.57
367.781	322.53
368.163	318.69
368.544	314.62
368.925	316.66
369.306	303.78
369.688	312.14
370.069	327.28
370.45	310.78
370.831	319.82
371.212	336.32
371.593	319.37
371.974	317.79
372.355	308.07
372.736	296.55
373.117	300.84
373.498	314.17
373.879	309.2
374.26	322.99
374.641	293.16
375.021	306.26
375.402	293.83
375.783	343.55
376.163	306.04
376.544	309.88
376.925	306.04
377.305	322.08
377.686	328.86
378.066	313.27
378.447	322.76
378.827	327.28
379.208	320.73
379.588	312.14
379.968	320.27
380.349	305.13
380.729	306.94
381.109	327.73
381.489	318.69
381.87	290.22
382.25	330.22
382.63	321.18
383.01	333.61
383.39	334.96
383.77	336.32
384.15	331.35
384.53	348.97
384.91	350.33
385.29	351.91
385.67	339.03
386.049	334.28
386.429	346.04
386.809	333.16
387.189	326.38
387.568	355.75
387.948	335.87
388.328	335.87
388.707	359.37
389.087	350.33
389.466	353.04
389.846	342.87
390.225	330.67
390.605	357.11
390.984	347.17
391.363	346.04
391.743	357.56
392.122	336.77
392.501	372.25
392.881	356.88
393.26	354.17
393.639	365.24
394.018	366.83
394.397	373.38
394.776	369.54
395.155	365.02
395.534	370.67
395.913	372.48
396.292	349.2
396.671	369.54
397.05	369.99
397.429	369.99
397.808	391.23
398.186	392.36
398.565	403.66
398.944	381.29
399.323	379.71
399.701	380.84
400.08	365.47
400.458	404.79
400.837	374.51
401.215	378.8
401.594	386.94
401.972	380.61
402.351	402.98
402.729	383.78
403.107	423.55
403.486	402.98
403.864	388.07
404.242	403.21
404.62	405.24
404.999	417.22
405.377	387.84
405.755	405.7
406.133	399.37
406.511	415.86
406.889	416.77
407.267	419.25
407.645	425.13
408.023	417.67
408.401	427.39
408.779	452.47
409.156	447.28
409.534	456.54
409.912	448.41
410.29	437.56
410.667	472.81
411.045	453.15
411.422	464
411.8	476.2
412.178	455.19
412.555	473.04
412.933	463.1
413.31	471.46
413.687	464
414.065	491.12
414.442	479.59
414.819	506.94
415.197	496.77
415.574	500.61
415.951	500.38
416.328	517.33
416.705	513.72
417.082	544.22
417.46	527.05
417.837	522.98
418.214	507.39
418.591	548.29
418.967	522.75
419.344	540.61
419.721	549.65
420.098	526.14
420.475	559.14
420.852	552.58
421.228	553.49
421.605	585.13
421.982	561.62
422.358	580.61
422.735	573.37
423.111	574.73
423.488	598.46
423.864	574.96
424.241	606.14
424.617	609.31
424.994	614.96
425.37	605.01
425.746	615.63
426.123	608.4
426.499	624.22
426.875	629.42
427.251	636.42
427.627	626.48
428.003	643.43
428.379	635.52
428.756	661.06
429.132	657.67
429.507	647.72
429.883	655.41
430.259	680.94
430.635	687.27
431.011	697.67
431.387	717.1
431.763	734.05
432.138	709.19
432.514	712.81
432.89	719.36
433.265	727.27
433.641	731.79
434.016	752.35
434.392	736.76
434.767	770.66
435.143	767.04
435.518	769.53
435.894	798.91
436.269	779.02
436.644	781.28
437.02	803.2
437.395	814.05
437.77	818.34
438.145	833.48
438.52	836.64
438.895	833.48
439.271	806.36
439.646	853.14
440.021	838.9
440.395	851.56
440.77	842.07
441.145	867.83
441.52	859.02
441.895	873.93
442.27	869.41
442.645	890.65
443.019	883.42
443.394	860.15
443.769	878.23
444.143	860.6
444.518	900.37
444.892	917.32
445.267	905.34
445.641	895.4
446.016	904.67
446.39	903.76
446.764	913.7
447.139	910.32
447.513	913.25
447.887	923.87
448.262	937.66
448.636	934.5
449.01	937.43
449.384	953.93
449.758	958.22
450.132	971.33
450.506	949.64
450.88	954.38
451.254	958.9
451.628	965
452.002	963.65
452.376	977.21
452.75	982.86
453.123	999.35
453.497	995.51
453.871	994.15
454.244	1029.86
454.618	1022.85
454.992	1030.09
455.365	1034.15
455.739	1039.35
456.112	1093.36
456.486	1075.28
456.859	1091.33
457.232	1069.63
457.606	1110.31
457.979	1086.58
458.352	1107.15
458.725	1115.06
459.099	1102.4
459.472	1130.87
459.845	1156.41
460.218	1143.98
460.591	1171.55
460.964	1199.12
461.337	1191.66
461.71	1198.22
462.083	1193.92
462.456	1213.13
462.829	1189.63
463.201	1269.18
463.574	1229.85
463.947	1237.99
464.32	1249.06
464.692	1274.37
465.065	1289.74
465.438	1292.68
465.81	1297.65
466.183	1321.15
466.555	1348.04
466.928	1362.28
467.3	1362.05
467.672	1384.88
468.045	1379
468.417	1392.34
468.789	1404.09
469.161	1415.16
469.534	1441.83
469.906	1471.88
470.278	1483.41
470.65	1467.14
471.022	1510.3
471.394	1549.85
471.766	1524.31
472.138	1527.93
472.51	1586.46
472.882	1591.88
473.253	1629.84
473.625	1634.82
473.997	1648.83
474.369	1641.6
474.74	1698.54
475.112	1706.45
475.484	1754.13
475.855	1793
476.227	1732.21
476.598	1781.48
476.97	1805.21
477.341	1870.06
477.713	1883.85
478.084	1858.31
478.455	1917.52
478.827	1936.95
479.198	1982.6
479.569	2004.3
479.94	2019.89
480.311	2058.53
480.682	2085.65
481.053	2148.25
481.424	2151.41
481.795	2196.38
482.166	2198.64
482.537	2197.74
482.908	2262.37
483.279	2307.34
483.65	2324.29
484.021	2370.39
484.391	2421.91
484.762	2416.26
485.133	2455.81
485.503	2440.9
485.874	2542.81
486.244	2565.41
486.615	2599.99
486.985	2626.43
487.356	2633.89
487.726	2690.83
488.097	2758.85
488.467	2726.54
488.837	2790.72
489.207	2785.75
489.578	2829.81
489.948	2875.24
490.318	2917.95
490.688	2944.61
491.058	2995.46
491.428	2994.78
491.798	3018.06
492.168	3057.38
492.538	3116.81
492.908	3124.04
493.278	3159.97
493.648	3167.2
494.017	3212.85
494.387	3232.97
494.757	3241.78
495.126	3311.38
495.496	3322.91
495.866	3326.3
496.235	3339.86
496.605	3371.04
496.974	3398.61
497.344	3460.3
497.713	3437.25
498.082	3462.34
498.452	3502.79
498.821	3491.72
499.19	3522.45
499.559	3519.29
499.928	3559.74
500.298	3549.12
500.667	3619.62
501.036	3637.93
501.405	3669.79
501.774	3663.69
502.143	3671.82
502.512	3721.99
502.88	3743.01
503.249	3763.35
503.618	3706.85
503.987	3775.55
504.356	3818.49
504.724	3813.29
505.093	3824.81
505.462	3811.93
505.83	3861.2
506.199	3901.2
506.567	3926.05
506.936	3924.93
507.304	3988.43
507.672	3923.57
508.041	3975.55
508.409	3966.28
508.777	4027.3
509.145	4057.58
509.514	4045.83
509.882	4062.32
510.25	4038.14
510.618	4081.76
510.986	4048.31
511.354	4129.21
511.722	4152.72
512.09	4128.54
512.458	4143.45
512.826	4181.19
513.193	4215.31
513.561	4198.36
513.929	4202.66
514.297	4286.72
514.664	4250.79
515.032	4288.53
515.4	4276.78
515.767	4286.05
516.135	4327.4
516.502	4230.23
516.869	4321.3
517.237	4356.55
517.604	4287.63
517.972	4387.74
518.339	4425.02
518.706	4386.83
519.073	4427.28
519.44	4416.21
519.808	4462.09
520.175	4460.5
520.542	4498.47
520.909	4520.39
521.276	4472.48
521.643	4538.24
522.009	4608.75
522.376	4595.42
522.743	4529.43
523.11	4619.37
523.477	4638.35
523.843	4701.18
524.21	4720.61
524.577	4757.22
524.943	4721.97
525.31	4740.72
525.676	4823.21
526.043	4763.1
526.409	4810.33
526.776	4871.34
527.142	4884.45
527.508	4921.51
527.874	4892.58
528.241	4936.88
528.607	4988.63
528.973	4986.82
529.339	5041.28
529.705	5042.86
530.071	5112.24
530.437	5110.66
530.803	5130.32
531.169	5167.83
531.535	5085.8
531.901	5140.03
532.267	5207.83
532.632	5218.22
532.998	5246.7
533.364	5236.98
533.73	5300.48
534.095	5314.49
534.461	5309.52
534.826	5406.92
535.192	5343.19
535.557	5395.85
535.923	5427.03
536.288	5444.21
536.653	5430.87
537.019	5446.24
537.384	5497.54
537.749	5537.31
538.114	5516.75
538.479	5600.81
538.845	5608.5
539.21	5559.91
539.575	5643.07
539.94	5633.35
540.305	5653.24
540.67	5689.62
541.034	5667.93
541.399	5687.14
541.764	5721.26
542.129	5824.31
542.494	5763.52
542.858	5807.36
543.223	5791.54
543.587	5860.47
543.952	5882.39
544.316	5881.48
544.681	5930.3
545.045	5924.87
545.41	6009.62
545.774	5979.11
546.138	5984.76
546.503	6032.44
546.867	6053.68
547.231	6169.39
547.595	6164.41
547.959	6149.27
548.324	6093.46
548.688	6150.18
549.052	6195.15
549.416	6152.89
549.779	6211.64
550.143	6255.03
550.507	6323.73
550.871	6277.86
551.235	6318.99
551.599	6333.45
551.962	6339.55
552.326	6424.97
552.689	6441.47
553.053	6406.44
553.417	6367.8
553.78	6509.94
554.143	6422.49
554.507	6506.55
554.87	6522.6
555.234	6590.17
555.597	6561.92
555.96	6598.3
556.323	6600.33
556.686	6578.41
557.05	6623.61
557.413	6675.59
557.776	6682.59
558.139	6695.93
558.502	6672.2
558.865	6730.28
559.228	6831.97
559.59	6718.52
559.953	6787.67
560.316	6808.47
560.679	6842.59
561.041	6885.07
561.404	6905.64
561.767	6957.16
562.129	6879.42
562.492	7009.82
562.854	7020.66
563.217	6951.06
563.579	7044.39
563.941	7072.86
564.304	7121.23
564.666	7149.25
565.028	7156.7
565.39	7140.21
565.753	7177.72
566.115	7172.98
566.477	7203.93
566.839	7211.62
567.201	7332.97
567.563	7286.64
567.925	7378.62
568.287	7339.3
568.648	7330.03
569.01	7355.8
569.372	7422.91
569.734	7453.87
570.095	7471.05
570.457	7524.83
570.819	7617.03
571.18	7559.18
571.542	7641.44
571.903	7660.87
572.265	7753.98
572.626	7719.4
572.987	7833.97
573.349	7829.68
573.71	7946.29
574.071	7945.84
574.432	7970.24
574.794	8076.45
575.155	8022.67
575.516	8088.21
575.877	8157.13
576.238	8243.23
576.599	8255.43
576.96	8350.12
577.32	8410
577.681	8456.56
578.042	8542.88
578.403	8587.4
578.763	8680.28
579.124	8797.79
579.485	8872.37
579.845	8997.56
580.206	9104.68
580.566	9185.8
580.927	9263.32
581.287	9385.57
581.648	9493.82
582.008	9679.35
582.368	9772.23
582.728	9850.87
583.089	9988.72
583.449	10144.65
583.809	10316.17
584.169	10477.75
584.529	10630.96
584.889	10859.66
585.249	10905.76
585.609	11129.93
585.969	11336.26
586.329	11492.18
586.688	11712.52
587.048	11857.6
587.408	12132.17
587.768	12310.47
588.127	12391.37
588.487	12657.35
588.846	12997.91
589.206	13189.77
589.565	13419.36
589.925	13709.98
590.284	13906.13
590.643	14215.5
591.003	14417.76
591.362	14702.27
591.721	14943.39
592.08	15129.38
592.44	15509.93
592.799	15786.76
593.158	15974.1
593.517	16307.2
593.876	16484.59
594.235	16703.35
594.593	17034.86
594.952	17313.5
595.311	17513.95
595.67	17775.18
596.029	18245.23
596.387	18498.33
596.746	18770.41
597.104	18995.72
597.463	19249.95
597.822	19629.37
598.18	19843.38
598.538	20103.93
598.897	20397.49
599.255	20478.16
599.613	21105.49
599.972	21258.71
600.33	21624.12
600.688	21718.13
601.046	22061.17
601.404	22421.39
601.762	22688.05
602.12	23044.42
602.478	23363.28
602.836	23585.65
603.194	23615.25
603.552	23932.31
603.91	24071.74
604.268	24501.33
604.625	24622.01
604.983	24935.45
605.341	25055.89
605.698	25445.26
606.056	25691.13
606.413	25883.67
606.771	26299.48
607.128	26477.55
607.485	26463.32
607.843	26665.57
608.2	27085.9
608.557	27350.75
608.914	27498.99
609.272	27767.24
609.629	27970.62
609.986	28297.62
610.343	28302.82
610.7	28748.45
611.057	28844.27
611.414	28845.63
611.771	29165.84
612.127	29446.51
612.484	29575.55
612.841	29848.09
613.198	29777.13
613.554	29954.98
613.911	30385.47
614.267	30380.73
614.624	30645.35
614.98	30760.6
615.337	31266.58
615.693	31209.41
616.05	31172.8
616.406	31516.06
616.762	31608.49
617.118	31766.9
617.475	31808.49
617.831	32055.03
618.187	32264.29
618.543	32373.67
618.899	32725.98
619.255	32608.69
619.611	32633.77
619.967	32904.95
620.323	33117.6
620.678	33045.52
621.034	33142.69
621.39	33197.38
621.746	33373.42
622.101	33733.41
622.457	33641.21
622.812	33696.57
623.168	33909.9
623.523	33951.03
623.879	34114.64
624.234	33991.71
624.589	34175.2
624.945	34220.63
625.3	34362.77
625.655	34477.12
626.01	34458.81
626.365	34574.51
626.72	34525.7
627.075	34683.66
627.43	34849.31
627.785	34764.11
628.14	34892.47
628.495	35061.51
628.85	35004.11
629.205	35015.18
629.559	35228.96
629.914	34965.24
630.269	35146.93
630.623	35063.77
630.978	35139.02
631.332	35312.57
631.687	35284.33
632.041	35337.66
632.396	35311.44
632.75	35282.29
633.104	35299.24
633.459	35176.76
633.813	35177.21
634.167	35322.97
634.521	35191.9
634.875	35320.71
635.229	35384.21
635.583	35223.99
635.937	35259.02
636.291	35268.28
636.645	35249.98
636.999	35226.7
637.352	35441.84
637.706	35193.93
638.06	35372.69
638.413	35239.36
638.767	35232.12
639.121	35361.84
639.474	35134.73
639.828	35190.54
640.181	35308.51
640.534	35228.51
640.888	35231.9
641.241	35084.11
641.594	35283.2
641.947	35292.69
642.301	35269.64
642.654	35239.81
643.007	35286.81
643.36	35240.03
643.713	35185.57
644.066	35359.58
644.419	35054.5
644.771	34922.53
645.124	34650.22
645.477	34565.25
645.83	34274.64
646.182	34175.2
646.535	34102.21
646.888	34227.63
647.24	33976.11
647.593	34180.17
647.945	34266.95
648.298	33962.55
648.65	33964.81
649.002	33913.74
649.355	34127.29
649.707	34048.88
650.059	34220.17
650.411	34597.79
650.763	34626.26
651.115	34919.36
651.467	34841.4
651.819	34909.2
652.171	34756.2
652.523	34844.11
652.875	34823.55
653.227	34603.89
653.578	34851.12
653.93	34743.32
654.282	34625.59
654.633	34612.25
654.985	34635.08
655.337	34643.21
655.688	34637.11
656.039	34784.45
656.391	34466.04
656.742	34509.88
657.094	34500.84
657.445	34641.63
657.796	34476.66
658.147	34583.33
658.498	34524.35
658.849	34618.13
659.2	34451.81
659.551	34439.15
659.902	34633.5
660.253	34433.28
660.604	34545.14
660.955	34426.95
661.306	34488.19
661.656	34411.81
662.007	34488.87
662.358	34453.39
662.708	34358.93
663.059	34567.06
663.409	34308.53
663.76	34488.64
664.11	34412.48
664.461	34318.25
664.811	34416.78
665.161	34469.66
665.511	34321.41
665.862	34428.98
666.212	34427.17
666.562	34552.14
666.912	34536.32
667.262	34391.92
667.612	34428.76
667.962	34395.76
668.312	34449.32
668.662	34456.33
669.011	34362.99
669.361	34348.31
669.711	34324.8
670.06	34277.8
670.41	34186.05
670.76	34235.31
671.109	34462.88
671.459	34252.04
671.808	34252.04
672.157	34351.24
672.507	34076.67
672.856	34080.97
673.205	34141.76
673.554	34264.69
673.904	34189.67
674.253	34153.73
674.602	34078.71
674.951	33725.05
675.3	33441.21
675.649	34101.08
675.998	34066.28
676.346	34045.04
676.695	34068.31
677.044	33814.76
677.393	34006.62
677.741	34017.69
678.09	33894.08
678.438	33913.52
678.787	33932.72
679.135	33949.22
679.484	33730.47
679.832	33952.38
680.181	33632.39
680.529	33746.51
680.877	33713.07
681.225	33600.75
681.573	33859.51
681.922	33561.66
682.27	33390.36
682.618	33507.65
682.966	33431.95
683.314	33483.47
683.661	33450.7
684.009	33271.72
684.357	33114.21
684.705	33170.71
685.053	33156.02
685.4	33067.89
685.748	32927.55
686.095	32964.84
686.443	32735.24
686.79	32896.59
687.138	32972.52
687.485	32958.74
687.832	32771.85
688.18	32638.29
688.527	32464.29
688.874	32629.48
689.221	32421.58
689.568	32461.8
689.915	32429.03
690.262	32369.83
690.609	32244.86
690.956	32210.06
691.303	32149.49
691.65	31941.82
691.997	31970.52
692.344	31808.03
692.69	31721.03
693.037	31795.38
693.383	31566.01
693.73	31668.6
694.077	31512.67
694.423	31384.99
694.769	31433.58
695.116	31321.27
695.462	31299.8
695.808	31154.49
696.155	31256.41
696.501	30878.57
696.847	30982.29
697.193	30649.19
697.539	30827.27
697.885	30488.75
698.231	30633.6
698.577	30554.28
698.923	30484.23
699.269	30342.76
699.614	30222.31
699.96	30245.59
700.306	30262.31
700.651	30141.64
700.997	29937.35
701.342	29964.24
701.688	29898.93
702.033	29717.24
702.379	29766.28
702.724	29648.99
703.069	29809.44
703.415	29384.14
703.76	29551.82
704.105	29427.31
704.45	29300.3
704.795	29180.76
705.14	29066.86
705.485	29114.55
705.83	28906.87
706.175	28931.95
706.52	28806.3
706.865	28790.26
707.209	28782.58
707.554	28631.85
707.899	28678.4
708.243	28565.63
708.588	28619.19
708.932	28379.42
709.277	28345.3
709.621	28302.36
709.966	28166.32
710.31	28173.1
710.654	27998.64
710.998	27951.86
711.342	28107.57
711.687	27951.41
712.031	27917.51
712.375	27757.74
712.719	27772.43
713.063	27783.96
713.407	27896.05
713.75	27536.06
714.094	27717.07
714.438	27562.5
714.782	27449.73
715.125	27313.91
715.469	27448.37
715.812	27271.88
716.156	27145.78
716.499	27172.22
716.843	27198.89
717.186	26993.92
717.53	27007.71
717.873	27159.79
718.216	27034.6
718.559	26865.34
718.902	26806.36
719.246	26816.53
719.589	26682.52
719.932	26650.88
720.275	26649.07
720.617	26551.22
720.96	26523.88
721.303	26522.07
721.646	26580.83
721.989	26401.4
722.331	26438.01
722.674	26381.51
723.016	26431
723.359	26192.81
723.701	26327.73
724.044	26071.46
724.386	26012.48
724.729	26085.47
725.071	26052.03
725.413	26046.38
725.755	25942.65
726.097	25888.87
726.439	25720.74
726.782	25763.9
727.124	25928.87
727.465	25780.85
727.807	25730.91
728.149	25679.38
728.491	25666.05
728.833	25623.56
729.175	25439.39
729.516	25417.02
729.858	25400.74
730.199	25491.59
730.541	25349.45
730.882	25474.19
731.224	25388.09
731.565	25242.33
731.906	25271.93
732.248	25262.9
732.589	25197.81
732.93	24979.51
733.271	25062.22
733.612	25070.36
733.953	25139.28
734.294	25019.51
734.635	24934.54
734.976	25013.41
735.317	24812.74
735.658	24867.43
735.999	24852.96
736.339	24701.33
736.68	24906.29
737.021	24667.2
737.361	24583.59
737.702	24805.28
738.042	24611.39
738.383	24638.5
738.723	24736.36
739.063	24518.06
739.404	24478.51
739.744	24678.05
740.084	24443.26
740.424	24456.59
740.764	24382.47
741.104	24429.47
741.444	24273.77
741.784	24290.04
742.124	24278.74
742.464	24129.14
742.804	24239.42
743.143	24135.02
743.483	24160.55
743.823	23945.19
744.162	24031.74
744.502	24052.53
744.841	23895.47
745.181	24055.92
745.52	23872.42
745.86	23951.07
746.199	23894.12
746.538	23683.95
746.877	23762.37
747.216	23856.83
747.556	23632.43
747.895	23806.44
748.234	23601.02
748.573	23600.79
748.911	23485.54
749.25	23544.3
749.589	23466.11
749.928	23540
750.267	23439.21
750.605	23321.25
750.944	23355.83
751.283	23309.5
751.621	23310.18
751.96	23231.76
752.298	23153.57
752.636	23143.85
752.975	23096.4
753.313	22977.76
753.651	23033.35
753.989	23023.86
754.327	22916.97
754.666	22700.93
755.004	22876.07
755.342	22798.1
755.679	22820.93
756.017	22659.12
756.355	22754.94
756.693	22621.38
757.031	22600.37
757.368	22554.94
757.706	22437.88
758.044	22361.5
758.381	22379.58
758.719	22268.17
759.056	22318.11
759.394	22134.62
759.731	22099.14
760.068	22011
760.405	22058.69
760.743	21881.74
761.08	22051.91
761.417	21851.23
761.754	21835.41
762.091	21697.11
762.428	21686.49
762.765	21572.6
763.102	21626.15
763.438	21509.77
763.775	21425.48
764.112	21439.04
764.449	21297.8
764.785	21309.78
765.122	21132.38
765.458	20994.76
765.795	21112.04
766.131	21015.1
766.467	20917.7
766.804	20791.15
767.14	20686.74
767.476	20738.95
767.812	20608.55
768.148	20745.05
768.485	20565.39
768.821	20426.86
769.157	20338.5
769.492	20296.25
769.828	20292.86
770.164	20119.75
770.5	20089.7
770.836	20127.21
771.171	19905.97
771.507	19874.11
771.842	19808.12
772.178	19778.75
772.513	19771.74
772.849	19697.17
773.184	19557.51
773.519	19579.2
773.855	19515.02
774.19	19438.42
774.525	19296.27
774.86	19293.56
775.195	19357.51
775.53	19169.04
775.865	19065.09
776.2	18962.04
776.535	18828.04
776.87	18850.18
777.205	18712.33
777.539	18730.19
777.874	18589.62
778.209	18583.07
778.543	18436.41
778.878	18522.73
779.212	18472.11
779.547	18266.69
779.881	18278.45
780.215	18230.54
780.55	18194.38
780.884	18082.52
781.218	17918.46
781.552	18013.59
781.886	17928.4
782.22	17752.58
782.554	17630.1
782.888	17644.34
783.222	17518.69
783.556	17507.17
783.889	17425.14
784.223	17360.05
784.557	17346.95
784.89	17342.88
785.224	17207.74
785.557	17155.54
785.891	17044.35
786.224	17031.25
786.558	17122.77
786.891	16877.8
787.224	16755.77
787.557	16773.4
787.891	16727.07
788.224	16623.8
788.557	16617.92
788.89	16591.03
789.223	16633.52
789.556	16356.91
789.888	16383.81
790.221	16428.55
790.554	16197.6
790.887	16233.98
791.219	16158.95
791.552	16166.64
791.884	16118.05
792.217	15970.48
792.549	15950.15
792.882	15873.99
793.214	15798.51
793.546	15831.96
793.879	15772.3
794.211	15659.76
794.543	15664.28
794.875	15658.63
795.207	15608.23
795.539	15461.12
795.871	15481.01
796.203	15375.7
796.535	15285.53
796.867	15220.9
797.198	15243.95
797.53	15229.94
797.862	15060.45
798.193	15098.87
798.525	14944.3
798.856	15060.9
799.188	14848.03
799.519	14788.59
799.85	14712.66
800.182	14798.99
800.513	14838.54
800.844	14638.32
801.175	14724.42
801.506	14611.88
801.837	14580.69
802.168	14509.96
802.499	14460.92
802.83	14425.44
803.161	14384.09
803.491	14320.13
803.822	14300.7
804.153	14238.33
804.483	14090.08
804.814	14100.25
805.145	14056.86
805.475	14099.8
805.805	14096.63
806.136	14108.39
806.466	13966.47
806.796	14011.44
807.126	13852.8
807.457	13806.7
807.787	13866.36
808.117	13848.73
808.447	13748.17
808.777	13803.54
809.107	13658.91
809.436	13596.08
809.766	13641.05
810.096	13584.33
810.426	13534.16
810.755	13557.21
811.085	13526.71
811.414	13478.57
811.744	13328.75
812.073	13336.65
812.403	13284.23
812.732	13222.76
813.061	13269.54
813.39	13191.8
813.719	13078.81
814.049	13200.61
814.378	13162.65
814.707	13077.23
815.036	13056.21
815.365	12997
815.693	12888.76
816.022	12838.36
816.351	12819.83
816.68	12743.68
817.008	12863.9
817.337	12700.97
817.665	12644.02
817.994	12669.55
818.322	12712.94
818.651	12645.83
818.979	12623.91
819.307	12570.57
819.636	12699.61
819.964	12452.61
820.292	12539.39
820.62	12555.66
820.948	12473.85
821.276	12481.99
821.604	12438.6
821.932	12471.14
822.259	12508.65
822.587	12418.71
822.915	12395.89
823.243	12372.39
823.57	12436.57
823.898	12433.4
824.225	12384.36
824.553	12353.86
824.88	12362.67
825.207	12337.13
825.535	12336
825.862	12466.85
826.189	12400.41
826.516	12393.63
826.843	12495.77
827.17	12465.94
827.497	12399.05
827.824	12377.13
828.151	12403.12
828.478	12319.96
828.805	12437.92
829.131	12438.83
829.458	12363.35
829.785	12295.55
830.111	12374.87
830.438	12435.89
830.764	12405.15
831.09	12401.76
831.417	12261.43
831.743	12401.31
832.069	12371.26
832.395	12185.05
832.722	12321.99
833.048	12279.96
833.374	12316.79
833.7	12210.36
834.026	12224.59
834.351	12269.79
834.677	12251.26
835.003	12214.88
835.329	12173.97
835.654	12198.38
835.98	12125.39
836.306	12166.29
836.631	12103.92
836.956	12126.97
837.282	12095.56
837.607	12078.83
837.932	12048.1
838.258	12056.24
838.583	12052.39
838.908	11992.51
839.233	12053.98
839.558	12006.29
839.883	11918.39
840.208	11872.51
840.533	11912.06
840.858	11840.88
841.182	11895.79
841.507	11841.33
841.832	11731.73
842.156	11776.92
842.481	11659.18
842.805	11751.39
843.13	11637.94
843.454	11716.13
843.778	11661.9
844.103	11638.62
844.427	11589.36
844.751	11612.86
845.075	11501.67
845.399	11542.13
845.723	11435.69
846.047	11380.32
846.371	11362.7
846.695	11382.13
847.019	11239.76
847.343	11213.77
847.666	11215.13
847.99	11099.43
848.313	11134.23
848.637	10971.52
848.96	10978.3
849.284	10945.53
849.607	10934.68
849.931	10875.7
850.254	10805.2
850.577	10736.27
850.9	10753.45
851.223	10696.72
851.546	10680.91
851.869	10554.81
852.192	10615.14
852.515	10567.91
852.838	10439.33
853.161	10554.81
853.483	10443.85
853.806	10383.06
854.129	10395.04
854.451	10330.18
854.774	10295.38
855.096	10208.15
855.419	10220.13
855.741	10180.35
856.063	10180.35
856.385	10137.19
856.708	10085.22
857.03	10033.01
857.352	10060.81
857.674	10025.33
857.996	9977.2
858.318	9915.95
858.64	9833.92
858.961	9911.66
859.283	9857.42
859.605	9786.69
859.926	9838.44
860.248	9779.69
860.57	9756.18
860.891	9829.85
861.212	9692.46
861.534	9695.17
861.855	9693.13
862.176	9661.72
862.498	9647.26
862.819	9586.7
863.14	9540.14
863.461	9589.86
863.782	9525.68
864.103	9543.53
864.424	9496.98
864.745	9482.29
865.065	9442.52
865.386	9442.07
865.707	9427.15
866.027	9468.51
866.348	9415.85
866.668	9401.84
866.989	9375.4
867.309	9361.84
867.63	9355.74
867.95	9286.37
868.27	9224.9
868.59	9253.37
868.91	9283.88
869.23	9239.81
869.55	9281.85
869.87	9223.77
870.19	9249.76
870.51	9196.88
870.83	9167.5
871.15	9155.52
871.469	9095.41
871.789	9186.93
872.109	9138.8
872.428	9110.33
872.748	9115.52
873.067	9107.61
873.386	9103.32
873.706	9077.11
874.025	8982.65
874.344	9000.95
874.663	8964.11
874.982	9001.63
875.301	8976.77
875.62	8967.5
875.939	8933.61
876.258	8953.72
876.577	8866.04
876.896	8842.54
877.214	8857
877.533	8871.91
877.852	8874.4
878.17	8887.51
878.489	8884.79
878.807	8812.71
879.125	8842.08
879.444	8754.85
879.762	8758.02
880.08	8800.05
880.398	8719.83
880.716	8758.92
881.034	8724.35
881.352	8671.01
881.67	8671.24
881.988	8695.2
882.306	8711.69
882.624	8585.59
882.941	8555.31
883.259	8535.2
883.577	8462.21
883.894	8514.18
884.212	8519.38
884.529	8521.64
884.846	8453.17
885.164	8395.32
885.481	8421.53
885.798	8395.77
886.115	8387.63
886.432	8388.99
886.75	8342.21
887.067	8261.76
887.383	8280.52
887.7	8277.58
888.017	8255.66
888.334	8241.42
888.651	8246.39
888.967	8240.74
889.284	8160.07
889.6	8181.99
889.917	8105.61
890.233	8091.6
890.55	8105.38
890.866	8079.17
891.182	8061.09
891.498	8008.89
891.815	8025.83
892.131	7983.58
892.447	7944.25
892.763	7928.21
893.079	7869
893.395	7912.39
893.71	7816.8
894.026	7845.27
894.342	7819.29
894.657	7815.22
894.973	7803.24
895.289	7734.09
895.604	7674.66
895.92	7668.33
896.235	7682.34
896.55	7635.56
896.865	7644.38
897.181	7590.37
897.496	7585.39
897.811	7587.65
898.126	7496.36
898.441	7429.47
898.756	7456.81
899.071	7409.58
899.386	7317.6
899.7	7304.05
900.015	7383.37
900.33	7283.03
900.644	7242.8
900.959	7277.61
901.273	7238.51
901.588	7194.9
901.902	7184.73
902.216	7144.73
902.531	7144.5
902.845	7142.47
903.159	7093.2
903.473	7081.45
903.787	7049.14
904.101	6982.92
904.415	6986.77
904.729	6961.68
905.042	6945.18
905.356	6909.03
905.67	6921
905.984	6935.69
906.297	6854.11
906.611	6795.13
906.924	6812.31
907.237	6793.1
907.551	6770.5
907.864	6721.46
908.177	6766.88
908.491	6649.15
908.804	6627.23
909.117	6575.25
909.43	6545.87
909.743	6539.55
910.056	6524.4
910.368	6475.82
910.681	6414.8
910.994	6461.13
911.307	6393.11
911.619	6356.95
911.932	6318.53
912.244	6349.49
912.557	6330.06
912.869	6325.99
913.181	6263.39
913.494	6261.13
913.806	6210.29
914.118	6203.96
914.43	6124.64
914.742	6161.48
915.054	6114.92
915.366	6068.6
915.678	6071.76
915.99	6069.73
916.302	6031.99
916.613	5938.66
916.925	5951.99
917.236	5977.53
917.548	5938.21
917.859	5936.85
918.171	5871.31
918.482	5877.19
918.794	5837.19
919.105	5851.2
919.416	5815.95
919.727	5765.33
920.038	5764.42
920.349	5730.98
920.66	5672
920.971	5677.2
921.282	5606.91
921.593	5643.52
921.903	5612.79
922.214	5607.37
922.525	5541.61
922.835	5589.29
923.146	5525.11
923.456	5499.57
923.767	5437.2
924.077	5428.16
924.387	5411.67
924.697	5403.3
925.008	5374.6
925.318	5297.77
925.628	5309.3
925.938	5337.77
926.248	5303.87
926.558	5261.16
926.867	5270.65
927.177	5199.24
927.487	5188.62
927.796	5173.03
928.106	5194.95
928.416	5137.32
928.725	5099.13
929.034	5069.98
929.344	5105.91
929.653	5079.47
929.962	5057.78
930.271	4969.19
930.581	4980.26
930.89	4968.51
931.199	4920.61
931.508	4929.42
931.817	4933.71
932.125	4897.33
932.434	4897.78
932.743	4851.45
933.051	4780.95
933.36	4769.65
933.669	4775.07
933.977	4727.62
934.286	4752.93
934.594	4714.28
934.902	4673.38
935.21	4638.13
935.519	4681.97
935.827	4643.1
936.135	4602.87
936.443	4567.17
936.751	4578.24
937.059	4550.45
937.367	4504.8
937.674	4530.11
937.982	4498.02
938.29	4437.91
938.597	4476.55
938.905	4438.36
939.213	4463.44
939.52	4432.26
939.827	4411.24
940.135	4375.08
940.442	4349.55
940.749	4323.78
941.056	4342.77
941.363	4321.3
941.67	4286.27
941.977	4280.4
942.284	4243.11
942.591	4215.76
942.898	4193.62
943.205	4216.67
943.511	4186.16
943.818	4212.6
944.125	4128.08
944.431	4090.34
944.738	4130.8
945.044	4101.42
945.35	4043.79
945.657	4046.28
945.963	3997.24
946.269	3992.95
946.575	4020.97
946.881	3952.95
947.187	3985.71
947.493	3957.92
947.799	3928.54
948.105	3933.51
948.41	3883.57
948.716	3883.57
949.022	3813.52
949.327	3777.36
949.633	3818.04
949.938	3816.45
950.244	3830.92
950.549	3786.4
950.854	3725.38
951.16	3738.49
951.465	3776.45
951.77	3728.55
952.075	3700.52
952.38	3682.45
952.685	3660.53
952.99	3643.8
953.294	3624.14
953.599	3649.45
953.904	3628.66
954.209	3595.89
954.513	3607.87
954.818	3556.12
955.122	3522.68
955.426	3510.02
955.731	3545.73
956.035	3486.29
956.339	3478.61
956.643	3497.82
956.948	3449.91
957.252	3451.04
957.556	3444.03
957.86	3399.29
958.163	3431.15
958.467	3372.4
958.771	3400.87
959.075	3357.03
959.378	3301.21
959.682	3311.16
959.985	3307.31
960.289	3330.59
960.592	3257.37
960.896	3255.56
961.199	3262.12
961.502	3294.43
961.805	3223.25
962.108	3189.13
962.411	3183.02
962.714	3144.38
963.017	3199.97
963.32	3172.18
963.623	3149.35
963.926	3141.44
964.228	3105.74
964.531	3079.98
964.833	3066.42
965.136	3072.07
965.438	3039.52
965.741	3019.41
966.043	3018.28
966.345	3020.54
966.648	3029.81
966.95	2965.63
967.252	3005.4
967.554	2918.4
967.856	2922.01
968.158	2936.7
968.46	2959.98
968.761	2899.87
969.063	2892.18
969.365	2882.69
969.666	2865.74
969.968	2853.09
970.269	2858.06
970.571	2858.29
970.872	2882.01
971.174	2839.3
971.475	2803.82
971.776	2816.71
972.077	2822.58
972.378	2792.98
972.679	2753.66
972.98	2783.94
973.281	2721.11
973.582	2707.33
973.883	2715.92
974.183	2695.13
974.484	2711.85
974.785	2657.39
975.085	2690.38
975.386	2672.3
975.686	2653.55
975.986	2681.34
976.287	2627.78
976.587	2611.97
976.887	2609.25
977.187	2602.93
977.487	2601.34
977.787	2611.06
978.087	2546.43
978.387	2543.72
978.687	2540.33
978.987	2543.49
979.286	2499.88
979.586	2522.93
979.885	2523.15
980.185	2471.4
980.484	2473.21
980.784	2485.87
981.083	2451.29
981.382	2443.83
981.682	2447.9
981.981	2411.74
982.28	2417.17
982.579	2386.21
982.878	2396.38
983.177	2404.74
983.475	2373.78
983.774	2363.16
984.073	2336.72
984.372	2373.1
984.67	2322.48
984.969	2328.58
985.267	2332.65
985.566	2331.29
985.864	2286.32
986.162	2288.36
986.461	2264.18
986.759	2281.35
987.057	2253.33
987.355	2228.25
987.653	2246.78
987.951	2214.91
988.249	2228.92
988.547	2172.65
988.844	2195.03
989.142	2195.25
989.44	2193.22
989.737	2142.37
990.035	2127.91
990.332	2167.23
990.63	2147.34
990.927	2120.23
991.224	2115.93
991.521	2078.87
991.819	2106.22
992.116	2103.5
992.413	2083.17
992.71	2070.28
993.006	2039.78
993.303	2070.74
993.6	2051.53
993.897	2048.36
994.193	2004.07
994.49	2016.95
994.787	2016.73
995.083	1961.81
995.379	1987.57
995.676	1961.59
995.972	1967.46
996.268	1955.26
996.565	1936.5
996.861	1948.03
997.157	1903.06
997.453	1924.3
997.749	1938.08
998.044	1904.19
998.34	1894.02
998.636	1898.76
998.932	1887.01
999.227	1841.36
999.523	1837.97
999.818	1838.65
1000.114	1827.35
1000.409	1853.79
1000.704	1790.74
1001	1790.74
1001.295	1792.78
1001.59	1768.15
1001.885	1779.67
1002.18	1770.18
1002.475	1757.75
1002.77	1727.47
1003.065	1745.1
1003.359	1725.43
1003.654	1744.64
1003.949	1741.25
1004.243	1688.83
1004.538	1676.85
1004.832	1671.65
1005.127	1690.18
1005.421	1630.07
1005.715	1669.17
1006.009	1649.28
1006.304	1674.36
1006.598	1626.91
1006.892	1651.76
1007.186	1618.77
1007.48	1627.81
1007.773	1626.45
1008.067	1588.49
1008.361	1581.94
1008.655	1550.52
1008.948	1574.48
1009.242	1586.46
1009.535	1523.63
1009.829	1562.05
1010.122	1563.63
1010.415	1539.45
1010.708	1508.94
1011.001	1503.97
1011.295	1513.46
1011.588	1515.72
1011.881	1501.94
1012.173	1490.64
1012.466	1444.54
1012.759	1444.31
1013.052	1435.95
1013.344	1454.48
1013.637	1431.21
1013.93	1408.16
1014.222	1419.91
1014.514	1409.51
1014.807	1403.86
1015.099	1390.53
1015.391	1393.24
1015.683	1367.93
1015.976	1373.58
1016.268	1341.04
1016.56	1360.47
1016.851	1335.39
1017.143	1308.95
1017.435	1343.98
1017.727	1336.52
1018.018	1331.77
1018.31	1303.07
1018.602	1270.98
1018.893	1303.98
1019.185	1269.63
1019.476	1302.4
1019.767	1246.8
1020.058	1271.21
1020.35	1268.27
1020.641	1270.08
1020.932	1243.64
1021.223	1235.28
1021.514	1242.74
1021.804	1179.01
1022.095	1217.65
1022.386	1195.05
1022.677	1196.86
1022.967	1198.67
1023.258	1170.65
1023.548	1184.88
1023.839	1184.66
1024.129	1142.17
1024.419	1147.6
1024.709	1151.66
1025	1108.5
1025.29	1113.7
1025.58	1139.24
1025.87	1089.75
1026.16	1107.82
1026.449	1093.36
1026.739	1085.23
1027.029	1079.8
1027.319	1059.69
1027.608	1083.19
1027.898	1076.64
1028.187	1062.85
1028.477	1066.47
1028.766	1057.66
1029.055	1045.45
1029.344	1055.62
1029.634	1027.15
1029.923	989.41
1030.212	1042.97
1030.501	1038.9
1030.79	984.89
1031.078	1005.91
1031.367	995.74
1031.656	959.35
1031.945	992.12
1032.233	979.47
1032.522	971.1
1032.81	964.55
1033.099	960.71
1033.387	942.63
1033.675	951.44
1033.963	940.14
1034.251	919.13
1034.54	913.25
1034.828	916.42
1035.116	920.03
1035.403	889.52
1035.691	906.02
1035.979	883.65
1036.267	876.64
1036.554	884.78
1036.842	905.12
1037.129	878.9
1037.417	869.41
1037.704	877.32
1037.992	862.86
1038.279	846.14
1038.566	869.86
1038.853	869.86
1039.14	869.86
