Data from hue_22_FLMS001491_00085.txt Node
Date: Tue Feb 07 17:10:46 GMT 2017
User: dcchb
Spectrometer: FLMS00149
Trigger mode: 0
Integration Time (sec): 2.000000E-2
Scans to average: 10
Electric dark correction enabled: true
Nonlinearity correction enabled: false
Boxcar width: 0
XAxis mode: Wavelengths
Number of Pixels in Spectrum: 2048
>>>>>Begin Spectral Data<<<<<
341.393	-31.78
341.776	-31.78
342.16	-31.78
342.543	-38.11
342.927	-78.78
343.31	-81.5
343.693	-86.92
344.077	-73.13
344.46	-53.93
344.843	-45.56
345.226	-32
345.61	-35.85
345.993	-12.12
346.376	-7.37
346.759	31.95
347.142	20.2
347.525	45.28
347.908	61.78
348.291	71.5
348.674	82.79
349.057	114.88
349.44	131.38
349.823	162.79
350.206	166.18
350.588	203.47
350.971	211.83
351.354	221.32
351.737	236.24
352.119	266.52
352.502	262.68
352.884	269.68
353.267	296.12
353.65	317.59
354.032	305.39
354.414	312.62
354.797	316.01
355.179	336.57
355.562	331.83
355.944	322.34
356.326	339.74
356.709	327.76
357.091	337.93
357.473	364.37
357.855	356.23
358.238	356.46
358.62	368.89
359.002	312.84
359.384	317.36
359.766	361.88
360.148	350.36
360.53	358.72
360.912	368.89
361.294	349.68
361.676	334.54
362.057	352.17
362.439	341.09
362.821	356.23
363.203	331.83
363.584	330.7
363.966	331.83
364.348	325.27
364.729	336.57
365.111	334.31
365.493	342.67
365.874	325.05
366.256	343.35
366.637	310.81
367.019	318.49
367.4	329.34
367.781	330.47
368.163	329.57
368.544	321.21
368.925	316.01
369.306	322.34
369.688	325.95
370.069	337.25
370.45	296.8
370.831	317.59
371.212	328.89
371.593	322.56
371.974	324.37
372.355	333.41
372.736	337.7
373.117	335.22
373.498	327.31
373.879	337.7
374.26	326.86
374.641	325.73
375.021	316.91
375.402	329.12
375.783	323.01
376.163	340.41
376.544	321.43
376.925	350.58
377.305	344.71
377.686	327.08
378.066	337.25
378.447	351.49
378.827	341.77
379.208	347.65
379.588	331.38
379.968	344.71
380.349	349.68
380.729	327.08
381.109	327.76
381.489	361.43
381.87	339.96
382.25	362.79
382.63	363.92
383.01	346.29
383.39	363.69
383.77	341.09
384.15	349.23
384.53	360.53
384.91	376.35
385.29	362.79
385.67	354.43
386.049	363.92
386.429	368.89
386.809	349.68
387.189	349.91
387.568	371.37
387.948	357.14
388.328	365.72
388.707	336.35
389.087	370.24
389.466	363.92
389.846	384.48
390.225	401.88
390.605	361.66
390.984	388.78
391.363	382.22
391.743	367.76
392.122	391.49
392.501	400.98
392.881	405.27
393.26	394.88
393.639	398.49
394.018	390.13
394.397	388.78
394.776	395.55
395.155	389.68
395.534	394.88
395.913	401.88
396.292	392.84
396.671	395.33
397.05	381.09
397.429	402.56
397.808	371.83
398.186	391.94
398.565	419.73
398.944	394.88
399.323	413.63
399.701	409.57
400.08	408.21
400.458	405.27
400.837	425.84
401.215	436.46
401.594	422.22
401.972	424.93
402.351	409.11
402.729	423.58
403.107	440.75
403.486	421.54
403.864	421.77
404.242	443.69
404.62	428.32
404.999	437.81
405.377	440.07
405.755	452.95
406.133	450.02
406.511	454.08
406.889	455.89
407.267	445.5
407.645	476.68
408.023	449.34
408.401	460.19
408.779	466.51
409.156	463.12
409.534	476.91
409.912	467.87
410.29	472.61
410.667	483.69
411.045	473.97
411.422	464.48
411.8	494.08
412.178	485.72
412.555	509
412.933	487.08
413.31	477.81
413.687	498.83
414.065	503.12
414.442	500.64
414.819	512.39
415.197	523.46
415.574	514.65
415.951	534.08
416.328	522.1
416.705	513.52
417.082	523.91
417.46	565.95
417.837	553.52
418.214	541.77
418.591	554.87
418.967	555.78
419.344	566.4
419.721	563.91
420.098	549.45
420.475	565.72
420.852	585.83
421.228	560.97
421.605	577.7
421.982	572.73
422.358	593.06
422.735	587.19
423.111	595.55
423.488	578.83
423.864	584.7
424.241	613.63
424.617	612.72
424.994	590.8
425.37	605.27
425.746	611.82
426.123	621.99
426.499	603.91
426.875	620.18
427.251	606.85
427.627	654.53
428.003	631.25
428.379	660.18
428.756	635.1
429.132	653.17
429.507	673.97
429.883	669.45
430.259	671.48
430.635	675.1
431.011	682.78
431.387	675.32
431.763	686.17
432.138	697.47
432.514	715.32
432.89	695.43
433.265	719.16
433.641	727.75
434.016	734.3
434.392	737.47
434.767	735.21
435.143	742.66
435.518	739.05
435.894	746.96
436.269	778.37
436.644	757.8
437.02	762.32
437.395	766.17
437.77	783.79
438.145	804.36
438.52	821.76
438.895	819.95
439.271	793.74
439.646	818.14
440.021	828.54
440.395	819.5
440.77	846.16
441.145	824.02
441.52	852.27
441.895	833.06
442.27	851.81
442.645	843.45
443.019	857.01
443.394	856.11
443.769	861.53
444.143	872.6
444.518	892.94
444.892	889.55
445.267	876.22
445.641	916.9
446.016	913.06
446.39	910.12
446.764	920.96
447.139	887.52
447.513	947.4
447.887	927.74
448.262	925.94
448.636	929.55
449.01	944.47
449.384	974.75
449.758	956.44
450.132	958.03
450.506	959.61
450.88	979.04
451.254	994.63
451.628	983.56
452.002	1007.29
452.376	1017.91
452.75	1003.45
453.123	1026.27
453.497	1030.34
453.871	1055.65
454.244	1061.53
454.618	1063.33
454.992	1077.8
455.365	1067.18
455.739	1087.06
456.112	1121.19
456.486	1113.95
456.859	1106.04
457.232	1149.66
457.606	1133.39
457.979	1151.69
458.352	1166.83
458.725	1183.78
459.099	1195.31
459.472	1200.28
459.845	1235.53
460.218	1231.69
460.591	1249.77
460.964	1262.65
461.337	1258.13
461.71	1286.38
462.083	1280.5
462.456	1301.52
462.829	1316.89
463.201	1318.24
463.574	1335.64
463.947	1355.08
464.32	1372.93
464.692	1379.94
465.065	1400.95
465.438	1417.22
465.81	1440.72
466.183	1444.34
466.555	1468.75
466.928	1505.13
467.3	1504.23
467.672	1520.27
468.045	1509.2
468.417	1540.38
468.789	1569.76
469.161	1586.71
469.534	1611.79
469.906	1644.11
470.278	1633.94
470.65	1664
471.022	1692.24
471.394	1738.8
471.766	1761.85
472.138	1769.08
472.51	1790.09
472.882	1855.18
473.253	1860.37
473.625	1882.3
473.997	1904.67
474.369	1934.72
474.74	1970.43
475.112	1996.87
475.484	2053.36
475.855	2080.26
476.227	2093.82
476.598	2152.12
476.97	2183.08
477.341	2213.36
477.713	2289.97
478.084	2251.32
478.455	2312.79
478.827	2381.94
479.198	2449.74
479.569	2429.63
479.94	2513.46
480.311	2519.11
480.682	2584.88
481.053	2651.77
481.424	2710.3
481.795	2729.73
482.166	2773.8
482.537	2829.84
482.908	2879.78
483.279	2917.3
483.65	2962.27
484.021	3037.07
484.391	3055.82
484.762	3134.47
485.133	3124.52
485.503	3215.82
485.874	3266.67
486.244	3299.21
486.615	3392.31
486.985	3426.89
487.356	3492.2
487.726	3529.94
488.097	3621.01
488.467	3621.23
488.837	3670.5
489.207	3714.11
489.578	3806.31
489.948	3896.93
490.318	3963.14
490.688	3938.96
491.058	4008.79
491.428	4108.9
491.798	4147.55
492.168	4198.62
492.538	4239.52
492.908	4288.11
493.278	4317.71
493.648	4327.43
494.017	4431.61
494.387	4447.43
494.757	4504.37
495.126	4555.9
495.496	4578.27
495.866	4592.05
496.235	4682.9
496.605	4732.62
496.974	4736.01
497.344	4809.22
497.713	4862.33
498.082	4881.54
498.452	4914.98
498.821	4974.87
499.19	4996.56
499.559	5033.17
499.928	5065.71
500.298	5135.09
500.667	5145.94
501.036	5108.43
501.405	5213.06
501.774	5237.46
502.143	5310.68
502.512	5315.43
502.88	5382.54
503.249	5412.15
503.618	5451.69
503.987	5350.68
504.356	5455.99
504.724	5519.49
505.093	5526.72
505.462	5545.7
505.83	5518.36
506.199	5612.37
506.567	5686.94
506.936	5649.43
507.304	5752.7
507.672	5779.37
508.041	5843.32
508.409	5848.97
508.777	5839.48
509.145	5872.02
509.514	5979.14
509.882	5987.27
510.25	5940.72
510.618	5999.48
510.986	6039.02
511.354	6022.53
511.722	6149.08
512.09	6156.31
512.458	6118.12
512.826	6197.21
513.193	6201.05
513.561	6243.08
513.929	6330.77
514.297	6335.74
514.664	6397.66
515.032	6370.31
515.4	6409.41
515.767	6465.9
516.135	6520.37
516.502	6435.85
516.869	6574.6
517.237	6517.43
517.604	6531.21
517.972	6610.31
518.339	6632
518.706	6611.66
519.073	6688.27
519.44	6697.08
519.808	6772.11
520.175	6794.48
520.542	6831.54
520.909	6887.59
521.276	6888.27
521.643	6926
522.009	6917.42
522.376	7047.81
522.743	7057.75
523.11	7108.15
523.477	7129.16
523.843	7203.74
524.21	7248.48
524.577	7300.23
524.943	7330.06
525.31	7329.61
525.676	7405.31
526.043	7437.4
526.409	7466.56
526.776	7556.27
527.142	7534.35
527.508	7566.67
527.874	7641.24
528.241	7697.28
528.607	7720.56
528.973	7809.6
529.339	7773.89
529.705	7855.92
530.071	7944.96
530.437	7942.25
530.803	7975.92
531.169	8025.41
531.535	8056.6
531.901	8125.75
532.267	8092.53
532.632	8182.02
532.998	8188.8
533.364	8283.26
533.73	8259.3
534.095	8330.71
534.461	8379.75
534.826	8377.49
535.192	8418.39
535.557	8522.8
535.923	8462.46
536.288	8518.28
536.653	8591.05
537.019	8554.89
537.384	8661.55
537.749	8593.76
538.114	8669.24
538.479	8735.67
538.845	8760.53
539.21	8776.58
539.575	8880.98
539.94	8851.83
540.305	8901.09
540.67	8812.06
541.034	8904.71
541.399	8934.31
541.764	9007.98
542.129	9003.46
542.494	9011.83
542.858	9089.56
543.223	9105.16
543.587	9197.58
543.952	9218.15
544.316	9256.11
544.681	9297.69
545.045	9299.28
545.41	9356.45
545.774	9397.58
546.138	9457.24
546.503	9497.01
546.867	9509.67
547.231	9466.05
547.595	9562.32
547.959	9603.22
548.324	9561.87
548.688	9559.61
549.052	9629.89
549.416	9701.98
549.779	9748.08
550.143	9728.64
550.507	9789.66
550.871	9847.51
551.235	9843.22
551.599	9911.91
551.962	9989.43
552.326	9966.15
552.689	9961.86
553.053	9991.69
553.417	10041.63
553.78	10168.18
554.143	10100.61
554.507	10234.62
554.87	10211.12
555.234	10218.12
555.597	10244.79
555.96	10342.19
556.323	10349.87
556.686	10334.95
557.05	10414.5
557.413	10485.91
557.776	10474.16
558.139	10529.98
558.502	10543.76
558.865	10589.86
559.228	10631.22
559.59	10729.75
559.953	10626.02
560.316	10799.12
560.679	10774.94
561.041	10916.63
561.404	10922.96
561.767	10907.82
562.129	10904.43
562.492	11047.7
562.854	10932
563.217	11007.48
563.579	11133.35
563.941	11139.9
564.304	11200.69
564.666	11247.25
565.028	11270.97
565.39	11317.53
565.753	11258.32
566.115	11401.82
566.477	11469.39
566.839	11470.74
567.201	11570.63
567.563	11542.38
567.925	11678.2
568.287	11674.35
568.648	11727.01
569.01	11755.93
569.372	11784.86
569.734	11850.85
570.095	11833.22
570.457	12034.8
570.819	11923.84
571.18	12062.37
571.542	12053.1
571.903	12094.46
572.265	12238.86
572.626	12317.28
572.987	12273.43
573.349	12305.75
573.71	12403.37
574.071	12491.06
574.432	12564.95
574.794	12684.27
575.155	12682.69
575.516	12596.36
575.877	12785.51
576.238	12813.76
576.599	12915
576.96	12987.99
577.32	13095.33
577.681	13077.48
578.042	13227.53
578.403	13300.3
578.763	13393.63
579.124	13576
579.485	13607.41
579.845	13765.6
580.206	13840.62
580.566	13964.92
580.927	14093.5
581.287	14286.49
581.648	14260.5
582.008	14618.01
582.368	14566.93
582.728	14796.98
583.089	14940.93
583.449	15084.43
583.809	15199.46
584.169	15403.3
584.529	15533.91
584.889	15885.99
585.249	15933.9
585.609	16149.26
585.969	16401.24
586.329	16539.76
586.688	16768.46
587.048	16861.79
587.408	17251.61
587.768	17408.67
588.127	17567.08
588.487	17819.5
588.846	18124.81
589.206	18316.44
589.565	18554.4
589.925	18931.11
590.284	19092.46
590.643	19415.39
591.003	19675.05
591.362	20065.77
591.721	20326.78
592.08	20548.47
592.44	20983.04
592.799	21164.95
593.158	21361.11
593.517	21689.46
593.876	22199.05
594.235	22308.2
594.593	22682.2
594.952	23052.81
595.311	23185.24
595.67	23620.71
596.029	24004.43
596.387	24464.53
596.746	24672.43
597.104	24956.04
597.463	25230.83
597.822	25695.91
598.18	25822.91
598.538	26139.28
598.897	26633.28
599.255	26764.58
599.613	27391
599.972	27561.39
600.33	27946.47
600.688	28109.63
601.046	28411.32
601.404	28966.78
601.762	29207.23
602.12	29517.5
602.478	29732.64
602.836	30150.48
603.194	30306.63
603.552	30649.67
603.91	30773.96
604.268	31270.22
604.625	31447.62
604.983	31877.21
605.341	31954.5
605.698	32434.49
606.056	32678.32
606.413	32991.99
606.771	33213
607.128	33628.13
607.485	33753.77
607.843	33904.28
608.2	34314.89
608.557	34570.7
608.914	34680.3
609.272	35185.15
609.629	35357.8
609.986	35803.44
610.343	35877.11
610.7	36235.74
611.057	36434.61
611.414	36609.07
611.771	36696.97
612.127	37173.12
612.484	37294.47
612.841	37569.49
613.198	37704.63
613.554	37752.76
613.911	38297.83
614.267	38451.05
614.624	38568.56
614.98	38865.5
615.337	39171.48
615.693	39157.47
616.05	39258.71
616.406	39872.93
616.762	39666.16
617.118	39818.25
617.475	40003.1
617.831	40269.99
618.187	40405.58
618.543	40499.36
618.899	40769.63
619.255	41000.14
619.611	41100.92
619.967	41236.29
620.323	41540.24
620.678	41498.65
621.034	41560.8
621.39	41571.2
621.746	41807.8
622.101	42237.17
622.457	42052.99
622.812	42246.88
623.168	42455.24
623.523	42556.93
623.879	42779.3
624.234	42482.36
624.589	42879.41
624.945	42932.52
625.3	42861.1
625.655	42936.13
626.01	43082.34
626.365	43157.59
626.72	43209.8
627.075	43223.81
627.43	43219.06
627.785	43229.23
628.14	43473.52
628.495	43716.22
628.85	43515.1
629.205	43598.49
629.559	43890.68
629.914	43862.43
630.269	43972.04
630.623	43818.59
630.978	43899.04
631.332	44168.64
631.687	44022.66
632.041	44153.73
632.396	44161.18
632.75	43868.08
633.104	44137.46
633.459	43888.65
633.813	43963.67
634.167	44028.08
634.521	44102.88
634.875	44131.13
635.229	44148.75
635.583	43812.49
635.937	44050.45
636.291	43921.87
636.645	44080.73
636.999	43947.4
637.352	44023.11
637.706	44056.33
638.06	44173.84
638.413	44158.92
638.767	44049.32
639.121	44121.18
639.474	43906.27
639.828	43965.03
640.181	44178.36
640.534	44122.54
640.888	44003.22
641.241	43841.87
641.594	43817.69
641.947	43939.04
642.301	43830.57
642.654	44031.92
643.007	43945.37
643.36	43906.73
643.713	43924.35
644.066	43984.24
644.419	43705.15
644.771	43604.59
645.124	43262
645.477	43172.96
645.83	42982.68
646.182	42873.53
646.535	42843.25
646.888	42990.14
647.24	42758.06
647.593	42966.64
647.945	42718.51
648.298	42592.86
648.65	42510.15
649.002	42581.56
649.355	42738.85
649.707	42659.98
650.059	42775.23
650.411	43256.12
650.763	43277.36
651.115	43620.18
651.467	43449.56
651.819	43542.67
652.171	43384.48
652.523	43243.69
652.875	43291.38
653.227	43129.35
653.578	43576.11
653.93	43433.52
654.282	43268.1
654.633	43210.25
654.985	43226.07
655.337	43374.54
655.688	43213.19
656.039	43400.07
656.391	43141.32
656.742	43155.79
657.094	43271.49
657.445	43453.86
657.796	43304.71
658.147	43089.57
658.498	43224.94
658.849	43195.33
659.2	43139.97
659.551	43086.64
659.902	43117.14
660.253	43275.33
660.604	43278.72
660.955	43004.6
661.306	43103.58
661.656	43016.81
662.007	43097.48
662.358	43053.42
662.708	43200.53
663.059	43091.83
663.409	42886.19
663.76	43232.17
664.11	43187.42
664.461	43219.97
664.811	43220.64
665.161	43043.92
665.511	42922.8
665.862	43102.23
666.212	42991.5
666.562	43227.65
666.912	43159.18
667.262	43055.45
667.612	43045.96
667.962	42925.51
668.312	42963.25
668.662	43161.66
669.011	42964.15
669.361	42822.46
669.711	42892.52
670.06	42839.41
670.41	42877.6
670.76	42913.31
671.109	43003.02
671.459	42869.69
671.808	42860.88
672.157	42952.18
672.507	42662.47
672.856	42681
673.205	42730.71
673.554	42896.36
673.904	42676.25
674.253	42925.06
674.602	42873.76
674.951	42125.53
675.3	41966.66
675.649	42645.52
675.998	42507.67
676.346	42589.47
676.695	42681
677.044	42378.63
677.393	42431.96
677.741	42556.03
678.09	42451.62
678.438	42425.86
678.787	42363.49
679.135	42514.67
679.484	42217.51
679.832	42430.16
680.181	42215.47
680.529	42182.7
680.877	42053.44
681.225	42153.55
681.573	42373.21
681.922	41963.95
682.27	41899.32
682.618	42012.54
682.966	41828.14
683.314	41855.93
683.661	41881.92
684.009	41510.63
684.357	41561.48
684.705	41427.24
685.053	41477.86
685.4	41513.12
685.748	41335.95
686.095	41299.79
686.443	41217.76
686.79	41283.07
687.138	41240.36
687.485	41206.68
687.832	40992.68
688.18	41067.71
688.527	40920.14
688.874	40892.34
689.221	40744.78
689.568	40735.96
689.915	40659.81
690.262	40653.71
690.609	40504.78
690.956	40275.86
691.303	40412.36
691.65	40014.85
691.997	40083.55
692.344	39852.37
692.69	39947.06
693.037	39819.38
693.383	39486.28
693.73	39792.71
694.077	39561.53
694.423	39482.21
694.769	39438.14
695.116	39334.19
695.462	39251.03
695.808	39138.72
696.155	39269.79
696.501	38897.82
696.847	38857.82
697.193	38605.62
697.539	38910.7
697.885	38466.87
698.231	38451.05
698.577	38327.66
698.923	38396.14
699.269	38190.94
699.614	38032.98
699.96	37994.79
700.306	37977.62
700.651	37722.48
700.997	37775.14
701.342	37576.05
701.688	37738.75
702.033	37459.66
702.379	37427.35
702.724	37433.45
703.069	37380.34
703.415	36890.87
703.76	36993.46
704.105	37140.8
704.45	36890.87
704.795	36736.29
705.14	36643.64
705.485	36825.11
705.83	36508.28
706.175	36577.88
706.52	36454.72
706.865	36302.41
707.209	36362.29
707.554	36204.56
707.899	36203.65
708.243	35947.84
708.588	35986.26
708.932	35631.24
709.277	35637.79
709.621	35683.44
709.966	35421.75
710.31	35530.45
710.654	35190.57
710.998	35401.41
711.342	35373.62
711.687	35123.91
712.031	35014.08
712.375	34838.72
712.719	35005.04
713.063	34992.61
713.407	35045.49
713.75	34889.56
714.094	34787.87
714.438	34670.81
714.782	34662.45
715.125	34534.32
715.469	34702.9
715.812	34425.17
716.156	34292.74
716.499	34271.27
716.843	34228.56
717.186	34076.7
717.53	34428.11
717.873	34255.46
718.216	34174.1
718.559	33952.41
718.902	33710.61
719.246	33714.45
719.589	33661.8
719.932	33714.9
720.275	33645.53
720.617	33535.47
720.96	33526.43
721.303	33318.98
721.646	33445.31
721.989	33210.28
722.331	33422.48
722.674	33261.81
723.016	33303.84
723.359	33214.8
723.701	33318.53
724.044	33134.81
724.386	32783.63
724.729	33015.04
725.071	32961.7
725.413	32968.71
725.755	32834.93
726.097	32706.57
726.439	32728.72
726.782	32606.46
727.124	32836.06
727.465	32611.66
727.807	32498.67
728.149	32363.08
728.491	32356.52
728.833	32373.02
729.175	32250.08
729.516	32237.88
729.858	32211.89
730.199	32106.59
730.541	32066.81
730.882	32065.68
731.224	32114.49
731.565	31956.53
731.906	31918.57
732.248	31928.74
732.589	31714.73
732.93	31684.22
733.271	31608.29
733.612	31623.66
733.953	31691.68
734.294	31602.87
734.635	31404
734.976	31655.98
735.317	31484.45
735.658	31527.39
735.999	31344.35
736.339	31358.13
736.68	31504.12
737.021	31321.75
737.361	31224.12
737.702	31348.41
738.042	31189.77
738.383	31076.78
738.723	31302.31
739.063	31068.42
739.404	31117.01
739.744	31066.16
740.084	30780.97
740.424	30853.51
740.764	30949.1
741.104	30865.71
741.444	30765.38
741.784	30631.37
742.124	30632.27
742.464	30685.15
742.804	30529.23
743.143	30552.28
743.483	30554.76
743.823	30250.59
744.162	30406.97
744.502	30270.25
744.841	30184.15
745.181	30341.43
745.52	30189.35
745.86	30319.51
746.199	30193.42
746.538	30063.02
746.877	30342.56
747.216	30216.69
747.556	30034.78
747.895	30064.15
748.234	29944.38
748.573	29978.05
748.911	29891.95
749.25	29951.61
749.589	29874.55
749.928	29791.84
750.267	29671.85
750.605	29712.07
750.944	29483.6
751.283	29441.57
751.621	29494.45
751.96	29451.51
752.298	29310.73
752.636	29379.43
752.975	29315.7
753.313	29125.19
753.651	29319.09
753.989	29008.59
754.327	29042.71
754.666	28920.91
755.004	28991.86
755.342	28974.92
755.679	28871.19
756.017	28615.83
756.355	28900.34
756.693	28576.73
757.031	28627.35
757.368	28470.75
757.706	28441.6
758.044	28432.78
758.381	28461.03
758.719	28285.89
759.056	28229.4
759.394	28261.71
759.731	28039.57
760.068	28001.16
760.405	27876.41
760.743	27869.18
761.08	27861.05
761.417	27617.44
761.754	27707.38
762.091	27619.92
762.428	27650.66
762.765	27311.68
763.102	27505.12
763.438	27356.43
763.775	27183.32
764.112	27283.89
764.449	27263.55
764.785	27146.04
765.122	26918.02
765.458	26846.84
765.795	26759.61
766.131	26834.63
766.467	26678.93
766.804	26496.79
767.14	26369.33
767.476	26369.79
767.812	26268.77
768.148	26368.88
768.485	26079.17
768.821	25935
769.157	26071.49
769.492	25869.69
769.828	25852.06
770.164	25562.8
770.5	25529.58
770.836	25528.23
771.171	25437.83
771.507	25348.57
771.842	25134.34
772.178	25212.08
772.513	25053.89
772.849	25096.15
773.184	24944.74
773.519	24887.57
773.855	24736.61
774.19	24537.74
774.525	24562.15
774.86	24559.66
775.195	24493
775.53	24433.57
775.865	24275.83
776.2	24211.88
776.535	23994.26
776.87	24033.8
777.205	23859.34
777.539	23801.49
777.874	23757.2
778.209	23575.51
778.543	23742.74
778.878	23470.2
779.212	23367.15
779.547	23214.39
779.881	23282.41
780.215	23154.28
780.55	23249.19
780.884	22993.6
781.218	22912.93
781.552	22908.41
781.886	22812.37
782.22	22588.42
782.554	22696.66
782.888	22384.58
783.222	22348.2
783.556	22265.94
783.889	22378.03
784.223	22013.97
784.557	22006.96
784.89	22100.75
785.224	21907.08
785.557	21796.8
785.891	21794.99
786.224	21716.35
786.558	21764.71
786.891	21587.99
787.224	21452.63
787.557	21418.05
787.891	21324.5
788.224	21227.32
788.557	21280.2
788.89	21185.74
789.223	21152.3
789.556	20978.29
789.888	20973.09
790.221	20848.35
790.554	20736.71
790.887	20715.7
791.219	20634.12
791.552	20580.79
791.884	20344.63
792.217	20352.54
792.549	20378.76
792.882	20228.03
793.214	20131.08
793.546	20109.61
793.879	20002.5
794.211	19891.77
794.543	19992.78
794.875	19921.59
795.207	19902.16
795.539	19830.52
795.871	19820.35
796.203	19568.61
796.535	19536.07
796.867	19442.06
797.198	19358.67
797.53	19410.65
797.862	19280.48
798.193	19366.36
798.525	19240.93
798.856	19196.19
799.188	19004.1
799.519	18860.83
799.85	18755.98
800.182	18893.37
800.513	18851.34
800.844	18617
801.175	18783.09
801.506	18660.84
801.837	18501.29
802.168	18504.68
802.499	18423.33
802.83	18321.64
803.161	18289.1
803.491	18298.13
803.822	18229.21
804.153	18239.38
804.483	18117.12
804.814	17934.53
805.145	18085.94
805.475	17986.73
805.805	17911.03
806.136	17878.94
806.466	17868.54
806.796	17795.1
807.126	17731.37
807.457	17572.28
807.787	17646.85
808.117	17587.42
808.447	17497.25
808.777	17600.98
809.107	17441.21
809.436	17405.5
809.766	17384.49
810.096	17233.53
810.426	17149.69
810.755	17206.64
811.085	17159.41
811.414	17162.35
811.744	17033.76
812.073	16996.93
812.403	16982.24
812.732	16857.49
813.061	16906.53
813.39	16828.79
813.719	16775.69
814.049	16790.6
814.378	16766.65
814.707	16681.23
815.036	16673.77
815.365	16584.96
815.693	16413.89
816.022	16395.59
816.351	16424.06
816.68	16355.59
817.008	16316.27
817.337	16180.9
817.665	16172.09
817.994	16208.92
818.322	16103.39
818.651	16123.73
818.979	16010.96
819.307	16137.51
819.636	16105.88
819.964	15927.12
820.292	16033.34
820.62	16015.93
820.948	15917.63
821.276	15963.05
821.604	15894.81
821.932	15867.01
822.259	15958.08
822.587	15865.2
822.915	15853.23
823.243	15869.05
823.57	15804.64
823.898	15848.03
824.225	15877.63
824.553	15847.13
824.88	15816.84
825.207	15866.33
825.535	15825.66
825.862	15860.68
826.189	15838.09
826.516	15899.78
826.843	15940.91
827.17	15870.85
827.497	15861.81
827.824	15888.25
828.151	15900.91
828.478	15786.79
828.805	15867.92
829.131	15786.56
829.458	15708.82
829.785	15648.03
830.111	15707.69
830.438	15856.17
830.764	15808.71
831.09	15794.92
831.417	15692.55
831.743	15753.57
832.069	15717.41
832.395	15733.23
832.722	15757.41
833.048	15649.16
833.374	15723.51
833.7	15582.27
834.026	15658.88
834.351	15644.42
834.677	15552.44
835.003	15597.41
835.329	15565.33
835.654	15629.28
835.98	15487.81
836.306	15528.94
836.631	15445.55
836.956	15553.12
837.282	15470.86
837.607	15415.5
837.932	15414.37
838.258	15342.28
838.583	15346.8
838.908	15303.86
839.233	15281.94
839.558	15189.06
839.883	15179.35
840.208	15193.13
840.533	15239.91
840.858	15211.89
841.182	15093.02
841.507	15055.28
841.832	15013.25
842.156	15071.55
842.481	15081.04
842.805	14955.4
843.13	14868.85
843.454	14824.55
843.778	14866.59
844.103	14843.08
844.427	14771.67
844.751	14740.04
845.075	14674.28
845.399	14668.63
845.723	14517.44
846.047	14552.92
846.371	14514.96
846.695	14514.28
847.019	14444
847.343	14303.89
847.666	14261.86
847.99	14193.84
848.313	14254.63
848.637	14140.73
848.96	14075.65
849.284	14058.02
849.607	13985.48
849.931	13864.35
850.254	13808.99
850.577	13684.24
850.9	13705.04
851.223	13642.44
851.546	13650.12
851.869	13437.7
852.192	13554.08
852.515	13439.96
852.838	13404.03
853.161	13312.28
853.483	13246.06
853.806	13294.42
854.129	13248.78
854.451	13088.78
854.774	12996.35
855.096	13071.38
855.419	13046.75
855.741	12978.05
856.063	12947.09
856.385	12951.38
856.708	12839.97
857.03	12858.05
857.352	12798.62
857.674	12704.84
857.996	12777.15
858.318	12611.28
858.64	12681.33
858.961	12647.89
859.283	12557.04
859.605	12471.85
859.926	12572.86
860.248	12441.57
860.57	12477.27
860.891	12470.27
861.212	12390.27
861.534	12310.04
861.855	12362.25
862.176	12240.21
862.498	12273.43
862.819	12216.71
863.14	12195.7
863.461	12268.01
863.782	12100.56
864.103	12201.57
864.424	12118.41
864.745	12150.5
865.065	12035.7
865.386	12033.67
865.707	11977.4
866.027	12068.24
866.348	11923.61
866.668	11972.2
866.989	11863.95
867.309	11856.04
867.63	11870.73
867.95	11866.21
868.27	11749.38
868.59	11830.51
868.91	11756.84
869.23	11785.76
869.55	11770.85
869.87	11785.31
870.19	11755.26
870.51	11727.01
870.83	11775.82
871.15	11651.53
871.469	11730.62
871.789	11598.42
872.109	11589.61
872.428	11509.39
872.748	11531.31
873.067	11576.05
873.386	11550.06
873.706	11472.78
874.025	11454.02
874.344	11387.36
874.663	11394.59
874.982	11412.44
875.301	11512.78
875.62	11355.94
875.939	11352.78
876.258	11349.39
876.577	11337.87
876.896	11322.95
877.214	11255.83
877.533	11299
877.852	11211.32
878.17	11244.08
878.489	11324.76
878.807	11208.83
879.125	11220.81
879.444	11235.04
879.762	11141.94
880.08	11096.97
880.398	11151.2
880.716	11129.74
881.034	11099.23
881.352	11015.16
881.67	10996.18
881.988	11039.57
882.306	10955.28
882.624	10937.65
882.941	10911.21
883.259	10817.88
883.577	10830.76
883.894	10862.4
884.212	10805.9
884.529	10772
884.846	10780.59
885.164	10727.26
885.481	10721.84
885.798	10784.89
886.115	10654.27
886.432	10662.86
886.75	10620.6
887.067	10577.21
887.383	10612.24
887.7	10560.03
888.017	10559.58
888.334	10491.79
888.651	10489.3
888.967	10495.4
889.284	10423.77
889.6	10346.48
889.917	10325.91
890.233	10302.41
890.55	10275.97
890.866	10293.83
891.182	10216.31
891.498	10220.61
891.815	10147.39
892.131	10193.49
892.447	10106.26
892.763	10118.24
893.079	10014.74
893.395	9989.88
893.71	10022.87
894.026	9911.69
894.342	9959.82
894.657	9912.37
894.973	9864.01
895.289	9818.13
895.604	9851.13
895.92	9754.18
896.235	9739.49
896.55	9678.25
896.865	9696.33
897.181	9674.86
897.496	9680.06
897.811	9601.41
898.126	9495.43
898.441	9559.16
898.756	9499.72
899.071	9506.28
899.386	9497.91
899.7	9358.48
900.015	9311.48
900.33	9250.46
900.644	9272.84
900.959	9257.47
901.273	9253.17
901.588	9178.15
901.902	9092.28
902.216	9097.7
902.531	9026.29
902.845	9038.27
903.159	8998.04
903.473	8944.48
903.787	8939.28
904.101	8938.38
904.415	8887.76
904.729	8889.57
905.042	8806.41
905.356	8826.97
905.67	8804.15
905.984	8811.83
906.297	8733.87
906.611	8690.48
906.924	8635.56
907.237	8632.63
907.551	8600.08
907.864	8514.21
908.177	8501.33
908.491	8521.44
908.804	8442.8
909.117	8455.23
909.43	8347.21
909.743	8293.65
910.056	8351.5
910.368	8269.47
910.681	8257.72
910.994	8172.3
911.307	8137.27
911.619	8157.38
911.932	8186.76
912.244	8047.78
912.557	8027.67
912.869	8011.4
913.181	7988.8
913.494	7946.54
913.806	7855.47
914.118	7901.57
914.43	7863.61
914.742	7801.01
915.054	7793.78
915.366	7773.67
915.678	7685.53
915.99	7681.46
916.302	7588.13
916.613	7619.55
916.925	7643.27
917.236	7562.15
917.548	7462.94
917.859	7571.86
918.171	7473.33
918.482	7410.29
918.794	7375.48
919.105	7318.54
919.416	7343.39
919.727	7245.77
920.038	7250.52
920.349	7264.07
920.66	7158.54
920.971	7167.13
921.282	7189.05
921.593	7091.88
921.903	7078.32
922.214	7066.34
922.525	7030.86
922.835	7010.07
923.146	6961.26
923.456	6919.45
923.767	6880.81
924.077	6886.68
924.387	6792.67
924.697	6768.49
925.008	6780.92
925.318	6761.04
925.628	6679.68
925.938	6699.12
926.248	6673.58
926.558	6617.09
926.867	6640.81
927.177	6594.26
927.487	6537.99
927.796	6472.23
928.106	6515.39
928.416	6500.25
928.725	6462.74
929.034	6407.15
929.344	6361.73
929.653	6369.86
929.962	6361.5
930.271	6278.34
930.581	6257.32
930.89	6223.42
931.199	6202.86
931.508	6193.37
931.817	6223.88
932.125	6140.26
932.434	6130.09
932.743	6086.93
933.051	6041.06
933.36	6043.77
933.669	6055.74
933.977	5969.65
934.286	6034.5
934.594	5921.06
934.902	5945.69
935.21	5899.14
935.519	5878.12
935.827	5877.9
936.135	5735.53
936.443	5766.71
936.751	5764.23
937.059	5764.9
937.367	5688.3
937.674	5699.37
937.982	5682.87
938.29	5680.84
938.597	5647.17
938.905	5565.14
939.213	5579.83
939.52	5504.8
939.827	5551.13
940.135	5511.58
940.442	5509.77
940.749	5420.73
941.056	5443.56
941.363	5425.7
941.67	5380.06
941.977	5381.64
942.284	5268.87
942.591	5351.13
942.898	5287.86
943.205	5323.33
943.511	5262.32
943.818	5241.75
944.125	5142.55
944.431	5216.67
944.738	5123.11
945.044	5123.57
945.35	5088.76
945.657	5025.04
945.963	5011.03
946.269	4994.08
946.575	5017.13
946.881	5002.67
947.187	4948.43
947.493	4922.44
947.799	4930.12
948.105	4898.71
948.41	4901.42
948.716	4872.95
949.022	4833.63
949.327	4828.66
949.633	4763.35
949.938	4775.1
950.244	4853.29
950.549	4688.55
950.854	4749.11
951.16	4704.37
951.465	4665.27
951.77	4642.9
952.075	4625.27
952.38	4621.66
952.685	4615.33
952.99	4602.45
953.294	4547.76
953.599	4514.32
953.904	4531.72
954.209	4492.62
954.513	4481.77
954.818	4499.63
955.122	4443.81
955.426	4452.85
955.731	4394.32
956.035	4377.14
956.339	4365.62
956.643	4361.55
956.948	4318.62
957.252	4316.36
957.556	4319.07
957.86	4289.24
958.163	4262.57
958.467	4228.45
958.771	4242.01
959.075	4211.95
959.378	4162.46
959.682	4126.98
959.985	4146.42
960.289	4115.23
960.592	4098.96
960.896	4149.35
961.199	4100.54
961.502	4047.21
961.805	4096.47
962.108	4045.85
962.411	4037.27
962.714	3977.83
963.017	3951.39
963.32	3974.22
963.623	3915.46
963.926	3938.74
964.228	3878.17
964.531	3865.07
964.833	3873.2
965.136	3851.73
965.438	3787.56
965.741	3810.38
966.043	3808.12
966.345	3771.74
966.648	3756.6
966.95	3754.56
967.252	3732.64
967.554	3731.96
967.856	3704.85
968.158	3691.74
968.46	3637.28
968.761	3613.78
969.063	3637.28
969.365	3611.29
969.666	3601.57
969.968	3570.61
970.269	3550.05
970.571	3573.1
970.872	3540.78
971.174	3497.85
971.475	3481.35
971.776	3502.82
972.077	3474.8
972.378	3479.09
972.679	3483.38
972.98	3448.81
973.281	3424.85
973.582	3382.14
973.883	3383.5
974.183	3373.1
974.484	3379.2
974.785	3324.74
975.085	3353.22
975.386	3337.85
975.686	3312.54
975.986	3279.55
976.287	3299.21
976.587	3218.98
976.887	3256.04
977.187	3255.37
977.487	3203.84
977.787	3171.53
978.087	3186.67
978.387	3194.8
978.687	3160.45
978.987	3122.04
979.286	3089.5
979.586	3136.27
979.885	3054.69
980.185	3111.19
980.484	3077.07
980.784	3047.69
981.083	3068.93
981.382	3032.1
981.682	2984.64
981.981	2993
982.28	2999.1
982.579	2994.13
982.878	2979.44
983.177	2983.28
983.475	2963.4
983.774	2925.88
984.073	2917.07
984.372	2844.98
984.67	2883.4
984.969	2877.52
985.267	2844.3
985.566	2893.79
985.864	2840.01
986.162	2847.92
986.461	2802.5
986.759	2807.92
987.057	2768.6
987.355	2775.15
987.653	2774.7
987.951	2722.73
988.249	2761.14
988.547	2737.87
988.844	2700.8
989.142	2719.79
989.44	2696.74
989.737	2668.72
990.035	2647.02
990.332	2644.99
990.63	2636.4
990.927	2604.99
991.224	2603.18
991.521	2621.03
991.819	2601.15
992.116	2587.36
992.413	2562.96
992.71	2530.87
993.006	2548.04
993.303	2514.59
993.6	2522.05
993.897	2541.49
994.193	2447.93
994.49	2463.3
994.787	2431.43
995.083	2444.77
995.379	2448.38
995.676	2447.48
995.972	2410.19
996.268	2391.21
996.565	2402.51
996.861	2349.85
997.157	2363.41
997.453	2361.38
997.749	2361.6
998.044	2393.02
998.34	2323.19
998.636	2313.92
998.932	2320.02
999.227	2300.14
999.523	2246.58
999.818	2238.9
1000.114	2218.78
1000.409	2223.3
1000.704	2232.34
1001	2252
1001.295	2177.2
1001.59	2176.07
1001.885	2209.97
1002.18	2185.34
1002.475	2136.07
1002.77	2178.11
1003.065	2149.18
1003.359	2109.41
1003.654	2138.79
1003.949	2098.79
1004.243	2119.13
1004.538	2079.13
1004.832	2087.71
1005.127	2066.02
1005.421	2066.92
1005.715	2053.59
1006.009	2012.01
1006.304	2012.69
1006.598	2006.59
1006.892	1975.63
1007.186	1943.08
1007.48	1974.72
1007.773	1967.72
1008.067	1936.76
1008.361	1913.93
1008.655	1913.93
1008.948	1918.68
1009.242	1898.79
1009.535	1911.22
1009.829	1881.84
1010.122	1865.57
1010.415	1862.63
1010.708	1855.4
1011.001	1842.07
1011.295	1798.46
1011.588	1811.56
1011.881	1801.39
1012.173	1788.51
1012.466	1765.01
1012.759	1763.88
1013.052	1791.45
1013.344	1747.84
1013.637	1723.66
1013.93	1735.18
1014.222	1708.06
1014.514	1728.17
1014.807	1727.5
1015.099	1701.96
1015.391	1647.27
1015.683	1714.39
1015.976	1667.16
1016.268	1662.87
1016.56	1646.6
1016.851	1628.97
1017.143	1647.5
1017.435	1613.38
1017.727	1626.93
1018.018	1576.31
1018.31	1587.61
1018.602	1566.37
1018.893	1546.94
1019.185	1552.36
1019.476	1589.2
1019.767	1533.38
1020.058	1522.98
1020.35	1532.7
1020.641	1507.62
1020.932	1519.37
1021.223	1485.47
1021.514	1469.88
1021.804	1471.91
1022.095	1446.15
1022.386	1462.87
1022.677	1431.46
1022.967	1422.65
1023.258	1421.52
1023.548	1391.01
1023.839	1382.2
1024.129	1392.14
1024.419	1352.82
1024.709	1368.86
1025	1376.55
1025.29	1355.76
1025.58	1314.63
1025.87	1328.41
1026.16	1331.8
1026.449	1299.26
1026.739	1313.72
1027.029	1271.69
1027.319	1291.12
1027.608	1293.61
1027.898	1304.01
1028.187	1295.19
1028.477	1263.55
1028.766	1274.63
1029.055	1250.67
1029.344	1232.37
1029.634	1198.7
1029.923	1218.58
1030.212	1184.69
1030.501	1202.09
1030.79	1210
1031.078	1206.38
1031.367	1155.31
1031.656	1170.22
1031.945	1155.08
1032.233	1177.91
1032.522	1160.96
1032.81	1140.17
1033.099	1140.85
1033.387	1143.78
1033.675	1111.24
1033.963	1120.96
1034.251	1135.87
1034.54	1103.56
1034.828	1089.32
1035.116	1103.56
1035.403	1097.91
1035.691	1082.77
1035.979	1063.33
1036.267	1090.9
1036.554	1034.18
1036.842	1044.13
1037.129	1047.51
1037.417	1031.24
1037.704	1025.59
1037.992	1022.2
1038.279	1012.49
1038.566	999.61
1038.853	999.61
1039.14	999.61
