Data from hue_210_FLMS001491_00002.txt Node
Date: Tue Feb 07 16:40:40 GMT 2017
User: dcchb
Spectrometer: FLMS00149
Trigger mode: 0
Integration Time (sec): 2.000000E-2
Scans to average: 10
Electric dark correction enabled: true
Nonlinearity correction enabled: false
Boxcar width: 0
XAxis mode: Wavelengths
Number of Pixels in Spectrum: 2048
>>>>>Begin Spectral Data<<<<<
341.393	-3.28
341.776	-3.28
342.16	-3.28
342.543	-84.86
342.927	-67.91
343.31	-67.68
343.693	-53.9
344.077	-74.24
344.46	-67.91
344.843	-50.51
345.226	-42.82
345.61	-38.3
345.993	-33.56
346.376	-26.33
346.759	37.17
347.142	38.98
347.525	30.17
347.908	85.08
348.291	70.17
348.674	97.96
349.057	95.7
349.44	116.95
349.823	139.77
350.206	149.49
350.588	195.81
350.971	220.45
351.354	231.75
351.737	237.85
352.119	224.97
352.502	256.38
352.884	238.98
353.267	280.11
353.65	286.43
354.032	286.89
354.414	312.2
354.797	332.99
355.179	323.27
355.562	313.1
355.944	322.82
356.326	333.66
356.709	344.06
357.091	335.92
357.473	356.94
357.855	330.73
358.238	341.57
358.62	335.47
359.002	354.68
359.384	329.82
359.766	335.47
360.148	334.57
360.53	332.31
360.912	358.3
361.294	350.61
361.676	344.51
362.057	336.6
362.439	331.86
362.821	314.68
363.203	312.42
363.584	324.85
363.966	318.3
364.348	325.3
364.729	311.97
365.111	302.7
365.493	321.46
365.874	295.47
366.256	326.66
366.637	313.1
367.019	314.46
367.4	300.22
367.781	303.83
368.163	339.99
368.544	306.32
368.925	328.01
369.306	339.77
369.688	304.96
370.069	325.98
370.45	317.84
370.831	322.59
371.212	321.91
371.593	310.39
371.974	313.1
372.355	315.58
372.736	296.83
373.117	324.4
373.498	299.09
373.879	323.04
374.26	303.16
374.641	307
375.021	323.49
375.402	321.46
375.783	345.19
376.163	348.8
376.544	323.49
376.925	325.75
377.305	345.19
377.686	331.18
378.066	349.48
378.447	332.99
378.827	336.6
379.208	316.04
379.588	323.27
379.968	333.44
380.349	335.02
380.729	321.46
381.109	327.79
381.489	328.69
381.87	353.32
382.25	336.83
382.63	318.3
383.01	350.61
383.39	335.47
383.77	328.01
384.15	344.74
384.53	330.95
384.91	355.13
385.29	374.79
385.67	327.34
386.049	352.65
386.429	364.62
386.809	352.19
387.189	349.93
387.568	358.52
387.948	370.95
388.328	360.78
388.707	355.81
389.087	368.46
389.466	355.13
389.846	356.26
390.225	370.05
390.605	368.46
390.984	359.88
391.363	359.88
391.743	381.12
392.122	353.32
392.501	353.55
392.881	382.02
393.26	369.37
393.639	378.63
394.018	393.77
394.397	375.02
394.776	379.54
395.155	373.44
395.534	381.57
395.913	371.85
396.292	387.22
396.671	404.62
397.05	404.62
397.429	385.87
397.808	375.47
398.186	413.21
398.565	400.33
398.944	396.26
399.323	402.36
399.701	406.2
400.08	425.41
400.458	410.72
400.837	435.81
401.215	433.1
401.594	413.89
401.972	418.86
402.351	430.38
402.729	427.9
403.107	449.82
403.486	432.19
403.864	441.01
404.242	436.26
404.62	458.63
404.999	438.97
405.377	450.95
405.755	456.6
406.133	461.8
406.511	448.91
406.889	471.06
407.267	488.24
407.645	497.28
408.023	480.1
408.401	501.12
408.779	511.06
409.156	542.25
409.534	525.3
409.912	532.53
410.29	531.85
410.667	553.77
411.045	554.67
411.422	565.75
411.8	543.38
412.178	579.98
412.555	558.29
412.933	590.15
413.31	605.07
413.687	616.82
414.065	606.42
414.442	610.49
414.819	639.42
415.197	631.06
415.574	668.34
415.951	661.34
416.328	671.73
416.705	686.42
417.082	718.96
417.46	703.15
417.837	699.08
418.214	717.16
418.591	712.86
418.967	731.39
419.344	729.59
419.721	752.18
420.098	764.39
420.475	753.09
420.852	767.32
421.228	775.01
421.605	818.4
421.982	826.08
422.358	801.9
422.735	851.16
423.111	848
423.488	863.14
423.864	891.39
424.241	901.11
424.617	923.93
424.994	929.81
425.37	944.04
425.746	968.45
426.123	986.75
426.499	1002.12
426.875	1003.7
427.251	1000.54
427.627	1039.86
428.003	1061.33
428.379	1039.18
428.756	1067.2
429.132	1099.97
429.507	1084.15
429.883	1118.05
430.259	1123.25
430.635	1123.47
431.011	1162.34
431.387	1178.16
431.763	1207.99
432.138	1206.86
432.514	1204.38
432.89	1237.82
433.265	1258.84
433.641	1265.16
434.016	1321.43
434.392	1327.54
434.767	1356.69
435.143	1397.14
435.518	1368.89
435.894	1411.83
436.269	1461.09
436.644	1484.14
437.02	1491.37
437.395	1527.98
437.77	1539.28
438.145	1605.72
438.52	1604.82
438.895	1629.9
439.271	1631.71
439.646	1678.94
440.021	1689.56
440.395	1713.29
440.77	1723.46
441.145	1753.29
441.52	1781.31
441.895	1764.36
442.27	1824.7
442.645	1783.57
443.019	1830.8
443.394	1875.09
443.769	1891.36
444.143	1880.29
444.518	1952.83
444.892	1935.43
445.267	1944.02
445.641	1950.8
446.016	1983.34
446.39	2018.59
446.764	2012.26
447.139	2012.94
447.513	2035.54
447.887	2057.46
448.262	2055.65
448.636	2075.31
449.01	2112.83
449.384	2137.46
449.758	2123.67
450.132	2175.2
450.506	2186.72
450.88	2205.25
451.254	2219.72
451.628	2239.38
452.002	2264.23
452.376	2281.86
452.75	2308.3
453.123	2325.25
453.497	2368.86
453.871	2384.91
454.244	2413.61
454.618	2419.03
454.992	2435.3
455.365	2486.6
455.739	2539.48
456.112	2511.69
456.486	2569.76
456.859	2615.19
457.232	2674.62
457.606	2626.03
457.979	2676.65
458.352	2753.49
458.725	2744.45
459.099	2733.37
459.472	2813.82
459.845	2835.97
460.218	2866.25
460.591	2873.94
460.964	2882.07
461.337	2961.39
461.71	3014.05
462.083	3031.67
462.456	3027.6
462.829	3073.48
463.201	3109.41
463.574	3069.64
463.947	3142.86
464.32	3218.56
464.692	3252
465.065	3298.78
465.438	3337.2
465.81	3338.56
466.183	3371.32
466.555	3458.78
466.928	3489.29
467.3	3480.47
467.672	3525.67
468.045	3631.88
468.417	3567.02
468.789	3627.14
469.161	3676.4
469.534	3767.92
469.906	3816.51
470.278	3822.84
470.65	3895.83
471.022	3939.67
471.394	3992.32
471.766	4039.78
472.138	4059.44
472.51	4154.35
472.882	4205.88
473.253	4268.93
473.625	4277.74
473.997	4314.8
474.369	4375.82
474.74	4401.35
475.112	4475.7
475.484	4529.49
475.855	4629.6
476.227	4685.41
476.598	4834.56
476.97	4845.86
477.341	4958.85
477.713	5016.25
478.084	5002.02
478.455	5155.23
478.827	5130.37
479.198	5309.58
479.569	5329.24
479.94	5477.26
480.311	5482.91
480.682	5588.89
481.053	5733.52
481.424	5786.85
481.795	5838.6
482.166	5894.2
482.537	5964.48
482.908	6108.2
483.279	6147.3
483.65	6190.23
484.021	6250.34
484.391	6345.26
484.762	6453.73
485.133	6460.28
485.503	6565.36
485.874	6639.49
486.244	6667.28
486.615	6811.91
486.985	6850.33
487.356	7004
487.726	7054.39
488.097	7171.68
488.467	7185.23
488.837	7278.34
489.207	7350.88
489.578	7448.28
489.948	7476.3
490.318	7590.2
490.688	7623.87
491.058	7710.42
491.428	7828.16
491.798	7900.24
492.168	8019.11
492.538	8021.6
492.908	8078.09
493.278	8152.89
493.648	8160.8
494.017	8265.66
494.387	8323.51
494.757	8366.22
495.126	8457.07
495.496	8451.87
495.866	8511.75
496.235	8624.07
496.605	8678.75
496.974	8704.29
497.344	8734.57
497.713	8740.22
498.082	8801.69
498.452	8868.35
498.821	8909.94
499.19	8897.05
499.559	8952.87
499.928	8992.19
500.298	9048.91
500.667	9132.98
501.036	9109.7
501.405	9127.56
501.774	9169.14
502.143	9199.87
502.512	9196.93
502.88	9281
503.249	9236.71
503.618	9326.87
503.987	9343.14
504.356	9455.46
504.724	9436.25
505.093	9459.3
505.462	9470.82
505.83	9429.02
506.199	9472.18
506.567	9660.42
506.936	9620.88
507.304	9717.37
507.672	9658.16
508.041	9724.15
508.409	9755.34
508.777	9718.05
509.145	9815
509.514	9726.86
509.882	9828.1
510.25	9865.84
510.618	9823.36
510.986	9862.23
511.354	9876.69
511.722	9987.42
512.09	9947.2
512.458	9936.57
512.826	10031.94
513.193	9979.06
513.561	10054.09
513.929	10059.51
514.297	10109
514.664	10177.7
515.032	10091.37
515.4	10192.61
515.767	10145.83
516.135	10206.62
516.502	10131.37
516.869	10228.77
517.237	10182.44
517.604	10144.48
517.972	10247.3
518.339	10254.53
518.706	10255.89
519.073	10273.97
519.44	10218.6
519.808	10301.31
520.175	10247.08
520.542	10317.81
520.909	10353.97
521.276	10280.29
521.643	10273.29
522.009	10420.18
522.376	10411.36
522.743	10380.63
523.11	10500.85
523.477	10445.94
523.843	10441.19
524.21	10560.74
524.577	10578.14
524.943	10531.14
525.31	10509.44
525.676	10623.11
526.043	10532.72
526.409	10544.69
526.776	10626.5
527.142	10573.85
527.508	10611.13
527.874	10627.86
528.241	10626.5
528.607	10619.72
528.973	10609.33
529.339	10561.87
529.705	10589.89
530.071	10664.01
530.437	10569.33
530.803	10644.13
531.169	10663.11
531.535	10481.42
531.901	10572.94
532.267	10529.33
532.632	10633.73
532.998	10507.41
533.364	10475.54
533.73	10562.77
534.095	10581.76
534.461	10541.76
534.826	10492.27
535.192	10473.51
535.557	10540.4
535.923	10411.59
536.288	10391.03
536.653	10470.8
537.019	10358.71
537.384	10332.04
537.749	10369.11
538.114	10353.74
538.479	10327.75
538.845	10228.54
539.21	10250.24
539.575	10264.48
539.94	10240.97
540.305	10245.27
540.67	10150.35
541.034	10163.01
541.399	10134.54
541.764	10058.61
542.129	10091.37
542.494	10097.7
542.858	10034.2
543.223	9995.56
543.587	9976.8
543.952	9874.88
544.316	9971.6
544.681	9805.5
545.045	9825.84
545.41	9759.63
545.774	9758.05
546.138	9751.27
546.503	9770.93
546.867	9730.93
547.231	9738.16
547.595	9725.51
547.959	9671.05
548.324	9590.37
548.688	9567.09
549.052	9584.72
549.416	9526.64
549.779	9539.75
550.143	9498.85
550.507	9527.77
550.871	9435.35
551.235	9433.99
551.599	9428.79
551.962	9398.96
552.326	9376.59
552.689	9333.65
553.053	9288.68
553.417	9240.1
553.78	9402.35
554.143	9255.01
554.507	9254.11
554.87	9259.98
555.234	9370.71
555.597	9266.54
555.96	9186.54
556.323	9177.72
556.686	9121
557.05	9158.29
557.413	9228.8
557.776	9157.61
558.139	9143.38
558.502	9153.54
558.865	9074.68
559.228	9123.26
559.59	9051.17
559.953	9067.22
560.316	9160.55
560.679	9047.78
561.041	9121.23
561.404	9107.22
561.767	9161
562.129	9055.47
562.492	9162.81
562.854	9143.83
563.217	9049.82
563.579	9055.92
563.941	9148.57
564.304	9059.76
564.666	9120.33
565.028	9091.17
565.39	9110.38
565.753	9171.85
566.115	9179.53
566.477	9237.16
566.839	9163.49
567.201	9154
567.563	9128.23
567.925	9221.79
568.287	9201
568.648	9210.94
569.01	9252.07
569.372	9290.26
569.734	9207.78
570.095	9257.04
570.457	9281.22
570.819	9270.83
571.18	9266.99
571.542	9264.28
571.903	9239.42
572.265	9316.48
572.626	9308.57
572.987	9372.97
573.349	9354.44
573.71	9349.47
574.071	9332.97
574.432	9305.86
574.794	9414.33
575.155	9419.75
575.516	9399.19
575.877	9464.72
576.238	9433.54
576.599	9437.15
576.96	9421.33
577.32	9490.71
577.681	9434.89
578.042	9448
578.403	9513.54
578.763	9473.08
579.124	9442.12
579.485	9518.73
579.845	9610.48
580.206	9517.38
580.566	9504.5
580.927	9509.69
581.287	9605.28
581.648	9570.26
582.008	9598.73
582.368	9572.52
582.728	9622.23
583.089	9625.62
583.449	9624.94
583.809	9666.07
584.169	9643.93
584.529	9625.62
584.889	9670.82
585.249	9591.05
585.609	9634.66
585.969	9670.82
586.329	9641.67
586.688	9720.76
587.048	9659.07
587.408	9609.58
587.768	9701.1
588.127	9630.37
588.487	9649.35
588.846	9755.79
589.206	9690.03
589.565	9700.87
589.925	9741.78
590.284	9668.33
590.643	9711.5
591.003	9703.13
591.362	9790.59
591.721	9773.42
592.08	9713.53
592.44	9793.53
592.799	9835.11
593.158	9871.04
593.517	9808.22
593.876	9780.65
594.235	9723.25
594.593	9758.27
594.952	9794.66
595.311	9809.57
595.67	9836.46
596.029	9828.78
596.387	9748.56
596.746	9858.84
597.104	9820.42
597.463	9763.02
597.822	9887.31
598.18	9789.23
598.538	9778.61
598.897	9859.06
599.255	9805.28
599.613	9898.61
599.972	9829.01
600.33	9840.08
600.688	9754.66
601.046	9810.25
601.404	9888.44
601.762	9891.6
602.12	9924.82
602.478	9957.59
602.836	9881.44
603.194	9856.13
603.552	9956.91
603.91	9903.36
604.268	9927.08
604.625	9853.64
604.983	9914.2
605.341	9854.32
605.698	9885.5
606.056	9992.17
606.413	9925.05
606.771	9948.55
607.128	9952.17
607.485	9873.98
607.843	9956.69
608.2	9974.54
608.557	9986.97
608.914	9968.44
609.272	10018.38
609.629	9937.03
609.986	9969.79
610.343	9962.34
610.7	10055.67
611.057	10001.21
611.414	9977.03
611.771	9945.39
612.127	10064.48
612.484	10015.44
612.841	10019.28
613.198	10064.03
613.554	10010.02
613.911	10176.34
614.267	10092.73
614.624	10098.6
614.98	10099.06
615.337	10125.04
615.693	10113.75
616.05	10108.55
616.406	10178.38
616.762	10111.03
617.118	10111.03
617.475	10117.59
617.831	10167.98
618.187	10087.08
618.543	10121.2
618.899	10223.8
619.255	10177.7
619.611	10164.82
619.967	10139.51
620.323	10291.37
620.678	10246.4
621.034	10262.89
621.39	10158.94
621.746	10142.9
622.101	10268.09
622.457	10163.91
622.812	10198.71
623.168	10250.92
623.523	10289.33
623.879	10257.47
624.234	10170.24
624.589	10184.7
624.945	10264.02
625.3	10246.85
625.655	10191.48
626.01	10271.03
626.365	10224.02
626.72	10172.73
627.075	10205.27
627.43	10236.45
627.785	10130.69
628.14	10179.51
628.495	10149.68
628.85	10197.36
629.205	10153.07
629.559	10181.99
629.914	10137.93
630.269	10160.3
630.623	10146.06
630.978	10058.61
631.332	10073.29
631.687	10136.34
632.041	10050.7
632.396	10066.97
632.75	10077.81
633.104	10047.98
633.459	10019.28
633.813	10046.63
634.167	10033.07
634.521	10051.6
634.875	10031.26
635.229	10076.01
635.583	9942.9
635.937	9980.42
636.291	9898.16
636.645	9948.55
636.999	9861.32
637.352	9904.71
637.706	9859.06
638.06	9900.87
638.413	9869.01
638.767	9854.54
639.121	9820.19
639.474	9793.98
639.828	9821.55
640.181	9824.94
640.534	9836.01
640.888	9782.91
641.241	9703.13
641.594	9794.66
641.947	9811.83
642.301	9719.86
642.654	9776.13
643.007	9772.96
643.36	9711.72
643.713	9684.6
644.066	9756.47
644.419	9710.37
644.771	9646.64
645.124	9596.47
645.477	9572.29
645.83	9527.32
646.182	9431.73
646.535	9445.29
646.888	9469.92
647.24	9396.48
647.593	9386.53
647.945	9444.16
648.298	9323.71
648.65	9342.01
649.002	9369.58
649.355	9425.63
649.707	9338.62
650.059	9483.25
650.411	9548.34
650.763	9528
651.115	9618.39
651.467	9577.04
651.819	9609.13
652.171	9628.33
652.523	9539.75
652.875	9513.08
653.227	9483.48
653.578	9615.23
653.93	9564.83
654.282	9572.74
654.633	9551.5
654.985	9569.13
655.337	9560.99
655.688	9589.47
656.039	9594.89
656.391	9527.32
656.742	9598.5
657.094	9559.86
657.445	9637.15
657.796	9610.93
658.147	9605.51
658.498	9579.52
658.849	9597.6
659.2	9644.83
659.551	9533.65
659.902	9655.9
660.253	9609.58
660.604	9620.43
660.955	9546.75
661.306	9666.75
661.656	9635.34
662.007	9615
662.358	9615.68
662.708	9570.26
663.059	9633.76
663.409	9572.74
663.76	9658.62
664.11	9667.88
664.461	9604.83
664.811	9568
665.161	9562.8
665.511	9576.13
665.862	9610.71
666.212	9627.2
666.562	9619.52
666.912	9684.38
667.262	9632.63
667.612	9599.86
667.962	9656.81
668.312	9601.67
668.662	9591.05
669.011	9580.65
669.361	9584.04
669.711	9592.63
670.06	9536.13
670.41	9557.83
670.76	9595.11
671.109	9650.93
671.459	9545.85
671.808	9593.31
672.157	9589.01
672.507	9524.16
672.856	9467.21
673.205	9497.94
673.554	9575.68
673.904	9538.62
674.253	9538.85
674.602	9508.11
674.951	9400.09
675.3	9391.28
675.649	9559.64
675.998	9426.98
676.346	9510.6
676.695	9508.34
677.044	9476.93
677.393	9500.2
677.741	9422.01
678.09	9448
678.438	9425.18
678.787	9422.24
679.135	9435.12
679.484	9287.1
679.832	9432.63
680.181	9370.26
680.529	9365.74
680.877	9302.24
681.225	9316.48
681.573	9331.85
681.922	9252.53
682.27	9219.53
682.618	9250.72
682.966	9199.65
683.314	9245.97
683.661	9217.72
684.009	9148.35
684.357	9112.87
684.705	9032.87
685.053	9071.51
685.4	9141.12
685.748	9050.27
686.095	8996.94
686.443	8974.11
686.79	9058.18
687.138	9054.11
687.485	9038.07
687.832	8923.49
688.18	8909.26
688.527	8900.9
688.874	8906.09
689.221	8836.94
689.568	8830.62
689.915	8777.96
690.262	8757.17
690.609	8740.22
690.956	8685.76
691.303	8787.68
691.65	8661.81
691.997	8681.69
692.344	8622.26
692.69	8540
693.037	8573.22
693.383	8509.49
693.73	8486.22
694.077	8461.13
694.423	8453.9
694.769	8377.07
695.116	8443.05
695.462	8360.57
695.808	8391.53
696.155	8358.09
696.501	8293
696.847	8340.68
697.193	8311.53
697.539	8309.27
697.885	8209.84
698.231	8143.18
698.577	8151.31
698.923	8141.14
699.269	8057.98
699.614	8044.2
699.96	8009.39
700.306	7973.46
700.651	7962.84
700.997	7891.2
701.342	7839.91
701.688	7886.46
702.033	7765.33
702.379	7776.86
702.724	7810.08
703.069	7794.94
703.415	7740.02
703.76	7692.57
704.105	7720.36
704.45	7622.29
704.795	7630.65
705.14	7594.49
705.485	7572.57
705.83	7579.35
706.175	7544.55
706.52	7532.57
706.865	7503.42
707.209	7459.35
707.554	7474.49
707.899	7429.07
708.243	7396.08
708.588	7388.17
708.932	7382.29
709.277	7340.03
709.621	7417.09
709.966	7315.85
710.31	7365.34
710.654	7184.78
710.998	7245.35
711.342	7189.53
711.687	7251
712.031	7162.18
712.375	7194.5
712.719	7192.01
713.063	7141.17
713.407	7233.6
713.75	7136.87
714.094	7135.97
714.438	7058.01
714.782	7114.73
715.125	7042.87
715.469	7069.08
715.812	7011
716.156	7029.53
716.499	6997.22
716.843	7029.53
717.186	6991.12
717.53	6975.3
717.873	6982.53
718.216	6968.97
718.559	6949.99
718.902	6899.82
719.246	6910.89
719.589	6925.58
719.932	6855.98
720.275	6857.11
720.617	6815.08
720.96	6826.83
721.303	6870.44
721.646	6812.36
721.989	6805.13
722.331	6851.91
722.674	6884.9
723.016	6848.07
723.359	6798.35
723.701	6822.31
724.044	6778.69
724.386	6741.18
724.729	6749.31
725.071	6801.06
725.413	6787.28
725.755	6787.73
726.097	6700.95
726.439	6697.34
726.782	6711.57
727.124	6774.17
727.465	6681.07
727.807	6709.54
728.149	6726.94
728.491	6650.11
728.833	6716.55
729.175	6647.62
729.516	6672.03
729.858	6649.88
730.199	6656.89
730.541	6637.23
730.882	6668.19
731.224	6658.69
731.565	6623.89
731.906	6654.18
732.248	6665.93
732.589	6667.28
732.93	6620.05
733.271	6588.41
733.612	6589.09
733.953	6643.55
734.294	6654.18
734.635	6630
734.976	6675.64
735.317	6632.48
735.658	6642.88
735.999	6681.29
736.339	6685.81
736.68	6660.5
737.021	6667.73
737.361	6655.98
737.702	6726.04
738.042	6709.54
738.383	6703.89
738.723	6707.73
739.063	6721.07
739.404	6744.79
739.744	6756.09
740.084	6725.36
740.424	6741.4
740.764	6763.1
741.104	6804
741.444	6771.91
741.784	6815.53
742.124	6842.19
742.464	6825.24
742.804	6802.65
743.143	6849.42
743.483	6861.63
743.823	6874.96
744.162	6854.62
744.502	6924.22
744.841	6983.43
745.181	7017.78
745.52	7046.03
745.86	7012.36
746.199	7054.16
746.538	7130.1
746.877	7175.74
747.216	7157.89
747.556	7164.9
747.895	7266.59
748.234	7296.42
748.573	7334.16
748.911	7404.44
749.25	7500.03
749.589	7472.23
749.928	7542.06
750.267	7676.07
750.605	7634.26
750.944	7757.42
751.283	7874.26
751.621	7981.6
751.96	8017.76
752.298	8110.63
752.636	8185.66
752.975	8254.13
753.313	8283.29
753.651	8493.22
753.989	8574.35
754.327	8659.55
754.666	8716.04
755.004	8902.03
755.342	9032.64
755.679	9149.02
756.017	9202.81
756.355	9387.89
756.693	9539.98
757.031	9724.38
757.368	9859.06
757.706	9898.84
758.044	10175.89
758.381	10267.64
758.719	10475.09
759.056	10628.76
759.394	10779.49
759.731	10855.42
760.068	11051.35
760.405	11249.99
760.743	11417.67
761.08	11540.83
761.417	11717.09
761.754	11851.78
762.091	12038.21
762.428	12257.87
762.765	12393.23
763.102	12652.89
763.438	12778.76
763.775	12891.98
764.112	13145.08
764.449	13300.55
764.785	13472.98
765.122	13648.57
765.458	13748.45
765.795	13910.26
766.131	14172.85
766.467	14317.02
766.804	14409.45
767.14	14598.83
767.476	14751.36
767.812	14860.29
768.148	15022.99
768.485	15111.13
768.821	15269.09
769.157	15420.95
769.492	15541.17
769.828	15745.01
770.164	15666.14
770.5	15885.8
770.836	16046.92
771.171	16133.7
771.507	16244.21
771.842	16324.43
772.178	16477.19
772.513	16602.16
772.849	16711.54
773.184	16762.38
773.519	16878.77
773.855	16933.91
774.19	17032.21
774.525	17196.27
774.86	17192.88
775.195	17287.57
775.53	17364.85
775.865	17465.42
776.2	17415.47
776.535	17412.31
776.87	17583.61
777.205	17660.67
777.539	17605.3
777.874	17824.96
778.209	17728.91
778.543	17848.01
778.878	17817.95
779.212	17804.39
779.547	17859.53
779.881	17928.23
780.215	17895.01
780.55	18093.2
780.884	17977.49
781.218	18003.71
781.552	18109.02
781.886	18007.1
782.22	18053.42
782.554	17944.5
782.888	17977.04
783.222	17938.62
783.556	17979.3
783.889	18018.62
784.223	17941.56
784.557	18040.99
784.89	18021.33
785.224	17878.06
785.557	17973.88
785.891	17954.44
786.224	18003.03
786.558	17971.62
786.891	17848.01
787.224	17892.52
787.557	17764.39
787.891	17901.11
788.224	17914.22
788.557	17988.11
788.89	17869.02
789.223	17932.07
789.556	17810.72
789.888	17762.81
790.221	17758.06
790.554	17685.98
790.887	17635.36
791.219	17695.92
791.552	17687.56
791.884	17602.59
792.217	17667.45
792.549	17611.18
792.882	17487.34
793.214	17379.09
793.546	17447.56
793.879	17435.59
794.211	17352.2
794.543	17476.49
794.875	17454.34
795.207	17379.77
795.539	17335.25
795.871	17325.76
796.203	17229.94
796.535	17162.83
796.867	17178.19
797.198	17163.05
797.53	17172.54
797.862	16942.04
798.193	17108.36
798.525	16996.95
798.856	17048.03
799.188	16825.66
799.519	16823.63
799.85	16737.3
800.182	16810.97
800.513	16847.58
800.844	16670.41
801.175	16759.67
801.506	16658.88
801.837	16629.28
802.168	16591.54
802.499	16549.73
802.83	16514.71
803.161	16469.06
803.491	16410.3
803.822	16415.27
804.153	16323.53
804.483	16373.47
804.814	16235.84
805.145	16174.83
805.475	16280.81
805.805	16156.3
806.136	16134.15
806.466	16205.11
806.796	16213.25
807.126	16031.1
807.457	16038.79
807.787	16020.93
808.117	15944.1
808.447	15932.58
808.777	15909.53
809.107	15862.75
809.436	15781.84
809.766	15829.08
810.096	15670.89
810.426	15782.75
810.755	15700.72
811.085	15652.13
811.414	15731.68
811.744	15616.2
812.073	15579.82
812.403	15578.46
812.732	15425.7
813.061	15574.39
813.39	15375.08
813.719	15391.12
814.049	15453.72
814.378	15346.15
814.707	15333.04
815.036	15325.13
815.365	15267.73
815.693	15221.41
816.022	15254.63
816.351	15155.42
816.68	15092.37
817.008	15106.61
817.337	15018.7
817.665	14966.05
817.994	15020.73
818.322	15008.31
818.651	14971.92
818.979	14865.71
819.307	14974.63
819.636	14895.09
819.964	14855.09
820.292	14820.97
820.62	14869.33
820.948	14783.23
821.276	14852.15
821.604	14833.17
821.932	14839.72
822.259	14825.71
822.587	14789.1
822.915	14797.46
823.243	14775.32
823.57	14837.46
823.898	14824.36
824.225	14867.29
824.553	14808.54
824.88	14862.32
825.207	14794.75
825.535	14782.55
825.862	14820.97
826.189	14757.24
826.516	14895.31
826.843	14869.78
827.17	14867.29
827.497	14892.38
827.824	14861.19
828.151	14975.54
828.478	14884.24
828.805	14877.91
829.131	14873.39
829.458	14885.37
829.785	14775.54
830.111	14817.12
830.438	14949.55
830.764	14981.87
831.09	14888.08
831.417	14778.26
831.743	14969.66
832.069	14847.18
832.395	14849.67
832.722	14870.46
833.048	14715.43
833.374	14731.03
833.7	14771.48
834.026	14792.49
834.351	14790.46
834.677	14748.43
835.003	14777.13
835.329	14826.62
835.654	14700.74
835.98	14643.8
836.306	14665.49
836.631	14639.5
836.956	14671.14
837.282	14617.81
837.607	14547.08
837.932	14561.31
838.258	14571.48
838.583	14542.1
838.908	14496
839.233	14442.9
839.558	14396.57
839.883	14402.67
840.208	14370.13
840.533	14354.76
840.858	14356.8
841.182	14335.78
841.507	14320.41
841.832	14278.16
842.156	14279.96
842.481	14229.34
842.805	14240.42
843.13	14188.21
843.454	14145.96
843.778	14191.6
844.103	14028.44
844.427	14020.76
844.751	14041.55
845.075	14003.81
845.399	13979.18
845.723	13846.98
846.047	13849.92
846.371	13802.91
846.695	13821.22
847.019	13646.08
847.343	13570.38
847.666	13588.23
847.99	13517.72
848.313	13535.58
848.637	13359.76
848.96	13362.93
849.284	13405.64
849.607	13200.44
849.931	13163.83
850.254	13195.7
850.577	13082.03
850.9	12918.19
851.223	13011.97
851.546	12896.05
851.869	12788.03
852.192	12991.64
852.515	12738.31
852.838	12767.91
853.161	12739.44
853.483	12706.22
853.806	12595.94
854.129	12581.93
854.451	12480.01
854.774	12527.92
855.096	12430.52
855.419	12431.42
855.741	12393.23
856.063	12339.9
856.385	12230.07
856.708	12202.96
857.03	12158.21
857.352	12279.34
857.674	12167.93
857.996	12085.44
858.318	12033.02
858.64	12029.4
858.961	11930.65
859.283	11985.79
859.605	11908.95
859.926	11930.42
860.248	11889.52
860.57	11833.47
860.891	11789.86
861.212	11791.67
861.534	11826.92
861.855	11682.74
862.176	11755.74
862.498	11669.64
862.819	11694.27
863.14	11680.03
863.461	11640.26
863.782	11616.53
864.103	11615.63
864.424	11597.1
864.745	11511.45
865.065	11538.79
865.386	11458.79
865.707	11492.47
866.027	11521.84
866.348	11464.44
866.668	11482.52
866.989	11444.11
867.309	11332.24
867.63	11362.07
867.95	11323.66
868.27	11235.3
868.59	11242.98
868.91	11240.04
869.23	11216.32
869.55	11213.38
869.87	11311.23
870.19	11190.1
870.51	11161.85
870.83	11146.94
871.15	11186.49
871.469	11084.79
871.789	11183.77
872.109	11144.68
872.428	10990.56
872.748	11004.12
873.067	11012.93
873.386	11076.66
873.706	11010.9
874.025	10905.14
874.344	10922.99
874.663	10995.76
874.982	10966.83
875.301	10957.79
875.62	10865.59
875.939	10891.58
876.258	10897.91
876.577	10795.99
876.896	10783.78
877.214	10803.44
877.533	10794.41
877.852	10777.46
878.17	10781.75
878.489	10733.62
878.807	10664.47
879.125	10706.5
879.444	10649.1
879.762	10662.21
880.08	10674.86
880.398	10621.08
880.716	10624.47
881.034	10596.67
881.352	10552.6
881.67	10516.22
881.988	10545.15
882.306	10473.96
882.624	10419.27
882.941	10407.75
883.259	10278.03
883.577	10409.33
883.894	10428.09
884.212	10334.76
884.529	10346.28
884.846	10264.25
885.164	10264.25
885.481	10239.62
885.798	10282.33
886.115	10179.96
886.432	10195.55
886.75	10216.34
887.067	10131.37
887.383	10087.53
887.7	10178.6
888.017	10081.2
888.334	10118.49
888.651	9977.03
888.967	10040.07
889.284	9933.41
889.6	9992.84
889.917	9857.03
890.233	9886.18
890.55	9894.54
890.866	9854.32
891.182	9794.43
891.498	9779.52
891.815	9798.5
892.131	9687.99
892.447	9689.8
892.763	9602.57
893.079	9637.6
893.395	9577.94
893.71	9616.58
894.026	9519.18
894.342	9572.74
894.657	9464.95
894.973	9438.06
895.289	9424.72
895.604	9406.42
895.92	9282.13
896.235	9258.85
896.55	9306.99
896.865	9273.54
897.181	9231.73
897.496	9180.21
897.811	9135.24
898.126	9142.47
898.441	9116.94
898.756	9006.2
899.071	9024.28
899.386	8989.03
899.7	8909.48
900.015	8923.49
900.33	8891.4
900.644	8869.48
900.959	8835.13
901.273	8846.21
901.588	8834.01
901.902	8718.3
902.216	8738.64
902.531	8708.81
902.845	8629.49
903.159	8600.11
903.473	8541.36
903.787	8563.5
904.101	8478.53
904.415	8506.78
904.729	8362.83
905.042	8367.58
905.356	8382.72
905.67	8362.15
905.984	8310.18
906.297	8283.29
906.611	8216.39
906.924	8231.31
907.237	8184.3
907.551	8190.41
907.864	8085.55
908.177	8079.45
908.491	8053.46
908.804	8039
909.117	7997.64
909.43	7923.07
909.743	7895.27
910.056	7921.94
910.368	7823.41
910.681	7823.64
910.994	7820.47
911.307	7775.05
911.619	7720.14
911.932	7677.43
912.244	7617.77
912.557	7686.46
912.869	7530.31
913.181	7500.03
913.494	7519.24
913.806	7461.39
914.118	7453.93
914.43	7395.4
914.742	7416.19
915.054	7419.13
915.366	7313.82
915.678	7255.52
915.99	7298
916.302	7206.93
916.613	7167.38
916.925	7195.63
917.236	7158.57
917.548	7106.59
917.859	7118.8
918.171	7037.67
918.482	7081.96
918.794	7058.23
919.105	6983.43
919.416	6933.94
919.727	6924.9
920.038	6885.58
920.349	6888.07
920.66	6866.6
920.971	6883.1
921.282	6830.22
921.593	6750.67
921.903	6729.43
922.214	6729.2
922.525	6706.15
922.835	6657.57
923.146	6629.77
923.456	6618.7
923.767	6603.1
924.077	6575.31
924.387	6496.44
924.697	6475.87
925.008	6453.05
925.318	6441.75
925.628	6418.02
925.938	6389.55
926.248	6335.54
926.558	6311.36
926.867	6320.17
927.177	6303
927.487	6258.48
927.796	6249.67
928.106	6211.02
928.416	6159.73
928.725	6155.88
929.034	6147.52
929.344	6133.96
929.653	6095.77
929.962	6065.04
930.271	6058.94
930.581	5989.79
930.89	5998.83
931.199	5950.92
931.508	5945.49
931.817	5954.08
932.125	5935.78
932.434	5899.62
932.743	5853.74
933.051	5856.23
933.36	5796.57
933.669	5727.19
933.977	5767.19
934.286	5773.52
934.594	5751.83
934.902	5663.01
935.21	5682
935.519	5612.85
935.827	5647.65
936.135	5552.06
936.443	5590.47
936.751	5515.22
937.059	5531.72
937.367	5534.66
937.674	5500.76
937.982	5454.88
938.29	5393.87
938.597	5408.33
938.905	5341.22
939.213	5316.81
939.52	5294.44
939.827	5343.7
940.135	5304.83
940.442	5242.46
940.749	5207.21
941.056	5220.31
941.363	5158.62
941.67	5174.89
941.977	5147.32
942.284	5133.31
942.591	5064.39
942.898	5117.94
943.205	5003.15
943.511	5034.1
943.818	5034.56
944.125	4998.63
944.431	4968.12
944.738	4907.55
945.044	5018.51
945.35	4911.85
945.657	4860.78
945.963	4873.43
946.269	4880.89
946.575	4872.53
946.881	4823.71
947.187	4762.93
947.493	4764.73
947.799	4742.59
948.105	4792.53
948.41	4725.19
948.716	4679.09
949.022	4651.74
949.327	4681.35
949.633	4621.91
949.938	4632.31
950.244	4589.82
950.549	4591.86
950.854	4596.15
951.16	4544.17
951.465	4511.18
951.77	4476.38
952.075	4446.78
952.38	4440.45
952.685	4428.02
952.99	4447.23
953.294	4397.29
953.599	4352.09
953.904	4396.83
954.209	4309.83
954.513	4299.89
954.818	4264.18
955.122	4302.15
955.426	4336.5
955.731	4227.57
956.035	4254.01
956.339	4211.75
956.643	4160
956.948	4159.33
957.252	4136.28
957.556	4156.84
957.86	4126.11
958.163	4149.83
958.467	4125.2
958.771	4076.16
959.075	4036.39
959.378	4031.19
959.682	4039.33
959.985	4023.28
960.289	4019.44
960.592	3958.2
960.896	3963.62
961.199	3905.32
961.502	3898.09
961.805	3895.6
962.108	3852.22
962.411	3875.72
962.714	3858.32
963.017	3797.98
963.32	3804.53
963.623	3825.78
963.926	3830.52
964.228	3804.76
964.531	3740.81
964.833	3731.99
965.136	3671.43
965.438	3722.28
965.741	3723.86
966.043	3652.45
966.345	3664.88
966.648	3631.2
966.95	3656.51
967.252	3573.58
967.554	3585.56
967.856	3549.62
968.158	3556.63
968.46	3508.95
968.761	3530.19
969.063	3555.5
969.365	3512.11
969.666	3510.98
969.968	3463.3
970.269	3421.04
970.571	3432.34
970.872	3456.97
971.174	3424.66
971.475	3410.19
971.776	3396.63
972.077	3350.08
972.378	3352.79
972.679	3314.38
972.98	3308.95
973.281	3322.06
973.582	3300.82
973.883	3289.97
974.183	3252.46
974.484	3278.9
974.785	3246.36
975.085	3201.61
975.386	3241.16
975.686	3167.71
975.986	3187.37
976.287	3149.18
976.587	3166.58
976.887	3117.55
977.187	3117.32
977.487	3117.32
977.787	3102.86
978.087	3110.54
978.387	3100.37
978.687	3106.47
978.987	3056.3
979.286	2996.19
979.586	3044.1
979.885	2983.54
980.185	2988.96
980.484	2941.05
980.784	2991.67
981.083	2957.55
981.382	2915.06
981.682	2948.06
981.981	2928.17
982.28	2879.59
982.579	2871.22
982.878	2902.86
983.177	2834.16
983.475	2895.63
983.774	2832.35
984.073	2795.07
984.372	2796.65
984.67	2782.86
984.969	2774.05
985.267	2772.02
985.566	2734.5
985.864	2709.42
986.162	2754.84
986.461	2726.37
986.759	2711.45
987.057	2667.16
987.355	2684.79
987.653	2637.11
987.951	2666.48
988.249	2656.54
988.547	2647.73
988.844	2586.94
989.142	2606.6
989.44	2551.46
989.737	2569.31
990.035	2560.5
990.332	2553.27
990.63	2515.53
990.927	2536.09
991.224	2493.83
991.521	2494.28
991.819	2502.87
992.116	2465.58
992.413	2437.56
992.71	2481.86
993.006	2458.35
993.303	2421.07
993.6	2444.34
993.897	2448.41
994.193	2432.82
994.49	2384.91
994.787	2392.59
995.083	2354.63
995.379	2376.1
995.676	2346.49
995.972	2351.24
996.268	2318.7
996.565	2309.66
996.861	2282.54
997.157	2275.31
997.453	2306.04
997.749	2279.15
998.044	2268.08
998.34	2217.23
998.636	2240.28
998.932	2226.27
999.227	2227.63
999.523	2197.57
999.818	2167.97
1000.114	2161.41
1000.409	2175.42
1000.704	2143.79
1001	2135.42
1001.295	2086.61
1001.59	2135.2
1001.885	2100.62
1002.18	2106.27
1002.475	2109.66
1002.77	2063.34
1003.065	2057.23
1003.359	2043
1003.654	2039.38
1003.949	2040.74
1004.243	2006.61
1004.538	2014.98
1004.832	1971.36
1005.127	1978.37
1005.421	1979.04
1005.715	1955.32
1006.009	1969.1
1006.304	1917.35
1006.598	1937.92
1006.892	1901.08
1007.186	1911.25
1007.48	1912.15
1007.773	1899.95
1008.067	1864.47
1008.361	1850.46
1008.655	1860.63
1008.948	1865.15
1009.242	1817.69
1009.535	1825.38
1009.829	1838.93
1010.122	1806.62
1010.415	1786.96
1010.708	1764.36
1011.001	1770.46
1011.295	1804.59
1011.588	1757.58
1011.881	1738.15
1012.173	1715.1
1012.466	1751.25
1012.759	1683.91
1013.052	1698.37
1013.344	1692.5
1013.637	1699.73
1013.93	1667.87
1014.222	1655.89
1014.514	1655.44
1014.807	1650.47
1015.099	1638.04
1015.391	1617.92
1015.683	1597.59
1015.976	1608.21
1016.268	1601.43
1016.56	1622.44
1016.851	1569.79
1017.143	1562.56
1017.435	1551.26
1017.727	1564.82
1018.018	1527.3
1018.31	1521.65
1018.602	1504.25
1018.893	1519.62
1019.185	1531.82
1019.476	1502.9
1019.767	1484.37
1020.058	1465.84
1020.35	1473.75
1020.641	1436.01
1020.932	1419.74
1021.223	1437.59
1021.514	1429
1021.804	1426.06
1022.095	1408.44
1022.386	1403.01
1022.677	1384.26
1022.967	1374.54
1023.258	1350.13
1023.548	1366.86
1023.839	1323.69
1024.129	1331.15
1024.419	1339.29
1024.709	1309.68
1025	1315.33
1025.29	1303.58
1025.58	1304.71
1025.87	1271.49
1026.16	1276.46
1026.449	1275.11
1026.739	1267.2
1027.029	1251.61
1027.319	1233.53
1027.608	1251.61
1027.898	1245.5
1028.187	1218.61
1028.477	1223.81
1028.766	1208.44
1029.055	1211.15
1029.344	1199.18
1029.634	1208.22
1029.923	1180.87
1030.212	1154.21
1030.501	1171.61
1030.79	1140.87
1031.078	1135.9
1031.367	1132.29
1031.656	1139.97
1031.945	1081.67
1032.233	1120.54
1032.522	1152.17
1032.81	1103.59
1033.099	1090.48
1033.387	1102
1033.675	1089.8
1033.963	1077.37
1034.251	1070.59
1034.54	1091.61
1034.828	1034.44
1035.116	1045.51
1035.403	1053.87
1035.691	1015.91
1035.979	1042.57
1036.267	1007.09
1036.554	996.02
1036.842	989.92
1037.129	987.43
1037.417	1010.03
1037.704	1012.06
1037.992	993.53
1038.279	951.5
1038.566	963.7
1038.853	963.7
1039.14	963.7
