Data from hue_190_FLMS001491_00076.txt Node
Date: Tue Feb 07 16:45:45 GMT 2017
User: dcchb
Spectrometer: FLMS00149
Trigger mode: 0
Integration Time (sec): 2.000000E-2
Scans to average: 10
Electric dark correction enabled: true
Nonlinearity correction enabled: false
Boxcar width: 0
XAxis mode: Wavelengths
Number of Pixels in Spectrum: 2048
>>>>>Begin Spectral Data<<<<<
341.393	-5.07
341.776	-5.07
342.16	-5.07
342.543	-63.83
342.927	-65.63
343.31	-72.19
343.693	-78.06
344.077	-58.63
344.46	-49.14
344.843	-39.42
345.226	-26.09
345.61	-38.52
345.993	-23.15
346.376	-7.78
346.759	-0.32
347.142	18.88
347.525	43.29
347.908	36.28
348.291	86.68
348.674	85.1
349.057	123.06
349.44	128.49
349.823	137.98
350.206	173.23
350.588	198.99
350.971	213.45
351.354	231.31
351.737	242.38
352.119	254.36
352.502	259.78
352.884	262.27
353.267	290.97
353.65	292.1
354.032	289.16
354.414	302.04
354.797	318.08
355.179	305.43
355.562	305.2
355.944	324.64
356.326	321.93
356.709	334.58
357.091	349.72
357.473	354.47
357.855	355.6
358.238	330.06
358.62	354.92
359.002	341.81
359.384	335.94
359.766	349.27
360.148	336.39
360.53	335.71
360.912	335.03
361.294	329.61
361.676	342.72
362.057	332.1
362.439	321.25
362.821	308.14
363.203	333
363.584	334.13
363.966	318.76
364.348	330.29
364.729	323.51
365.111	319.67
365.493	338.88
365.874	314.24
366.256	326.67
366.637	329.38
367.019	319.67
367.4	316.73
367.781	316.5
368.163	301.81
368.544	309.27
368.925	321.25
369.306	307.24
369.688	305.66
370.069	312.21
370.45	308.14
370.831	297.75
371.212	306.79
371.593	289.39
371.974	306.79
372.355	313.11
372.736	314.24
373.117	308.14
373.498	323.28
373.879	329.16
374.26	316.28
374.641	323.96
375.021	311.08
375.402	309.72
375.783	341.36
376.163	329.38
376.544	325.77
376.925	331.19
377.305	328.48
377.686	316.95
378.066	314.7
378.447	320.57
378.827	329.16
379.208	303.62
379.588	334.58
379.968	330.29
380.349	335.94
380.729	342.72
381.109	340.01
381.489	342.72
381.87	330.29
382.25	330.06
382.63	337.75
383.01	348.82
383.39	330.51
383.77	339.33
384.15	345.65
384.53	336.62
384.91	341.59
385.29	339.33
385.67	334.13
386.049	342.94
386.429	335.71
386.809	358.76
387.189	336.84
387.568	354.69
387.948	360.34
388.328	365.09
388.707	348.37
389.087	354.92
389.466	353.34
389.846	351.3
390.225	358.76
390.605	359.44
390.984	376.16
391.363	357.63
391.743	347.24
392.122	362.38
392.501	360.8
392.881	365.54
393.26	349.04
393.639	368.03
394.018	390.4
394.397	372.09
394.776	373.45
395.155	401.7
395.534	379.1
395.913	396.95
396.292	384.98
396.671	386.78
397.05	383.85
397.429	391.53
397.808	384.75
398.186	411.64
398.565	391.76
398.944	398.08
399.323	402.38
399.701	403.05
400.08	410.96
400.458	408.93
400.837	409.16
401.215	410.29
401.594	405.77
401.972	414.58
402.351	409.16
402.729	424.07
403.107	417.74
403.486	424.52
403.864	440.57
404.242	427.23
404.62	435.37
404.999	418.65
405.377	444.86
405.755	436.95
406.133	435.6
406.511	449.61
406.889	439.21
407.267	464.07
407.645	465.43
408.023	476.05
408.401	470.4
408.779	464.07
409.156	504.75
409.534	472.21
409.912	478.76
410.29	492.32
410.667	505.65
411.045	519.66
411.422	519.44
411.8	531.64
412.178	522.83
412.555	540.68
412.933	552.88
413.31	562.15
413.687	562.82
414.065	567.12
414.442	573.9
414.819	597.85
415.197	602.6
415.574	613.44
415.951	612.54
416.328	621.81
416.705	623.84
417.082	641.47
417.46	649.83
417.837	643.73
418.214	666.55
418.591	663.84
418.967	673.1
419.344	685.53
419.721	685.31
420.098	690.96
420.475	722.82
420.852	710.62
421.228	734.57
421.605	714.68
421.982	767.56
422.358	774.57
422.735	766.21
423.111	773.21
423.488	807.56
423.864	810.73
424.241	850.05
424.617	822.48
424.994	851.63
425.37	868.8
425.746	861.12
426.123	896.83
426.499	910.61
426.875	912.19
427.251	940.22
427.627	929.37
428.003	934.57
428.379	921.91
428.756	950.84
429.132	966.43
429.507	980.67
429.883	993.55
430.259	1005.3
430.635	1024.96
431.011	1016.6
431.387	1026.31
431.763	1059.99
432.138	1063.83
432.514	1102.47
432.89	1084.39
433.265	1125.75
433.641	1148.8
434.016	1160.55
434.392	1206.88
434.767	1218.4
435.143	1217.27
435.518	1233.09
435.894	1270.83
436.269	1315.57
436.644	1334.56
437.02	1354.44
437.395	1357.15
437.77	1390.37
438.145	1395.12
438.52	1396.25
438.895	1444.61
439.271	1422.01
439.646	1507.21
440.021	1541.1
440.395	1537.04
440.77	1538.39
441.145	1534.1
441.52	1586.98
441.895	1593.08
442.27	1612.51
442.645	1617.49
443.019	1672.85
443.394	1660.87
443.769	1676.47
444.143	1707.65
444.518	1696.58
444.892	1694.32
445.267	1742.91
445.641	1744.26
446.016	1780.19
446.39	1789.01
446.764	1816.8
447.139	1853.64
447.513	1838.5
447.887	1852.51
448.262	1902.68
448.636	1873.75
449.01	1858.61
449.384	1895.44
449.758	1926.18
450.132	1930.92
450.506	1951.04
450.88	1967.31
451.254	1963.69
451.628	1994.65
452.002	2045.5
452.376	2026.29
452.75	2072.84
453.123	2075.78
453.497	2126.62
453.871	2113.29
454.244	2168.66
454.618	2186.74
454.992	2220.86
455.365	2238.49
455.739	2300.86
456.112	2291.59
456.486	2309.44
456.859	2323.68
457.232	2356.9
457.606	2370.69
457.979	2423.11
458.352	2435.77
458.725	2523
459.099	2539.27
459.472	2590.12
459.845	2576.1
460.218	2587.18
460.591	2632.15
460.964	2658.14
461.337	2746.27
461.71	2734.97
462.083	2786.72
462.456	2800.73
462.829	2799.6
463.201	2855.65
463.574	2873.05
463.947	2932.25
464.32	3012.7
464.692	2988.98
465.065	2995.08
465.438	3083.66
465.81	3124.79
466.183	3175.64
466.555	3223.32
466.928	3218.57
467.3	3255.63
467.672	3315.07
468.045	3430.77
468.417	3418.79
468.789	3423.31
469.161	3496.76
469.534	3522.75
469.906	3605.23
470.278	3621.95
470.65	3669.41
471.022	3747.37
471.394	3822.63
471.766	3844.09
472.138	3917.09
472.51	3981.27
472.882	4012.45
473.253	4121.6
473.625	4142.39
473.997	4240.69
474.369	4267.81
474.74	4313.69
475.112	4407.92
475.484	4474.59
475.855	4569.05
476.227	4622.6
476.598	4715.48
476.97	4772.66
477.341	4903.95
477.713	4912.99
478.084	5021.69
478.455	5149.37
478.827	5179.43
479.198	5340.33
479.569	5350.95
479.94	5485.41
480.311	5553.65
480.682	5643.82
481.053	5773.31
481.424	5833.42
481.795	5896.24
482.166	5995
482.537	6055.79
482.908	6225.05
483.279	6301.43
483.65	6425.95
484.021	6485.38
484.391	6597.47
484.762	6656.68
485.133	6732.83
485.503	6821.42
485.874	6936.89
486.244	7060.28
486.615	7202.65
486.985	7265.7
487.356	7362.19
487.726	7441.29
488.097	7604.9
488.467	7543.43
488.837	7746.36
489.207	7876.53
489.578	7942.52
489.948	8045.79
490.318	8145.68
490.688	8188.39
491.058	8348.16
491.428	8439.68
491.798	8521.48
492.168	8615.95
492.538	8727.13
492.908	8754.93
493.278	8888.71
493.648	8860.23
494.017	8977.97
494.387	9110.17
494.757	9101.13
495.126	9196.95
495.496	9269.49
495.866	9300.22
496.235	9319.88
496.605	9401.91
496.974	9518.07
497.344	9547.9
497.713	9595.81
498.082	9629.48
498.452	9741.11
498.821	9789.7
499.19	9829.47
499.559	9838.29
499.928	9946.53
500.298	9973.88
500.667	9994.89
501.036	10001.45
501.405	10067.43
501.774	10099.97
502.143	10170.48
502.512	10181.55
502.88	10316.69
503.249	10199.86
503.618	10223.36
503.987	10254.55
504.356	10298.16
504.724	10338.39
505.093	10307.2
505.462	10358.5
505.83	10421.1
506.199	10496.35
506.567	10544.71
506.936	10522.79
507.304	10677.59
507.672	10642.11
508.041	10619.06
508.409	10735.44
508.777	10735.44
509.145	10786.51
509.514	10786.28
509.882	10828.54
510.25	10817.92
510.618	10864.7
510.986	10826.74
511.354	10885.26
511.722	10935.66
512.09	10994.41
512.458	10925.26
512.826	10976.79
513.193	11009.78
513.561	10981.76
513.929	11036.67
514.297	11103.79
514.664	11114.86
515.032	11071.93
515.4	11120.74
515.767	11155.31
516.135	11156.9
516.502	11061.08
516.869	11183.34
517.237	11190.12
517.604	11066.73
517.972	11171.36
518.339	11150.79
518.706	11258.36
519.073	11148.76
519.44	11137.01
519.808	11195.31
520.175	11221.53
520.542	11249.32
520.909	11252.26
521.276	11212.94
521.643	11323.22
522.009	11196.44
522.376	11305.59
522.743	11273.73
523.11	11349.89
523.477	11334.74
523.843	11286.84
524.21	11437.57
524.577	11362.99
524.943	11371.13
525.31	11348.3
525.676	11454.06
526.043	11379.49
526.409	11403.67
526.776	11344.01
527.142	11380.17
527.508	11358.7
527.874	11358.25
528.241	11354.4
528.607	11304.91
528.973	11371.58
529.339	11283.9
529.705	11405.7
530.071	11431.01
530.437	11278.02
530.803	11307.17
531.169	11290.9
531.535	11241.19
531.901	11199.38
532.267	11165.94
532.632	11175.2
532.998	11045.94
533.364	11134.52
533.73	11031.48
534.095	11126.84
534.461	11008.43
534.826	11018.37
535.192	10914.87
535.557	10895.43
535.923	10857.02
536.288	10870.35
536.653	10783.12
537.019	10721.88
537.384	10730.69
537.749	10699.51
538.114	10647.3
538.479	10621.77
538.845	10572.05
539.21	10465.39
539.575	10465.16
539.94	10467.87
540.305	10434.88
540.67	10295.45
541.034	10257.71
541.399	10230.14
541.764	10209.58
542.129	10123.25
542.494	10118.73
542.858	10082.12
543.223	10038.73
543.587	10060.88
543.952	9922.13
544.316	9931.39
544.681	9896.14
545.045	9834.9
545.41	9748.57
545.774	9742.7
546.138	9739.53
546.503	9629.25
546.867	9510.84
547.231	9558.07
547.595	9564.4
547.959	9502.02
548.324	9368.24
548.688	9361.46
549.052	9326.44
549.416	9209.38
549.779	9214.8
550.143	9167.12
550.507	9283.27
550.871	9083.73
551.235	9036.73
551.599	9076.5
551.962	9024.52
552.326	8985.88
552.689	8876.05
553.053	8814.36
553.417	8874.7
553.78	8929.38
554.143	8769.16
554.507	8721.25
554.87	8705.89
555.234	8741.37
555.597	8624.31
555.96	8595.38
556.323	8568.94
556.686	8510.19
557.05	8584.99
557.413	8488.27
557.776	8502.28
558.139	8474.25
558.502	8382.51
558.865	8389.51
559.228	8406.91
559.59	8428.15
559.953	8330.76
560.316	8312.45
560.679	8352.68
561.041	8308.16
561.404	8352.45
561.767	8307.71
562.129	8252.11
562.492	8298.89
562.854	8229.29
563.217	8279.46
563.579	8276.29
563.941	8246.46
564.304	8250.53
564.666	8248.72
565.028	8207.82
565.39	8199.01
565.753	8167.37
566.115	8180.7
566.477	8219.57
566.839	8223.41
567.201	8191.55
567.563	8205.56
567.925	8205.11
568.287	8201.95
568.648	8210.98
569.01	8199.69
569.372	8212.57
569.734	8185.45
570.095	8163.08
570.457	8240.14
570.819	8151.55
571.18	8156.52
571.542	8210.98
571.903	8179.8
572.265	8180.25
572.626	8157.2
572.987	8195.84
573.349	8216.41
573.71	8157.65
574.071	8174.38
574.432	8088.28
574.794	8277.42
575.155	8198.33
575.516	8164.43
575.877	8161.04
576.238	8185.67
576.599	8142.29
576.96	8197.88
577.32	8109.52
577.681	8190.87
578.042	8218.67
578.403	8128.73
578.763	8105.68
579.124	8233.36
579.485	8163.75
579.845	8163.3
580.206	8166.92
580.566	8140.48
580.927	8130.76
581.287	8118.78
581.648	8088.05
582.008	8082.4
582.368	8061.61
582.728	8122.4
583.089	8132.34
583.449	8043.98
583.809	8072.01
584.169	8057.77
584.529	8035.17
584.889	8094.15
585.249	8063.87
585.609	8023.64
585.969	8027.94
586.329	8036.75
586.688	8049.86
587.048	8029.52
587.408	7990.65
587.768	7979.35
588.127	7961.05
588.487	7931.44
588.846	7987.26
589.206	7914.27
589.565	7937.09
589.925	7971.89
590.284	7937.32
590.643	7941.16
591.003	7949.52
591.362	7865.23
591.721	7933.25
592.08	7895.96
592.44	7868.17
592.799	7880.15
593.158	7879.47
593.517	7888.06
593.876	7897.55
594.235	7897.77
594.593	7813.26
594.952	7815.74
595.311	7828.17
595.67	7778
596.029	7908.85
596.387	7864.78
596.746	7865.46
597.104	7813.93
597.463	7816.64
597.822	7843.99
598.18	7760.38
598.538	7796.98
598.897	7781.39
599.255	7727.16
599.613	7792.69
599.972	7793.14
600.33	7754.73
600.688	7746.14
601.046	7800.37
601.404	7763.54
601.762	7777.78
602.12	7790.88
602.478	7786.82
602.836	7804.67
603.194	7737.32
603.552	7766.7
603.91	7692.58
604.268	7712.47
604.625	7695.97
604.983	7752.69
605.341	7700.94
605.698	7727.16
606.056	7725.35
606.413	7756.08
606.771	7723.09
607.128	7759.7
607.485	7676.54
607.843	7682.19
608.2	7750.88
608.557	7746.36
608.914	7690.77
609.272	7741.62
609.629	7735.06
609.986	7802.86
610.343	7674.73
610.7	7743.43
611.057	7808.51
611.414	7745.69
611.771	7763.99
612.127	7792.46
612.484	7764.67
612.841	7785.23
613.198	7814.38
613.554	7762.18
613.911	7831.56
614.267	7800.15
614.624	7813.71
614.98	7825.46
615.337	7820.94
615.693	7843.76
616.05	7827.04
616.406	7822.07
616.762	7821.39
617.118	7832.01
617.475	7854.84
617.831	7822.75
618.187	7832.24
618.543	7852.8
618.899	7823.42
619.255	7868.39
619.611	7805.35
619.967	7902.52
620.323	7875.63
620.678	7843.99
621.034	7851.9
621.39	7777.78
621.746	7800.37
622.101	7912.46
622.457	7838.57
622.812	7883.54
623.168	7896.42
623.523	7812.58
623.879	7951.78
624.234	7816.19
624.589	7933.25
624.945	7851.67
625.3	7824.33
625.655	7824.1
626.01	7854.61
626.365	7872.24
626.72	7832.46
627.075	7866.13
627.43	7865.68
627.785	7829.07
628.14	7807.38
628.495	7873.14
628.85	7848.06
629.205	7769.19
629.559	7817.1
629.914	7807.38
630.269	7786.82
630.623	7754.05
630.978	7773.71
631.332	7811.67
631.687	7806.93
632.041	7722.64
632.396	7806.93
632.75	7697.33
633.104	7749.98
633.459	7703.65
633.813	7704.11
634.167	7695.74
634.521	7710.88
634.875	7730.32
635.229	7677.44
635.583	7690.55
635.937	7646.48
636.291	7690.09
636.645	7661.39
636.999	7623.66
637.352	7642.41
637.706	7589.98
638.06	7573.71
638.413	7547.73
638.767	7505.24
639.121	7584.11
639.474	7539.36
639.828	7482.87
640.181	7545.01
640.534	7509.31
640.888	7517.44
641.241	7486.71
641.594	7468.86
641.947	7530.32
642.301	7486.94
642.654	7501.85
643.007	7532.81
643.36	7491
643.713	7475.41
644.066	7439.48
644.419	7423.43
644.771	7399.93
645.124	7329.88
645.477	7396.54
645.83	7355.64
646.182	7268.41
646.535	7219.6
646.888	7260.5
647.24	7235.42
647.593	7219.15
647.945	7197.9
648.298	7167.17
648.65	7204.68
649.002	7115.42
649.355	7203.78
649.707	7196.1
650.059	7263.89
650.411	7288.07
650.763	7324
651.115	7383.89
651.467	7348.41
651.819	7379.14
652.171	7399.48
652.523	7315.19
652.875	7405.36
653.227	7334.4
653.578	7334.62
653.93	7372.14
654.282	7357.9
654.633	7350.22
654.985	7344.57
655.337	7423.21
655.688	7368.29
656.039	7377.56
656.391	7345.92
656.742	7357.9
657.094	7387.5
657.445	7390.67
657.796	7364.68
658.147	7305.47
658.498	7433.6
658.849	7379.59
659.2	7381.4
659.551	7387.96
659.902	7406.71
660.253	7417.11
660.604	7399.71
660.955	7393.83
661.306	7420.05
661.656	7415.3
662.007	7467.95
662.358	7470.44
662.708	7394.28
663.059	7403.1
663.409	7387.96
663.76	7393.38
664.11	7475.18
664.461	7443.55
664.811	7498.69
665.161	7398.35
665.511	7414.17
665.862	7447.39
666.212	7477.9
666.562	7487.39
666.912	7448.52
667.262	7442.19
667.612	7441.29
667.962	7447.61
668.312	7456.2
668.662	7429.76
669.011	7388.18
669.361	7406.26
669.711	7388.41
670.06	7417.56
670.41	7372.81
670.76	7379.59
671.109	7371.91
671.459	7396.99
671.808	7408.07
672.157	7390.67
672.507	7342.76
672.856	7366.26
673.205	7313.83
673.554	7385.47
673.904	7338.24
674.253	7342.31
674.602	7411.23
674.951	7222.08
675.3	7171.01
675.649	7328.75
675.998	7321.52
676.346	7324.91
676.695	7362.42
677.044	7277.9
677.393	7309.09
677.741	7391.57
678.09	7301.18
678.438	7287.39
678.787	7312.93
679.135	7301.86
679.484	7222.08
679.832	7296.88
680.181	7213.04
680.529	7227.73
680.877	7157.45
681.225	7178.92
681.573	7269.09
681.922	7155.65
682.27	7132.59
682.618	7169.2
682.966	7110.45
683.314	7103.9
683.661	7080.62
684.009	6964.69
684.357	7062.77
684.705	7025.25
685.053	7034.52
685.4	7032.94
685.748	7025.71
686.095	6971.7
686.443	6972.15
686.79	6950.68
687.138	6953.39
687.485	6952.03
687.832	6923.56
688.18	6889.21
688.527	6887.86
688.874	6813.73
689.221	6814.19
689.568	6809.89
689.915	6806.5
690.262	6739.38
690.609	6758.82
690.956	6786.16
691.303	6745.26
691.65	6773.06
691.997	6708.65
692.344	6627.07
692.69	6639.27
693.037	6644.92
693.383	6517.47
693.73	6579.84
694.077	6523.12
694.423	6494.87
694.769	6508.2
695.116	6474.76
695.462	6443.35
695.808	6404.48
696.155	6409.9
696.501	6388.66
696.847	6343.01
697.193	6269.11
697.539	6316.35
697.885	6285.39
698.231	6260.75
698.577	6248.55
698.923	6199.29
699.269	6157.48
699.614	6192.73
699.96	6109.12
700.306	6139.17
700.651	6114.32
700.997	6105.5
701.342	6039.52
701.688	6100.98
702.033	6047.43
702.379	6032.74
702.724	5966.98
703.069	5997.26
703.415	5938.73
703.76	5978.95
704.105	5933.08
704.45	5922.68
704.795	5880.88
705.14	5857.6
705.485	5803.14
705.83	5788.22
706.175	5806.98
706.52	5788.22
706.865	5746.64
707.209	5757.94
707.554	5717.26
707.899	5695.57
708.243	5695.57
708.588	5666.87
708.932	5661.67
709.277	5656.25
709.621	5610.15
709.966	5583.71
710.31	5615.12
710.654	5531.28
710.998	5575.57
711.342	5626.42
711.687	5533.09
712.031	5481.79
712.375	5537.61
712.719	5489.25
713.063	5497.61
713.407	5536.25
713.75	5497.38
714.094	5499.64
714.438	5421.45
714.782	5466.42
715.125	5433.66
715.469	5425.52
715.812	5404.28
716.156	5369.7
716.499	5367.67
716.843	5356.37
717.186	5398.63
717.53	5404.05
717.873	5354.11
718.216	5386.43
718.559	5342.81
718.902	5312.98
719.246	5383.49
719.589	5324.51
719.932	5305.98
720.275	5333.77
720.617	5306.65
720.96	5291.74
721.303	5243.83
721.646	5325.41
721.989	5241.57
722.331	5256.71
722.674	5281.8
723.016	5294.9
723.359	5259.88
723.701	5264.4
724.044	5236.6
724.386	5239.76
724.729	5230.72
725.071	5252.19
725.413	5227.11
725.755	5272.76
726.097	5197.96
726.439	5190.05
726.782	5223.72
727.124	5174.45
727.465	5227.33
727.807	5209.48
728.149	5230.95
728.491	5235.92
728.833	5211.29
729.175	5196.6
729.516	5151.18
729.858	5178.07
730.199	5220.1
730.541	5160.22
730.882	5212.65
731.224	5274.34
731.565	5185.53
731.906	5211.52
732.248	5181.23
732.589	5256.71
732.93	5138.52
733.271	5161.12
733.612	5220.33
733.953	5187.34
734.294	5186.21
734.635	5173.78
734.976	5183.95
735.317	5225.07
735.658	5202.25
735.999	5223.49
736.339	5198.18
736.68	5263.27
737.021	5209.26
737.361	5192.98
737.702	5232.53
738.042	5219.42
738.383	5293.32
738.723	5228.01
739.063	5253.32
739.404	5297.84
739.744	5278.18
740.084	5262.14
740.424	5313.21
740.764	5325.41
741.104	5344.85
741.444	5341
741.784	5290.16
742.124	5353.66
742.464	5357.05
742.804	5374.45
743.143	5420.55
743.483	5403.15
743.823	5390.49
744.162	5443.15
744.502	5461
744.841	5474.11
745.181	5543.03
745.52	5583.03
745.86	5594.56
746.199	5587.78
746.538	5651.05
746.877	5709.36
747.216	5697.6
747.556	5744.83
747.895	5758.17
748.234	5838.39
748.573	5886.53
748.911	5962.23
749.25	5996.35
749.589	6046.75
749.928	6131.72
750.267	6175.11
750.605	6211.94
750.944	6293.29
751.283	6243.35
751.621	6440.18
751.96	6552.72
752.298	6580.29
752.636	6670.23
752.975	6695.54
753.313	6827.74
753.651	6949.55
753.989	7120.17
754.327	7142.09
754.666	7248.3
755.004	7365.58
755.342	7552.02
755.679	7657.1
756.017	7697.78
756.355	7884.44
756.693	7989.3
757.031	8154.26
757.368	8257.54
757.706	8408.72
758.044	8580.92
758.381	8692.55
758.719	8782.72
759.056	8993.79
759.394	9137.97
759.731	9291.41
760.068	9410.95
760.405	9577.28
760.743	9779.08
761.08	9975.01
761.417	10083.25
761.754	10288.44
762.091	10442.34
762.428	10623.58
762.765	10622.22
763.102	10941.08
763.438	11089.1
763.775	11251.58
764.112	11442.99
764.449	11689.76
764.785	11756.43
765.122	11826.26
765.458	12021.51
765.795	12259.47
766.131	12380.14
766.467	12578.55
766.804	12680.7
767.14	12844.76
767.476	12995.49
767.812	13158.65
768.148	13407.68
768.485	13441.58
768.821	13506.89
769.157	13721.8
769.492	13906.2
769.828	14051.51
770.164	14045.18
770.5	14253.99
770.836	14354.55
771.171	14375.57
771.507	14565.39
771.842	14627.99
772.178	14743.24
772.513	14863.47
772.849	14985.5
773.184	15023.46
773.519	15223
773.855	15221.65
774.19	15307.3
774.525	15348.88
774.86	15553.39
775.195	15607.63
775.53	15628.87
775.865	15690.11
776.2	15642.88
776.535	15599.26
776.87	15869.54
777.205	15792.71
777.539	15839.03
777.874	15984.57
778.209	15945.7
778.543	16011.01
778.878	15956.77
779.212	16027.28
779.547	16096.65
779.881	16203.32
780.215	16159.25
780.55	16263.2
780.884	16208.29
781.218	16235.41
781.552	16399.24
781.886	16326.25
782.22	16278.12
782.554	16369.19
782.888	16215.97
783.222	16261.62
783.556	16307.95
783.889	16328.06
784.223	16188.63
784.557	16277.89
784.89	16281.05
785.224	16293.26
785.557	16304.56
785.891	16232.69
786.224	16234.05
786.558	16251.68
786.891	16182.98
787.224	16121.06
787.557	16171
787.891	16187.5
788.224	16234.28
788.557	16276.08
788.89	16228.4
789.223	16260.49
789.556	16126.48
789.888	16195.63
790.221	16055.3
790.554	16038.35
790.887	16113.83
791.219	16005.13
791.552	15970.1
791.884	15982.76
792.217	15921.06
792.549	15926.71
792.882	15882.2
793.214	15760.16
793.546	15897.11
793.879	15873.16
794.211	15760.16
794.543	15802.2
794.875	15834.51
795.207	15835.64
795.539	15784.8
795.871	15750
796.203	15674.07
796.535	15678.81
796.867	15618.25
797.198	15601.75
797.53	15621.86
797.862	15621.41
798.193	15517.91
798.525	15462.77
798.856	15517.91
799.188	15283.79
799.519	15294.19
799.85	15226.85
800.182	15252.83
800.513	15131.03
800.844	15177.36
801.175	15200.18
801.506	15204.7
801.837	15122.44
802.168	15132.16
802.499	15072.27
802.83	15027.3
803.161	14946.17
803.491	15063.91
803.822	14978.49
804.153	14898.04
804.483	14786.63
804.814	14797.48
805.145	14689.91
805.475	14765.16
805.805	14742.79
806.136	14619.86
806.466	14792.05
806.796	14604.49
807.126	14566.98
807.457	14649.91
807.787	14596.81
808.117	14529.69
808.447	14450.59
808.777	14500.99
809.107	14424.38
809.436	14348
809.766	14418.28
810.096	14273.42
810.426	14303.25
810.755	14404.95
811.085	14257.38
811.414	14213.31
811.744	14220.54
812.073	14175.35
812.403	14179.87
812.732	14067.33
813.061	14162.47
813.39	14072.53
813.719	14067.78
814.049	14115.46
814.378	14003.83
814.707	13943.04
815.036	13952.3
815.365	13978.74
815.693	13756.15
816.022	13871.4
816.351	13844.73
816.68	13731.29
817.008	13772.87
817.337	13644.06
817.665	13638.19
817.994	13699.88
818.322	13717.05
818.651	13551.86
818.979	13603.84
819.307	13533.56
819.636	13661.24
819.964	13519.77
820.292	13489.26
820.62	13541.69
820.948	13524.29
821.276	13576.72
821.604	13511.18
821.932	13554.57
822.259	13592.99
822.587	13532.2
822.915	13496.95
823.243	13535.14
823.57	13496.04
823.898	13609.71
824.225	13465.99
824.553	13482.71
824.88	13470.96
825.207	13610.84
825.535	13510.51
825.862	13525.2
826.189	13556.15
826.516	13535.59
826.843	13598.41
827.17	13603.39
827.497	13602.48
827.824	13510.05
828.151	13634.12
828.478	13608.13
828.805	13524.07
829.131	13574.01
829.458	13545.53
829.785	13453.11
830.111	13554.35
830.438	13575.36
830.764	13611.07
831.09	13615.81
831.417	13411.3
831.743	13538.08
832.069	13484.97
832.395	13423.73
832.722	13556.15
833.048	13456.5
833.374	13423.5
833.7	13469.38
834.026	13502.14
834.351	13444.52
834.677	13470.51
835.003	13458.53
835.329	13387.35
835.654	13435.93
835.98	13361.13
836.306	13447.91
836.631	13374.01
836.956	13414.92
837.282	13368.59
837.607	13284.3
837.932	13325.2
838.258	13300.57
838.583	13268.03
838.908	13195.03
839.233	13255.15
839.558	13237.97
839.883	13145.09
840.208	13168.59
840.533	13079.78
840.858	13071.42
841.182	13162.27
841.507	13075.26
841.832	13010.63
842.156	13023.74
842.481	12995.72
842.805	13040.91
843.13	12951.42
843.454	12887.47
843.778	12871.65
844.103	12875.27
844.427	12853.35
844.751	12793.69
845.075	12680.25
845.399	12709.17
845.723	12628.95
846.047	12731.54
846.371	12554.15
846.695	12586.24
847.019	12470.08
847.343	12450.2
847.666	12390.76
847.99	12360.03
848.313	12322.97
848.637	12231.22
848.96	12214.27
849.284	12174.5
849.607	12074.39
849.931	12127.27
850.254	12024.22
850.577	11963.88
850.9	11822.87
851.223	11801.17
851.546	11766.82
851.869	11737.45
852.192	11788.97
852.515	11588.52
852.838	11697.67
853.161	11671.46
853.483	11574.51
853.806	11542.65
854.129	11549.88
854.451	11486.38
854.774	11387.17
855.096	11374.52
855.419	11333.84
855.741	11272.15
856.063	11237.57
856.385	11189.66
856.708	11225.59
857.03	11175.2
857.352	11152.15
857.674	11126.84
857.996	11082.1
858.318	11055.43
858.64	11035.32
858.961	10970.23
859.283	10912.38
859.605	10820.86
859.926	10939.05
860.248	10864.02
860.57	10795.32
860.891	10829.67
861.212	10753.74
861.534	10711.71
861.855	10728.43
862.176	10729.34
862.498	10699.28
862.819	10705.61
863.14	10714.42
863.461	10639.85
863.782	10626.29
864.103	10605.5
864.424	10548.1
864.745	10517.59
865.065	10568.89
865.386	10467.65
865.707	10540.64
866.027	10520.3
866.348	10428.55
866.668	10418.16
866.989	10415.67
867.309	10294.55
867.63	10402.34
867.95	10378.61
868.27	10335.67
868.59	10353.3
868.91	10355.56
869.23	10229.91
869.55	10221.1
869.87	10234.21
870.19	10258.39
870.51	10212.51
870.83	10263.59
871.15	10181.55
871.469	10246.19
871.789	10207.09
872.109	10127.77
872.428	10064.04
872.748	10175.68
873.067	10122.12
873.386	10117.6
873.706	10025.17
874.025	10027.66
874.344	10016.36
874.663	10014.78
874.982	9964.16
875.301	10056.36
875.62	9981.11
875.939	9905.4
876.258	9956.93
876.577	9888
876.896	9898.85
877.214	9883.26
877.533	9958.74
877.852	9818.63
878.17	9845.74
878.489	9808.91
878.807	9870.6
879.125	9758.97
879.444	9743.15
879.762	9724.39
880.08	9728.46
880.398	9708.57
880.716	9672.19
881.034	9646.43
881.352	9636.48
881.67	9634.68
881.988	9648.01
882.306	9629.48
882.624	9565.3
882.941	9490.95
883.259	9534.34
883.577	9504.51
883.894	9526.43
884.212	9497.28
884.529	9400.33
884.846	9453.66
885.164	9394.68
885.481	9359.66
885.798	9389.26
886.115	9323.72
886.432	9302.71
886.75	9260.67
887.067	9262.93
887.383	9221.35
887.7	9330.28
888.017	9218.64
888.334	9209.15
888.651	9230.17
888.967	9187.46
889.284	9158.98
889.6	9138.64
889.917	9035.14
890.233	9077.18
890.55	8984.07
890.866	9066.33
891.182	8985.2
891.498	8994.47
891.815	8930.97
892.131	8872.66
892.447	8833.34
892.763	8858.88
893.079	8828.82
893.395	8753.34
893.71	8718.32
894.026	8741.37
894.342	8762.38
894.657	8603.74
894.973	8640.8
895.289	8647.13
895.604	8587.25
895.92	8543.18
896.235	8452.79
896.55	8473.35
896.865	8558.09
897.181	8502.5
897.496	8389.06
897.811	8396.29
898.126	8321.49
898.441	8345.67
898.756	8302.96
899.071	8285.56
899.386	8304.32
899.7	8140.25
900.015	8182.06
900.33	8151.33
900.644	8114.26
900.959	8103.19
901.273	8050.99
901.588	8007.83
901.902	8020.93
902.216	7964.66
902.531	7904.78
902.845	7908.62
903.159	7858
903.473	7842.63
903.787	7816.87
904.101	7721.51
904.415	7783.65
904.729	7754.5
905.042	7684.22
905.356	7687.61
905.67	7664.33
905.984	7629.53
906.297	7601.96
906.611	7557.44
906.924	7525.35
907.237	7526.48
907.551	7489.87
907.864	7424.34
908.177	7424.11
908.491	7439.71
908.804	7293.04
909.117	7250.11
909.43	7255.98
909.743	7211.01
910.056	7312.93
910.368	7202.88
910.681	7173.27
910.994	7174.18
911.307	7155.42
911.619	7094.18
911.932	7081.75
912.244	7004.91
912.557	6943
912.869	6930.57
913.181	6915.43
913.494	6876.56
913.806	6828.2
914.118	6793.17
914.43	6786.16
914.742	6792.94
915.054	6746.84
915.366	6690.57
915.678	6721.53
915.99	6611.93
916.302	6601.76
916.613	6660.97
916.925	6589.78
917.236	6590.01
917.548	6538.03
917.859	6547.75
918.171	6467.3
918.482	6505.72
918.794	6476.12
919.105	6482.22
919.416	6388.89
919.727	6341.43
920.038	6332.16
920.349	6291.04
920.66	6295.78
920.971	6249.23
921.282	6298.72
921.593	6222.79
921.903	6150.25
922.214	6200.87
922.525	6116.12
922.835	6151.6
923.146	6095.11
923.456	6099.85
923.767	6004.49
924.077	6004.94
924.387	5984.6
924.697	5977.82
925.008	5993.87
925.318	5953.64
925.628	5933.3
925.938	5916.36
926.248	5849.24
926.558	5773.99
926.867	5776.25
927.177	5757.49
927.487	5768.56
927.796	5695.57
928.106	5724.27
928.416	5723.59
928.725	5657.83
929.034	5654.89
929.344	5661.45
929.653	5642.46
929.962	5529.47
930.271	5528.57
930.581	5528.8
930.89	5503.03
931.199	5475.24
931.508	5495.12
931.817	5489.02
932.125	5422.13
932.434	5382.81
932.743	5341.23
933.051	5367.67
933.36	5349.36
933.669	5313.89
933.977	5244.28
934.286	5267.79
934.594	5254.45
934.902	5191.63
935.21	5185.3
935.519	5179.88
935.827	5165.87
936.135	5098.98
936.443	5043.16
936.751	5058.75
937.059	5123.61
937.367	5054.23
937.674	5033.44
937.982	5027.79
938.29	4981.47
938.597	4950.05
938.905	4951.18
939.213	4931.3
939.52	4913.44
939.827	4895.14
940.135	4879.55
940.442	4842.26
940.749	4855.59
941.056	4809.72
941.363	4784.41
941.67	4742.83
941.977	4710.74
942.284	4719.1
942.591	4709.61
942.898	4649.95
943.205	4690.85
943.511	4687.46
943.818	4685.43
944.125	4599.1
944.431	4601.59
944.738	4541.02
945.044	4555.04
945.35	4564.75
945.657	4507.35
945.963	4459.22
946.269	4470.97
946.575	4466.9
946.881	4462.61
947.187	4424.64
947.493	4418.32
947.799	4381.25
948.105	4375.15
948.41	4336.51
948.716	4364.31
949.022	4289.96
949.327	4332.44
949.633	4256.51
949.938	4221.26
950.244	4264.87
950.549	4200.47
950.854	4221.94
951.16	4175.38
951.465	4225.33
951.77	4151.2
952.075	4124.99
952.38	4087.48
952.685	4110.75
952.99	4082.51
953.294	4074.37
953.599	4038.21
953.904	4026.91
954.209	4016.07
954.513	4003.64
954.818	3974.94
955.122	3944.43
955.426	3955.05
955.731	3941.04
956.035	3869.86
956.339	3886.35
956.643	3881.61
956.948	3828.95
957.252	3851.33
957.556	3829.4
957.86	3787.6
958.163	3804.77
958.467	3802.74
958.771	3752.12
959.075	3764.1
959.378	3721.84
959.682	3717.09
959.985	3711.67
960.289	3682.06
960.592	3652.46
960.896	3622.63
961.199	3632.35
961.502	3648.39
961.805	3602.52
962.108	3573.59
962.411	3601.84
962.714	3530.88
963.017	3529.07
963.32	3524.33
963.623	3542.86
963.926	3519.36
964.228	3480.94
964.531	3459.25
964.833	3442.3
965.136	3409.75
965.438	3413.6
965.741	3381.28
966.043	3391.22
966.345	3362.07
966.648	3385.8
966.95	3365.01
967.252	3354.62
967.554	3343.77
967.856	3309.87
968.158	3267.39
968.46	3282.07
968.761	3262.87
969.063	3235.3
969.365	3235.52
969.666	3251.79
969.968	3194.85
970.269	3184
970.571	3173.15
970.872	3145.81
971.174	3129.54
971.475	3152.36
971.776	3114.4
972.077	3078.46
972.378	3121.85
972.679	3069.42
972.98	3060.39
973.281	3064
973.582	3064.45
973.883	3009.99
974.183	3045.92
974.484	2997.56
974.785	3001.18
975.085	2975.19
975.386	2993.04
975.686	2948.3
975.986	2946.49
976.287	2945.36
976.587	2868.07
976.887	2873.27
977.187	2902.2
977.487	2912.82
977.787	2863.55
978.087	2866.94
978.387	2845.93
978.687	2824.01
978.987	2847.74
979.286	2777.23
979.586	2790.56
979.885	2807.74
980.185	2743.11
980.484	2742.43
980.784	2770.22
981.083	2719.6
981.382	2721.19
981.682	2688.64
981.981	2694.29
982.28	2668.53
982.579	2639.38
982.878	2670.11
983.177	2656.55
983.475	2627.4
983.774	2615.43
984.073	2632.37
984.372	2597.35
984.67	2592.6
984.969	2573.62
985.267	2560.74
985.566	2551.25
985.864	2527.07
986.162	2550.57
986.461	2534.07
986.759	2513.73
987.057	2472.6
987.355	2442.1
987.653	2487.29
987.951	2476.45
988.249	2478.93
988.547	2448.42
988.844	2455.43
989.142	2414.98
989.44	2407.52
989.737	2414.3
990.035	2365.94
990.332	2348.09
990.63	2327.07
990.927	2360.07
991.224	2334.75
991.521	2352.61
991.819	2323.23
992.116	2304.47
992.413	2301.08
992.71	2292.27
993.006	2265.38
993.303	2276.45
993.6	2257.02
993.897	2248.88
994.193	2222.22
994.49	2220.86
994.787	2210.46
995.083	2207.07
995.379	2158.94
995.676	2186.06
995.972	2178.37
996.268	2171.37
996.565	2156.68
996.861	2143.57
997.157	2152.39
997.453	2115.78
997.749	2139.96
998.044	2097.02
998.34	2094.31
998.636	2089.56
998.932	2069.23
999.227	2067.19
999.523	2076.68
999.818	2042.79
1000.114	2007.31
1000.409	1979.06
1000.704	1969.34
1001	1988.32
1001.295	2003.69
1001.59	1982.22
1001.885	2005.95
1002.18	1944.48
1002.475	1919.4
1002.77	1904.94
1003.065	1947.19
1003.359	1947.65
1003.654	1890.7
1003.949	1875.56
1004.243	1864.94
1004.538	1889.57
1004.832	1856.58
1005.127	1846.18
1005.421	1850.7
1005.715	1814.32
1006.009	1836.69
1006.304	1826.75
1006.598	1785.16
1006.892	1801.66
1007.186	1772.51
1007.48	1753.75
1007.773	1757.6
1008.067	1742.68
1008.361	1733.87
1008.655	1758.27
1008.948	1749.23
1009.242	1715.11
1009.535	1698.61
1009.829	1702.46
1010.122	1687.54
1010.415	1658.16
1010.708	1676.02
1011.001	1649.12
1011.295	1650.71
1011.588	1641.44
1011.881	1647.09
1012.173	1619.29
1012.466	1597.83
1012.759	1597.83
1013.052	1590.82
1013.344	1613.42
1013.637	1569.8
1013.93	1579.97
1014.222	1531.16
1014.514	1533.19
1014.807	1553.08
1015.099	1527.54
1015.391	1509.92
1015.683	1532.06
1015.976	1503.82
1016.268	1484.16
1016.56	1473.08
1016.851	1471.95
1017.143	1463.37
1017.435	1461.78
1017.727	1495
1018.018	1424.5
1018.31	1406.42
1018.602	1425.85
1018.893	1432.63
1019.185	1411.16
1019.476	1403.03
1019.767	1408.68
1020.058	1385.4
1020.35	1370.94
1020.641	1375.01
1020.932	1361.45
1021.223	1335.91
1021.514	1341.56
1021.804	1293.88
1022.095	1324.61
1022.386	1300.21
1022.677	1311.28
1022.967	1278.06
1023.258	1309.7
1023.548	1283.71
1023.839	1281.9
1024.129	1281.9
1024.419	1230.83
1024.709	1234.67
1025	1243.94
1025.29	1208.23
1025.58	1226.99
1025.87	1210.72
1026.16	1184.28
1026.449	1210.04
1026.739	1193.77
1027.029	1177.72
1027.319	1181.56
1027.608	1194.45
1027.898	1154.45
1028.187	1150.61
1028.477	1159.42
1028.766	1144.28
1029.055	1148.8
1029.344	1117.84
1029.634	1138.18
1029.923	1093.43
1030.212	1103.6
1030.501	1093.21
1030.79	1109.25
1031.078	1080.55
1031.367	1083.04
1031.656	1080.78
1031.945	1061.79
1032.233	1048.46
1032.522	1065.86
1032.81	1022.7
1033.099	1034.9
1033.387	1039.42
1033.675	1033.77
1033.963	1001.46
1034.251	994.23
1034.54	1015.47
1034.828	990.61
1035.116	1016.37
1035.403	1002.59
1035.691	1000.78
1035.979	995.13
1036.267	990.61
1036.554	955.81
1036.842	955.81
1037.129	967.33
1037.417	954.23
1037.704	934.57
1037.992	942.48
1038.279	925.53
1038.566	932.76
1038.853	932.76
1039.14	932.76
