Data from hue_210_FLMS001491_00037.txt Node
Date: Tue Feb 07 16:41:07 GMT 2017
User: dcchb
Spectrometer: FLMS00149
Trigger mode: 0
Integration Time (sec): 2.000000E-2
Scans to average: 10
Electric dark correction enabled: true
Nonlinearity correction enabled: false
Boxcar width: 0
XAxis mode: Wavelengths
Number of Pixels in Spectrum: 2048
>>>>>Begin Spectral Data<<<<<
341.393	7.81
341.776	7.81
342.16	7.81
342.543	-55.69
342.927	-68.57
343.31	-65.41
343.693	-55.01
344.077	-77.16
344.46	-51.62
344.843	-48.23
345.226	-40.1
345.61	-20.21
345.993	-26.31
346.376	-3.26
346.759	24.31
347.142	22.27
347.525	43.97
347.908	57.98
348.291	65.21
348.674	60.24
349.057	113.34
349.44	124.19
349.823	139.11
350.206	143.4
350.588	193.34
350.971	193.57
351.354	218.2
351.737	231.99
352.119	248.71
352.502	258.43
352.884	255.04
353.267	279.67
353.65	285.54
354.032	280.35
354.414	292.1
354.797	301.14
355.179	306.11
355.562	325.99
355.944	316.05
356.326	340.46
356.709	313.57
357.091	356.5
357.473	363.51
357.855	343.62
358.238	335.49
358.62	318.31
359.002	358.76
359.384	330.97
359.766	325.09
360.148	313.34
360.53	333
360.912	347.46
361.294	309.95
361.676	330.06
362.057	319.44
362.439	327.12
362.821	322.83
363.203	331.87
363.584	322.15
363.966	313.11
364.348	312.21
364.729	318.99
365.111	316.5
365.493	319.21
365.874	303.62
366.256	324.19
366.637	319.21
367.019	294.58
367.4	317.41
367.781	311.76
368.163	327.12
368.544	295.26
368.925	312.89
369.306	300.68
369.688	307.46
370.069	305.66
370.45	325.32
370.831	309.5
371.212	333
371.593	329.61
371.974	295.94
372.355	303.4
372.736	326.45
373.117	309.05
373.498	297.07
373.879	327.8
374.26	302.72
374.641	297.29
375.021	314.02
375.402	327.58
375.783	321.7
376.163	309.72
376.544	326.22
376.925	337.07
377.305	339.1
377.686	326.9
378.066	320.8
378.447	326.22
378.827	331.87
379.208	317.41
379.588	324.64
379.968	310.63
380.349	339.78
380.729	326.45
381.109	343.85
381.489	318.54
381.87	350.63
382.25	357.86
382.63	346.56
383.01	326.45
383.39	340.01
383.77	329.38
384.15	324.41
384.53	324.19
384.91	341.14
385.29	351.08
385.67	334.36
386.049	358.99
386.429	334.36
386.809	354.47
387.189	331.64
387.568	340.91
387.948	356.28
388.328	350.63
388.707	349.04
389.087	362.83
389.466	368.93
389.846	361.93
390.225	359.89
390.605	357.41
390.984	380
391.363	344.98
391.743	373
392.122	355.6
392.501	379.33
392.881	382.26
393.26	375.48
393.639	383.17
394.018	385.65
394.397	386.11
394.776	391.3
395.155	374.35
395.534	399.21
395.913	374.81
396.292	397.63
396.671	385.43
397.05	406.67
397.429	395.14
397.808	408.7
398.186	370.74
398.565	410.06
398.944	414.58
399.323	407.12
399.701	435.6
400.08	429.49
400.458	435.6
400.837	439.66
401.215	424.07
401.594	408.48
401.972	436.73
402.351	447.12
402.729	429.49
403.107	425.2
403.486	430.62
403.864	460.45
404.242	426.78
404.62	429.49
404.999	463.84
405.377	468.82
405.755	466.56
406.133	468.82
406.511	466.56
406.889	476.72
407.267	487.12
407.645	486.89
408.023	485.99
408.401	506.55
408.779	508.36
409.156	513.79
409.534	513.33
409.912	533.22
410.29	541.58
410.667	520.57
411.045	543.84
411.422	574.12
411.8	589.49
412.178	605.76
412.555	604.41
412.933	604.86
413.31	585.42
413.687	601.47
414.065	632.65
414.442	638.53
414.819	657.51
415.197	642.37
415.574	665.87
415.951	657.51
416.328	652.31
416.705	667.45
417.082	694.35
417.46	699.77
417.837	716.72
418.214	700.45
418.591	741.8
418.967	744.29
419.344	756.27
419.721	767.34
420.098	777.51
420.475	785.87
420.852	804.4
421.228	794.46
421.605	826.09
421.982	814.12
422.358	861.12
422.735	870.16
423.111	875.81
423.488	899.99
423.864	891.86
424.241	923.27
424.617	933.66
424.994	949.71
425.37	937.05
425.746	967.11
426.123	969.37
426.499	994.9
426.875	999.2
427.251	1052.08
427.627	1071.74
428.003	1062.25
428.379	1081.68
428.756	1087.1
429.132	1125.75
429.507	1111.06
429.883	1117.61
430.259	1141.79
430.635	1143.15
431.011	1148.12
431.387	1179.31
431.763	1194.9
432.138	1219.3
432.514	1255.91
432.89	1264.73
433.265	1277.16
433.641	1324.39
434.016	1295.69
434.392	1337.49
434.767	1367.55
435.143	1388.34
435.518	1425.85
435.894	1434.44
436.269	1486.19
436.644	1510.6
437.02	1492.74
437.395	1535.91
437.77	1576.36
438.145	1596.92
438.52	1618.62
438.895	1620.65
439.271	1662
439.646	1678.95
440.021	1731.16
440.395	1723.92
440.77	1762.79
441.145	1756.01
441.52	1785.16
441.895	1819.74
442.27	1826.97
442.645	1851.83
443.019	1897.03
443.394	1874.65
443.769	1914.2
444.143	1913.52
444.518	1947.19
444.892	1936.8
445.267	1986.29
445.641	1989.91
446.016	1985.16
446.39	2040.3
446.764	2036.01
447.139	2071.26
447.513	2089.34
447.887	2061.99
448.262	2085.04
448.636	2130.92
449.01	2144.25
449.384	2122.78
449.758	2160.52
450.132	2183.35
450.506	2251.14
450.88	2228.32
451.254	2215.89
451.628	2290.69
452.002	2288.65
452.376	2309.22
452.75	2372.95
453.123	2377.24
453.497	2409.78
453.871	2385.15
454.244	2444.58
454.618	2483.68
454.992	2499.27
455.365	2504.02
455.739	2586.73
456.112	2593.05
456.486	2568.65
456.859	2632.15
457.232	2675.54
457.606	2631.02
457.979	2705.59
458.352	2762.99
458.725	2805.7
459.099	2813.84
459.472	2822.88
459.845	2918.47
460.218	2875.08
460.591	2935.64
460.964	2907.4
461.337	3005.92
461.71	3070.78
462.083	3071.46
462.456	3063.32
462.829	3134.96
463.201	3224.45
463.574	3178.35
463.947	3215.18
464.32	3286.82
464.692	3278.01
465.065	3335.18
465.438	3382.19
465.81	3433.48
466.183	3465.35
466.555	3562.07
466.928	3538.57
467.3	3573.37
467.672	3559.36
468.045	3641.16
468.417	3701.72
468.789	3728.39
469.161	3761.84
469.534	3805.22
469.906	3928.39
470.278	3912.11
470.65	3952.79
471.022	4014.26
471.394	4084.54
471.766	4083.64
472.138	4152.79
472.51	4225.33
472.882	4278.88
473.253	4338.54
473.625	4404.31
473.997	4459.9
474.369	4457.64
474.74	4568.37
475.112	4616.05
475.484	4677.29
475.855	4747.8
476.227	4802.49
476.598	4924.97
476.97	4983.27
477.341	5051.07
477.713	5106.21
478.084	5157.96
478.455	5246.99
478.827	5285.86
479.198	5455.12
479.569	5501.45
479.94	5604.5
480.311	5610.83
480.682	5751.39
481.053	5829.8
481.424	5943.7
481.795	5994.32
482.166	6045.62
482.537	6117.03
482.908	6195.9
483.279	6327.19
483.65	6360.86
484.021	6468.88
484.391	6519.73
484.762	6622.1
485.133	6628.43
485.503	6735.09
485.874	6867.97
486.244	6879.49
486.615	6991.58
486.985	7044.91
487.356	7230.22
487.726	7231.8
488.097	7360.16
488.467	7304.34
488.837	7497.56
489.207	7623.43
489.578	7700.26
489.948	7817.77
490.318	7876.08
490.688	7929.41
491.058	8010.09
491.428	8048.05
491.798	8139.12
492.168	8283.98
492.538	8269.51
492.908	8381.15
493.278	8474.71
493.648	8430.64
494.017	8529.39
494.387	8595.16
494.757	8626.34
495.126	8723.97
495.496	8744.08
495.866	8759.22
496.235	8921.93
496.605	8899.55
496.974	9000.79
497.344	9010.06
497.713	9001.7
498.082	9058.42
498.452	9175.25
498.821	9197.85
499.19	9257.74
499.559	9287.11
499.928	9359.2
500.298	9372.76
500.667	9436.49
501.036	9452.53
501.405	9516.04
501.774	9489.14
502.143	9572.08
502.512	9570.04
502.88	9654.34
503.249	9594.9
503.618	9690.72
503.987	9729.81
504.356	9699.08
504.724	9681
505.093	9794.22
505.462	9813.88
505.83	9836.48
506.199	9894.1
506.567	10023.82
506.936	10031.73
507.304	9993.31
507.672	10043.7
508.041	10062.01
508.409	10064.95
508.777	10157.6
509.145	10179.29
509.514	10197.15
509.882	10238.95
510.25	10191.5
510.618	10266.52
510.986	10250.25
511.354	10313.53
511.722	10358.95
512.09	10375.67
512.458	10336.13
512.826	10417.48
513.193	10466.74
513.561	10435.78
513.929	10465.16
514.297	10602.56
514.664	10581.54
515.032	10562.79
515.4	10660.64
515.767	10579.96
516.135	10686.63
516.502	10550.36
516.869	10756.68
517.237	10664.71
517.604	10636.68
517.972	10743.12
518.339	10701.09
518.706	10771.82
519.073	10685.72
519.44	10737.25
519.808	10800.3
520.175	10762.33
520.542	10788.77
520.909	10820.63
521.276	10801.65
521.643	10829.67
522.009	10849.56
522.376	10899.28
522.743	10854.53
523.11	10939.27
523.477	10963.91
523.843	10983.79
524.21	11114.64
524.577	11081.19
524.943	11109.21
525.31	11056.56
525.676	11040.97
526.043	11173.39
526.409	11119.83
526.776	11146.27
527.142	11111.93
527.508	11140.85
527.874	11179.27
528.241	11139.27
528.607	11151.7
528.973	11223.56
529.339	11171.58
529.705	11182.21
530.071	11157.12
530.437	11252.03
530.803	11285.03
531.169	11247.29
531.535	11181.98
531.901	11143.11
532.267	11153.96
532.632	11166.39
532.998	11174.52
533.364	11178.59
533.73	11068.08
534.095	11130.46
534.461	11130.46
534.826	11089.33
535.192	11065.82
535.557	11066.95
535.923	11019.72
536.288	11056.11
536.653	11038.71
537.019	10943.34
537.384	10935.88
537.749	10941.76
538.114	10926.62
538.479	10861.08
538.845	10893.85
539.21	10765.04
539.575	10828.09
539.94	10843.91
540.305	10833.74
540.67	10758.71
541.034	10699.96
541.399	10709.9
541.764	10764.59
542.129	10699.51
542.494	10596.46
542.858	10579.51
543.223	10578.15
543.587	10553.97
543.952	10547.42
544.316	10474.88
544.681	10440.08
545.045	10444.82
545.41	10463.35
545.774	10468.1
546.138	10396.92
546.503	10369.12
546.867	10284.83
547.231	10370.02
547.595	10301.1
547.959	10205.51
548.324	10251.83
548.688	10210.03
549.052	10164.38
549.416	10120.76
549.779	10038.51
550.143	10013.65
550.507	10079.18
550.871	10010.26
551.235	10019.75
551.599	9977.94
551.962	10052.07
552.326	9967.77
552.689	9912.86
553.053	9872.18
553.417	9852.52
553.78	9902.47
554.143	9822.02
554.507	9819.98
554.87	9820.43
555.234	9817.72
555.597	9758.06
555.96	9760.32
556.323	9840.32
556.686	9697.95
557.05	9703.15
557.413	9708.57
557.776	9716.03
558.139	9712.41
558.502	9591.51
558.865	9706.54
559.228	9684.39
559.59	9676.03
559.953	9648.24
560.316	9698.18
560.679	9661.12
561.041	9746.99
561.404	9701.79
561.767	9732.53
562.129	9590.61
562.492	9722.13
562.854	9746.31
563.217	9733.66
563.579	9669.7
563.941	9721.68
564.304	9719.42
564.666	9727.1
565.028	9767.1
565.39	9712.41
565.753	9782.24
566.115	9798.29
566.477	9714
566.839	9791.73
567.201	9784.95
567.563	9746.99
567.925	9806.2
568.287	9775.69
568.648	9839.64
569.01	9891.84
569.372	9904.27
569.734	9898.4
570.095	9857.72
570.457	9880.77
570.819	9857.5
571.18	9898.17
571.542	9948.57
571.903	9877.83
572.265	10007.1
572.626	9899.3
572.987	9921.22
573.349	9930.26
573.71	9977.49
574.071	9950.37
574.432	10016.13
574.794	10038.51
575.155	10067.66
575.516	10072.4
575.877	10046.19
576.238	10046.42
576.599	10110.37
576.96	10047.77
577.32	10033.76
577.681	10104.49
578.042	10130.93
578.403	10131.61
578.763	10130.48
579.124	10158.5
579.485	10181.33
579.845	10234.21
580.206	10183.59
580.566	10187.2
580.927	10208.9
581.287	10250.48
581.648	10159.18
582.008	10296.81
582.368	10270.82
582.728	10238.73
583.089	10216.36
583.449	10254.77
583.809	10283.02
584.169	10292.06
584.529	10257.71
584.889	10312.62
585.249	10268.11
585.609	10217.49
585.969	10285.73
586.329	10242.12
586.688	10323.47
587.048	10285.73
587.408	10238.73
587.768	10354.66
588.127	10261.55
588.487	10275.79
588.846	10381.1
589.206	10259.52
589.565	10292.96
589.925	10356.92
590.284	10304.26
590.643	10325.05
591.003	10292.06
591.362	10365.96
591.721	10377.03
592.08	10356.92
592.44	10380.87
592.799	10335.22
593.158	10386.07
593.517	10382
593.876	10401.66
594.235	10365.96
594.593	10392.17
594.952	10309.23
595.311	10320.31
595.67	10353.53
596.029	10392.62
596.387	10394.2
596.746	10421.1
597.104	10356.46
597.463	10311.49
597.822	10398.05
598.18	10377.03
598.538	10382.9
598.897	10448.67
599.255	10269.69
599.613	10504.94
599.972	10382.23
600.33	10439.4
600.688	10326.18
601.046	10414.32
601.404	10450.93
601.762	10435.78
602.12	10525.05
602.478	10453.19
602.836	10422.9
603.194	10424.94
603.552	10463.13
603.91	10431.04
604.268	10440.08
604.625	10382.68
604.983	10433.07
605.341	10419.97
605.698	10464.71
606.056	10451.83
606.413	10431.72
606.771	10508.55
607.128	10501.09
607.485	10445.73
607.843	10394.66
608.2	10454.54
608.557	10470.36
608.914	10526.63
609.272	10554.88
609.629	10530.92
609.986	10576.8
610.343	10480.98
610.7	10596.46
611.057	10611.37
611.414	10600.75
611.771	10631.49
612.127	10576.57
612.484	10537.03
612.841	10613.63
613.198	10577.02
613.554	10675.1
613.911	10646.63
614.267	10682.56
614.624	10606.18
614.98	10594.88
615.337	10689.34
615.693	10677.13
616.05	10647.76
616.406	10655.21
616.762	10637.36
617.118	10649.11
617.475	10652.73
617.831	10656.34
618.187	10700.86
618.543	10690.69
618.899	10693.63
619.255	10760.75
619.611	10819.28
619.967	10789.22
620.323	10817.24
620.678	10749.67
621.034	10713.29
621.39	10723.01
621.746	10616.12
622.101	10797.13
622.457	10669.23
622.812	10777.7
623.168	10738.6
623.523	10791.93
623.879	10875.55
624.234	10690.47
624.589	10720.07
624.945	10744.48
625.3	10703.12
625.655	10743.12
626.01	10713.97
626.365	10714.65
626.72	10737.02
627.075	10694.08
627.43	10623.58
627.785	10697.25
628.14	10731.82
628.495	10744.48
628.85	10695.67
629.205	10685.04
629.559	10731.14
629.914	10637.14
630.269	10710.58
630.623	10688.21
630.978	10638.04
631.332	10704.03
631.687	10689.11
632.041	10572.05
632.396	10676.68
632.75	10679.85
633.104	10602.56
633.459	10542.9
633.813	10533.64
634.167	10554.43
634.521	10584.71
634.875	10554.65
635.229	10480.76
635.583	10468.78
635.937	10514.65
636.291	10416.58
636.645	10419.74
636.999	10450.47
637.352	10527.76
637.706	10385.84
638.06	10332.06
638.413	10399.18
638.767	10388.78
639.121	10413.86
639.474	10281.21
639.828	10311.04
640.181	10360.98
640.534	10324.83
640.888	10331.15
641.241	10217.49
641.594	10275.56
641.947	10353.75
642.301	10285.05
642.654	10234.43
643.007	10279.4
643.36	10238.5
643.713	10269.24
644.066	10243.7
644.419	10242.57
644.771	10256.81
645.124	10068.34
645.477	10062.46
645.83	9974.78
646.182	9935.23
646.535	9938.4
646.888	9889.36
647.24	9837.83
647.593	9915.57
647.945	9833.77
648.298	9870.6
648.65	9831.28
649.002	9866.99
649.355	9902.47
649.707	9919.19
650.059	10010.71
650.411	10033.99
650.763	10087.09
651.115	10057.04
651.467	10099.07
651.819	10029.47
652.171	10088.22
652.523	10171.16
652.875	10096.36
653.227	10039.19
653.578	10042.12
653.93	10109.24
654.282	10049.13
654.633	10028.56
654.985	10013.88
655.337	10050.03
655.688	10053.87
656.039	10057.72
656.391	10007.55
656.742	10051.84
657.094	10107.43
657.445	10093.42
657.796	10020.43
658.147	10074.66
658.498	9990.82
658.849	10021.11
659.2	10052.52
659.551	10050.03
659.902	10142.91
660.253	10064.5
660.604	10118.96
660.955	10078.96
661.306	10146.75
661.656	10105.17
662.007	10063.37
662.358	10106.75
662.708	10109.92
663.059	10098.17
663.409	10040.77
663.76	10075.57
664.11	10173.19
664.461	10170.26
664.811	10149.69
665.161	10102.23
665.511	10128.67
665.862	10192.4
666.212	10158.73
666.562	10158.5
666.912	10145.17
667.262	10105.4
667.612	10097.94
667.962	10184.72
668.312	10129.13
668.662	10192.4
669.011	10109.47
669.361	10067.66
669.711	10099.75
670.06	10083.93
670.41	10074.89
670.76	10015.01
671.109	10063.82
671.459	10092.29
671.808	10040.77
672.157	10158.5
672.507	9995.12
672.856	10048.9
673.205	10071.05
673.554	10038.28
673.904	10038.96
674.253	10076.02
674.602	10022.46
674.951	9910.6
675.3	9799.42
675.649	10007.55
675.998	9941.56
676.346	10003.71
676.695	9988.57
677.044	9941.33
677.393	9912.41
677.741	9943.82
678.09	9926.42
678.438	9936.14
678.787	9995.8
679.135	9941.56
679.484	9797.61
679.832	9977.72
680.181	9780.89
680.529	9829.7
680.877	9821.79
681.225	9735.46
681.573	9842.35
681.922	9715.35
682.27	9713.09
682.618	9776.37
682.966	9648.46
683.314	9704.96
683.661	9647.33
684.009	9607.78
684.357	9637.16
684.705	9582.7
685.053	9583.38
685.4	9584.73
685.748	9510.16
686.095	9449.82
686.443	9478.97
686.79	9419.99
687.138	9509.93
687.485	9465.87
687.832	9425.42
688.18	9400.78
688.527	9327.57
688.874	9329.6
689.221	9356.49
689.568	9314.23
689.915	9249.6
690.262	9259.32
690.609	9203.73
690.956	9155.82
691.303	9195.82
691.65	9115.14
691.997	9108.36
692.344	9027.91
692.69	9035.14
693.037	9031.98
693.383	8926.9
693.73	8958.08
694.077	8930.74
694.423	8891.64
694.769	8790.18
695.116	8859.33
695.462	8756.28
695.808	8810.74
696.155	8746.79
696.501	8663.63
696.847	8702.05
697.193	8666.11
697.539	8659.11
697.885	8598.55
698.231	8574.36
698.577	8597.42
698.923	8470.41
699.269	8480.13
699.614	8419.57
699.96	8417.53
700.306	8437.65
700.651	8309.29
700.997	8288.72
701.342	8305.45
701.688	8344.54
702.033	8258.67
702.379	8220.02
702.724	8203.08
703.069	8221.83
703.415	8070.88
703.76	8164.21
704.105	8114.94
704.45	8101.61
704.795	8044.21
705.14	8000.14
705.485	7987.94
705.83	7919.69
706.175	7961.05
706.52	7876.53
706.865	7895.96
707.209	7796.08
707.554	7799.02
707.899	7831.56
708.243	7780.04
708.588	7723.09
708.932	7689.87
709.277	7691
709.621	7731.45
709.966	7675.18
710.31	7666.59
710.654	7566.48
710.998	7613.26
711.342	7554.5
711.687	7583.2
712.031	7501.17
712.375	7462.08
712.719	7547.27
713.063	7444.45
713.407	7488.29
713.75	7454.39
714.094	7482.42
714.438	7396.54
714.782	7481.29
715.125	7420.05
715.469	7404.68
715.812	7337.34
716.156	7362.87
716.499	7307.51
716.843	7379.14
717.186	7302.08
717.53	7324.68
717.873	7325.81
718.216	7385.02
718.559	7273.83
718.902	7316.32
719.246	7211.01
719.589	7274.29
719.932	7212.59
720.275	7260.5
720.617	7208.07
720.96	7203.33
721.303	7148.41
721.646	7200.16
721.989	7167.17
722.331	7185.47
722.674	7092.14
723.016	7165.36
723.359	7169.66
723.701	7162.88
724.044	7111.13
724.386	7096.44
724.729	7151.13
725.071	7143.22
725.413	7139.6
725.755	7094.18
726.097	7064.8
726.439	7004.91
726.782	6999.94
727.124	7067.74
727.465	7033.61
727.807	7021.86
728.149	7034.07
728.491	7053.05
728.833	7064.57
729.175	7035.42
729.516	7030.68
729.858	7021.64
730.199	7023.45
730.541	7013.5
730.882	7001.3
731.224	7039.04
731.565	6965.14
731.906	6987.29
732.248	7037.91
732.589	7017.12
732.93	6945.03
733.271	6974.18
733.612	7034.52
733.953	6993.62
734.294	6968.53
734.635	6964.01
734.976	7005.14
735.317	6996.55
735.658	6976.67
735.999	6985.93
736.339	6997.01
736.68	7063.67
737.021	6987.06
737.361	6980.96
737.702	7031.81
738.042	7025.71
738.383	6976.89
738.723	7030.45
739.063	6994.52
739.404	7069.55
739.744	7077
740.084	7024.8
740.424	7135.76
740.764	7067.29
741.104	7119.49
741.444	7145.25
741.784	7087.4
742.124	7156.78
742.464	7081.52
742.804	7156.78
743.143	7192.93
743.483	7171.01
743.823	7188.41
744.162	7167.85
744.502	7309.31
744.841	7240.61
745.181	7312.93
745.52	7270.44
745.86	7350.22
746.199	7375.07
746.538	7414.4
746.877	7469.08
747.216	7503.43
747.556	7579.36
747.895	7579.14
748.234	7624.33
748.573	7748.17
748.911	7752.47
749.25	7875.63
749.589	7898.22
749.928	8002.4
750.267	7975.96
750.605	8014.61
750.944	8133.92
751.283	8161.04
751.621	8213.24
751.96	8293.47
752.298	8394.48
752.636	8498.21
752.975	8625.21
753.313	8633.12
753.651	8783.62
753.989	8950.85
754.327	8917.63
754.666	9062.26
755.004	9189.72
755.342	9391.97
755.679	9449.82
756.017	9537.05
756.355	9723.26
756.693	9795.8
757.031	10033.08
757.368	10108.56
757.706	10223.81
758.044	10337.48
758.381	10561.43
758.719	10711.26
759.056	10807.98
759.394	10957.81
759.731	11127.07
760.068	11294.75
760.405	11377.23
760.743	11545.81
761.08	11841.17
761.417	11946.03
761.754	12108.74
762.091	12348.73
762.428	12475.28
762.765	12638.89
763.102	12857.19
763.438	12939.45
763.775	13149.84
764.112	13293.79
764.449	13530.62
764.785	13705.53
765.122	13807.9
765.458	13974.45
765.795	14216.02
766.131	14257.38
766.467	14457.37
766.804	14576.69
767.14	14645.39
767.476	14904.82
767.812	14971.26
768.148	15159.5
768.485	15323.34
768.821	15357.92
769.157	15606.04
769.492	15651.47
769.828	15813.27
770.164	15898.24
770.5	15932.59
770.836	16117.9
771.171	16309.3
771.507	16460.03
771.842	16413.48
772.178	16614.83
772.513	16663.64
772.849	16787.71
773.184	16826.35
773.519	16980.47
773.855	16933.47
774.19	17044.88
774.525	17058.66
774.86	17266.34
775.195	17237.41
775.53	17332.1
775.865	17449.39
776.2	17373.23
776.535	17440.35
776.87	17549.27
777.205	17543.17
777.539	17599.21
777.874	17844.4
778.209	17712.88
778.543	17683.28
778.878	17795.14
779.212	17873.33
779.547	17789.72
779.881	17975.25
780.215	17947.45
780.55	18068.58
780.884	18013.44
781.218	17940.45
781.552	18069.71
781.886	17988.58
782.22	17995.59
782.554	17983.16
782.888	18026.09
783.222	17939.32
783.556	18036.26
783.889	17878.08
784.223	17961.91
784.557	17876.04
784.89	18005.08
785.224	18020.22
785.557	18037.62
785.891	17954.23
786.224	17939.77
786.558	18000.33
786.891	17906.55
787.224	17887.11
787.557	17839.43
787.891	17889.15
788.224	17808.02
788.557	17920.11
788.89	17897.96
789.223	17818.64
789.556	17786.1
789.888	17875.36
790.221	17735.03
790.554	17687.8
790.887	17742.49
791.219	17622.26
791.552	17508.14
791.884	17539.1
792.217	17548.82
792.549	17492.77
792.882	17430.63
793.214	17432.89
793.546	17434.02
793.879	17405.32
794.211	17374.13
794.543	17377.75
794.875	17399.22
795.207	17421.59
795.539	17321.48
795.871	17311.76
796.203	17111.54
796.535	17126
796.867	17106.12
797.198	17042.16
797.53	17063.86
797.862	16952.45
798.193	17046.68
798.525	16984.99
798.856	16927.14
799.188	16820.25
799.519	16798.78
799.85	16680.59
800.182	16805.33
800.513	16816.41
800.844	16544.55
801.175	16635.85
801.506	16636.3
801.837	16679.01
802.168	16530.31
802.499	16497.55
802.83	16508.17
803.161	16415.06
803.491	16380.94
803.822	16426.36
804.153	16421.16
804.483	16258.68
804.814	16215.29
805.145	16242.19
805.475	16268.4
805.805	16199.48
806.136	16111.12
806.466	16166.71
806.796	16121.51
807.126	16041.29
807.457	15946.6
807.787	15984.57
808.117	15884.68
808.447	15853.04
808.777	15866.38
809.107	15912.48
809.436	15758.81
809.766	15727.85
810.096	15725.14
810.426	15731.01
810.755	15682.2
811.085	15671.81
811.414	15652.6
811.744	15493.51
812.073	15545.26
812.403	15575.54
812.732	15423.45
813.061	15480.17
813.39	15273.62
813.719	15412.83
814.049	15396.78
814.378	15418.93
814.707	15299.84
815.036	15320.63
815.365	15230.91
815.693	15071.14
816.022	15206.96
816.351	15106.17
816.68	14960.19
817.008	15049.22
817.337	14979.62
817.665	15001.31
817.994	14943.24
818.322	14956.8
818.651	14848.55
818.979	14830.02
819.307	14950.02
819.636	14922.22
819.964	14736.24
820.292	14852.39
820.62	14811.26
820.948	14787.53
821.276	14769
821.604	14811.49
821.932	14846.06
822.259	14844.03
822.587	14785.95
822.915	14788.66
823.243	14725.16
823.57	14771.94
823.898	14743.24
824.225	14716.8
824.553	14757.48
824.88	14866.4
825.207	14858.04
825.535	14800.19
825.862	14860.08
826.189	14753.19
826.516	14846.52
826.843	14831.15
827.17	14829.57
827.497	14941.43
827.824	14909.57
828.151	14843.13
828.478	14786.63
828.805	14836.35
829.131	14852.62
829.458	14751.6
829.785	14802
830.111	14876.35
830.438	14827.99
830.764	14775.56
831.09	14848.55
831.417	14707.99
831.743	14828.44
832.069	14797.03
832.395	14726.07
832.722	14811.94
833.048	14660.76
833.374	14701.89
833.7	14584.15
834.026	14716.8
834.351	14787.31
834.677	14672.51
835.003	14759.97
835.329	14776.46
835.654	14686.75
835.98	14600.65
836.306	14590.7
836.631	14623.92
836.956	14679.74
837.282	14643.81
837.607	14598.39
837.932	14539.86
838.258	14582.79
838.583	14514.55
838.908	14399.97
839.233	14420.76
839.558	14434.32
839.883	14382.12
840.208	14367.66
840.533	14362.24
840.858	14312.75
841.182	14274.78
841.507	14294.21
841.832	14254.22
842.156	14212.63
842.481	14160.43
842.805	14115.01
843.13	14123.15
843.454	14169.02
843.778	14069.14
844.103	13930.38
844.427	13989.82
844.751	13954.11
845.075	13961.34
845.399	13862.14
845.723	13848.35
846.047	13830.72
846.371	13744.4
846.695	13824.85
847.019	13612.42
847.343	13640.9
847.666	13484.97
847.99	13465.54
848.313	13441.58
848.637	13331.3
848.96	13319.55
849.284	13265.32
849.607	13268.25
849.931	13207.24
850.254	13100.57
850.577	13022.38
850.9	12944.42
851.223	12936.74
851.546	12915.49
851.869	12811.54
852.192	12886.57
852.515	12667.36
852.838	12692
853.161	12728.61
853.483	12613.58
853.806	12568.61
854.129	12560.02
854.451	12486.35
854.774	12438.44
855.096	12310.09
855.419	12404.09
855.741	12381.5
856.063	12292.01
856.385	12224.66
856.708	12198.22
857.03	12211.78
857.352	12181.05
857.674	12128.4
857.996	12097.89
858.318	11990.32
858.64	11995.29
858.961	11971.11
859.283	11975.18
859.605	11812.92
859.926	11890.44
860.248	11867.84
860.57	11760.95
860.891	11871.68
861.212	11758.69
861.534	11680.72
861.855	11716.2
862.176	11650.22
862.498	11658.8
862.819	11692.7
863.14	11611.8
863.461	11554.4
863.782	11557.34
864.103	11570.9
864.424	11495.87
864.745	11557.79
865.065	11445.02
865.386	11447.74
865.707	11355.31
866.027	11358.92
866.348	11436.66
866.668	11434.4
866.989	11357.12
867.309	11310.56
867.63	11345.14
867.95	11374.29
868.27	11181.75
868.59	11249.1
868.91	11251.13
869.23	11257.46
869.55	11253.16
869.87	11182.88
870.19	11115.09
870.51	11182.88
870.83	11254.52
871.15	11086.84
871.469	11162.32
871.789	11132.26
872.109	11100.85
872.428	11013.62
872.748	11062.66
873.067	11007.75
873.386	11094.52
873.706	11091.59
874.025	10923.46
874.344	10934.75
874.663	10948.99
874.982	10875.1
875.301	10935.21
875.62	10911.48
875.939	10897.47
876.258	10836.9
876.577	10766.62
876.896	10845.72
877.214	10774.76
877.533	10777.24
877.852	10793.52
878.17	10725.27
878.489	10758.71
878.807	10757.36
879.125	10658.15
879.444	10664.93
879.762	10673.97
880.08	10644.59
880.398	10588.1
880.716	10630.13
881.034	10547.19
881.352	10569.79
881.67	10504.71
881.988	10544.26
882.306	10465.16
882.624	10497.25
882.941	10371.38
883.259	10377.71
883.577	10365.96
883.894	10350.14
884.212	10304.04
884.529	10319.4
884.846	10318.5
885.164	10241.21
885.481	10198.05
885.798	10232.85
886.115	10167.54
886.432	10116.47
886.75	10091.16
887.067	10166.87
887.383	10058.39
887.7	10050.26
888.017	10048.22
888.334	10080.31
888.651	9975.46
888.967	9985.4
889.284	9887.78
889.6	9913.09
889.917	9836.7
890.233	9823.15
890.55	9806.87
890.866	9767.33
891.182	9709.48
891.498	9775.46
891.815	9699.53
892.131	9683.26
892.447	9621.12
892.763	9603.94
893.079	9599.2
893.395	9579.54
893.71	9557.39
894.026	9453.89
894.342	9459.77
894.657	9463.83
894.973	9391.07
895.289	9453.89
895.604	9387
895.92	9295.48
896.235	9293.22
896.55	9218.64
896.865	9266.1
897.181	9183.39
897.496	9157.17
897.811	9088.25
898.126	9125.76
898.441	9088.25
898.756	9022.49
899.071	8987.24
899.386	9004.18
899.7	8856.84
900.015	8926.22
900.33	8793.79
900.644	8818.65
900.959	8783.62
901.273	8811.42
901.588	8795.15
901.902	8704.76
902.216	8669.05
902.531	8620.69
902.845	8673.8
903.159	8498.89
903.473	8538.66
903.787	8542.05
904.101	8458.89
904.415	8428.61
904.729	8426.57
905.042	8380.02
905.356	8361.94
905.67	8369.62
905.984	8321.26
906.297	8307.48
906.611	8237.65
906.924	8240.59
907.237	8247.14
907.551	8140.48
907.864	8094.83
908.177	8097.77
908.491	8032.68
908.804	8026.13
909.117	7939.13
909.43	7968.51
909.743	7853.03
910.056	7871.56
910.368	7837.21
910.681	7764.44
910.994	7801.5
911.307	7788.4
911.619	7701.62
911.932	7744.56
912.244	7642.41
912.557	7620.04
912.869	7488.52
913.181	7532.13
913.494	7502.98
913.806	7503.21
914.118	7453.49
914.43	7443.32
914.742	7471.57
915.054	7327.84
915.366	7345.02
915.678	7337.11
915.99	7304.12
916.302	7192.48
916.613	7151.35
916.925	7232.48
917.236	7207.62
917.548	7132.82
917.859	7065.03
918.171	7050.56
918.482	7054.63
918.794	7038.36
919.105	7016.21
919.416	6984.35
919.727	6959.49
920.038	6928.98
920.349	6845.82
920.66	6884.47
920.971	6830.46
921.282	6814.64
921.593	6774.41
921.903	6712.49
922.214	6723.11
922.525	6659.84
922.835	6661.19
923.146	6676.11
923.456	6635.21
923.767	6561.76
924.077	6539.16
924.387	6518.6
924.697	6465.49
925.008	6406.74
925.318	6413.29
925.628	6428.21
925.938	6373.97
926.248	6374.2
926.558	6319.51
926.867	6326.97
927.177	6291.49
927.487	6246.97
927.796	6232.51
928.106	6194.99
928.416	6199.29
928.725	6108.67
929.034	6128.33
929.344	6105.28
929.653	6091.27
929.962	6064.83
930.271	5996.35
930.581	5934.21
930.89	6000.65
931.199	5920.65
931.508	5875.45
931.817	5876.36
932.125	5883.59
932.434	5862.57
932.743	5859.86
933.051	5785.74
933.36	5758.62
933.669	5719.52
933.977	5682.92
934.286	5708
934.594	5676.14
934.902	5637.04
935.21	5636.14
935.519	5637.72
935.827	5613.54
936.135	5569.02
936.443	5524.05
936.751	5517.72
937.059	5483.15
937.367	5468.91
937.674	5473.66
937.982	5474.79
938.29	5394.11
938.597	5405.41
938.905	5363.38
939.213	5314.34
939.52	5321.57
939.827	5344.62
940.135	5277.95
940.442	5258.29
940.749	5214.91
941.056	5235.92
941.363	5208.35
941.67	5155.7
941.977	5160.9
942.284	5137.85
942.591	5073.21
942.898	5064.85
943.205	5054.91
943.511	5052.42
943.818	5035.25
944.125	4979.66
944.431	4937.85
944.738	4949.6
945.044	4922.48
945.35	4872.99
945.657	4889.04
945.963	4828.47
946.269	4828.47
946.575	4817.63
946.881	4757.52
947.187	4775.82
947.493	4749.61
947.799	4760.45
948.105	4706.44
948.41	4751.87
948.716	4683.17
949.022	4656.05
949.327	4648.59
949.633	4560.01
949.938	4615.15
950.244	4604.07
950.549	4546
950.854	4523.4
951.16	4512.55
951.465	4478.2
951.77	4495.38
952.075	4436.62
952.38	4431.42
952.685	4417.86
952.99	4430.29
953.294	4414.25
953.599	4378.09
953.904	4324.08
954.209	4360.24
954.513	4298.77
954.818	4283.4
955.122	4294.93
955.426	4231.65
955.731	4274.82
956.035	4235.04
956.339	4205.67
956.643	4167.7
956.948	4163.63
957.252	4157.08
957.556	4149.85
957.86	4118.89
958.163	4061.72
958.467	4094.26
958.771	4117.31
959.075	4111.66
959.378	4011.77
959.682	3969.97
959.985	3968.61
960.289	3964.54
960.592	3953.7
960.896	3958.44
961.199	3970.64
961.502	3871.89
961.805	3908.27
962.108	3853.59
962.411	3860.14
962.714	3824.66
963.017	3848.16
963.32	3785.56
963.623	3807.26
963.926	3814.72
964.228	3736.53
964.531	3765.68
964.833	3725
965.136	3691.1
965.438	3655.17
965.741	3650.65
966.043	3665.57
966.345	3651.33
966.648	3622.63
966.95	3608.17
967.252	3582.63
967.554	3606.81
967.856	3567.94
968.158	3495.4
968.46	3574.04
968.761	3478.68
969.063	3490.43
969.365	3504.89
969.666	3457.89
969.968	3474.61
970.269	3439.58
970.571	3410.43
970.872	3410.66
971.174	3420.38
971.475	3384.9
971.776	3382.19
972.077	3363.65
972.378	3282.75
972.679	3327.5
972.98	3324.33
973.281	3324.11
973.582	3324.11
973.883	3302.41
974.183	3287.5
974.484	3265.35
974.785	3289.76
975.085	3218.57
975.386	3244.34
975.686	3212.02
975.986	3189.42
976.287	3175.86
976.587	3114.4
976.887	3162.53
977.187	3132.47
977.487	3128.18
977.787	3058.58
978.087	3057.67
978.387	3079.59
978.687	3043.66
978.987	3005.47
979.286	3038.47
979.586	2999.6
979.885	2978.13
980.185	2994.4
980.484	2944.23
980.784	2928.19
981.083	2936.32
981.382	2915.98
981.682	2933.38
981.981	2933.84
982.28	2929.99
982.579	2870.11
982.878	2875.98
983.177	2878.02
983.475	2865.14
983.774	2841.41
984.073	2791.47
984.372	2822.88
984.67	2759.83
984.969	2766.16
985.267	2747.85
985.566	2775.2
985.864	2725.25
986.162	2709.66
986.461	2724.58
986.759	2704.24
987.057	2654.52
987.355	2671.24
987.653	2654.07
987.951	2660.85
988.249	2619.72
988.547	2654.07
988.844	2626.27
989.142	2594.18
989.44	2598.7
989.737	2581.53
990.035	2611.81
990.332	2543.34
990.63	2520.29
990.927	2527.07
991.224	2537.91
991.521	2526.84
991.819	2524.58
992.116	2492.04
992.413	2493.17
992.71	2441.64
993.006	2455.88
993.303	2457.01
993.6	2406.62
993.897	2404.81
994.193	2403.91
994.49	2402.55
994.787	2351.48
995.083	2384.47
995.379	2355.77
995.676	2358.94
995.972	2342.66
996.268	2304.02
996.565	2321.2
996.861	2309.22
997.157	2327.3
997.453	2281.2
997.749	2272.38
998.044	2271.25
998.34	2260.86
998.636	2213.4
998.932	2202.1
999.227	2210.69
999.523	2173.86
999.818	2175.66
1000.114	2158.26
1000.409	2139.96
1000.704	2140.18
1001	2134.08
1001.295	2112.39
1001.59	2107.42
1001.885	2110.35
1002.18	2089.56
1002.475	2107.19
1002.77	2076
1003.065	2067.42
1003.359	2061.77
1003.654	2026.29
1003.949	2033.07
1004.243	2015.44
1004.538	1984.03
1004.832	1973.63
1005.127	1969.79
1005.421	1980.41
1005.715	1957.36
1006.009	1949.91
1006.304	1924.6
1006.598	1932.05
1006.892	1912.62
1007.186	1852.28
1007.48	1889.34
1007.773	1913.52
1008.067	1887.99
1008.361	1861.77
1008.655	1839.17
1008.948	1848.21
1009.242	1845.28
1009.535	1807.31
1009.829	1785.84
1010.122	1802.34
1010.415	1783.81
1010.708	1779.06
1011.001	1738.84
1011.295	1740.19
1011.588	1742.23
1011.881	1746.75
1012.173	1756.69
1012.466	1697.03
1012.759	1695.9
1013.052	1702.46
1013.344	1666.07
1013.637	1705.17
1013.93	1683.7
1014.222	1635.56
1014.514	1655.45
1014.807	1615.23
1015.099	1610.03
1015.391	1605.73
1015.683	1618.62
1015.976	1591.95
1016.268	1568.67
1016.56	1583.59
1016.851	1565.96
1017.143	1564.61
1017.435	1535.45
1017.727	1519.18
1018.018	1523.25
1018.31	1510.6
1018.602	1491.61
1018.893	1523.02
1019.185	1491.61
1019.476	1515.79
1019.767	1473.99
1020.058	1462.69
1020.35	1452.74
1020.641	1451.84
1020.932	1442.12
1021.223	1398.51
1021.514	1418.39
1021.804	1404.61
1022.095	1393.99
1022.386	1400.99
1022.677	1416.81
1022.967	1354.22
1023.258	1352.41
1023.548	1317.38
1023.839	1339.3
1024.129	1338.85
1024.419	1321.22
1024.709	1312.41
1025	1328.68
1025.29	1295.46
1025.58	1289.81
1025.87	1301.79
1026.16	1279.64
1026.449	1269.47
1026.739	1259.76
1027.029	1246.42
1027.319	1195.58
1027.608	1237.83
1027.898	1219.3
1028.187	1210.26
1028.477	1219.76
1028.766	1183.82
1029.055	1194.45
1029.344	1195.35
1029.634	1172.98
1029.923	1164.16
1030.212	1164.62
1030.501	1154.22
1030.79	1156.25
1031.078	1166.2
1031.367	1131.85
1031.656	1125.75
1031.945	1118.97
1032.233	1142.24
1032.522	1110.38
1032.81	1107.67
1033.099	1101.79
1033.387	1110.15
1033.675	1098.4
1033.963	1078.52
1034.251	1061.57
1034.54	1068.12
1034.828	1031.29
1035.116	1058.63
1035.403	1055.24
1035.691	1049.37
1035.979	1043.94
1036.267	1009.59
1036.554	1033.09
1036.842	1017.05
1037.129	1008.46
1037.417	1003.94
1037.704	979.08
1037.992	991.29
1038.279	978.63
1038.566	984.28
1038.853	984.28
1039.14	984.28
