Data from hue_220_FLMS001491_00032.txt Node
Date: Tue Feb 07 16:39:22 GMT 2017
User: dcchb
Spectrometer: FLMS00149
Trigger mode: 0
Integration Time (sec): 2.000000E-2
Scans to average: 10
Electric dark correction enabled: true
Nonlinearity correction enabled: false
Boxcar width: 0
XAxis mode: Wavelengths
Number of Pixels in Spectrum: 2048
>>>>>Begin Spectral Data<<<<<
341.393	-5.08
341.776	-5.08
342.16	-5.08
342.543	-56.38
342.927	-83.27
343.31	-69.49
343.693	-56.61
344.077	-69.04
344.46	-52.32
344.843	-54.8
345.226	-43.5
345.61	-43.05
345.993	-19.32
346.376	-12.99
346.759	14.58
347.142	14.58
347.525	47.34
347.908	54.57
348.291	81.92
348.674	86.44
349.057	121.69
349.44	131.63
349.823	138.64
350.206	160.33
350.588	184.29
350.971	187.68
351.354	208.47
351.737	225.87
352.119	239.65
352.502	251.41
352.884	257.06
353.267	281.46
353.65	288.02
354.032	283.95
354.414	273.55
354.797	316.04
355.179	320.56
355.562	326.21
355.944	320.1
356.326	314.23
356.709	330.27
357.091	327.79
357.473	312.42
357.855	321.69
358.238	335.47
358.62	353.55
359.002	353.1
359.384	339.54
359.766	315.58
360.148	300.9
360.53	325.3
360.912	330.73
361.294	324.85
361.676	317.84
362.057	304.06
362.439	324.17
362.821	293.44
363.203	303.16
363.584	318.52
363.966	317.84
364.348	324.4
364.729	319.43
365.111	322.59
365.493	296.83
365.874	315.81
366.256	307.68
366.637	303.61
367.019	308.13
367.4	295.25
367.781	315.81
368.163	318.52
368.544	303.38
368.925	309.26
369.306	311.97
369.688	298.18
370.069	294.79
370.45	299.99
370.831	311.07
371.212	314.46
371.593	300.44
371.974	309.71
372.355	308.58
372.736	318.07
373.117	315.81
373.498	304.29
373.879	295.92
374.26	319.43
374.641	303.61
375.021	309.03
375.402	294.57
375.783	293.89
376.163	298.64
376.544	328.92
376.925	297.73
377.305	306.09
377.686	333.21
378.066	310.16
378.447	331.18
378.827	327.79
379.208	325.08
379.588	303.38
379.968	309.03
380.349	330.73
380.729	320.78
381.109	320.78
381.489	325.53
381.87	321.01
382.25	342.48
382.63	341.12
383.01	334.57
383.39	315.36
383.77	330.73
384.15	305.64
384.53	335.7
384.91	337.96
385.29	316.49
385.67	342.7
386.049	331.4
386.429	337.73
386.809	341.8
387.189	334.34
387.568	356.94
387.948	338.64
388.328	348.58
388.707	353.55
389.087	342.25
389.466	360.1
389.846	369.82
390.225	350.84
390.605	354.23
390.984	361.23
391.363	344.28
391.743	366.88
392.122	370.95
392.501	342.93
392.881	366.43
393.26	378.18
393.639	347.9
394.018	378.41
394.397	371.18
394.776	379.99
395.155	373.21
395.534	374.79
395.913	389.26
396.292	376.37
396.671	361.69
397.05	371.18
397.429	371.4
397.808	393.32
398.186	390.84
398.565	361.91
398.944	399.42
399.323	386.32
399.701	396.49
400.08	409.82
400.458	395.13
400.837	403.04
401.215	403.04
401.594	384.96
401.972	402.14
402.351	419.99
402.729	432.64
403.107	412.53
403.486	423.15
403.864	405.3
404.242	423.6
404.62	427.45
404.999	412.98
405.377	428.35
405.755	455.47
406.133	432.87
406.511	424.96
406.889	455.92
407.267	464.73
407.645	465.86
408.023	465.19
408.401	454.11
408.779	495.47
409.156	465.19
409.534	474.9
409.912	516.71
410.29	504.73
410.667	499.53
411.045	519.42
411.422	509.7
411.8	522.81
412.178	532.98
412.555	545.64
412.933	537.5
413.31	560.32
413.687	579.98
414.065	539.53
414.442	568.91
414.819	603.49
415.197	615.01
415.574	590.83
415.951	589.48
416.328	605.75
416.705	606.2
417.082	616.14
417.46	647.1
417.837	660.21
418.214	623.15
418.591	656.37
418.967	663.6
419.344	664.28
419.721	702.69
420.098	677.16
420.475	681.45
420.852	701.56
421.228	717.83
421.605	721
421.982	759.19
422.358	754.9
422.735	761.45
423.111	773.65
423.488	765.97
423.864	792.86
424.241	809.81
424.617	833.54
424.994	844.16
425.37	842.35
425.746	863.37
426.123	866.08
426.499	863.82
426.875	862.46
427.251	898.62
427.627	920.99
428.003	937.49
428.379	937.72
428.756	936.81
429.132	937.49
429.507	972.06
429.883	951.5
430.259	1025.62
430.635	998.73
431.011	1013.42
431.387	1031.72
431.763	1046.41
432.138	1050.48
432.514	1064.72
432.89	1067.66
433.265	1093.42
433.641	1120.76
434.016	1132.51
434.392	1151.27
434.767	1186.97
435.143	1188.56
435.518	1214.77
435.894	1223.58
436.269	1256.35
436.644	1272.85
437.02	1283.47
437.395	1281.21
437.77	1321.89
438.145	1382.22
438.52	1393.3
438.895	1379.29
439.271	1399.17
439.646	1450.02
440.021	1460.41
440.395	1454.76
440.77	1471.03
441.145	1489.57
441.52	1518.94
441.895	1545.16
442.27	1553.52
442.645	1561.88
443.019	1578.38
443.394	1590.35
443.769	1599.62
444.143	1616.12
444.518	1642.78
444.892	1649.34
445.267	1667.41
445.641	1655.89
446.016	1690.46
446.39	1693.18
446.764	1725.94
447.139	1701.09
447.513	1741.54
447.887	1731.14
448.262	1755.55
448.636	1757.13
449.01	1784.02
449.384	1782.21
449.758	1791.03
450.132	1826.28
450.506	1858.6
450.88	1869.67
451.254	1860.86
451.628	1868.99
452.002	1903.34
452.376	1933.62
452.75	1924.36
453.123	1940.17
453.497	1971.13
453.871	2008.87
454.244	2023.34
454.618	2026.05
454.992	2048.19
455.365	2045.26
455.739	2097.46
456.112	2097.68
456.486	2116.67
456.859	2122.09
457.232	2176.1
457.606	2156.21
457.979	2207.29
458.352	2280.28
458.725	2292.71
459.099	2224.01
459.472	2321.41
459.845	2333.84
460.218	2380.62
460.591	2382.2
460.964	2395.98
461.337	2437.11
461.71	2525.47
462.083	2525.47
462.456	2514.62
462.829	2508.52
463.201	2558.46
463.574	2568.18
463.947	2628.52
464.32	2651.79
464.692	2660.16
465.065	2677.56
465.438	2685.69
465.81	2773.37
466.183	2768.4
466.555	2830.32
466.928	2862.18
467.3	2833.26
467.672	2908.74
468.045	2957.1
468.417	2945.57
468.789	2995.29
469.161	2996.64
469.534	3056.53
469.906	3111.22
470.278	3119.13
470.65	3161.61
471.022	3257.88
471.394	3271.21
471.766	3320.7
472.138	3306.69
472.51	3397.54
472.882	3401.15
473.253	3479.8
473.625	3506.69
473.997	3556.18
474.369	3564.99
474.74	3625.1
475.112	3679.56
475.484	3708.94
475.855	3762.27
476.227	3790.07
476.598	3901.03
476.97	3898.77
477.341	3975.15
477.713	4015.83
478.084	4065.09
478.455	4106.45
478.827	4158.65
479.198	4310.06
479.569	4286.55
479.94	4378.98
480.311	4405.65
480.682	4483.61
481.053	4597.28
481.424	4636.6
481.795	4646.77
482.166	4696.71
482.537	4732.19
482.908	4875.69
483.279	4875.24
483.65	4969.47
484.021	5032.75
484.391	5063.93
484.762	5142.8
485.133	5153.2
485.503	5203.14
485.874	5368.33
486.244	5311.84
486.615	5450.82
486.985	5525.17
487.356	5574.88
487.726	5648.33
488.097	5682.22
488.467	5700.75
488.837	5784.59
489.207	5851.94
489.578	5932.39
489.948	6011.03
490.318	6034.08
490.688	6088.09
491.058	6137.35
491.428	6258.71
491.798	6266.39
492.168	6375.54
492.538	6411.24
492.908	6394.97
493.278	6526.04
493.648	6435.42
494.017	6547.51
494.387	6603.1
494.757	6672.25
495.126	6741.86
495.496	6739.14
495.866	6733.72
496.235	6806.26
496.605	6856.43
496.974	6886.71
497.344	6936.88
497.713	6929.2
498.082	6920.38
498.452	7068.18
498.821	7064.79
499.19	7030.89
499.559	7172.58
499.928	7158.34
500.298	7129.64
500.667	7180.49
501.036	7237.89
501.405	7249.41
501.774	7287.15
502.143	7301.16
502.512	7324.67
502.88	7391.33
503.249	7349.3
503.618	7413.03
503.987	7433.36
504.356	7460.71
504.724	7481.5
505.093	7490.99
505.462	7430.2
505.83	7505.68
506.199	7513.59
506.567	7657.76
506.936	7597.43
507.304	7580.03
507.672	7679.69
508.041	7647.14
508.409	7724.66
508.777	7712
509.145	7774.6
509.514	7755.16
509.882	7802.17
510.25	7788.61
510.618	7841.26
510.986	7856.63
511.354	7867.48
511.722	7914.48
512.09	7993.8
512.458	7929.4
512.826	7936.63
513.193	7948.83
513.561	7940.24
513.929	7979.11
514.297	8045.78
514.664	8031.99
515.032	8009.62
515.4	8063.86
515.767	8027.92
516.135	8006
516.502	8002.84
516.869	8042.84
517.237	8108.15
517.604	8062.27
517.972	8122.84
518.339	8135.27
518.706	8058.21
519.073	8074.02
519.44	8129.16
519.808	8116.74
520.175	8094.82
520.542	8166.45
520.909	8157.86
521.276	8154.93
521.643	8222.5
522.009	8186.79
522.376	8232.66
522.743	8235.6
523.11	8224.08
523.477	8270.4
523.843	8231.53
524.21	8335.04
524.577	8343.62
524.943	8312.89
525.31	8322.38
525.676	8361.93
526.043	8348.59
526.409	8356.73
526.776	8388.82
527.142	8417.29
527.508	8391.3
527.874	8457.29
528.241	8402.38
528.607	8384.07
528.973	8445.31
529.339	8344.07
529.705	8394.69
530.071	8399.67
530.437	8439.89
530.803	8529.83
531.169	8418.87
531.535	8425.65
531.901	8383.4
532.267	8415.71
532.632	8408.25
532.998	8368.48
533.364	8274.92
533.73	8328.03
534.095	8415.48
534.461	8300.23
534.826	8381.36
535.192	8427.24
535.557	8343.4
535.923	8386.79
536.288	8337.75
536.653	8329.61
537.019	8263.4
537.384	8259.56
537.749	8245.77
538.114	8257.3
538.479	8203.06
538.845	8194.93
539.21	8146.79
539.575	8169.84
539.94	8099.56
540.305	8155.15
540.67	8122.84
541.034	8120.8
541.399	8102.5
541.764	8089.39
542.129	8016.85
542.494	7997.42
542.858	8037.19
543.223	7970.75
543.587	8007.59
543.952	7950.86
544.316	7958.1
544.681	7820.02
545.045	7912.9
545.41	7866.35
545.774	7845.33
546.138	7862.51
546.503	7817.08
546.867	7797.42
547.231	7909.51
547.595	7760.36
547.959	7797.65
548.324	7730.53
548.688	7639.46
549.052	7744.77
549.416	7674.94
549.779	7627.71
550.143	7662.96
550.507	7670.42
550.871	7579.12
551.235	7595.62
551.599	7596.3
551.962	7595.17
552.326	7451.44
552.689	7552.23
553.053	7451.44
553.417	7447.37
553.78	7549.07
554.143	7457.54
554.507	7428.39
554.87	7466.81
555.234	7483.08
555.597	7387.49
555.96	7376.64
556.323	7414.83
556.686	7386.13
557.05	7372.35
557.413	7354.72
557.776	7380.94
558.139	7359.24
558.502	7338.45
558.865	7358.56
559.228	7384.55
559.59	7403.08
559.953	7309.75
560.316	7387.72
560.679	7324.21
561.041	7313.59
561.404	7328.96
561.767	7376.42
562.129	7379.35
562.492	7362.86
562.854	7302.75
563.217	7329.64
563.579	7351.33
563.941	7346.81
564.304	7358.79
564.666	7321.73
565.028	7354.04
565.39	7406.7
565.753	7422.29
566.115	7363.76
566.477	7422.52
566.839	7387.94
567.201	7440.14
567.563	7472.68
567.925	7462.74
568.287	7501.16
568.648	7407.83
569.01	7492.35
569.372	7528.28
569.734	7475.62
570.095	7504.55
570.457	7580.7
570.819	7483.53
571.18	7501.16
571.542	7572.34
571.903	7570.08
572.265	7623.42
572.626	7592.68
572.987	7652.57
573.349	7588.84
573.71	7637.43
574.071	7632.45
574.432	7645.34
574.794	7715.39
575.155	7677.43
575.516	7640.36
575.877	7650.53
576.238	7736.63
576.599	7775.28
576.96	7738.67
577.32	7759.23
577.681	7751.1
578.042	7775.95
578.403	7771.43
578.763	7818.66
579.124	7875.61
579.485	7812.34
579.845	7836.29
580.206	7836.29
580.566	7850.08
580.927	7898.66
581.287	7933.46
581.648	7874.93
582.008	7933.01
582.368	7950.86
582.728	8009.85
583.089	8023.4
583.449	7992.9
583.809	8010.3
584.169	8035.83
584.529	8012.56
584.889	8100.01
585.249	8052.56
585.609	8024.31
585.969	8068.6
586.329	8090.97
586.688	8107.47
587.048	8149.96
587.408	8090.75
587.768	8071.99
588.127	8149.28
588.487	8163.97
588.846	8159.67
589.206	8144.76
589.565	8217.98
589.925	8256.39
590.284	8206.9
590.643	8187.47
591.003	8289.39
591.362	8265.88
591.721	8270.86
592.08	8275.15
592.44	8260.69
592.799	8253
593.158	8284.41
593.517	8311.08
593.876	8323.06
594.235	8331.42
594.593	8352.66
594.952	8379.33
595.311	8320.8
595.67	8376.84
596.029	8394.47
596.387	8409.61
596.746	8415.48
597.104	8437.18
597.463	8386.79
597.822	8391.98
598.18	8436.95
598.538	8417.52
598.897	8443.51
599.255	8417.97
599.613	8527.8
599.972	8461.81
600.33	8458.2
600.688	8450.51
601.046	8498.42
601.404	8501.13
601.762	8525.31
602.12	8583.16
602.478	8522.6
602.836	8543.17
603.194	8571.19
603.552	8506.56
603.91	8531.41
604.268	8591.07
604.625	8544.52
604.983	8561.24
605.341	8485.77
605.698	8595.82
606.056	8607.8
606.413	8627.91
606.771	8555.59
607.128	8651.41
607.485	8628.36
607.843	8653.9
608.2	8634.69
608.557	8632.43
608.914	8596.72
609.272	8631.07
609.629	8685.08
609.986	8720.79
610.343	8624.52
610.7	8741.58
611.057	8732.99
611.414	8689.15
611.771	8709.26
612.127	8763.95
612.484	8712.88
612.841	8686.66
613.198	8701.58
613.554	8658.87
613.911	8751.75
614.267	8698.64
614.624	8781.13
614.98	8818.86
615.337	8791.07
615.693	8770.96
616.05	8811.41
616.406	8841.24
616.762	8878.52
617.118	8801.92
617.475	8864.51
617.831	8846.89
618.187	8821.12
618.543	8834.91
618.899	8894.57
619.255	8918.97
619.611	8891.63
619.967	8841.01
620.323	8948.58
620.678	8867.9
621.034	8904.51
621.39	8906.55
621.746	8860.67
622.101	8938.64
622.457	8944.96
622.812	8933.66
623.168	8919.65
623.523	8947.67
623.879	8905.64
624.234	8884.17
624.589	8940.67
624.945	8846.66
625.3	8944.06
625.655	8979.99
626.01	8897.05
626.365	8947.67
626.72	8877.17
627.075	8895.25
627.43	8876.72
627.785	8922.82
628.14	8912.42
628.495	8871.29
628.85	8927.79
629.205	8836.72
629.559	8889.6
629.914	8861.35
630.269	8872.42
630.623	8854.12
630.978	8794.23
631.332	8865.19
631.687	8816.83
632.041	8852.31
632.396	8879.43
632.75	8776.38
633.104	8821.12
633.459	8793.78
633.813	8742.93
634.167	8735.48
634.521	8732.99
634.875	8706.55
635.229	8772.54
635.583	8735.93
635.937	8700.68
636.291	8710.17
636.645	8701.13
636.999	8674.69
637.352	8664.74
637.706	8702.48
638.06	8623.84
638.413	8561.7
638.767	8641.24
639.121	8576.84
639.474	8573.45
639.828	8591.53
640.181	8563.96
640.534	8550.85
640.888	8557.85
641.241	8542.26
641.594	8511.3
641.947	8627.23
642.301	8573.45
642.654	8566.67
643.007	8542.94
643.36	8521.02
643.713	8512.21
644.066	8580
644.419	8495.48
644.771	8409.38
645.124	8363.73
645.477	8405.54
645.83	8357.41
646.182	8295.26
646.535	8285.54
646.888	8286.22
647.24	8236.96
647.593	8284.41
647.945	8292.32
648.298	8281.25
648.65	8200.12
649.002	8185.43
649.355	8310.4
649.707	8266.56
650.059	8338.65
650.411	8324.87
650.763	8398.54
651.115	8474.69
651.467	8447.35
651.819	8355.83
652.171	8463.17
652.523	8436.5
652.875	8431.53
653.227	8488.25
653.578	8469.27
653.93	8437.86
654.282	8424.75
654.633	8389.95
654.985	8436.28
655.337	8393.56
655.688	8401.7
656.039	8493.67
656.391	8406.67
656.742	8429.27
657.094	8406.22
657.445	8437.63
657.796	8474.24
658.147	8354.02
658.498	8457.52
658.849	8461.59
659.2	8465.65
659.551	8431.98
659.902	8472.21
660.253	8476.5
660.604	8454.58
660.955	8449.16
661.306	8496.61
661.656	8512.21
662.007	8494.35
662.358	8505.65
662.708	8495.71
663.059	8516.73
663.409	8497.74
663.76	8441.7
664.11	8497.74
664.461	8497.74
664.811	8478.99
665.161	8500.23
665.511	8554.46
665.862	8542.26
666.212	8546.55
666.562	8514.92
666.912	8499.55
667.262	8500.23
667.612	8464.52
667.962	8548.36
668.312	8514.47
668.662	8572.32
669.011	8506.56
669.361	8493.45
669.711	8507.69
670.06	8485.54
670.41	8456.84
670.76	8441.47
671.109	8541.36
671.459	8524.63
671.808	8463.39
672.157	8501.36
672.507	8380.91
672.856	8394.47
673.205	8483.05
673.554	8486.44
673.904	8407.58
674.253	8478.53
674.602	8459.1
674.951	8351.53
675.3	8262.04
675.649	8405.54
675.998	8428.82
676.346	8450.06
676.695	8420.68
677.044	8410.29
677.393	8404.64
677.741	8342.49
678.09	8391.98
678.438	8386.33
678.787	8307.69
679.135	8394.24
679.484	8290.52
679.832	8319.89
680.181	8251.42
680.529	8274.25
680.877	8234.92
681.225	8228.6
681.573	8258.65
681.922	8189.95
682.27	8145.44
682.618	8207.58
682.966	8167.36
683.314	8201.48
683.661	8147.92
684.009	8085.1
684.357	8074.93
684.705	8049.84
685.053	8085.32
685.4	7982.05
685.748	8003.52
686.095	7988.15
686.443	7965.33
686.79	7983.41
687.138	7964.88
687.485	7936.4
687.832	7891.66
688.18	7903.86
688.527	7874.48
688.874	7842.62
689.221	7848.95
689.568	7820.92
689.915	7829.29
690.262	7783.19
690.609	7746.58
690.956	7720.81
691.303	7682.85
691.65	7651.21
691.997	7650.76
692.344	7586.13
692.69	7556.07
693.037	7557.88
693.383	7467.94
693.73	7494.83
694.077	7487.6
694.423	7487.37
694.769	7509.52
695.116	7431.1
695.462	7486.24
695.808	7322.63
696.155	7427.04
696.501	7262.75
696.847	7293.93
697.193	7229.75
697.539	7283.54
697.885	7228.4
698.231	7213.03
698.577	7196.08
698.923	7149.53
699.269	7085.8
699.614	7025.24
699.96	7093.94
700.306	7039.93
700.651	7027.27
700.997	6985.24
701.342	6964
701.688	6968.97
702.033	6973.26
702.379	6874.96
702.724	6923.55
703.069	6878.12
703.415	6831.57
703.76	6887.84
704.105	6805.36
704.45	6781.86
704.795	6775.53
705.14	6731.91
705.485	6724.23
705.83	6689.88
706.175	6675.19
706.52	6631.35
706.865	6602.43
707.209	6603.1
707.554	6590
707.899	6587.96
708.243	6521.98
708.588	6494.41
708.932	6442.2
709.277	6533.95
709.621	6514.29
709.966	6461.19
710.31	6417.12
710.654	6380.51
710.998	6381.19
711.342	6364.92
711.687	6353.62
712.031	6385.26
712.375	6297.35
712.719	6326.27
713.063	6314.07
713.407	6285.15
713.75	6295.54
714.094	6308.65
714.438	6242.66
714.782	6201.53
715.125	6204.7
715.469	6235.2
715.812	6206.5
716.156	6149.1
716.499	6162.21
716.843	6121.08
717.186	6181.87
717.53	6185.94
717.873	6168.09
718.216	6140.74
718.559	6097.35
718.902	6026.17
719.246	6069.56
719.589	6074.3
719.932	6040.63
720.275	6074.98
720.617	6002.67
720.96	6034.53
721.303	6048.09
721.646	6077.92
721.989	5994.31
722.331	6042.67
722.674	6050.8
723.016	6027.98
723.359	6032.72
723.701	6036.79
724.044	6016.68
724.386	5956.79
724.729	5948.43
725.071	5975.1
725.413	6007.86
725.755	6038.6
726.097	5944.59
726.439	5975.32
726.782	5990.01
727.124	5964.48
727.465	5914.76
727.807	6031.37
728.149	5891.48
728.491	5938.49
728.833	5963.8
729.175	5916.34
729.516	5915.21
729.858	5934.65
730.199	5986.62
730.541	5945.27
730.882	5938.71
731.224	5957.24
731.565	5918.38
731.906	5959.96
732.248	5938.49
732.589	5870.02
732.93	5878.15
733.271	5959.73
733.612	5910.92
733.953	5939.62
734.294	5900.52
734.635	5929.22
734.976	5898.94
735.317	5927.19
735.658	5939.84
735.999	5939.84
736.339	5926.28
736.68	5935.1
737.021	5983.68
737.361	5907.3
737.702	6004.93
738.042	5968.32
738.383	5993.85
738.723	5955.44
739.063	5993.63
739.404	6006.51
739.744	6002.67
740.084	6018.71
740.424	6024.14
740.764	6015.55
741.104	6063.68
741.444	5991.14
741.784	6009.22
742.124	6075.89
742.464	6099.61
742.804	6129.44
743.143	6102.55
743.483	6183.91
743.823	6155.21
744.162	6173.96
744.502	6226.62
744.841	6284.02
745.181	6262.1
745.52	6292.6
745.86	6332.15
746.199	6391.81
746.538	6373.05
746.877	6411.02
747.216	6437.46
747.556	6527.85
747.895	6522.2
748.234	6589.32
748.573	6653.05
748.911	6636.55
749.25	6740.95
749.589	6776.21
749.928	6868.41
750.267	6910.44
750.605	6954.28
750.944	7060.27
751.283	7102.53
751.621	7207.83
751.96	7323.76
752.298	7358.34
752.636	7427.49
752.975	7573.02
753.313	7610.76
753.651	7786.35
753.989	7793.13
754.327	7923.97
754.666	8010.98
755.004	8164.87
755.342	8296.17
755.679	8360.8
756.017	8446.22
756.355	8617.06
756.693	8768.24
757.031	8918.3
757.368	8954.68
757.706	9163.49
758.044	9252.98
758.381	9392.86
758.719	9577.94
759.056	9730.25
759.394	9940.42
759.731	9906.07
760.068	10169.11
760.405	10260.63
760.743	10462.21
761.08	10568.65
761.417	10741.75
761.754	10928.41
762.091	11051.35
762.428	11216.99
762.765	11324.11
763.102	11589.64
763.438	11700.6
763.775	11804.77
764.112	12106.91
764.449	12290.41
764.785	12409.05
765.122	12530.4
765.458	12689.04
765.795	12774.47
766.131	13011.97
766.467	13167
766.804	13242.7
767.14	13383.94
767.476	13539.42
767.812	13602.92
768.148	13955
768.485	13947.09
768.821	14062.57
769.157	14124.94
769.492	14382.33
769.828	14535.78
770.164	14485.16
770.5	14678.37
770.836	14821.64
771.171	14851.25
771.507	15057.8
771.842	15078.81
772.178	15161.52
772.513	15316.55
772.849	15392.02
773.184	15460.95
773.519	15531.46
773.855	15519.7
774.19	15712.92
774.525	15667.72
774.86	15805.57
775.195	15938.45
775.53	15982.07
775.865	15961.05
776.2	15996.75
776.535	16009.86
776.87	16080.37
777.205	16151.33
777.539	16215.05
777.874	16333.02
778.209	16308.38
778.543	16261.15
778.878	16278.56
779.212	16384.54
779.547	16363.52
779.881	16496.85
780.215	16464.99
780.55	16526.68
780.884	16467.93
781.218	16480.58
781.552	16611.65
781.886	16617.08
782.22	16552.45
782.554	16563.52
782.888	16446.69
783.222	16469.06
783.556	16479
783.889	16600.81
784.223	16540.47
784.557	16447.36
784.89	16521.49
785.224	16530.07
785.557	16499.57
785.891	16418.44
786.224	16470.64
786.558	16512.22
786.891	16438.55
787.224	16380.02
787.557	16425.22
787.891	16412.11
788.224	16422.51
788.557	16488.27
788.89	16521.94
789.223	16445.1
789.556	16300.02
789.888	16326.92
790.221	16321.72
790.554	16253.24
790.887	16235.39
791.219	16196.98
791.552	16107.03
791.884	16127.82
792.217	16248.73
792.549	16164.43
792.882	16067.94
793.214	16032.91
793.546	16024.55
793.879	16000.82
794.211	15875.85
794.543	16069.29
794.875	15980.26
795.207	15966.25
795.539	15974.16
795.871	15869.98
796.203	15773.03
796.535	15642.41
796.867	15665.24
797.198	15665.24
797.53	15646.93
797.862	15673.83
798.193	15582.53
798.525	15575.52
798.856	15512.02
799.188	15458.46
799.519	15271.58
799.85	15302.99
800.182	15432.02
800.513	15408.07
800.844	15230.9
801.175	15344.79
801.506	15312.25
801.837	15242.42
802.168	15227.28
802.499	15213.05
802.83	15127.85
803.161	15118.59
803.491	15113.84
803.822	15107.29
804.153	14968.08
804.483	14903.68
804.814	14830.23
805.145	14848.31
805.475	14795.88
805.805	14891.7
806.136	14755.21
806.466	14776.67
806.796	14792.04
807.126	14692.61
807.457	14703.91
807.787	14704.59
808.117	14639.73
808.447	14610.12
808.777	14613.74
809.107	14589.11
809.436	14529.67
809.766	14520.86
810.096	14491.03
810.426	14449.45
810.755	14421.88
811.085	14350.92
811.414	14340.3
811.744	14247.2
812.073	14258.95
812.403	14332.62
812.732	14152.06
813.061	14225.05
813.39	14136.46
813.719	14063.02
814.049	14169.68
814.378	14189.12
814.707	14122.45
815.036	14003.81
815.365	13967.88
815.693	13969.92
816.022	13891.95
816.351	13836.81
816.68	13736.47
817.008	13902.12
817.337	13675.46
817.665	13752.97
817.994	13749.58
818.322	13708
818.651	13702.35
818.979	13546.42
819.307	13624.61
819.636	13636.59
819.964	13596.59
820.292	13568.8
820.62	13609.02
820.948	13488.35
821.276	13627.33
821.604	13548.23
821.932	13597.04
822.259	13628.46
822.587	13677.95
822.915	13489.48
823.243	13627.78
823.57	13603.15
823.898	13490.83
824.225	13557.27
824.553	13514.11
824.88	13590.72
825.207	13514.33
825.535	13536.25
825.862	13526.31
826.189	13559.98
826.516	13574.9
826.843	13735.8
827.17	13637.95
827.497	13679.75
827.824	13689.92
828.151	13636.36
828.478	13640.43
828.805	13642.69
829.131	13595.24
829.458	13620.55
829.785	13623.48
830.111	13638.4
830.438	13655.8
830.764	13576.25
831.09	13626.65
831.417	13587.33
831.743	13584.16
832.069	13642.01
832.395	13574.67
832.722	13609.47
833.048	13486.31
833.374	13499.65
833.7	13418.07
834.026	13550.49
834.351	13537.84
834.677	13463.04
835.003	13522.47
835.329	13515.69
835.654	13472.98
835.98	13446.09
836.306	13375.81
836.631	13410.61
836.956	13451.96
837.282	13464.62
837.607	13371.29
837.932	13353.43
838.258	13354.11
838.583	13269.82
838.908	13317.28
839.233	13261.46
839.558	13226.66
839.883	13240.22
840.208	13137.39
840.533	13153.44
840.858	13138.3
841.182	13182.82
841.507	13116.6
841.832	13075.93
842.156	13058.98
842.481	13014.69
842.805	13015.59
843.13	12917.51
843.454	12941.69
843.778	12899.43
844.103	12925.65
844.427	12820.57
844.751	12933.78
845.075	12807.23
845.399	12809.72
845.723	12713
846.047	12785.09
846.371	12662.6
846.695	12641.59
847.019	12515.49
847.343	12445.44
847.666	12370.18
847.99	12382.61
848.313	12327.92
848.637	12337.87
848.96	12323.18
849.284	12230.98
849.607	12188.72
849.931	12054.49
850.254	12034.82
850.577	12104.65
850.9	11839.12
851.223	11890.65
851.546	11840.03
851.869	11765.45
852.192	11811.55
852.515	11703.53
852.838	11648.62
853.161	11678.22
853.483	11578.11
853.806	11573.37
854.129	11564.1
854.451	11532.92
854.774	11408.63
855.096	11454.5
855.419	11373.6
855.741	11376.99
856.063	11301.51
856.385	11344
856.708	11176.54
857.03	11178.58
857.352	11224.9
857.674	11129.09
857.996	11157.79
858.318	11092.02
858.64	11088.18
858.961	11016.55
859.283	10953.27
859.605	10873.73
859.926	10977.9
860.248	10866.95
860.57	10875.31
860.891	10905.59
861.212	10787.63
861.534	10773.39
861.855	10742.88
862.176	10833.27
862.498	10789.43
862.819	10723.22
863.14	10741.53
863.461	10728.87
863.782	10643.9
864.103	10618.82
864.424	10610
864.745	10639.16
865.065	10555.09
865.386	10579.5
865.707	10510.12
866.027	10469.44
866.348	10439.84
866.668	10533.17
866.989	10418.37
867.309	10373.85
867.63	10426.51
867.95	10414.53
868.27	10357.35
868.59	10356.9
868.91	10280.29
869.23	10319.62
869.55	10280.97
869.87	10321.65
870.19	10275.78
870.51	10273.52
870.83	10324.36
871.15	10200.52
871.469	10205.72
871.789	10284.59
872.109	10207.98
872.428	10151.26
872.748	10132.73
873.067	10071.26
873.386	10133.41
873.706	10104.03
874.025	10091.83
874.344	10064.26
874.663	10060.19
874.982	10007.53
875.301	9996.23
875.62	9979.29
875.939	9980.64
876.258	9957.37
876.577	9911.04
876.896	9926.18
877.214	9936.8
877.533	9963.69
877.852	9878.05
878.17	9850.7
878.489	9904.71
878.807	9907.42
879.125	9872.4
879.444	9837.14
879.762	9795.79
880.08	9834.88
880.398	9822.23
880.716	9750.37
881.034	9751.72
881.352	9714.43
881.67	9659.29
881.988	9700.65
882.306	9687.09
882.624	9642.12
882.941	9586.3
883.259	9619.07
883.577	9526.87
883.894	9446.19
884.212	9557.83
884.529	9439.86
884.846	9452.97
885.164	9410.04
885.481	9435.8
885.798	9410.71
886.115	9392.63
886.432	9348.57
886.75	9309.47
887.067	9379.53
887.383	9231.28
887.7	9313.77
888.017	9273.77
888.334	9321
888.651	9212.53
888.967	9186.99
889.284	9149.25
889.6	9149.93
889.917	9097.5
890.233	9063.83
890.55	9041.01
890.866	9041.01
891.182	9021.34
891.498	8992.42
891.815	8943.38
892.131	8871.97
892.447	8891.86
892.763	8897.51
893.079	8734.35
893.395	8833.1
893.71	8835.36
894.026	8718.75
894.342	8697.29
894.657	8667.91
894.973	8650.06
895.289	8652.54
895.604	8603.05
895.92	8542.49
896.235	8507.69
896.55	8515.6
896.865	8505.88
897.181	8439.44
897.496	8419.1
897.811	8356.73
898.126	8422.26
898.441	8441.47
898.756	8352.21
899.071	8320.35
899.386	8277.86
899.7	8134.59
900.015	8175.27
900.33	8153.8
900.644	8115.15
900.959	8079.45
901.273	8127.36
901.588	8015.27
901.902	8058.88
902.216	7999.68
902.531	7991.32
902.845	7972.56
903.159	7881.04
903.473	7888.27
903.787	7799.91
904.101	7792.68
904.415	7741.83
904.729	7693.7
905.042	7685.11
905.356	7751.77
905.67	7645.79
905.984	7682.17
906.297	7675.62
906.611	7570.99
906.924	7586.13
907.237	7517.66
907.551	7474.49
907.864	7462.29
908.177	7415.51
908.491	7397.66
908.804	7420.93
909.117	7356.76
909.43	7274.72
909.743	7252.13
910.056	7214.84
910.368	7193.82
910.681	7146.82
910.994	7123.99
911.307	7133.71
911.619	7060.04
911.932	7060.49
912.244	7046.93
912.557	6989.08
912.869	6957.67
913.181	6915.64
913.494	6917.9
913.806	6873.6
914.118	6884.45
914.43	6833.83
914.742	6829.09
915.054	6766.71
915.366	6721.97
915.678	6792.25
915.99	6669.99
916.302	6656.89
916.613	6584.8
916.925	6665.02
917.236	6590.45
917.548	6570.56
917.859	6559.26
918.171	6514.07
918.482	6530.79
918.794	6493.95
919.105	6429.1
919.416	6364.92
919.727	6399.94
920.038	6357.46
920.349	6303.68
920.66	6342.77
920.971	6348.19
921.282	6273.17
921.593	6261.64
921.903	6209.67
922.214	6156.34
922.525	6151.82
922.835	6181.87
923.146	6115.88
923.456	6105.04
923.767	6113.17
924.077	6036.34
924.387	6034.76
924.697	6023.68
925.008	5956.79
925.318	5915.21
925.628	5920.41
925.938	5869.11
926.248	5884.48
926.558	5881.77
926.867	5855.33
927.177	5835.44
927.487	5769.9
927.796	5721.09
928.106	5773.97
928.416	5687.65
928.725	5669.12
929.034	5666.4
929.344	5630.02
929.653	5591.83
929.962	5601.32
930.271	5552.96
930.581	5570.81
930.89	5494.88
931.199	5508.67
931.508	5489.91
931.817	5467.31
932.125	5455.34
932.434	5382.57
932.743	5366.98
933.051	5358.39
933.36	5336.02
933.669	5303.02
933.977	5273.19
934.286	5317.49
934.594	5268.45
934.902	5204.27
935.21	5202.46
935.519	5206.53
935.827	5193.42
936.135	5174.67
936.443	5083.14
936.751	5060.09
937.059	5051.28
937.367	5035.46
937.674	5000.21
937.982	5045.63
938.29	4994.56
938.597	4972.41
938.905	4971.51
939.213	4934.22
939.52	4911.85
939.827	4861.45
940.135	4826.88
940.442	4834.79
940.749	4834.79
941.056	4841.34
941.363	4784.17
941.67	4738.97
941.977	4729.03
942.284	4718.41
942.591	4666.43
942.898	4727.67
943.205	4729.25
943.511	4662.36
943.818	4620.33
944.125	4595.7
944.431	4589.37
944.738	4587.56
945.044	4574.91
945.35	4506.21
945.657	4511.86
945.963	4497.17
946.269	4462.59
946.575	4437.06
946.881	4416.27
947.187	4425.76
947.493	4382.14
947.799	4387.57
948.105	4379.43
948.41	4357.29
948.716	4292.88
949.022	4290.17
949.327	4317.74
949.633	4228.93
949.938	4242.04
950.244	4235.71
950.549	4181.25
950.854	4156.84
951.16	4195.71
951.465	4187.57
951.77	4170.62
952.075	4125.43
952.38	4106.22
952.685	4104.64
952.99	4074.58
953.294	4066.45
953.599	4030.06
953.904	3967.47
954.209	3967.92
954.513	4008.14
954.818	3996.39
955.122	3973.12
955.426	3956.62
955.731	3959.33
956.035	3910.97
956.339	3900.12
956.643	3868.03
956.948	3833.68
957.252	3829.62
957.556	3798.43
957.86	3839.56
958.163	3803.18
958.467	3777.64
958.771	3743.74
959.075	3740.35
959.378	3719.56
959.682	3739.68
959.985	3713.24
960.289	3689.28
960.592	3651.32
960.896	3632.33
961.199	3619.45
961.502	3628.72
961.805	3591.43
962.108	3599.79
962.411	3560.92
962.714	3548.04
963.017	3539.23
963.32	3549.17
963.623	3510.76
963.926	3508.04
964.228	3504.43
964.531	3470.53
964.833	3484.32
965.136	3449.29
965.438	3422.17
965.741	3420.36
966.043	3397.09
966.345	3390.08
966.648	3334.49
966.95	3390.98
967.252	3322.96
967.554	3311.89
967.856	3311.21
968.158	3260.82
968.46	3250.2
968.761	3244.32
969.063	3251.78
969.365	3244.55
969.666	3232.8
969.968	3180.82
970.269	3180.14
970.571	3221.05
970.872	3182.63
971.174	3156.87
971.475	3156.19
971.776	3133.36
972.077	3122.06
972.378	3096.08
972.679	3077.55
972.98	3103.99
973.281	3085
973.582	3049.52
973.883	3052.24
974.183	3033.03
974.484	3009.75
974.785	2974.95
975.085	2979.92
975.386	2984.22
975.686	2959.36
975.986	2947.38
976.287	2908.96
976.587	2907.83
976.887	2886.82
977.187	2908.74
977.487	2859.47
977.787	2882.75
978.087	2856.08
978.387	2826.93
978.687	2827.84
978.987	2806.59
979.286	2785.12
979.586	2778.57
979.885	2786.48
980.185	2736.99
980.484	2776.54
980.784	2769.53
981.083	2754.62
981.382	2707.16
981.682	2696.99
981.981	2703.77
982.28	2678.01
982.579	2651.12
982.878	2657.67
983.177	2609.99
983.475	2667.39
983.774	2603.43
984.073	2615.41
984.372	2556.2
984.67	2619.71
984.969	2596.88
985.267	2589.88
985.566	2558.24
985.864	2563.21
986.162	2554.4
986.461	2513.95
986.759	2533.83
987.057	2462.42
987.355	2444.79
987.653	2498.35
987.951	2463.33
988.249	2442.08
988.547	2475.98
988.844	2434.4
989.142	2421.74
989.44	2415.19
989.737	2372.48
990.035	2385.81
990.332	2346.94
990.63	2334.29
990.927	2341.97
991.224	2304.01
991.521	2310.33
991.819	2338.13
992.116	2320.28
992.413	2263.56
992.71	2279.38
993.006	2280.05
993.303	2243.9
993.6	2254.97
993.897	2225.82
994.193	2235.08
994.49	2242.09
994.787	2204.12
995.083	2205.25
995.379	2158.02
995.676	2161.64
995.972	2142.88
996.268	2163.45
996.565	2141.07
996.861	2160.28
997.157	2105.82
997.453	2142.66
997.749	2121.87
998.044	2106.5
998.34	2079.61
998.636	2068.53
998.932	2077.35
999.227	2040.06
999.523	2060.4
999.818	2010.46
1000.114	2039.61
1000.409	1979.04
1000.704	1954.86
1001	2008.2
1001.295	1983.56
1001.59	1992.6
1001.885	1982.21
1002.18	1963.68
1002.475	1935.2
1002.77	1945.15
1003.065	1933.17
1003.359	1890.23
1003.654	1906.5
1003.949	1878.03
1004.243	1883.23
1004.538	1907.41
1004.832	1873.96
1005.127	1844.36
1005.421	1845.49
1005.715	1817.47
1006.009	1803.68
1006.304	1786.05
1006.598	1777.92
1006.892	1765.26
1007.186	1777.92
1007.48	1781.76
1007.773	1765.26
1008.067	1754.19
1008.361	1723.46
1008.655	1745.83
1008.948	1748.54
1009.242	1679.39
1009.535	1711.71
1009.829	1701.31
1010.122	1646.17
1010.415	1671.71
1010.708	1617.25
1011.001	1649.11
1011.295	1643.23
1011.588	1652.27
1011.881	1620.64
1012.173	1626.06
1012.466	1623.35
1012.759	1601.43
1013.052	1608.21
1013.344	1587.64
1013.637	1584.48
1013.93	1565.72
1014.222	1576.34
1014.514	1530.47
1014.807	1522.56
1015.099	1512.62
1015.391	1546.29
1015.683	1497.47
1015.976	1481.66
1016.268	1511.03
1016.56	1486.18
1016.851	1454.09
1017.143	1445.27
1017.435	1429.68
1017.727	1438.95
1018.018	1427.42
1018.31	1447.08
1018.602	1399.17
1018.893	1391.94
1019.185	1417.02
1019.476	1368.66
1019.767	1378.83
1020.058	1335.22
1020.35	1354.43
1020.641	1353.52
1020.932	1343.35
1021.223	1331.6
1021.514	1361.21
1021.804	1318.72
1022.095	1286.41
1022.386	1286.86
1022.677	1292.96
1022.967	1279.4
1023.258	1285.73
1023.548	1273.75
1023.839	1275.33
1024.129	1249.8
1024.419	1237.59
1024.709	1244.83
1025	1217.48
1025.29	1219.52
1025.58	1221.78
1025.87	1187.43
1026.16	1188.56
1026.449	1187.65
1026.739	1187.88
1027.029	1169.12
1027.319	1157.82
1027.608	1152.17
1027.898	1165.51
1028.187	1145.85
1028.477	1132.51
1028.766	1130.93
1029.055	1105.85
1029.344	1111.5
1029.634	1092.51
1029.923	1119.63
1030.212	1097.71
1030.501	1088.9
1030.79	1106.3
1031.078	1079.86
1031.367	1050.03
1031.656	1055.68
1031.945	1063.81
1032.233	1074.89
1032.522	1030.14
1032.81	1067.66
1033.099	1023.59
1033.387	1028.56
1033.675	988.34
1033.963	1020.88
1034.251	1012.74
1034.54	1024.72
1034.828	980.43
1035.116	984.04
1035.403	970.93
1035.691	961.44
1035.979	986.98
1036.267	969.58
1036.554	948.79
1036.842	977.94
1037.129	936.59
1037.417	926.19
1037.704	910.6
1037.992	914.21
1038.279	885.97
1038.566	924.16
1038.853	924.16
1039.14	924.16
