Data from hue_310_FLMS001491_8.txt Node
Date: Mon Feb 06 15:48:23 GMT 2017
User: dcchb
Spectrometer: FLMS00149
Trigger mode: 0
Integration Time (sec): 2.000000E-2
Scans to average: 10
Electric dark correction enabled: true
Nonlinearity correction enabled: false
Boxcar width: 0
XAxis mode: Wavelengths
Number of Pixels in Spectrum: 2048
>>>>>Begin Spectral Data<<<<<
341.393	-17.92
341.776	-17.92
342.16	-17.92
342.543	-50.01
342.927	-69.45
343.31	-64.7
343.693	-82.55
344.077	-82.33
344.46	-37.81
344.843	-50.01
345.226	-39.62
345.61	-4.14
345.993	-18.83
346.376	0.83
346.759	-10.47
347.142	19.59
347.525	34.05
347.908	61.17
348.291	76.76
348.674	80.38
349.057	117.67
349.44	118.12
349.823	150.21
350.206	153.82
350.588	189.3
350.971	202.41
351.354	218.45
351.737	227.72
352.119	237.66
352.502	243.31
352.884	256.42
353.267	275.63
353.65	298.45
354.032	285.8
354.414	318.11
354.797	313.82
355.179	320.37
355.562	314.95
355.944	320.6
356.326	326.02
356.709	333.71
357.091	332.35
357.473	324.44
357.855	324.21
358.238	309.3
358.62	345.68
359.002	335.06
359.384	341.84
359.766	335.74
360.148	341.62
360.53	337.1
360.912	346.59
361.294	325.12
361.676	325.8
362.057	330.32
362.439	325.8
362.821	303.2
363.203	308.62
363.584	316.08
363.966	322.63
364.348	330.77
364.729	340.94
365.111	322.86
365.493	323.08
365.874	313.37
366.256	309.98
366.637	294.16
367.019	308.62
367.4	292.8
367.781	298.68
368.163	304.1
368.544	298.45
368.925	299.36
369.306	308.62
369.688	302.52
370.069	302.75
370.45	296.87
370.831	297.55
371.212	307.27
371.593	300.03
371.974	316.08
372.355	306.36
372.736	328.51
373.117	314.5
373.498	299.81
373.879	316.31
374.26	309.53
374.641	311.11
375.021	302.75
375.402	308.4
375.783	330.32
376.163	311.33
376.544	300.94
376.925	314.72
377.305	323.76
377.686	319.92
378.066	338.9
378.447	326.02
378.827	323.08
379.208	331.22
379.588	310.43
379.968	327.15
380.349	327.6
380.729	323.99
381.109	348.85
381.489	335.97
381.87	331.45
382.25	327.15
382.63	340.71
383.01	350.65
383.39	349.75
383.77	353.14
384.15	349.98
384.53	352.01
384.91	345.01
385.29	346.36
385.67	358.56
386.049	343.42
386.429	334.16
386.809	330.77
387.189	337.1
387.568	357.43
387.948	350.88
388.328	367.38
388.707	346.59
389.087	365.57
389.466	352.91
389.846	369.41
390.225	366.25
390.605	351.56
390.984	355.4
391.363	370.77
391.743	388.17
392.122	369.86
392.501	378
392.881	377.32
393.26	379.58
393.639	378.22
394.018	376.64
394.397	374.83
394.776	354.27
395.155	396.53
395.534	386.81
395.913	390.65
396.292	402.4
396.671	389.98
397.05	385
397.429	406.47
397.808	376.87
398.186	387.04
398.565	396.08
398.944	406.25
399.323	395.4
399.701	399.92
400.08	381.39
400.458	401.73
400.837	402.18
401.215	405.79
401.594	391.11
401.972	413.25
402.351	432.23
402.729	393.37
403.107	437.43
403.486	436.53
403.864	441.73
404.242	424.1
404.62	413.93
404.999	423.87
405.377	439.47
405.755	427.94
406.133	442.4
406.511	411.9
406.889	446.47
407.267	483.08
407.645	472.46
408.023	459.35
408.401	484.44
408.779	466.81
409.156	482.63
409.534	490.76
409.912	490.99
410.29	503.19
410.667	504.1
411.045	524.66
411.422	506.36
411.8	519.46
412.178	527.37
412.555	525.79
412.933	528.73
413.31	536.64
413.687	551.33
414.065	555.4
414.442	567.6
414.819	582.96
415.197	566.69
415.574	570.76
415.951	590.2
416.328	596.75
416.705	601.5
417.082	617.09
417.46	637.88
417.837	646.24
418.214	651.44
418.591	662.28
418.967	666.8
419.344	646.47
419.721	683.3
420.098	663.41
420.475	674.71
420.852	690.08
421.228	697.09
421.605	694.83
421.982	740.02
422.358	744.77
422.735	723.3
423.111	728.95
423.488	771.89
423.864	770.98
424.241	778.67
424.617	781.6
424.994	808.95
425.37	779.34
425.746	788.61
426.123	811.66
426.499	789.06
426.875	814.37
427.251	838.1
427.627	858.21
428.003	864.77
428.379	862.51
428.756	860.25
429.132	874.93
429.507	875.16
429.883	890.08
430.259	925.78
430.635	917.19
431.011	936.85
431.387	934.37
431.763	965.78
432.138	961.49
432.514	979.34
432.89	958.32
433.265	1024.54
433.641	1018.43
434.016	1026.57
434.392	1040.81
434.767	1034.25
435.143	1066.57
435.518	1045.1
435.894	1081.93
436.269	1072.22
436.644	1095.95
437.02	1104.31
437.395	1106.11
437.77	1117.64
438.145	1171.88
438.52	1140.92
438.895	1156.06
439.271	1174.36
439.646	1190.86
440.021	1192.89
440.395	1180.24
440.77	1173.01
441.145	1209.16
441.52	1229.5
441.895	1222.72
442.27	1216.62
442.645	1225.66
443.019	1231.99
443.394	1225.43
443.769	1257.07
444.143	1243.06
444.518	1291.87
444.892	1257.52
445.267	1273.34
445.641	1284.87
446.016	1309.73
446.39	1293.23
446.764	1288.94
447.139	1295.71
447.513	1280.57
447.887	1287.35
448.262	1279.22
448.636	1308.37
449.01	1324.87
449.384	1344.53
449.758	1296.17
450.132	1331.42
450.506	1348.37
450.88	1359.22
451.254	1326.67
451.628	1361.93
452.002	1377.75
452.376	1382.72
452.75	1370.74
453.123	1376.62
453.497	1398.76
453.871	1433.34
454.244	1429.72
454.618	1464.3
454.992	1447.57
455.365	1440.34
455.739	1487.8
456.112	1480.34
456.486	1483.05
456.859	1509.72
457.232	1521.7
457.606	1496.16
457.979	1525.31
458.352	1544.52
458.725	1563.05
459.099	1561.24
459.472	1573.9
459.845	1586.78
460.218	1580
460.591	1597.63
460.964	1605.99
461.337	1638.98
461.71	1647.12
462.083	1669.72
462.456	1667
462.829	1647.8
463.201	1722.6
463.574	1698.19
463.947	1719.21
464.32	1686.89
464.692	1709.49
465.065	1742.48
465.438	1763.27
465.81	1778.87
466.183	1799.43
466.555	1800.79
466.928	1835.36
467.3	1794.46
467.672	1850.73
468.045	1885.3
468.417	1853.67
468.789	1875.36
469.161	1888.92
469.534	1896.15
469.906	1928.69
470.278	1943.83
470.65	1958.3
471.022	2002.36
471.394	1994
471.766	2018.41
472.138	2055.92
472.51	2092.98
472.882	2106.09
473.253	2123.94
473.625	2130.95
473.997	2158.74
474.369	2185.18
474.74	2200.1
475.112	2206.88
475.484	2262.02
475.855	2287.1
476.227	2264.95
476.598	2328.46
476.97	2355.35
477.341	2366.87
477.713	2391.28
478.084	2414.33
478.455	2429.02
478.827	2426.76
479.198	2497.49
479.569	2487.1
479.94	2516.02
480.311	2571.84
480.682	2564.38
481.053	2616.81
481.424	2649.13
481.795	2655.23
482.166	2727.77
482.537	2717.82
482.908	2775.9
483.279	2799.18
483.65	2817.03
484.021	2868.33
484.391	2881.89
484.762	2886.63
485.133	2878.95
485.503	2919.4
485.874	3015.9
486.244	3014.77
486.615	3066.29
486.985	3073.52
487.356	3080.53
487.726	3132.73
488.097	3137.25
488.467	3135.89
488.837	3244.59
489.207	3197.13
489.578	3279.39
489.948	3329.56
490.318	3306.28
490.688	3345.83
491.058	3419.95
491.428	3404.13
491.798	3401.65
492.168	3516.45
492.538	3464.25
492.908	3545.15
493.278	3546.73
493.648	3591.7
494.017	3557.8
494.387	3600.06
494.757	3634.18
495.126	3631.7
495.496	3669.66
495.866	3680.28
496.235	3670.79
496.605	3744.24
496.974	3751.02
497.344	3740.62
497.713	3782.2
498.082	3789.66
498.452	3849.55
498.821	3836.66
499.19	3870.11
499.559	3888.87
499.928	3887.06
500.298	3930
500.667	3941.97
501.036	3899.26
501.405	3910.34
501.774	3946.04
502.143	3930.67
502.512	3976.32
502.88	4027.39
503.249	4064.23
503.618	4048.64
503.987	4058.58
504.356	4112.59
504.724	4101.06
505.093	4083.66
505.462	4111.69
505.83	4113.27
506.199	4155.98
506.567	4178.8
506.936	4175.41
507.304	4203.21
507.672	4219.03
508.041	4228.74
508.409	4207.95
508.777	4266.26
509.145	4289.99
509.514	4256.77
509.882	4296.31
510.25	4297.9
510.618	4321.62
510.986	4299.93
511.354	4354.84
511.722	4362.3
512.09	4376.76
512.458	4358.23
512.826	4385.35
513.193	4415.86
513.561	4433.71
513.929	4426.48
514.297	4507.83
514.664	4508.06
515.032	4527.49
515.4	4497.66
515.767	4509.64
516.135	4519.13
516.502	4522.97
516.869	4580.37
517.237	4593.48
517.604	4540.37
517.972	4588.96
518.339	4588.06
518.706	4591.67
519.073	4565.23
519.44	4605.91
519.808	4700.37
520.175	4619.02
520.542	4700.14
520.909	4741.5
521.276	4667.6
521.643	4769.97
522.009	4741.05
522.376	4790.99
522.743	4764.32
523.11	4831.21
523.477	4789.63
523.843	4885.45
524.21	4949.18
524.577	4917.77
524.943	4927.94
525.31	4943.3
525.676	5016.97
526.043	4982.85
526.409	5006.8
526.776	5076.63
527.142	5106.91
527.508	5080.7
527.874	5147.59
528.241	5129.74
528.607	5156.63
528.973	5203.86
529.339	5193.69
529.705	5190.08
530.071	5231.88
530.437	5252.67
530.803	5266.91
531.169	5301.71
531.535	5309.62
531.901	5341.71
532.267	5358.88
532.632	5359.11
532.998	5433.01
533.364	5444.31
533.73	5449.05
534.095	5511.87
534.461	5492.44
534.826	5571.31
535.192	5529.5
535.557	5644.75
535.923	5613.79
536.288	5611.31
536.653	5626
537.019	5661.02
537.384	5747.35
537.749	5688.82
538.114	5718.65
538.479	5774.47
538.845	5743.51
539.21	5759.1
539.575	5767.91
539.94	5786.22
540.305	5877.51
540.67	5868.02
541.034	5874.58
541.399	5939.66
541.764	5944.63
542.129	5966.55
542.494	6021.24
542.858	5985.53
543.223	6087.45
543.587	6067.11
543.952	6085.19
544.316	6079.77
544.681	6158.64
545.045	6156.38
545.41	6148.02
545.774	6222.14
546.138	6198.86
546.503	6294
546.867	6237.51
547.231	6279.76
547.595	6286.54
547.959	6356.6
548.324	6372.19
548.688	6372.87
549.052	6384.17
549.416	6450.61
549.779	6420.78
550.143	6499.42
550.507	6519.76
550.871	6519.76
551.235	6531.51
551.599	6540.1
551.962	6602.92
552.326	6627.55
552.689	6648.12
553.053	6599.76
553.417	6584.62
553.78	6659.42
554.143	6642.92
554.507	6746.87
554.87	6725.18
555.234	6811.5
555.597	6726.31
555.96	6798.62
556.323	6850.6
556.686	6817.38
557.05	6875.23
557.413	6893.99
557.776	6863.48
558.139	6939.41
558.502	6971.95
558.865	6952.06
559.228	6987.32
559.59	6948
559.953	6998.62
560.316	7107.77
560.679	7121.1
561.041	7083.58
561.404	7129.23
561.767	7178.95
562.129	7133.08
562.492	7125.62
562.854	7214.43
563.217	7225.95
563.579	7228.89
563.941	7247.87
564.304	7268.66
564.666	7353.63
565.028	7319.74
565.39	7412.16
565.753	7414.42
566.115	7425.72
566.477	7469.34
566.839	7520.18
567.201	7465.95
567.563	7554.08
567.925	7543.69
568.287	7592.27
568.648	7589.33
569.01	7644.93
569.372	7707.52
569.734	7649.9
570.095	7730.12
570.457	7785.04
570.819	7829.55
571.18	7816.9
571.542	7839.5
571.903	7921.53
572.265	7927.18
572.626	7914.3
572.987	7991.58
573.349	8087.17
573.71	8120.17
574.071	8105.25
574.432	8197.91
574.794	8307.96
575.155	8321.52
575.516	8300.5
575.877	8373.95
576.238	8424.34
576.599	8534.39
576.96	8625.24
577.32	8662.3
577.681	8804.22
578.042	8852.8
578.403	8926.02
578.763	9029.07
579.124	9016.64
579.485	9186.35
579.845	9338.67
580.206	9446.01
580.566	9517.65
580.927	9615.5
581.287	9794.93
581.648	9821.37
582.008	10162.15
582.368	10192.66
582.728	10361.01
583.089	10463.61
583.449	10595.81
583.809	10823.6
584.169	10952.18
584.529	11128.9
584.889	11362.34
585.249	11553.3
585.609	11767.76
585.969	11962.33
586.329	12247.52
586.688	12379.04
587.048	12637.56
587.408	12800.04
587.768	13093.37
588.127	13293.14
588.487	13574.26
588.846	13855.16
589.206	14020.8
589.565	14329.04
589.925	14699.88
590.284	14841.12
590.643	15310.71
591.003	15560.2
591.362	15722.45
591.721	16047.64
592.08	16365.15
592.44	16642.88
592.799	16973.49
593.158	17286.25
593.517	17584.78
593.876	17864.09
594.235	18180.24
594.593	18524.87
594.952	18767.8
595.311	19117.39
595.67	19457.72
596.029	19730.71
596.387	20087.54
596.746	20446.62
597.104	20679.16
597.463	20849.1
597.822	21458.35
598.18	21606.14
598.538	21870.09
598.897	22437.98
599.255	22499.22
599.613	23028.7
599.972	23148.25
600.33	23590.04
600.688	23643.38
601.046	24181.89
601.404	24552.5
601.762	24650.81
602.12	25159.95
602.478	25456.44
602.836	25741.4
603.194	25788.4
603.552	26284.44
603.91	26386.35
604.268	26797.19
604.625	27005.32
604.983	27295.71
605.341	27624.06
605.698	27947.44
606.056	28202.13
606.413	28366.64
606.771	28727.54
607.128	29099.73
607.485	29137.92
607.843	29448.87
608.2	29867.39
608.557	30055.64
608.914	30132.02
609.272	30563.87
609.629	30769.74
609.986	30995.27
610.343	31166.12
610.7	31646.55
611.057	31717.29
611.414	31912.31
611.771	32163.6
612.127	32371.51
612.484	32590.26
612.841	32817.6
613.198	32891.95
613.554	33051.94
613.911	33437.92
614.267	33580.06
614.624	33777.57
614.98	33944.35
615.337	34174.62
615.693	34289.2
616.05	34422.75
616.406	34822.74
616.762	34698.45
617.118	34935.06
617.475	35087.82
617.831	35292.11
618.187	35578.43
618.543	35639.22
618.899	35958.08
619.255	36110.17
619.611	36124.18
619.967	36320.56
620.323	36350.61
620.678	36482.59
621.034	36571.85
621.39	36636.03
621.746	36754.9
622.101	37180.19
622.457	37001.67
622.812	37298.16
623.168	37404.82
623.523	37467.42
623.879	37829.67
624.234	37446.63
624.589	37739.73
624.945	37773.63
625.3	38038.48
625.655	38114.86
626.01	38163.67
626.365	38293.61
626.72	38084.58
627.075	38290.67
627.43	38303.1
627.785	38371.35
628.14	38539.03
628.495	38654.28
628.85	38704.45
629.205	38609.76
629.559	38907.15
629.914	38664.22
630.269	38857.66
630.623	38766.37
630.978	38779.47
631.332	39038.68
631.687	38984.67
632.041	38903.09
632.396	39048.17
632.75	39006.81
633.104	39075.74
633.459	38783.54
633.813	39007.72
634.167	38934.27
634.521	39071.9
634.875	39197.09
635.229	39059.24
635.583	38911.22
635.937	39022.41
636.291	39163.19
636.645	39183.53
636.999	38995.74
637.352	39179.24
637.706	39130.2
638.06	39122.74
638.413	39129.07
638.767	39075.51
639.121	39114.16
639.474	38987.38
639.828	38962.29
640.181	38974.27
640.534	39157.32
640.888	39025.34
641.241	38979.47
641.594	39028.51
641.947	39222.4
642.301	38942.18
642.654	39060.6
643.007	38996.64
643.36	39126.81
643.713	38950.09
644.066	39138.79
644.419	38897.66
644.771	38728.4
645.124	38379.26
645.477	38179.72
645.83	38070.34
646.182	37937.01
646.535	37759.39
646.888	37920.74
647.24	37755.55
647.593	37949.89
647.945	37855.43
648.298	37853.85
648.65	37736.11
649.002	37571.6
649.355	37753.96
649.707	37708.77
650.059	37893.4
650.411	38267.85
650.763	38364.34
651.115	38774.28
651.467	38767.95
651.819	38674.39
652.171	38620.83
652.523	38428.52
652.875	38569.54
653.227	38361.18
653.578	38718.91
653.93	38555.53
654.282	38359.6
654.633	38370.9
654.985	38359.82
655.337	38376.1
655.688	38423.1
656.039	38747.61
656.391	38240.73
656.742	38389.88
657.094	38268.3
657.445	38536.09
657.796	38308.53
658.147	38416.55
658.498	38246.83
658.849	38294.06
659.2	38295.65
659.551	38191.47
659.902	38254.06
660.253	38405.7
660.604	38403.44
660.955	38086.84
661.306	38245.48
661.656	38187.4
662.007	38281.18
662.358	38115.09
662.708	38219.94
663.059	38159.15
663.409	38035.31
663.76	38328.87
664.11	38211.13
664.461	38425.81
664.811	38252.26
665.161	38075.99
665.511	38120.96
665.862	38191.47
666.212	38305.81
666.562	38308.53
666.912	38349.43
667.262	38085.48
667.612	38180.85
667.962	38184.46
668.312	38162.09
668.662	38241.64
669.011	38150.11
669.361	38153.95
669.711	37948.31
670.06	37948.99
670.41	38131.36
670.76	37964.13
671.109	38231.92
671.459	38169.77
671.808	37932.04
672.157	38068.98
672.507	37822.89
672.856	37927.52
673.205	37944.02
673.554	38078.7
673.904	37828.31
674.253	38029.66
674.602	38019.49
674.951	37449.57
675.3	37147.65
675.649	37872.38
675.998	37863.11
676.346	37792.16
676.695	37972.26
677.044	37575.44
677.393	37699.28
677.741	37765.72
678.09	37599.39
678.438	37651.82
678.787	37674.42
679.135	37568.21
679.484	37414.09
679.832	37536.8
680.181	37353.3
680.529	37595.78
680.877	37353.75
681.225	37359.85
681.573	37505.61
681.922	37212.74
682.27	37148.33
682.618	37046.64
682.966	37100.2
683.314	37106.07
683.661	37099.07
684.009	36907.43
684.357	36882.58
684.705	36725.52
685.053	36681.22
685.4	36827.44
685.748	36498.86
686.095	36675.58
686.443	36504.73
686.79	36488.91
687.138	36545.86
687.485	36521.68
687.832	36424.96
688.18	36426.99
688.527	36139.09
688.874	36219.32
689.221	36141.58
689.568	35842.6
689.915	35957.85
690.262	35992.43
690.609	35828.59
690.956	35608.71
691.303	35637.86
691.65	35508.83
691.997	35538.66
692.344	35257.08
692.69	35284.65
693.037	35372.11
693.383	35028.39
693.73	35044.66
694.077	34895.74
694.423	34949.07
694.769	34741.61
695.116	34717.89
695.462	34688.96
695.808	34626.36
696.155	34584.56
696.501	34213.27
696.847	34365.35
697.193	34216.43
697.539	34234.74
697.885	34098.02
698.231	34113.38
698.577	33931.92
698.923	33810.79
699.269	33757.46
699.614	33550.23
699.96	33517.47
700.306	33623
700.651	33540.06
700.997	33266.85
701.342	33201.77
701.688	33252.84
702.033	33145.5
702.379	33225.95
702.724	32990.93
703.069	33004.94
703.415	32816.24
703.76	32766.98
704.105	32929.01
704.45	32644.27
704.795	32462.13
705.14	32374.9
705.485	32381.22
705.83	32282.92
706.175	32294.22
706.52	32229.36
706.865	32013.32
707.209	32071.18
707.554	32008.58
707.899	32203.6
708.243	31826.66
708.588	31784.63
708.932	31523.17
709.277	31569.95
709.621	31637.74
709.966	31388.26
710.31	31531.08
710.654	31170.64
710.998	31373.79
711.342	31186.68
711.687	31068.94
712.031	31066.46
712.375	30896.07
712.719	30978.55
713.063	30855.16
713.407	30870.3
713.75	30865.33
714.094	30747.6
714.438	30619.01
714.782	30691.78
715.125	30443.2
715.469	30618.33
715.812	30234.61
716.156	30181.96
716.499	30269.19
716.843	30272.13
717.186	30099.48
717.53	30200.94
717.873	30215.18
718.216	30091.12
718.559	29968.86
718.902	29789.43
719.246	29967.5
719.589	29919.59
719.932	29660.17
720.275	29637.57
720.617	29730
720.96	29585.14
721.303	29592.6
721.646	29517.8
721.989	29424.24
722.331	29417.46
722.674	29384.69
723.016	29458.36
723.359	29294.75
723.701	29316.67
724.044	29153.29
724.386	28988.55
724.729	29136.11
725.071	28952.39
725.413	28997.13
725.755	28965.27
726.097	28898.38
726.439	28768.44
726.782	28688.21
727.124	28886.4
727.465	28697.03
727.807	28698.38
728.149	28543.13
728.491	28550.14
728.833	28516.47
729.175	28437.37
729.516	28343.14
729.858	28247.1
730.199	28347.43
730.541	28288.23
730.882	28257.04
731.224	28434.21
731.565	28029.93
731.906	28117.38
732.248	28203.26
732.589	28048.23
732.93	27829.25
733.271	27949.03
733.612	27899.08
733.953	27954
734.294	27816.6
734.635	27798.75
734.976	27828.8
735.317	27714.68
735.658	27689.82
735.999	27669.71
736.339	27543.84
736.68	27729.37
737.021	27475.37
737.361	27556.72
737.702	27581.58
738.042	27438.98
738.383	27423.84
738.723	27424.75
739.063	27244.64
739.404	27383.16
739.744	27234.92
740.084	27236.95
740.424	27260
740.764	27151.98
741.104	27120.57
741.444	26920.8
741.784	26960.58
742.124	26970.97
742.464	26929.39
742.804	26895.72
743.143	26856.17
743.483	26832.22
743.823	26682.62
744.162	26697.76
744.502	26826.79
744.841	26660.7
745.181	26702.05
745.52	26498.89
745.86	26592.22
746.199	26464.32
746.538	26465.67
746.877	26491.44
747.216	26450.76
747.556	26301.61
747.895	26487.14
748.234	26217.77
748.573	26171.22
748.911	26095.29
749.25	26193.82
749.589	26098.68
749.928	26002.41
750.267	26124.67
750.605	25993.82
750.944	25955.41
751.283	25843.54
751.621	25886.48
751.96	25698.69
752.298	25784.34
752.636	25752.7
752.975	25567.84
753.313	25412.82
753.651	25728.97
753.989	25396.55
754.327	25383.22
754.666	25322.2
755.004	25253.95
755.342	25271.81
755.679	25284.01
756.017	25143
756.355	25193.84
756.693	25080.85
757.031	25101.87
757.368	24957.24
757.706	24849.9
758.044	24951.59
758.381	24745.49
758.719	24632.05
759.056	24760.63
759.394	24577.36
759.731	24535.78
760.068	24510.47
760.405	24300.99
760.743	24220.76
761.08	24325.39
761.417	24127.66
761.754	24161.78
762.091	24133.53
762.428	23985.06
762.765	23767.67
763.102	23976.93
763.438	23662.36
763.775	23588.69
764.112	23731.51
764.449	23656.71
764.785	23545.75
765.122	23432.08
765.458	23463.49
765.795	23245.65
766.131	23287.9
766.467	23184.63
766.804	23051.07
767.14	23018.53
767.476	22988.93
767.812	22858.31
768.148	22803.85
768.485	22742.16
768.821	22540.13
769.157	22654.02
769.492	22546.46
769.828	22403.63
770.164	22358.66
770.5	22166.8
770.836	22223.07
771.171	22131.78
771.507	22037.77
771.842	21946.7
772.178	21999.8
772.513	21761.84
772.849	21699.92
773.184	21716.42
773.519	21560.94
773.855	21445.24
774.19	21528.18
774.525	21475.97
774.86	21275.3
775.195	21318.46
775.53	21121.63
775.865	21024.01
776.2	20855.43
776.535	20769.33
776.87	20818.82
777.205	20759.16
777.539	20738.14
777.874	20583.79
778.209	20471.48
778.543	20457.24
778.878	20326.4
779.212	20302.9
779.547	20190.58
779.881	20216.12
780.215	20058.16
780.55	20036.01
780.884	20006.41
781.218	19931.83
781.552	19856.36
781.886	19741.33
782.22	19679.41
782.554	19548.79
782.888	19439.87
783.222	19404.62
783.556	19373.66
783.889	19305.86
784.223	19062.93
784.557	19146.09
784.89	19163.72
785.224	18986.55
785.557	18964.63
785.891	18795.59
786.224	18817.29
786.558	18811.19
786.891	18702.26
787.224	18624.52
787.557	18493.23
787.891	18446.9
788.224	18542.72
788.557	18467.92
788.89	18354.93
789.223	18340.92
789.556	18307.47
789.888	18191.77
790.221	18004.88
790.554	17877.43
790.887	18033.58
791.219	17898.44
791.552	17878.78
791.884	17714.94
792.217	17700.48
792.549	17622.52
792.882	17408.51
793.214	17441.5
793.546	17534.16
793.879	17413.03
794.211	17220.95
794.543	17276.09
794.875	17196.54
795.207	17273.15
795.539	17138.46
795.871	17096.43
796.203	16961.07
796.535	16951.57
796.867	16829.32
797.198	16801.3
797.53	16812.37
797.862	16728.76
798.193	16656.67
798.525	16677.68
798.856	16601.98
799.188	16418.48
799.519	16394.07
799.85	16330.35
800.182	16313.62
800.513	16317.69
800.844	16148.88
801.175	16247.64
801.506	16194.31
801.837	16075.44
802.168	16125.16
802.499	15938.27
802.83	15970.36
803.161	15785.05
803.491	15912.51
803.822	15861.43
804.153	15795.67
804.483	15651.72
804.814	15573.31
805.145	15581.21
805.475	15646.07
805.805	15531.27
806.136	15516.13
806.466	15431.39
806.796	15459.64
807.126	15337.83
807.457	15296.7
807.787	15242.47
808.117	15207.89
808.447	15216.7
808.777	15153.88
809.107	15075.92
809.436	15015.58
809.766	15087.67
810.096	15011.29
810.426	14837.73
810.755	14906.66
811.085	14926.99
811.414	14792.99
811.744	14723.61
812.073	14625.31
812.403	14680.9
812.732	14584.63
813.061	14571.75
813.39	14584.86
813.719	14477.29
814.049	14584.63
814.378	14519.1
814.707	14443.84
815.036	14359.55
815.365	14294.47
815.693	14099.45
816.022	14233.23
816.351	14196.62
816.68	14106.68
817.008	14152.55
817.337	14042.95
817.665	14005.21
817.994	13962.73
818.322	13988.49
818.651	13898.32
818.979	13849.96
819.307	13960.47
819.636	13851.32
819.964	13795.5
820.292	13907.59
820.62	13753.01
820.948	13824.88
821.276	13818.55
821.604	13812.67
821.932	13862.62
822.259	13816.52
822.587	13738.33
822.915	13686.35
823.243	13748.49
823.57	13765.67
823.898	13742.84
824.225	13699.68
824.553	13587.37
824.88	13695.16
825.207	13703.07
825.535	13706.91
825.862	13677.99
826.189	13641.38
826.516	13632.11
826.843	13743.75
827.17	13728.16
827.497	13766.35
827.824	13648.61
828.151	13799.34
828.478	13611.77
828.805	13668.72
829.131	13612.45
829.458	13589.4
829.785	13565.45
830.111	13536.75
830.438	13731.77
830.764	13688.38
831.09	13650.19
831.417	13580.59
831.743	13538.78
832.069	13602.06
832.395	13503.08
832.722	13649.06
833.048	13561.15
833.374	13583.53
833.7	13461.04
834.026	13483.64
834.351	13525
834.677	13491.1
835.003	13519.35
835.329	13565.9
835.654	13440.93
835.98	13475.51
836.306	13382.4
836.631	13409.52
836.956	13464.66
837.282	13365.23
837.607	13375.4
837.932	13357.77
838.258	13294.95
838.583	13249.98
838.908	13209.98
839.233	13267.6
839.558	13254.5
839.883	13151.22
840.208	13072.35
840.533	13097.89
840.858	13120.04
841.182	13091.79
841.507	13108.51
841.832	13043.88
842.156	12960.04
842.481	12954.84
842.805	12983.99
843.13	12954.17
843.454	12853.83
843.778	12905.58
844.103	12809.54
844.427	12776.09
844.751	12835.52
845.075	12735.64
845.399	12717.56
845.723	12611.8
846.047	12618.81
846.371	12511.92
846.695	12552.37
847.019	12422.65
847.343	12369.77
847.666	12289.1
847.99	12244.13
848.313	12300.17
848.637	12144.02
848.96	12171.13
849.284	12144.47
849.607	12088.65
849.931	12099.72
850.254	11906.06
850.577	11880.07
850.9	11794.65
851.223	11845.95
851.546	11678.27
851.869	11685.05
852.192	11729.11
852.515	11581.32
852.838	11566.18
853.161	11589.91
853.483	11479.85
853.806	11376.13
854.129	11413.87
854.451	11304.72
854.774	11339.07
855.096	11313.53
855.419	11219.52
855.741	11291.84
856.063	11193.08
856.385	11132.97
856.708	11136.59
857.03	11044.61
857.352	11087.32
857.674	11052.52
857.996	10992.18
858.318	10961
858.64	10988.79
858.961	10939.98
859.283	10897.5
859.605	10786.76
859.926	10792.87
860.248	10774.34
860.57	10741.12
860.891	10713.55
861.212	10657.05
861.534	10662.47
861.855	10641.91
862.176	10612.08
862.498	10615.92
862.819	10594.23
863.14	10516.49
863.461	10535.92
863.782	10470.39
864.103	10441.91
864.424	10426.77
864.745	10451.63
865.065	10457.51
865.386	10408.02
865.707	10429.49
866.027	10430.16
866.348	10399.88
866.668	10316.95
866.989	10318.98
867.309	10267.46
867.63	10276.72
867.95	10280.56
868.27	10279.66
868.59	10245.99
868.91	10201.47
869.23	10181.13
869.55	10112.21
869.87	10190.17
870.19	10116.5
870.51	10180
870.83	10062.94
871.15	10084.18
871.469	10108.82
871.789	10048.7
872.109	10046.9
872.428	10007.58
872.748	10041.7
873.067	10079.44
873.386	10034.47
873.706	10015.49
874.025	9963.06
874.344	9897.97
874.663	9858.65
874.982	9942.72
875.301	9858.2
875.62	9896.62
875.939	9773.68
876.258	9838.31
876.577	9807.13
876.896	9864.98
877.214	9748.37
877.533	9845.55
877.852	9767.13
878.17	9740.46
878.489	9754.02
878.807	9743.63
879.125	9702.5
879.444	9655.72
879.762	9674.93
880.08	9666.12
880.398	9592.67
880.716	9621.37
881.034	9564.65
881.352	9585.67
881.67	9524.65
881.988	9541.83
882.306	9464.54
882.624	9484.43
882.941	9415.28
883.259	9416.18
883.577	9357.88
883.894	9383.64
884.212	9316.29
884.529	9332.57
884.846	9292.57
885.164	9332.34
885.481	9242.85
885.798	9269.74
886.115	9244.43
886.432	9184.55
886.75	9123.76
887.067	9215.28
887.383	9119.46
887.7	9130.76
888.017	9168.28
888.334	9110.88
888.651	9044.21
888.967	9044.44
889.284	9029.75
889.6	8982.74
889.917	8932.58
890.233	8966.47
890.55	8909.98
890.866	8886.02
891.182	8884.22
891.498	8825.46
891.815	8871.79
892.131	8807.61
892.447	8748.4
892.763	8744.78
893.079	8778.68
893.395	8655.52
893.71	8644.22
894.026	8617.78
894.342	8591.34
894.657	8537.33
894.973	8528.07
895.289	8557.44
895.604	8504.79
895.92	8444.45
896.235	8423.44
896.55	8396.09
896.865	8451.46
897.181	8344.12
897.496	8345.92
897.811	8287.17
898.126	8298.02
898.441	8251.01
898.756	8256.66
899.071	8176.21
899.386	8205.14
899.7	8093.28
900.015	8100.06
900.33	8013.5
900.644	8021.64
900.959	7988.42
901.273	8026.39
901.588	7973.73
901.902	7876.11
902.216	7859.16
902.531	7823.45
902.845	7851.47
903.159	7750.46
903.473	7742.78
903.787	7749.56
904.101	7638.82
904.415	7685.15
904.729	7632.95
905.042	7578.49
905.356	7564.48
905.67	7595.89
905.984	7607.19
906.297	7545.27
906.611	7503.69
906.924	7435.89
907.237	7503.46
907.551	7434.08
907.864	7387.76
908.177	7307.99
908.491	7374.2
908.804	7348.66
909.117	7284.26
909.43	7298.04
909.743	7184.6
910.056	7199.97
910.368	7162
910.681	7125.39
910.994	7107.09
911.307	7064.83
911.619	6998.16
911.932	7009.24
912.244	6996.81
912.557	6993.64
912.869	6966.3
913.181	6873.65
913.494	6869.35
913.806	6790.26
914.118	6797.26
914.43	6763.59
914.742	6797.72
915.054	6695.12
915.366	6721.33
915.678	6666.65
915.99	6664.84
916.302	6594.78
916.613	6564.28
916.925	6504.39
917.236	6606.76
917.548	6502.36
917.859	6474.56
918.171	6381.23
918.482	6355.24
918.794	6394.56
919.105	6379.65
919.416	6284.06
919.727	6351.4
920.038	6314.57
920.349	6251.06
920.66	6213.33
920.971	6219.43
921.282	6249.26
921.593	6169.03
921.903	6120.9
922.214	6084.52
922.525	6116.38
922.835	6082.03
923.146	6045.42
923.456	6051.97
923.767	5960.45
924.077	6014.01
924.387	5944.18
924.697	5864.63
925.008	5914.8
925.318	5896.05
925.628	5829.83
925.938	5824.18
926.248	5737.86
926.558	5757.29
926.867	5709.61
927.177	5696.05
927.487	5708.48
927.796	5662.83
928.106	5635.04
928.416	5621.93
928.725	5564.08
929.034	5534.93
929.344	5547.58
929.653	5528.82
929.962	5502.38
930.271	5459.9
930.581	5465.55
930.89	5429.62
931.199	5365.89
931.508	5376.96
931.817	5342.39
932.125	5355.95
932.434	5276.17
932.743	5248.38
933.051	5250.41
933.36	5203.18
933.669	5186.46
933.977	5188.27
934.286	5162.73
934.594	5120.47
934.902	5112.11
935.21	5100.13
935.519	5113.24
935.827	5073.92
936.135	5002.96
936.443	4992.34
936.751	4981.49
937.059	5008.61
937.367	4960.7
937.674	4941.27
937.982	4949.86
938.29	4946.69
938.597	4920.03
938.905	4867.6
939.213	4821.05
939.52	4810.65
939.827	4815.85
940.135	4778.79
940.442	4796.64
940.749	4752.57
941.056	4762.52
941.363	4670.99
941.67	4715.96
941.977	4627.83
942.284	4571.11
942.591	4615.63
942.898	4567.94
943.205	4566.81
943.511	4552.8
943.818	4493.6
944.125	4507.38
944.431	4488.4
944.738	4501.51
945.044	4440.94
945.35	4424.67
945.657	4394.39
945.963	4431.45
946.269	4379.48
946.575	4379.25
946.881	4330.44
947.187	4365.01
947.493	4313.04
947.799	4285.01
948.105	4261.96
948.41	4259.25
948.716	4227.16
949.022	4216.32
949.327	4200.04
949.633	4200.72
949.938	4167.73
950.244	4153.49
950.549	4113.95
950.854	4090.9
951.16	4105.81
951.465	4047.05
951.77	4001.63
952.075	4012.48
952.38	4045.92
952.685	4031.91
952.99	3950.11
953.294	3982.42
953.599	3978.81
953.904	3916.66
954.209	3893.39
954.513	3901.97
954.818	3879.15
955.122	3887.74
955.426	3851.13
955.731	3848.87
956.035	3832.6
956.339	3833.73
956.643	3832.82
956.948	3748.53
957.252	3743.56
957.556	3784.69
957.86	3749.21
958.163	3709.21
958.467	3684.13
958.771	3725.26
959.075	3690
959.378	3648.65
959.682	3621.53
959.985	3601.87
960.289	3586.5
960.592	3612.04
960.896	3561.87
961.199	3553.73
961.502	3546.05
961.805	3526.39
962.108	3509.67
962.411	3512.15
962.714	3452.04
963.017	3440.52
963.32	3447.75
963.623	3454.75
963.926	3379.95
964.228	3382.21
964.531	3408.43
964.833	3374.3
965.136	3342.44
965.438	3290.69
965.741	3338.37
966.043	3289.11
966.345	3316.23
966.648	3308.32
966.95	3253.86
967.252	3241.43
967.554	3231.71
967.856	3238.49
968.158	3184.03
968.46	3169.79
968.761	3152.16
969.063	3140.64
969.365	3154.87
969.666	3182.67
969.968	3137.7
970.269	3118.49
970.571	3121.2
970.872	3053.86
971.174	3068.55
971.475	3079.4
971.776	3069.68
972.077	3050.92
972.378	3007.99
972.679	3000.08
972.98	2967.31
973.281	3017.48
973.582	2971.6
973.883	2987.65
974.183	2961.43
974.484	2944.48
974.785	2898.38
975.085	2890.7
975.386	2910.59
975.686	2886.63
975.986	2822.45
976.287	2844.37
976.587	2826.75
976.887	2838.5
977.187	2803.92
977.487	2842.57
977.787	2820.87
978.087	2747.2
978.387	2746.98
978.687	2713.08
978.987	2756.47
979.286	2730.25
979.586	2726.19
979.885	2717.6
980.185	2666.53
980.484	2695
980.784	2670.14
981.083	2663.36
981.382	2615.68
981.682	2629.69
981.981	2615
982.28	2606.41
982.579	2642.57
982.878	2617.49
983.177	2553.76
983.475	2599.41
983.774	2572.74
984.073	2520.09
984.372	2535
984.67	2533.42
984.969	2528
985.267	2524.38
985.566	2508.11
985.864	2445.51
986.162	2483.03
986.461	2478.96
986.759	2457.72
987.057	2432.41
987.355	2443.71
987.653	2407.1
987.951	2424.05
988.249	2405.52
988.547	2393.09
988.844	2367.55
989.142	2358.51
989.44	2363.94
989.737	2353.54
990.035	2303.82
990.332	2297.72
990.63	2306.08
990.927	2310.15
991.224	2281.9
991.521	2271.73
991.819	2255.46
992.116	2263.82
992.413	2252.75
992.71	2236.48
993.006	2224.73
993.303	2171.62
993.6	2189.25
993.897	2179.76
994.193	2200.1
994.49	2164.17
994.787	2168.23
995.083	2133.66
995.379	2150.83
995.676	2132.3
995.972	2147.44
996.268	2098.86
996.565	2094.34
996.861	2099.54
997.157	2077.16
997.453	2056.37
997.749	2088.91
998.044	2063.6
998.34	2041.46
998.636	2038.29
998.932	2022.02
999.227	2032.87
999.523	2032.19
999.818	2008.69
1000.114	1976.15
1000.409	1982.02
1000.704	1951.06
1001	1952.19
1001.295	1942.25
1001.59	1908.13
1001.885	1937.73
1002.18	1916.49
1002.475	1907
1002.77	1876.04
1003.065	1868.81
1003.359	1867
1003.654	1879.65
1003.949	1814.57
1004.243	1850.5
1004.538	1826.32
1004.832	1821.35
1005.127	1828.13
1005.421	1815.93
1005.715	1787.9
1006.009	1791.75
1006.304	1778.64
1006.598	1775.48
1006.892	1741.35
1007.186	1718.53
1007.48	1755.82
1007.773	1699.32
1008.067	1702.03
1008.361	1709.26
1008.655	1678.98
1008.948	1699.55
1009.242	1661.13
1009.535	1666.55
1009.829	1675.59
1010.122	1642.37
1010.415	1669.94
1010.708	1627.23
1011.001	1631.52
1011.295	1576.39
1011.588	1610.96
1011.881	1560.11
1012.173	1564.63
1012.466	1596.5
1012.759	1566.67
1013.052	1569.38
1013.344	1535.93
1013.637	1554.24
1013.93	1501.13
1014.222	1517.18
1014.514	1548.14
1014.807	1523.96
1015.099	1491.42
1015.391	1487.57
1015.683	1494.81
1015.976	1493
1016.268	1499.55
1016.56	1470.4
1016.851	1438.76
1017.143	1435.37
1017.435	1440.34
1017.727	1389.72
1018.018	1418.65
1018.31	1392.44
1018.602	1377.07
1018.893	1387.01
1019.185	1399.89
1019.476	1382.27
1019.767	1354.02
1020.058	1362.83
1020.35	1357.18
1020.641	1342.94
1020.932	1326.67
1021.223	1324.41
1021.514	1288.03
1021.804	1295.71
1022.095	1325.77
1022.386	1297.3
1022.677	1259.78
1022.967	1289.39
1023.258	1281.25
1023.548	1238.31
1023.839	1258.43
1024.129	1233.57
1024.419	1236.96
1024.709	1238.77
1025	1206.68
1025.29	1198.54
1025.58	1177.98
1025.87	1200.12
1026.16	1167.81
1026.449	1179.56
1026.739	1180.24
1027.029	1157.19
1027.319	1144.76
1027.608	1163.97
1027.898	1108.83
1028.187	1132.78
1028.477	1134.81
1028.766	1135.49
1029.055	1111.99
1029.344	1112.89
1029.634	1088.04
1029.923	1106.11
1030.212	1072.67
1030.501	1082.16
1030.79	1063.86
1031.078	1070.86
1031.367	1061.37
1031.656	1075.16
1031.945	1052.33
1032.233	1018.89
1032.522	1051.2
1032.81	1013.91
1033.099	1026.34
1033.387	1031.09
1033.675	994.71
1033.963	986.57
1034.251	989.28
1034.54	975.95
1034.828	976.85
1035.116	962.16
1035.403	977.53
1035.691	986.34
1035.979	951.32
1036.267	926.91
1036.554	930.98
1036.842	916.97
1037.129	936.18
1037.417	919.68
1037.704	913.8
1037.992	920.13
1038.279	899.34
1038.566	917.42
1038.853	917.42
1039.14	917.42
