Data from hue_20_FLMS001491_5.txt Node
Date: Mon Feb 06 15:33:32 GMT 2017
User: dcchb
Spectrometer: FLMS00149
Trigger mode: 0
Integration Time (sec): 2.000000E-2
Scans to average: 10
Electric dark correction enabled: true
Nonlinearity correction enabled: false
Boxcar width: 0
XAxis mode: Wavelengths
Number of Pixels in Spectrum: 2048
>>>>>Begin Spectral Data<<<<<
341.393	-11.1
341.776	-11.1
342.16	-11.1
342.543	-52.46
342.927	-62.4
343.31	-73.02
343.693	-69.86
344.077	-56.52
344.46	-54.72
344.843	-66.69
345.226	-53.13
345.61	-24.89
345.993	-12.68
346.376	-1.16
346.759	9.24
347.142	17.82
347.525	49.46
347.908	43.13
348.291	72.74
348.674	98.5
349.057	121.78
349.44	123.13
349.823	139.4
350.206	164.04
350.588	206.07
350.971	207.88
351.354	222.34
351.737	235.67
352.119	240.87
352.502	272.28
352.884	269.34
353.267	269.57
353.65	282.45
354.032	313.86
354.414	305.05
354.797	293.52
355.179	306.86
355.562	335.78
355.944	320.19
356.326	308.44
356.709	323.58
357.091	315.9
357.473	339.17
357.855	340.3
358.238	336.23
358.62	334.88
359.002	328.55
359.384	341.21
359.766	331.94
360.148	353.86
360.53	341.43
360.912	322.68
361.294	340.3
361.676	343.92
362.057	333.07
362.439	319.96
362.821	328.1
363.203	356.57
363.584	328.55
363.966	319.29
364.348	323.35
364.729	325.84
365.111	324.26
365.493	309.12
365.874	307.53
366.256	317.48
366.637	316.57
367.019	326.74
367.4	301.21
367.781	294.43
368.163	293.3
368.544	303.47
368.925	297.82
369.306	312.28
369.688	307.08
370.069	289.68
370.45	303.92
370.831	331.04
371.212	307.53
371.593	305.27
371.974	307.53
372.355	310.47
372.736	324.93
373.117	316.12
373.498	293.52
373.879	327.65
374.26	312.28
374.641	322.9
375.021	314.99
375.402	331.71
375.783	325.61
376.163	317.93
376.544	349.12
376.925	314.77
377.305	294.65
377.686	325.61
378.066	297.59
378.447	337.36
378.827	336.69
379.208	306.63
379.588	313.18
379.968	329.23
380.349	330.58
380.729	318.61
381.109	342.11
381.489	334.65
381.87	321.77
382.25	323.35
382.63	333.52
383.01	320.19
383.39	340.53
383.77	355.89
384.15	373.07
384.53	348.44
384.91	338.95
385.29	331.04
385.67	332.17
386.049	336.01
386.429	342.34
386.809	331.26
387.189	369.23
387.568	346.4
387.948	350.25
388.328	349.34
388.707	354.09
389.087	346.4
389.466	333.97
389.846	360.87
390.225	368.55
390.605	358.83
390.984	362
391.363	366.52
391.743	364.93
392.122	344.82
392.501	353.63
392.881	358.38
393.26	347.99
393.639	363.58
394.018	355.89
394.397	377.36
394.776	369.91
395.155	349.12
395.534	372.84
395.913	371.71
396.292	372.62
396.671	383.01
397.05	379.4
397.429	371.04
397.808	378.49
398.186	365.39
398.565	375.78
398.944	372.62
399.323	357.02
399.701	380.98
400.08	369.68
400.458	376.69
400.837	386.4
401.215	370.13
401.594	394.31
401.972	374.88
402.351	401.32
402.729	397.48
403.107	402
403.486	405.16
403.864	396.12
404.242	392.5
404.62	405.61
404.999	394.54
405.377	395.22
405.755	424.37
406.133	399.28
406.511	389.34
406.889	415.78
407.267	421.88
407.645	411.26
408.023	418.04
408.401	421.66
408.779	412.62
409.156	425.95
409.534	422.33
409.912	444.48
410.29	431.6
410.667	432.28
411.045	437.7
411.422	410.58
411.8	435.21
412.178	449
412.555	440.41
412.933	436.8
413.31	436.57
413.687	469.79
414.065	457.36
414.442	425.72
414.819	461.2
415.197	476.12
415.574	459.85
415.951	446.97
416.328	457.59
416.705	466.4
417.082	489.68
417.46	482.22
417.837	487.19
418.214	474.99
418.591	471.37
418.967	474.76
419.344	493.74
419.721	476.34
420.098	481.77
420.475	486.06
420.852	496.46
421.228	510.69
421.605	488.55
421.982	492.84
422.358	512.95
422.735	493.74
423.111	514.08
423.488	509.34
423.864	496.68
424.241	513.4
424.617	523.57
424.994	529.68
425.37	508.43
425.746	527.87
426.123	519.51
426.499	541.43
426.875	543.91
427.251	555.89
427.627	524.7
428.003	539.39
428.379	534.65
428.756	559.73
429.132	553.63
429.507	557.02
429.883	546.4
430.259	563.35
430.635	584.14
431.011	565.38
431.387	588.2
431.763	596.34
432.138	578.04
432.514	587.07
432.89	600.18
433.265	594.53
433.641	585.95
434.016	604.25
434.392	616
434.767	627.07
435.143	597.02
435.518	627.75
435.894	610.35
436.269	635.66
436.644	625.27
437.02	640.86
437.395	642.21
437.77	646.28
438.145	655.77
438.52	645.38
438.895	650.58
439.271	645.6
439.646	672.72
440.021	688.09
440.395	663.68
440.77	682.89
441.145	710.46
441.52	686.51
441.895	691.03
442.27	673.17
442.645	697.35
443.019	702.55
443.394	708.88
443.769	712.95
444.143	726.05
444.518	725.83
444.892	721.76
445.267	730.8
445.641	758.82
446.016	735.32
446.39	722.89
446.764	749.56
447.139	718.14
447.513	727.18
447.887	732.61
448.262	732.38
448.636	754.53
449.01	761.08
449.384	748.88
449.758	770.12
450.132	770.8
450.506	766.05
450.88	766.28
451.254	767.41
451.628	763.57
452.002	805.37
452.376	799.72
452.75	809.44
453.123	803.11
453.497	797.69
453.871	830.01
454.244	823.68
454.618	827.07
454.992	845.15
455.365	833.62
455.739	866.39
456.112	852.83
456.486	890.8
456.859	861.42
457.232	886.05
457.606	880.4
457.979	900.74
458.352	885.82
458.725	902.32
459.099	935.54
459.472	959.49
459.845	969.89
460.218	942.77
460.591	940.06
460.964	940.51
461.337	951.13
461.71	967.18
462.083	1006.5
462.456	968.99
462.829	1032.04
463.201	1018.25
463.574	992.26
463.947	1019.83
464.32	1053.28
464.692	1074.75
465.065	1046.95
465.438	1077.01
465.81	1082.2
466.183	1086.72
466.555	1102.32
466.928	1097.34
467.3	1120.17
467.672	1121.07
468.045	1150.68
468.417	1208.75
468.789	1180.28
469.161	1186.61
469.534	1225.7
469.906	1228.64
470.278	1253.95
470.65	1241.07
471.022	1295.76
471.394	1333.04
471.766	1331.91
472.138	1329.43
472.51	1347.73
472.882	1375.75
473.253	1389.09
473.625	1386.6
473.997	1453.94
474.369	1461.85
474.74	1470.89
475.112	1482.87
475.484	1490.33
475.855	1539.37
476.227	1536.88
476.598	1582.08
476.97	1601.51
477.341	1641.51
477.713	1649.65
478.084	1654.39
478.455	1696.88
478.827	1734.84
479.198	1771.68
479.569	1804.44
479.94	1826.14
480.311	1850.77
480.682	1886.48
481.053	1954.95
481.424	1950.43
481.795	2008.73
482.166	2032.23
482.537	2072.46
482.908	2092.12
483.279	2145.23
483.65	2139.8
484.021	2188.39
484.391	2228.61
484.762	2286.24
485.133	2309.52
485.503	2342.06
485.874	2370.53
486.244	2403.3
486.615	2500.7
486.985	2544.09
487.356	2552.67
487.726	2590.86
488.097	2641.48
488.467	2686.23
488.837	2702.27
489.207	2760.8
489.578	2780.46
489.948	2893
490.318	2867.47
490.688	2894.58
491.058	2936.84
491.428	2997.63
491.798	2981.36
492.168	3056.39
492.538	3065.2
492.908	3149.49
493.278	3167.12
493.648	3195.59
494.017	3227.91
494.387	3288.92
494.757	3288.7
495.126	3356.95
495.496	3338.19
495.866	3383.39
496.235	3413.22
496.605	3450.73
496.974	3466.55
497.344	3488.92
497.713	3532.53
498.082	3601.46
498.452	3627.67
498.821	3617.05
499.19	3620.89
499.559	3662.02
499.928	3671.51
500.298	3703.83
500.667	3757.61
501.036	3730.27
501.405	3796.71
501.774	3781.57
502.143	3858.4
502.512	3914.9
502.88	3881.23
503.249	3901.79
503.618	3979.3
503.987	3987.66
504.356	3981.79
504.724	3960.32
505.093	4028.11
505.462	4026.98
505.83	4051.62
506.199	4084.84
506.567	4109.92
506.936	4117.15
507.304	4187.21
507.672	4237.37
508.041	4245.28
508.409	4245.28
508.777	4280.54
509.145	4312.85
509.514	4305.4
509.882	4311.04
510.25	4345.62
510.618	4314.43
510.986	4415.22
511.354	4433.53
511.722	4457.26
512.09	4529.12
512.458	4502.23
512.826	4503.13
513.193	4510.14
513.561	4537.48
513.929	4578.16
514.297	4601.43
514.664	4603.69
515.032	4600.3
515.4	4639.85
515.767	4695.67
516.135	4702.67
516.502	4659.74
516.869	4735.21
517.237	4680.98
517.604	4742.67
517.972	4756.46
518.339	4801.65
518.706	4763.01
519.073	4807.53
519.44	4857.25
519.808	4893.18
520.175	4845.72
520.542	4946.06
520.909	4979.73
521.276	4926.62
521.643	4980.86
522.009	4983.57
522.376	5059.5
522.743	5028.09
523.11	5071.25
523.477	5120.06
523.843	5148.76
524.21	5187.18
524.577	5228.08
524.943	5195.32
525.31	5249.33
525.676	5303.79
526.043	5350.11
526.409	5328.42
526.776	5315.31
527.142	5399.38
527.508	5403.45
527.874	5470.34
528.241	5509.43
528.607	5481.41
528.973	5533.39
529.339	5545.81
529.705	5627.17
530.071	5627.85
530.437	5612.71
530.803	5695.64
531.169	5716.21
531.535	5739.26
531.901	5766.37
532.267	5780.61
532.632	5782.19
532.998	5816.54
533.364	5867.84
533.73	5886.82
534.095	5897.67
534.461	5890.21
534.826	5948.29
535.192	5989.19
535.557	6019.47
535.923	5985.58
536.288	6120.49
536.653	6062.19
537.019	6066.25
537.384	6052.24
537.749	6136.31
538.114	6146.93
538.479	6161.84
538.845	6181.5
539.21	6216.31
539.575	6195.29
539.94	6234.84
540.305	6257.43
540.67	6281.61
541.034	6317.32
541.399	6371.1
541.764	6329.75
542.129	6463.53
542.494	6433.25
542.858	6431.22
543.223	6475.28
543.587	6485.45
543.952	6520.03
544.316	6562.06
544.681	6535.39
545.045	6590.53
545.41	6634.15
545.774	6663.98
546.138	6594.15
546.503	6678.67
546.867	6692
547.231	6750.53
547.595	6746.24
547.959	6776.97
548.324	6723.18
548.688	6783.75
549.052	6795.27
549.416	6869.85
549.779	6873.01
550.143	6908.26
550.507	6977.42
550.871	6918.66
551.235	6988.04
551.599	6989.62
551.962	7026.68
552.326	7065.77
552.689	7142.83
553.053	7082.05
553.417	7156.39
553.78	7202.49
554.143	7173.34
554.507	7202.95
554.87	7244.75
555.234	7248.82
555.597	7207.47
555.96	7249.72
556.323	7334.02
556.686	7326.11
557.05	7377.4
557.413	7444.75
557.776	7408.14
558.139	7409.72
558.502	7435.48
558.865	7507.34
559.228	7503.5
559.59	7541.69
559.953	7529.94
560.316	7646.55
560.679	7647
561.041	7682.03
561.404	7701.92
561.767	7739.2
562.129	7714.35
562.492	7779.88
562.854	7837.51
563.217	7774.91
563.579	7838.64
563.941	7906.88
564.304	7907.11
564.666	7981.23
565.028	7958.18
565.39	8001.8
565.753	8003.83
566.115	8088.8
566.477	8100.55
566.839	8122.7
567.201	8160.66
567.563	8169.93
567.925	8180.32
568.287	8219.42
568.648	8258.06
569.01	8264.61
569.372	8338.28
569.734	8380.99
570.095	8356.81
570.457	8495.57
570.819	8417.38
571.18	8485.4
571.542	8555.9
571.903	8584.15
572.265	8646.98
572.626	8640.2
572.987	8682.23
573.349	8770.36
573.71	8762
574.071	8813.07
574.432	8879.29
574.794	8925.61
575.155	8941.88
575.516	8963.35
575.877	9059.62
576.238	9130.35
576.599	9164.7
576.96	9200.63
577.32	9267.3
577.681	9302.55
578.042	9451.25
578.403	9514.98
578.763	9586.16
579.124	9620.51
579.485	9807.62
579.845	9916.77
580.206	9896.66
580.566	10024.57
580.927	10066.83
581.287	10221.4
581.648	10328.29
582.008	10447.15
582.368	10567.15
582.728	10727.6
583.089	10818.44
583.449	10957.2
583.809	11098.44
584.169	11304.31
584.529	11430.63
584.889	11582.27
585.249	11771.19
585.609	11914.01
585.969	12113.1
586.329	12299.54
586.688	12512.19
587.048	12597.15
587.408	12873.76
587.768	12995.79
588.127	13372.5
588.487	13423.57
588.846	13734.07
589.206	13830.12
589.565	14033.28
589.925	14362.08
590.284	14646.59
590.643	14798.68
591.003	15132.68
591.362	15433.01
591.721	15639.79
592.08	15915.26
592.44	16239.54
592.799	16472.31
593.158	16677.73
593.517	16963.59
593.876	17259.63
594.235	17516.57
594.593	17783.01
594.952	18038.14
595.311	18303.22
595.67	18714.28
596.029	19025.46
596.387	19290.76
596.746	19651.88
597.104	19803.29
597.463	20057.98
597.822	20416.61
598.18	20634.01
598.538	21000.55
598.897	21417.49
599.255	21459.07
599.613	22121.2
599.972	22056.34
600.33	22528.19
600.688	22696.1
601.046	23015.19
601.404	23437.32
601.762	23719.35
602.12	24043.86
602.478	24281.59
602.836	24617.18
603.194	24602.71
603.552	25004.06
603.91	25177.61
604.268	25501.9
604.625	25799.07
604.983	26061.89
605.341	26217.14
605.698	26630.91
606.056	26851.02
606.413	26963.78
606.771	27339.37
607.128	27677.89
607.485	27727.6
607.843	28005.56
608.2	28445.33
608.557	28688.71
608.914	28733.23
609.272	29111.07
609.629	29307.45
609.986	29634.67
610.343	29759.42
610.7	30026.3
611.057	30209.8
611.414	30442.56
611.771	30671.48
612.127	30873.74
612.484	31090.45
612.841	31407.06
613.198	31465.81
613.554	31660.61
613.911	32014.72
614.267	32117.32
614.624	32234.15
614.98	32462.85
615.337	32839.56
615.693	32845.44
616.05	32922.72
616.406	33305.31
616.762	33256.27
617.118	33492.2
617.475	33502.14
617.831	33784.85
618.187	33882.02
618.543	34116.59
618.899	34281.56
619.255	34378.73
619.611	34541.44
619.967	34676.35
620.323	34874.99
620.678	34880.41
621.034	34898.26
621.39	35111.36
621.746	35148.43
622.101	35667.73
622.457	35382.32
622.812	35414.18
623.168	35712.25
623.523	35831.8
623.879	35932.59
624.234	35756.32
624.589	35987.05
624.945	36123.99
625.3	36284.67
625.655	36220.49
626.01	36420.26
626.365	36607.37
626.72	36530.76
627.075	36662.28
627.43	36642.4
627.785	36649.86
628.14	36776.18
628.495	36861.15
628.85	36852.11
629.205	36965.55
629.559	37133.68
629.914	36959.9
630.269	37128.04
630.623	37116.51
630.978	37061.14
631.332	37280.8
631.687	37284.64
632.041	37223.4
632.396	37255.04
632.75	37162.38
633.104	37347.01
633.459	37223.4
633.813	37169.62
634.167	37322.15
634.521	37273.12
634.875	37344.53
635.229	37467.46
635.583	37203.51
635.937	37327.13
636.291	37197.86
636.645	37347.69
636.999	37168.49
637.352	37280.12
637.706	37142.05
638.06	37437.18
638.413	37395.82
638.767	37302.27
639.121	37359.67
639.474	37177.98
639.828	37258.43
640.181	37325.32
640.534	37343.17
640.888	37250.52
641.241	36980.47
641.594	37115.61
641.947	37318.09
642.301	37204.64
642.654	37303.62
643.007	37197.64
643.36	37173.01
643.713	37181.82
644.066	37289.84
644.419	37064.53
644.771	36866.57
645.124	36486.47
645.477	36632.45
645.83	36233.6
646.182	36225.69
646.535	36167.61
646.888	36247.15
647.24	36033.15
647.593	36126.71
647.945	36243.31
648.298	35989.99
648.65	35891.01
649.002	35918.8
649.355	35993.15
649.707	35913.15
650.059	36265.01
650.411	36505
650.763	36655.73
651.115	36975.5
651.467	36947.25
651.819	36787.93
652.171	36777.54
652.523	36808.95
652.875	36717.65
653.227	36673.58
653.578	37014.14
653.93	36763.52
654.282	36724.88
654.633	36498.22
654.985	36625.68
655.337	36603.3
655.688	36511.1
656.039	36754.71
656.391	36400.37
656.742	36594.04
657.094	36495.51
657.445	36797.87
657.796	36538.9
658.147	36571.67
658.498	36461.61
658.849	36599.01
659.2	36484.44
659.551	36504.77
659.902	36570.99
660.253	36448.96
660.604	36441.05
660.955	36335.06
661.306	36456.64
661.656	36362.86
662.007	36478.11
662.358	36387.26
662.708	36433.59
663.059	36298.9
663.409	36306.36
663.76	36421.16
664.11	36422.74
664.461	36430.65
664.811	36438.34
665.161	36427.04
665.511	36338.23
665.862	36435.17
666.212	36496.87
666.562	36561.95
666.912	36220.26
667.262	36291.9
667.612	36287.61
667.962	36313.59
668.312	36267.72
668.662	36522.18
669.011	36384.33
669.361	36320.15
669.711	36276.08
670.06	36198.34
670.41	36224.1
670.76	36207.38
671.109	36299.36
671.459	36265.23
671.808	36149.76
672.157	36228.85
672.507	36054.39
672.856	36104.33
673.205	36222.75
673.554	36145.24
673.904	36171.22
674.253	36301.62
674.602	36156.76
674.951	35711.12
675.3	35428.87
675.649	36024.34
675.998	36060.49
676.346	36015.52
676.695	36001.74
677.044	35797.67
677.393	35847.62
677.741	36055.97
678.09	35844
678.438	35882.19
678.787	35988.18
679.135	35940.5
679.484	35549.32
679.832	35745.7
680.181	35607.62
680.529	35651.01
680.877	35686.27
681.225	35448.76
681.573	35775.98
681.922	35415.09
682.27	35395.2
682.618	35404.01
682.966	35349.32
683.314	35360.62
683.661	35299.61
684.009	35095.77
684.357	35121.08
684.705	34971.71
685.053	35025.94
685.4	35002.22
685.748	34936.45
686.095	34805.84
686.443	34632.96
686.79	34666.63
687.138	34644.48
687.485	34727.19
687.832	34587.08
688.18	34606.29
688.527	34380.54
688.874	34418.95
689.221	34360.65
689.568	34292.18
689.915	34198.85
690.262	34129.02
690.609	34093.09
690.956	33905.07
691.303	34023.71
691.65	33823.94
691.997	33698.75
692.344	33689.93
692.69	33561.12
693.037	33648.58
693.383	33367.91
693.73	33559.99
694.077	33239.1
694.423	33300.11
694.769	33210.62
695.116	33083.85
695.462	33027.58
695.808	32974.47
696.155	32931.31
696.501	32693.12
696.847	32803.63
697.193	32500.81
697.539	32653.35
697.885	32440.7
698.231	32249.97
698.577	32364.09
698.923	32219.92
699.269	32122.06
699.614	31990.99
699.96	31951.67
700.306	31916.42
700.651	31905.35
700.997	31641.17
701.342	31756.42
701.688	31574.51
702.033	31590.33
702.379	31555.53
702.724	31395.3
703.069	31374.29
703.415	31125.03
703.76	31141.75
704.105	31136.55
704.45	31006.84
704.795	30670.8
705.14	30897.92
705.485	30745.15
705.83	30598.26
706.175	30737.02
706.52	30500.41
706.865	30362.34
707.209	30475.1
707.554	30252.74
707.899	30402.11
708.243	30198.95
708.588	30146.3
708.932	29959.64
709.277	29891.39
709.621	29991.95
709.966	29756.03
710.31	29917.38
710.654	29528.01
710.998	29711.28
711.342	29693.43
711.687	29519.42
712.031	29412.98
712.375	29372.08
712.719	29273.1
713.063	29276.26
713.407	29420.22
713.75	29188.13
714.094	29286.89
714.438	29137.06
714.782	29102.48
715.125	29002.37
715.469	28917.86
715.812	28780.46
716.156	28676.28
716.499	28803.51
716.843	28739.1
717.186	28687.13
717.53	28768.93
717.873	28739.1
718.216	28537.07
718.559	28476.29
718.902	28241.04
719.246	28294.6
719.589	28299.11
719.932	28218.66
720.275	28121.94
720.617	28076.97
720.96	28021.83
721.303	28035.62
721.646	28029.07
721.989	27847.83
722.331	28026.35
722.674	27996.52
723.016	27855.28
723.359	27700.49
723.701	27729.41
724.044	27558.34
724.386	27454.62
724.729	27625.69
725.071	27455.97
725.413	27485.12
725.755	27516.31
726.097	27423.88
726.439	27309.76
726.782	27193.38
727.124	27357.22
727.465	27094.85
727.807	27395.64
728.149	27272.47
728.491	27118.35
728.833	27053.95
729.175	27014.63
729.516	26959.94
729.858	26812.37
730.199	26890.79
730.541	26878.36
730.882	26809.89
731.224	26906.61
731.565	26702.77
731.906	26669.33
732.248	26696.22
732.589	26569.67
732.93	26578.26
733.271	26591.59
733.612	26553.17
733.953	26584.36
734.294	26377.13
734.635	26370.8
734.976	26467.98
735.317	26289.45
735.658	26288.55
735.999	26298.26
736.339	26303.23
736.68	26296.68
737.021	26213.07
737.361	26230.24
737.702	26253.97
738.042	26078.38
738.383	26044.03
738.723	26100.75
739.063	25997.03
739.404	26052.85
739.744	25880.87
740.084	25865.51
740.424	25845.62
740.764	25865.96
741.104	25813.53
741.444	25691.5
741.784	25712.29
742.124	25708.67
742.464	25569.92
742.804	25543.93
743.143	25584.61
743.483	25575.34
743.823	25413.99
744.162	25449.92
744.502	25436.59
744.841	25392.75
745.181	25482.69
745.52	25210.83
745.86	25322.47
746.199	25279.99
746.538	25231.62
746.877	25144.17
747.216	25233.21
747.556	25085.19
747.895	25122.48
748.234	25082.93
748.573	24965.87
748.911	24972.65
749.25	24888.13
749.589	24869.15
749.928	24990.73
750.267	24888.36
750.605	24769.94
750.944	24843.39
751.283	24629.83
751.621	24688.36
751.96	24522.94
752.298	24558.2
752.636	24542.15
752.975	24522.72
753.313	24464.41
753.651	24427.35
753.989	24357.52
754.327	24253.35
754.666	24229.39
755.004	24230.52
755.342	24266.68
755.679	24137.64
756.017	24122.05
756.355	24101.03
756.693	24006.8
757.031	24033.92
757.368	23898.78
757.706	23861.04
758.044	23796.41
758.381	23823.75
758.719	23726.58
759.056	23769.74
759.394	23598.67
759.731	23447.49
760.068	23458.79
760.405	23328.62
760.743	23302.86
761.08	23364.1
761.417	23271.22
761.754	23285.01
762.091	23213.15
762.428	23041.85
762.765	22885.25
763.102	22970.44
763.438	22786.04
763.775	22755.08
764.112	22722.99
764.449	22782.42
764.785	22612.71
765.122	22542.66
765.458	22502.88
765.795	22346.73
766.131	22343.34
766.467	22221.08
766.804	22219.73
767.14	22138.15
767.476	22074.65
767.812	21971.37
768.148	21936.8
768.485	21876.01
768.821	21738.84
769.157	21837.14
769.492	21679.63
769.828	21557.37
770.164	21401.89
770.5	21323.03
770.836	21418.84
771.171	21219.98
771.507	21155.57
771.842	21012.07
772.178	21108.8
772.513	20988.57
772.849	20924.17
773.184	20840.55
773.519	20855.69
773.855	20729.37
774.19	20719.65
774.525	20539.32
774.86	20575.02
775.195	20546.32
775.53	20433.33
775.865	20296.39
776.2	20185.66
776.535	20021.14
776.87	20062.27
777.205	19984.53
777.539	19974.81
777.874	19869.05
778.209	19695.73
778.543	19685.78
778.878	19611.66
779.212	19686.01
779.547	19531.89
779.881	19443.98
780.215	19355.4
780.55	19432.68
780.884	19216.87
781.218	19242.63
781.552	19155.63
781.886	19127.38
782.22	19022.3
782.554	18939.13
782.888	18809.87
783.222	18757.9
783.556	18627.5
783.889	18574.17
784.223	18365.82
784.557	18478.81
784.89	18360.17
785.224	18357
785.557	18212.6
785.891	18193.39
786.224	18170.79
786.558	18099.38
786.891	17995.43
787.224	17908.43
787.557	17875.66
787.891	17824.59
788.224	17773.97
788.557	17767.64
788.89	17733.52
789.223	17701.88
789.556	17555.22
789.888	17477.7
790.221	17421.89
790.554	17374.2
790.887	17360.87
791.219	17232.06
791.552	17166.53
791.884	17132.4
792.217	17079.3
792.549	17034.1
792.882	16857.61
793.214	16855.8
793.546	16922.69
793.879	16715.92
794.211	16583.72
794.543	16731.28
794.875	16633.43
795.207	16625.75
795.539	16523.38
795.871	16491.97
796.203	16390.5
796.535	16237.28
796.867	16214.46
797.198	16208.13
797.53	16156.38
797.862	16037.52
798.193	16121.13
798.525	15991.19
798.856	15955.26
799.188	15813.79
799.519	15769.27
799.85	15715.49
800.182	15776.96
800.513	15719.33
800.844	15497.42
801.175	15745.55
801.506	15677.98
801.837	15487.47
802.168	15472.11
802.499	15450.64
802.83	15366.57
803.161	15309.63
803.491	15301.26
803.822	15200.25
804.153	15184.43
804.483	15024.66
804.814	14988.28
805.145	14965.45
805.475	15010.2
805.805	14976.3
806.136	14922.74
806.466	14933.59
806.796	14883.42
807.126	14768.4
807.457	14700.15
807.787	14730.43
808.117	14626.93
808.447	14615.18
808.777	14674.84
809.107	14531.34
809.436	14514.17
809.766	14493.83
810.096	14513.04
810.426	14452.47
810.755	14431.23
811.085	14316.66
811.414	14355.98
811.744	14126.38
812.073	14167.96
812.403	14127.96
812.732	14113.27
813.061	14164.12
813.39	14058.36
813.719	13938.59
814.049	14052.94
814.378	13981.07
814.707	13862.21
815.036	13878.93
815.365	13814.52
815.693	13703.34
816.022	13692.49
816.351	13673.74
816.68	13712.61
817.008	13642.55
817.337	13604.13
817.665	13528.2
817.994	13490.69
818.322	13513.29
818.651	13406.62
818.979	13374.54
819.307	13554.19
819.636	13398.49
819.964	13391.03
820.292	13331.15
820.62	13280.75
820.948	13251.15
821.276	13348.55
821.604	13220.64
821.932	13243.69
822.259	13331.82
822.587	13248.89
822.915	13259.74
823.243	13182.45
823.57	13243.01
823.898	13267.87
824.225	13165.28
824.553	13189.46
824.88	13211.6
825.207	13279.85
825.535	13198.49
825.862	13194.43
826.189	13152.39
826.516	13300.86
826.843	13266.74
827.17	13215.44
827.497	13257.93
827.824	13240.3
828.151	13261.09
828.478	13132.28
828.805	13253.63
829.131	13143.13
829.458	13092.73
829.785	13034.66
830.111	13147.65
830.438	13185.16
830.764	13160.53
831.09	13104.94
831.417	13127.99
831.743	13063.58
832.069	13147.2
832.395	13030.14
832.722	13137.48
833.048	13057.93
833.374	13106.75
833.7	13040.53
834.026	12991.95
834.351	12937.48
834.677	12912.4
835.003	13053.19
835.329	12967.09
835.654	12949.91
835.98	12891.38
836.306	12962.12
836.631	12892.29
836.956	12847.09
837.282	12812.97
837.607	12869.24
837.932	12848
838.258	12840.76
838.583	12802.35
838.908	12711.05
839.233	12793.76
839.558	12746.76
839.883	12689.81
840.208	12660.88
840.533	12661.33
840.858	12629.24
841.182	12592.41
841.507	12586.31
841.832	12507.21
842.156	12606.65
842.481	12517.16
842.805	12517.38
843.13	12527.33
843.454	12347.9
843.778	12358.97
844.103	12383.15
844.427	12337.05
844.751	12375.47
845.075	12314
845.399	12291.63
845.723	12211.4
846.047	12128.69
846.371	12071.29
846.695	12012.99
847.019	12040.56
847.343	11983.16
847.666	11868.81
847.99	11820.9
848.313	11878.53
848.637	11800.11
848.96	11822.26
849.284	11735.26
849.607	11610.29
849.931	11535.04
850.254	11467.69
850.577	11482.16
850.9	11432.44
851.223	11344.08
851.546	11338.66
851.869	11160.36
852.192	11279.9
852.515	11147.25
852.838	11201.26
853.161	11151.54
853.483	11068.61
853.806	11073.8
854.129	11043.52
854.451	10921.04
854.774	10926.01
855.096	10858.22
855.419	10833.59
855.741	10836.07
856.063	10794.49
856.385	10738.45
856.708	10740.71
857.03	10669.97
857.352	10653.93
857.674	10600.37
857.996	10665.23
858.318	10566.93
858.64	10580.94
858.961	10531.9
859.283	10503.88
859.605	10434.95
859.926	10506.81
860.248	10392.69
860.57	10385.91
860.891	10357.44
861.212	10374.61
861.534	10286.25
861.855	10297.78
862.176	10248.97
862.498	10311.11
862.819	10223.21
863.14	10161.74
863.461	10180.95
863.782	10121.97
864.103	10144.34
864.424	10140.95
864.745	10121.29
865.065	10085.58
865.386	10059.82
865.707	10082.19
866.027	10047.84
866.348	10080.61
866.668	10012.14
866.989	9999.26
867.309	9926.26
867.63	9900.28
867.95	9849.66
868.27	9890.11
868.59	9931.01
868.91	9922.2
869.23	9771.69
869.55	9788.41
869.87	9875.64
870.19	9728.3
870.51	9875.64
870.83	9821.41
871.15	9769.66
871.469	9734.41
871.789	9685.59
872.109	9778.02
872.428	9671.13
872.748	9705.48
873.067	9670.23
873.386	9661.86
873.706	9646.05
874.025	9599.72
874.344	9496.22
874.663	9562.21
874.982	9571.92
875.301	9544.35
875.62	9458.93
875.939	9427.07
876.258	9482.89
876.577	9483.56
876.896	9463.45
877.214	9448.99
877.533	9435.43
877.852	9340.52
878.17	9422.55
878.489	9385.49
878.807	9377.8
879.125	9321.31
879.444	9334.64
879.762	9291.7
880.08	9349.78
880.398	9257.58
880.716	9263.01
881.034	9243.34
881.352	9258.49
881.67	9196.57
881.988	9193.4
882.306	9174.87
882.624	9155.44
882.941	9114.76
883.259	9065.72
883.577	9059.62
883.894	9027.53
884.212	9019.17
884.529	9039.73
884.846	9058.94
885.164	9041.09
885.481	8979.17
885.798	8949.79
886.115	8933.3
886.432	8943.92
886.75	8865.73
887.067	8901.21
887.383	8836.35
887.7	8841.77
888.017	8765.39
888.334	8777.37
888.651	8755.67
888.967	8733.75
889.284	8697.37
889.6	8618.28
889.917	8691.04
890.233	8622.12
890.55	8549.13
890.866	8620.99
891.182	8532.85
891.498	8542.8
891.815	8461.67
892.131	8483.82
892.447	8475.91
892.763	8391.62
893.079	8387.1
893.395	8401.78
893.71	8339.41
894.026	8362.92
894.342	8387.32
894.657	8221.45
894.973	8248.79
895.289	8228
895.604	8229.36
895.92	8140.1
896.235	8160.89
896.55	8132.87
896.865	8105.97
897.181	8057.16
897.496	8130.61
897.811	8018.52
898.126	7999.31
898.441	7957.5
898.756	7950.5
899.071	7908.92
899.386	7931.29
899.7	7843.61
900.015	7809.71
900.33	7728.81
900.644	7756.6
900.959	7763.38
901.273	7739.2
901.588	7680.9
901.902	7622.82
902.216	7628.25
902.531	7610.17
902.845	7588.92
903.159	7516.16
903.473	7510.28
903.787	7468.25
904.101	7485.42
904.415	7436.84
904.729	7385.09
905.042	7392.55
905.356	7327.46
905.67	7302.38
905.984	7345.99
906.297	7258.76
906.611	7249.05
906.924	7164.53
907.237	7159.33
907.551	7147.35
907.864	7148.26
908.177	7090.18
908.491	7126.11
908.804	7008.83
909.117	7000.92
909.43	6946.68
909.743	6990.75
910.056	6925.21
910.368	6919.34
910.681	6914.37
910.994	6804.54
911.307	6768.61
911.619	6767.93
911.932	6773.13
912.244	6735.39
912.557	6720.47
912.869	6719.12
913.181	6734.48
913.494	6672.11
913.806	6633.47
914.118	6576.3
914.43	6558.22
914.742	6553.7
915.054	6464.21
915.366	6506.24
915.678	6456.3
915.99	6433.7
916.302	6391.89
916.613	6334.49
916.925	6345.12
917.236	6268.73
917.548	6308.73
917.859	6335.85
918.171	6233.03
918.482	6195.29
918.794	6194.61
919.105	6158.91
919.416	6054.28
919.727	6082.07
920.038	6083.65
920.349	6044.78
920.66	6006.59
920.971	5984.67
921.282	5991.45
921.593	5950.1
921.903	5903.32
922.214	5854.06
922.525	5856.54
922.835	5866.03
923.146	5828.29
923.456	5787.84
923.767	5745.58
924.077	5793.72
924.387	5716.66
924.697	5689.77
925.008	5685.92
925.318	5683.21
925.628	5658.13
925.938	5642.99
926.248	5588.75
926.558	5616.32
926.867	5568.19
927.177	5549.43
927.487	5534.97
927.796	5421.98
928.106	5443.22
928.416	5447.74
928.725	5429.21
929.034	5439.6
929.344	5374.97
929.653	5348.53
929.962	5351.47
930.271	5300.85
930.581	5303.34
930.89	5173.62
931.199	5207.97
931.508	5210.23
931.817	5170.46
932.125	5153.06
932.434	5147.63
932.743	5086.62
933.051	5083.91
933.36	5065.15
933.669	5018.14
933.977	4993.96
934.286	4998.94
934.594	4990.12
934.902	4967.3
935.21	4921.2
935.519	4944.7
935.827	4912.16
936.135	4825.38
936.443	4894.31
936.751	4837.13
937.059	4858.83
937.367	4772.95
937.674	4765.5
937.982	4761.88
938.29	4772.05
938.597	4738.6
938.905	4716.68
939.213	4653.86
939.52	4640.3
939.827	4645.5
940.135	4672.84
940.442	4625.39
940.749	4639.17
941.056	4576.57
941.363	4515.79
941.67	4519.4
941.977	4512.17
942.284	4429.23
942.591	4470.59
942.898	4440.76
943.205	4421.1
943.511	4419.52
943.818	4436.24
944.125	4309.91
944.431	4380.87
944.738	4361.89
945.044	4303.36
945.35	4301.33
945.657	4231.5
945.963	4273.31
946.269	4249.35
946.575	4216.36
946.881	4203.03
947.187	4185.4
947.493	4164.16
947.799	4168.22
948.105	4138.62
948.41	4136.59
948.716	4126.42
949.022	4081.67
949.327	4054.33
949.633	4052.52
949.938	4037.15
950.244	4061.11
950.549	3961.22
950.854	3942.24
951.16	3948.79
951.465	3943.82
951.77	3939.3
952.075	3948.57
952.38	3866.99
952.685	3899.98
952.99	3873.09
953.294	3845.29
953.599	3823.6
953.904	3799.65
954.209	3744.96
954.513	3779.53
954.818	3745.41
955.122	3732.98
955.426	3707.44
955.731	3775.92
956.035	3723.04
956.339	3674
956.643	3714.22
956.948	3648.46
957.252	3638.97
957.556	3634.9
957.86	3649.14
958.163	3583.15
958.467	3606.66
958.771	3560.1
959.075	3555.81
959.378	3496.6
959.682	3549.48
959.985	3497.96
960.289	3460.9
960.592	3477.39
960.896	3456.38
961.199	3473.33
961.502	3428.81
961.805	3419.99
962.108	3389.71
962.411	3401.46
962.714	3391.3
963.017	3367.34
963.32	3324.63
963.623	3317.17
963.926	3332.31
964.228	3272.2
964.531	3266.78
964.833	3251.86
965.136	3245.54
965.438	3241.69
965.741	3189.94
966.043	3237.85
966.345	3165.09
966.648	3207.8
966.95	3157.63
967.252	3139.32
967.554	3105.2
967.856	3129.83
968.158	3119.44
968.46	3118.53
968.761	3105.2
969.063	3079.21
969.365	3085.09
969.666	3059.33
969.968	3005.32
970.269	3037.41
970.571	3032.66
970.872	2994.92
971.174	2978.42
971.475	2980.01
971.776	2913.57
972.077	2944.98
972.378	2929.39
972.679	2943.4
972.98	2902.49
973.281	2893.45
973.582	2887.58
973.883	2890.52
974.183	2883.29
974.484	2854.13
974.785	2867.47
975.085	2841.03
975.386	2811.2
975.686	2813.68
975.986	2773.01
976.287	2775.04
976.587	2759.67
976.887	2744.31
977.187	2753.12
977.487	2705.66
977.787	2722.16
978.087	2680.58
978.387	2712.89
978.687	2683.52
978.987	2661.82
979.286	2642.84
979.586	2646
979.885	2578.89
980.185	2602.39
980.484	2629.06
980.784	2581.6
981.083	2614.82
981.382	2587.25
981.682	2553.58
981.981	2558.32
982.28	2523.07
982.579	2511.54
982.878	2522.17
983.177	2518.32
983.475	2509.74
983.774	2477.65
984.073	2441.04
984.372	2490.53
984.67	2462.28
984.969	2456.18
985.267	2448.27
985.566	2422.05
985.864	2410.08
986.162	2407.82
986.461	2390.87
986.759	2394.49
987.057	2361.94
987.355	2366.24
987.653	2374.6
987.951	2334.83
988.249	2335.5
988.547	2336.41
988.844	2332.34
989.142	2279.46
989.44	2282.62
989.737	2270.65
990.035	2246.01
990.332	2253.92
990.63	2273.58
990.927	2243.98
991.224	2227.48
991.521	2218.22
991.819	2222.74
992.116	2189.97
992.413	2149.29
992.71	2155.4
993.006	2190.42
993.303	2177.99
993.6	2148.62
993.897	2112.01
994.193	2134.38
994.49	2119.46
994.787	2085.57
995.083	2115.17
995.379	2119.24
995.676	2064.78
995.972	2104.55
996.268	2079.47
996.565	2052.57
996.861	2041.05
997.157	2055.96
997.453	1990.88
997.749	2018
998.044	1961.95
998.34	1992.91
998.636	1978.9
998.932	1958.79
999.227	1982.52
999.523	1949.98
999.818	1982.29
1000.114	1909.75
1000.409	1908.17
1000.704	1908.17
1001	1894.16
1001.295	1885.12
1001.59	1907.72
1001.885	1877.44
1002.18	1830.66
1002.475	1863.88
1002.77	1846.02
1003.065	1826.59
1003.359	1800.15
1003.654	1793.14
1003.949	1786.59
1004.243	1824.78
1004.538	1766.48
1004.832	1770.77
1005.127	1786.59
1005.421	1724.9
1005.715	1782.3
1006.009	1729.42
1006.304	1733.03
1006.598	1727.61
1006.892	1716.08
1007.186	1714.05
1007.48	1662.3
1007.773	1679.7
1008.067	1658.91
1008.361	1661.17
1008.655	1662.3
1008.948	1635.86
1009.242	1637.89
1009.535	1622.75
1009.829	1609.19
1010.122	1603.32
1010.415	1609.87
1010.708	1575.52
1011.001	1558.57
1011.295	1557.22
1011.588	1548.86
1011.881	1564.9
1012.173	1562.42
1012.466	1536.65
1012.759	1511.12
1013.052	1554.51
1013.344	1531.23
1013.637	1513.83
1013.93	1508.63
1014.222	1475.19
1014.514	1489.42
1014.807	1469.31
1015.099	1446.26
1015.391	1461.4
1015.683	1438.58
1015.976	1438.13
1016.268	1422.53
1016.56	1399.26
1016.851	1434.96
1017.143	1397.9
1017.435	1380.95
1017.727	1364
1018.018	1383.66
1018.31	1367.39
1018.602	1367.17
1018.893	1336.66
1019.185	1348.41
1019.476	1337.79
1019.767	1337.56
1020.058	1338.02
1020.35	1306.15
1020.641	1319.94
1020.932	1291.01
1021.223	1305.93
1021.514	1274.74
1021.804	1223.22
1022.095	1265.7
1022.386	1273.38
1022.677	1248.53
1022.967	1241.75
1023.258	1249.43
1023.548	1213.95
1023.839	1214.4
1024.129	1192.93
1024.419	1180.05
1024.709	1214.63
1025	1163.11
1025.29	1160.39
1025.58	1143.22
1025.87	1167.62
1026.16	1170.34
1026.449	1155.87
1026.739	1143.22
1027.029	1134.63
1027.319	1149.09
1027.608	1118.59
1027.898	1104.35
1028.187	1114.29
1028.477	1115.65
1028.766	1102.99
1029.055	1096.67
1029.344	1112.48
1029.634	1079.94
1029.923	1061.19
1030.212	1057.12
1030.501	1063.22
1030.79	1044.69
1031.078	1030.91
1031.367	1034.75
1031.656	1034.52
1031.945	1008.53
1032.233	991.81
1032.522	985.93
1032.81	996.78
1033.099	1007.63
1033.387	994.52
1033.675	994.52
1033.963	991.58
1034.251	968.31
1034.54	968.31
1034.828	944.58
1035.116	957.46
1035.403	953.84
1035.691	951.59
1035.979	927.63
1036.267	935.54
1036.554	914.75
1036.842	925.37
1037.129	907.52
1037.417	918.14
1037.704	906.39
1037.992	887.18
1038.279	901.19
1038.566	881.98
1038.853	881.98
1039.14	881.98
