Data from hue_330_FLMS001491_45.txt Node
Date: Mon Feb 06 15:45:27 GMT 2017
User: dcchb
Spectrometer: FLMS00149
Trigger mode: 0
Integration Time (sec): 2.000000E-2
Scans to average: 10
Electric dark correction enabled: true
Nonlinearity correction enabled: false
Boxcar width: 0
XAxis mode: Wavelengths
Number of Pixels in Spectrum: 2048
>>>>>Begin Spectral Data<<<<<
341.393	-25.89
341.776	-25.89
342.16	-25.89
342.543	-54.14
342.927	-52.1
343.31	-100.69
343.693	-65.44
344.077	-77.87
344.46	-80.58
344.843	-63.85
345.226	-30.18
345.61	-20.24
345.993	-32.44
346.376	1.68
346.759	4.62
347.142	24.51
347.525	61.79
347.908	66.99
348.291	86.65
348.674	112.41
349.057	112.64
349.44	108.8
349.823	142.92
350.206	164.61
350.588	188.57
350.971	203.48
351.354	207.55
351.737	238.51
352.119	254.78
352.502	269.24
352.884	256.36
353.267	272.63
353.65	294.33
354.032	288
354.414	309.7
354.797	319.64
355.179	342.91
355.562	326.64
355.944	327.1
356.326	324.84
356.709	330.03
357.091	338.4
357.473	334.33
357.855	324.38
358.238	345.4
358.62	346.08
359.002	323.71
359.384	318.51
359.766	311.73
360.148	349.47
360.53	344.5
360.912	330.49
361.294	329.58
361.676	325.06
362.057	332.75
362.439	322.12
362.821	331.16
363.203	310.83
363.584	323.71
363.966	320.09
364.348	313.76
364.729	318.06
365.111	320.99
365.493	308.11
365.874	311.73
366.256	313.76
366.637	311.5
367.019	304.05
367.4	321.45
367.781	294.33
368.163	322.12
368.544	305.85
368.925	302.46
369.306	306.98
369.688	318.06
370.069	300.43
370.45	315.8
370.831	290.26
371.212	303.37
371.593	312.41
371.974	309.24
372.355	318.73
372.736	324.16
373.117	315.57
373.498	307.21
373.879	318.73
374.26	323.48
374.641	297.72
375.021	304.72
375.402	299.98
375.783	311.28
376.163	307.21
376.544	313.99
376.925	307.89
377.305	305.85
377.686	342.24
378.066	321.67
378.447	322.35
378.827	327.32
379.208	335.01
379.588	308.79
379.968	315.57
380.349	348.34
380.729	304.95
381.109	317.6
381.489	334.33
381.87	325.97
382.25	317.6
382.63	306.53
383.01	326.19
383.39	320.77
383.77	330.71
384.15	328.45
384.53	329.13
384.91	327.1
385.29	332.29
385.67	342.01
386.049	340.88
386.429	352.18
386.809	349.02
387.189	335.68
387.568	356.7
387.948	351.05
388.328	335.68
388.707	359.41
389.087	344.5
389.466	349.47
389.846	355.12
390.225	361.67
390.605	346.98
390.984	354.89
391.363	368
391.743	346.08
392.122	352.63
392.501	362.8
392.881	365.29
393.26	370.03
393.639	353.54
394.018	371.61
394.397	366.19
394.776	376.81
395.155	378.39
395.534	363.03
395.913	367.77
396.292	376.13
396.671	384.95
397.05	381.78
397.429	385.17
397.808	365.74
398.186	377.04
398.565	391.28
398.944	376.59
399.323	377.94
399.701	410.26
400.08	373.2
400.458	405.29
400.837	413.2
401.215	392.4
401.594	370.26
401.972	388.79
402.351	399.41
402.729	405.51
403.107	413.65
403.486	427.88
403.864	415.68
404.242	401.22
404.62	399.41
404.999	429.47
405.377	415.23
405.755	433.76
406.133	431.73
406.511	424.49
406.889	442.12
407.267	414.78
407.645	426.08
408.023	432.86
408.401	440.31
408.779	450.26
409.156	459.3
409.534	467.88
409.912	441.67
410.29	480.76
410.667	468.34
411.045	470.37
411.422	477.6
411.8	464.49
412.178	476.47
412.555	509.01
412.933	477.6
413.31	501.33
413.687	487.09
414.065	531.38
414.442	519.63
414.819	514.89
415.197	542.91
415.574	547.88
415.951	527.54
416.328	543.36
416.705	546.53
417.082	553.3
417.46	579.07
417.837	565.73
418.214	558.05
418.591	579.97
418.967	571.16
419.344	564.6
419.721	606.86
420.098	614.77
420.475	604.38
420.852	621.55
421.228	610.93
421.605	610.93
421.982	613.87
422.358	605.05
422.735	643.7
423.111	637.82
423.488	641.89
423.864	662.68
424.241	671.95
424.617	649.8
424.994	680.53
425.37	674.21
425.746	670.14
426.123	678.05
426.499	670.36
426.875	692.74
427.251	705.39
427.627	715.56
428.003	719.63
428.379	716.01
428.756	719.4
429.132	717.37
429.507	735.45
429.883	752.62
430.259	756.01
430.635	765.95
431.011	767.08
431.387	771.83
431.763	801.43
432.138	793.07
432.514	798.72
432.89	824.48
433.265	817.25
433.641	821.55
434.016	843.69
434.392	830.36
434.767	858.38
435.143	880.3
435.518	900.41
435.894	862.68
436.269	879.62
436.644	894.09
437.02	896.35
437.395	912.39
437.77	922.33
438.145	947.42
438.52	930.24
438.895	948.32
439.271	950.81
439.646	962.56
440.021	979.51
440.395	965.5
440.77	940.64
441.145	963.46
441.52	987.64
441.895	1006.17
442.27	1000.3
442.645	1020.86
443.019	996.68
443.394	986.51
443.769	994.65
444.143	1007.53
444.518	1035.55
444.892	1021.77
445.267	1030.58
445.641	1050.47
446.016	1050.47
446.39	1049.79
446.764	1057.7
447.139	1046.85
447.513	1058.6
447.887	1046.4
448.262	1068.77
448.636	1059.51
449.01	1084.36
449.384	1059.96
449.758	1100.41
450.132	1090.01
450.506	1085.27
450.88	1105.61
451.254	1106.28
451.628	1098.83
452.002	1137.47
452.376	1113.97
452.75	1139.5
453.123	1115.78
453.497	1153.74
453.871	1156
454.244	1181.54
454.618	1181.54
454.992	1160.07
455.365	1188.09
455.739	1224.02
456.112	1209.78
456.486	1222.67
456.859	1255.89
457.232	1224.7
457.606	1264.7
457.979	1250.24
458.352	1272.38
458.725	1292.49
459.099	1291.36
459.472	1313.74
459.845	1333.62
460.218	1325.71
460.591	1339.5
460.964	1359.39
461.337	1358.03
461.71	1349.44
462.083	1351.93
462.456	1373.62
462.829	1361.87
463.201	1391.02
463.574	1406.16
463.947	1427.18
464.32	1433.06
464.692	1453.62
465.065	1450.46
465.438	1475.99
465.81	1481.87
466.183	1483.45
466.555	1510.57
466.928	1520.51
467.3	1515.77
467.672	1548.53
468.045	1599.38
468.417	1581.3
468.789	1560.96
469.161	1607.06
469.534	1625.37
469.906	1640.51
470.278	1654.74
470.65	1690
471.022	1671.47
471.394	1700.39
471.766	1710.56
472.138	1730.67
472.51	1737.23
472.882	1787.85
473.253	1803.89
473.625	1841.63
473.997	1844.12
474.369	1844.34
474.74	1853.61
475.112	1914.62
475.484	1919.14
475.855	1979.93
476.227	1983.78
476.598	1985.36
476.97	1992.36
477.341	2048.63
477.713	2084.56
478.084	2091.12
478.455	2117.56
478.827	2145.35
479.198	2201.17
479.569	2232.13
479.94	2272.13
480.311	2251.57
480.682	2326.37
481.053	2351.9
481.424	2398.91
481.795	2379.47
482.166	2383.31
482.537	2436.19
482.908	2476.42
483.279	2476.64
483.65	2551.44
484.021	2564.55
484.391	2611.33
484.762	2605.68
485.133	2660.82
485.503	2636.87
485.874	2732.23
486.244	2711.89
486.615	2798.22
486.985	2829.4
487.356	2829.4
487.726	2840.7
488.097	2881.38
488.467	2907.14
488.837	2989.4
489.207	3003.86
489.578	3014.93
489.948	3051.77
490.318	3077.53
490.688	3096.51
491.058	3133.58
491.428	3162.5
491.798	3187.13
492.168	3253.12
492.538	3287.92
492.908	3320.92
493.278	3340.8
493.648	3333.34
494.017	3335.38
494.387	3399.56
494.757	3376.06
495.126	3440.23
495.496	3452.89
495.866	3447.01
496.235	3496.73
496.605	3496.73
496.974	3525.66
497.344	3561.81
497.713	3608.14
498.082	3605.65
498.452	3645.88
498.821	3654.69
499.19	3666.22
499.559	3691.98
499.928	3699.44
500.298	3745.54
500.667	3751.41
501.036	3790.06
501.405	3820.79
501.774	3763.16
502.143	3794.58
502.512	3781.02
502.88	3867.57
503.249	3860.11
503.618	3876.83
503.987	3853.33
504.356	3914.35
504.724	3914.8
505.093	3909.37
505.462	3969.94
505.83	3976.04
506.199	4005.64
506.567	3980.79
506.936	4017.39
507.304	4004.29
507.672	4090.61
508.041	4076.15
508.409	4082.7
508.777	4086.32
509.145	4128.35
509.514	4141.91
509.882	4119.99
510.25	4145.75
510.618	4175.13
510.986	4159.31
511.354	4188.24
511.722	4256.48
512.09	4262.59
512.458	4256.94
512.826	4275.92
513.193	4265.52
513.561	4245.18
513.929	4315.92
514.297	4337.84
514.664	4378.97
515.032	4363.83
515.4	4356.37
515.767	4369.93
516.135	4399.31
516.502	4357.95
516.869	4457.83
517.237	4452.86
517.604	4456.25
517.972	4457.38
518.339	4429.36
518.706	4453.32
519.073	4505.52
519.44	4498.29
519.808	4523.14
520.175	4555.91
520.542	4569.24
520.909	4595.91
521.276	4589.36
521.643	4569.24
522.009	4609.24
522.376	4632.07
522.743	4663.71
523.11	4705.74
523.477	4721.56
523.843	4684.04
524.21	4736.25
524.577	4805.4
524.943	4777.37
525.31	4818.5
525.676	4852.4
526.043	4880.2
526.409	4857.6
526.776	4938.73
527.142	4913.42
527.508	5013.3
527.874	5001.55
528.241	4978.95
528.607	5013.98
528.973	5076.8
529.339	5036.58
529.705	5095.78
530.071	5157.03
530.437	5157.48
530.803	5206.52
531.169	5218.49
531.535	5221.88
531.901	5260.3
532.267	5212.62
532.632	5281.32
532.998	5264.14
533.364	5304.59
533.73	5347.08
534.095	5376.23
534.461	5380.75
534.826	5436.57
535.192	5424.59
535.557	5417.81
535.923	5561.76
536.288	5479.95
536.653	5498.26
537.019	5540.74
537.384	5533.51
537.749	5569.9
538.114	5616.22
538.479	5560.18
538.845	5629.1
539.21	5641.31
539.575	5667.29
539.94	5677.01
540.305	5741.64
540.67	5732.38
541.034	5774.86
541.399	5779.38
541.764	5822.32
542.129	5857.8
542.494	5873.39
542.858	5831.13
543.223	5926.95
543.587	5927.4
543.952	5916.1
544.316	5968.3
544.681	5950.9
545.045	6031.58
545.41	6061.41
545.774	6087.62
546.138	6104.12
546.503	6043.56
546.867	6079.26
547.231	6204.23
547.595	6183.67
547.959	6264.57
548.324	6207.17
548.688	6255.08
549.052	6275.19
549.416	6298.24
549.779	6302.08
550.143	6322.64
550.507	6364.45
550.871	6352.93
551.235	6362.64
551.599	6426.6
551.962	6431.79
552.326	6480.83
552.689	6507.72
553.053	6481.74
553.417	6506.82
553.78	6570.32
554.143	6564.45
554.507	6568.51
554.87	6586.59
555.234	6661.17
555.597	6585.01
555.96	6680.83
556.323	6695.52
556.686	6665.46
557.05	6713.14
557.413	6761.5
557.776	6775.29
558.139	6761.73
558.502	6755.18
558.865	6815.74
559.228	6846.02
559.59	6889.86
559.953	6851.44
560.316	6935.96
560.679	6918.79
561.041	7015.96
561.404	7005.56
561.767	7048.5
562.129	6994.04
562.492	7128.5
562.854	7066.35
563.217	7090.76
563.579	7081.95
563.941	7189.51
564.304	7147.71
564.666	7212.34
565.028	7192.23
565.39	7221.83
565.753	7274.71
566.115	7262.73
566.477	7234.48
566.839	7291.21
567.201	7370.3
567.563	7353.8
567.925	7414.37
568.287	7364.2
568.648	7446.91
569.01	7542.27
569.372	7516.96
569.734	7479.9
570.095	7594.93
570.457	7692.33
570.819	7638.32
571.18	7732.1
571.542	7730.29
571.903	7743.62
572.265	7803.06
572.626	7815.94
572.987	7836.5
573.349	7926.44
573.71	7989.27
574.071	8029.94
574.432	8070.17
574.794	8075.82
575.155	8163.27
575.516	8204.4
575.877	8285.53
576.238	8322.59
576.599	8413.66
576.96	8473.77
577.32	8497.28
577.681	8628.35
578.042	8650.72
578.403	8706.99
578.763	8852.75
579.124	8925.97
579.485	9055.91
579.845	9134.1
580.206	9210.93
580.566	9293.87
580.927	9421.77
581.287	9526.4
581.648	9683.91
582.008	9831.93
582.368	9936.79
582.728	10111.02
583.089	10306.95
583.449	10394.18
583.809	10485.47
584.169	10686.82
584.529	10881.85
584.889	11082.29
585.249	11193.93
585.609	11384.88
585.969	11626.01
586.329	11776.74
586.688	12044.98
587.048	12261.25
587.408	12470.96
587.768	12717.05
588.127	12848.57
588.487	13080.43
588.846	13488.56
589.206	13526.3
589.565	13743.24
589.925	14124.93
590.284	14319.04
590.643	14631.8
591.003	14864.57
591.362	15129.87
591.721	15393.14
592.08	15651.21
592.44	15915.39
592.799	16202.61
593.158	16478.99
593.517	16794.01
593.876	17067.45
594.235	17304.95
594.593	17582.91
594.952	17891.61
595.311	18140.86
595.67	18588.76
596.029	18855.2
596.387	19153.95
596.746	19550.55
597.104	19708.51
597.463	19958.44
597.822	20236.18
598.18	20440.92
598.538	20765.88
598.897	21150.73
599.255	21229.15
599.613	21817.83
599.972	21892.4
600.33	22284.94
600.688	22367.65
601.046	22878.59
601.404	23162.2
601.762	23357.68
602.12	23736.88
602.478	23980.03
602.836	24250.31
603.194	24446.46
603.552	24781.82
603.91	24837.19
604.268	25299.32
604.625	25476.27
604.983	25737.05
605.341	25898.4
605.698	26330.48
606.056	26522.79
606.413	26874.42
606.771	27087.75
607.128	27297.69
607.485	27557.34
607.843	27667.39
608.2	27982.87
608.557	28258.34
608.914	28327.26
609.272	28672.57
609.629	28942.61
609.986	29154.36
610.343	29190.29
610.7	29694.01
611.057	29813.78
611.414	29930.84
611.771	30213.54
612.127	30466.42
612.484	30591.84
612.841	30778.72
613.198	30969.23
613.554	31075.67
613.911	31429.33
614.267	31399.5
614.624	31649.89
614.98	31900.28
615.337	32141.85
615.693	32223.43
616.05	32295.97
616.406	32564.44
616.762	32585.23
617.118	32750.2
617.475	32792.68
617.831	33141.15
618.187	33313.57
618.543	33504.75
618.899	33722.83
619.255	33776.84
619.611	33846.89
619.967	34037.85
620.323	34141.57
620.678	34210.72
621.034	34275.36
621.39	34368.01
621.746	34505.86
622.101	34793.53
622.457	34838.5
622.812	34920.99
623.168	35075.79
623.523	35133.86
623.879	35286.85
624.234	35195.78
624.589	35330.7
624.945	35491.37
625.3	35562.78
625.655	35574.08
626.01	35687.75
626.365	35733.4
626.72	35745.37
627.075	35892.71
627.43	35971.81
627.785	35907.18
628.14	35924.8
628.495	36069.43
628.85	36069.21
629.205	36148.07
629.559	36453.6
629.914	36235.53
630.269	36321.63
630.623	36181.75
630.978	36325.47
631.332	36497.67
631.687	36508.07
632.041	36290.67
632.396	36627.38
632.75	36287.05
633.104	36508.74
633.459	36446.6
633.813	36372.02
634.167	36537.9
634.521	36396.66
634.875	36551.45
635.229	36621.51
635.583	36485.24
635.937	36548.52
636.291	36482.98
636.645	36524.34
636.999	36421.51
637.352	36494.73
637.706	36345.13
638.06	36582.41
638.413	36477.78
638.767	36542.19
639.121	36565.01
639.474	36425.58
639.828	36385.81
640.181	36501.51
640.534	36440.95
640.888	36381.97
641.241	36272.82
641.594	36398.92
641.947	36548.74
642.301	36358.46
642.654	36497.44
643.007	36411.57
643.36	36464.9
643.713	36435.75
644.066	36482.3
644.419	36280.73
644.771	36104.23
645.124	35759.84
645.477	35779.95
645.83	35494.08
646.182	35412.5
646.535	35322.79
646.888	35424.25
647.24	35263.8
647.593	35476
647.945	35246.18
648.298	35317.81
648.65	35229.91
649.002	35182.22
649.355	35397.81
649.707	35203.02
650.059	35342.45
650.411	35737.69
650.763	35705.83
651.115	36139.26
651.467	36140.62
651.819	36033.95
652.171	36053.84
652.523	35910.57
652.875	36024.01
653.227	35872.38
653.578	36103.33
653.93	35861.3
654.282	35798.93
654.633	35737.46
654.985	35864.69
655.337	35858.82
655.688	35809.1
656.039	35900.17
656.391	35634.42
656.742	35766.39
657.094	35814.52
657.445	35871.7
657.796	35784.02
658.147	35811.81
658.498	35693.62
658.849	35859.27
659.2	35851.36
659.551	35666.28
659.902	35723.68
660.253	35749.44
660.604	35832.6
660.955	35742.89
661.306	35682.32
661.656	35652.27
662.007	35631.25
662.358	35614.98
662.708	35667.86
663.059	35638.03
663.409	35271.04
663.76	35771.81
664.11	35674.19
664.461	35682.78
664.811	35659.27
665.161	35607.52
665.511	35508.09
665.862	35565.04
666.212	35599.84
666.562	35626.73
666.912	35629.44
667.262	35548.09
667.612	35561.88
667.962	35489.79
668.312	35527.53
668.662	35617.24
669.011	35502.89
669.361	35469.67
669.711	35447.53
670.06	35503.57
670.41	35497.92
670.76	35334.54
671.109	35352.62
671.459	35419.05
671.808	35268.55
672.157	35468.77
672.507	35231.04
672.856	35221.77
673.205	35417.02
673.554	35379.51
673.904	35227.87
674.253	35356.01
674.602	35237.14
674.951	34925.28
675.3	34620.21
675.649	35295.67
675.998	35189.23
676.346	35203.24
676.695	35356.23
677.044	34955.34
677.393	35191.49
677.741	35153.98
678.09	35094.32
678.438	35090.02
678.787	35192.62
679.135	35216.35
679.484	34889.35
679.832	35078.27
680.181	34803.03
680.529	34906.3
680.877	34743.14
681.225	34674.44
681.573	34857.04
681.922	34757.38
682.27	34560.32
682.618	34634.67
682.966	34539.08
683.314	34570.04
683.661	34390.38
684.009	34315.35
684.357	34259.76
684.705	34278.52
685.053	34318.07
685.4	34115.36
685.748	34037.17
686.095	34107.68
686.443	33924.63
686.79	33970.05
687.138	33939.32
687.485	33891.86
687.832	33993.78
688.18	33889.83
688.527	33607.35
688.874	33708.14
689.221	33653.68
689.568	33568.48
689.915	33466.34
690.262	33419.11
690.609	33285.78
690.956	33298.66
691.303	33332.56
691.65	33178.21
691.997	33096.63
692.344	32885.56
692.69	32797.65
693.037	32994.03
693.383	32656.64
693.73	32703.87
694.077	32474.95
694.423	32513.14
694.769	32412.81
695.116	32453.03
695.462	32312.92
695.808	32224.79
696.155	32237.44
696.501	31958.35
696.847	32103.21
697.193	31782.99
697.539	31908.19
697.885	31718.36
698.231	31646.27
698.577	31688.98
698.923	31597.01
699.269	31462.55
699.614	31232.5
699.96	31206.28
700.306	31346.85
700.651	31097.36
700.997	31196.57
701.342	31024.82
701.688	30928.55
702.033	30961.54
702.379	30762
702.724	30814.66
703.069	30762.45
703.415	30422.58
703.76	30462.35
704.105	30391.16
704.45	30369.7
704.795	30217.61
705.14	30058.74
705.485	30095.13
705.83	30079.31
706.175	30043.83
706.52	29963.6
706.865	29756.6
707.209	29823.72
707.554	29687.45
707.899	29688.58
708.243	29590.51
708.588	29520.68
708.932	29324.07
709.277	29270.29
709.621	29286.79
709.966	29160.01
710.31	29181.93
710.654	29029.84
710.998	29078.43
711.342	29001.82
711.687	28955.72
712.031	28852.45
712.375	28747.37
712.719	28865.33
713.063	28807.03
713.407	28906.68
713.75	28531.1
714.094	28636.41
714.438	28509.86
714.782	28564.55
715.125	28402.29
715.469	28435.96
715.812	28188.96
716.156	28138.79
716.499	28218.57
716.843	28137.21
717.186	27928.86
717.53	28245.46
717.873	28040.94
718.216	27969.98
718.559	27832.59
718.902	27830.33
719.246	27694.06
719.589	27731.12
719.932	27582.88
720.275	27615.42
720.617	27640.5
720.96	27510.79
721.303	27521.18
721.646	27537.91
721.989	27447.29
722.331	27408.42
722.674	27262.43
723.016	27353.5
723.359	27195.99
723.701	27257.91
724.044	26983.57
724.386	26959.39
724.729	27181.31
725.071	27051.14
725.413	26948.77
725.755	27052.72
726.097	26821.99
726.439	26777.47
726.782	26770.02
727.124	26746.51
727.465	26678.27
727.807	26673.52
728.149	26466.3
728.491	26465.84
728.833	26538.61
729.175	26479.18
729.516	26391.72
729.858	26384.04
730.199	26252.97
730.541	26304.49
730.882	26288.45
731.224	26345.85
731.565	26144.04
731.906	26120.54
732.248	26120.09
732.589	26049.13
732.93	25960.55
733.271	25937.95
733.612	26034.44
733.953	26120.32
734.294	25876.03
734.635	25806.65
734.976	25808.23
735.317	25802.36
735.658	25713.1
735.999	25769.14
736.339	25604.85
736.68	25686.66
737.021	25671.97
737.361	25526.43
737.702	25563.72
738.042	25615.92
738.383	25498.64
738.723	25572.76
739.063	25397.17
739.404	25382.48
739.744	25369.83
740.084	25306.78
740.424	25225.88
740.764	25257.97
741.104	25248.7
741.444	25109.04
741.784	25084.86
742.124	25117.86
742.464	25044.41
742.804	24984.98
743.143	24980.01
743.483	24961.25
743.823	24917.18
744.162	24870.86
744.502	24945.21
744.841	24725.32
745.181	24951.99
745.52	24688.04
745.86	24752.89
746.199	24572.79
746.538	24585.89
746.877	24682.16
747.216	24531.66
747.556	24550.19
747.895	24572.11
748.234	24383.19
748.573	24356.97
748.911	24365.56
749.25	24365.79
749.589	24180.25
749.928	24281.27
750.267	24192.68
750.605	24185
750.944	24069.75
751.283	24119.46
751.621	24106.13
751.96	23851.22
752.298	23928.51
752.636	23966.93
752.975	23912.01
753.313	23757.89
753.651	23828.85
753.989	23614.17
754.327	23582.76
754.666	23518.35
755.004	23621.85
755.342	23559.25
755.679	23516.77
756.017	23355.87
756.355	23479.03
756.693	23208.08
757.031	23287.85
757.368	23092.83
757.706	23128.3
758.044	23037.69
758.381	23121.52
758.719	22936.67
759.056	22943.68
759.394	22963.56
759.731	22655.32
760.068	22739.61
760.405	22679.73
760.743	22592.05
761.08	22634.98
761.417	22507.3
761.754	22374.2
762.091	22480.19
762.428	22315.22
762.765	22201.77
763.102	22288.33
763.438	22078.16
763.775	21975.57
764.112	21964.95
764.449	22021.67
764.785	21896.47
765.122	21755.01
765.458	21703.03
765.795	21652.86
766.131	21604.73
766.467	21425.75
766.804	21399.76
767.14	21317.96
767.476	21374.9
767.812	21237.73
768.148	21250.39
768.485	21114.57
768.821	21000.22
769.157	20962.94
769.492	20930.17
769.828	20870.28
770.164	20819.44
770.5	20649.5
770.836	20666.67
771.171	20489.96
771.507	20583.06
771.842	20330.19
772.178	20344.2
772.513	20309.17
772.849	20335.16
773.184	20147.59
773.519	20080.93
773.855	20066.46
774.19	19993.02
774.525	19845
774.86	19944.43
775.195	19818.79
775.53	19741.5
775.865	19618.79
776.2	19501.06
776.535	19367.95
776.87	19279.82
777.205	19275.98
777.539	19172.48
777.874	19299.7
778.209	19033.27
778.543	19068.3
778.878	18934.52
779.212	18908.08
779.547	18779.72
779.881	18835.08
780.215	18645.26
780.55	18752.37
780.884	18604.13
781.218	18574.53
781.552	18516.9
781.886	18456.34
782.22	18364.59
782.554	18254.53
782.888	18066.74
783.222	17992.39
783.556	18077.14
783.889	17882.11
784.223	17809.12
784.557	17806.86
784.89	17818.84
785.224	17683.48
785.557	17575.91
785.891	17538.62
786.224	17481.45
786.558	17493.2
786.891	17356.93
787.224	17349.02
787.557	17307.67
787.891	17117.84
788.224	17140.67
788.557	17177.5
788.89	17110.84
789.223	17108.12
789.556	16929.82
789.888	16847.57
790.221	16837.85
790.554	16643.73
790.887	16725.53
791.219	16666.33
791.552	16607.57
791.884	16484.86
792.217	16497.97
792.549	16522.38
792.882	16270.18
793.214	16272.44
793.546	16278.31
793.879	16177.07
794.211	16122.84
794.543	16094.82
794.875	16015.5
795.207	16089.85
795.539	15919
795.871	15942.96
796.203	15758.33
796.535	15733.24
796.867	15727.37
797.198	15646.24
797.53	15641.5
797.862	15522.63
798.193	15606.24
798.525	15398.11
798.856	15437.66
799.188	15276.53
799.519	15260.26
799.85	15171.68
800.182	15126.71
800.513	15195.86
800.844	15007.84
801.175	15144.33
801.506	15041.29
801.837	15055.3
802.168	14910.89
802.499	14850.56
802.83	14801.74
803.161	14728.3
803.491	14819.6
803.822	14746.15
804.153	14658.02
804.483	14576.21
804.814	14470.45
805.145	14567.63
805.475	14546.16
805.805	14418.25
806.136	14395.88
806.466	14407.4
806.796	14361.53
807.126	14208.54
807.457	14225.71
807.787	14177.35
808.117	14199.5
808.447	14074.08
808.777	14160.4
809.107	14119.28
809.436	14001.99
809.766	13900.07
810.096	14003.12
810.426	13823.69
810.755	13912.5
811.085	13832.73
811.414	13759.74
811.744	13751.6
812.073	13665.05
812.403	13660.98
812.732	13642.68
813.061	13578.95
813.39	13485.17
813.719	13599.52
814.049	13563.58
814.378	13416.24
814.707	13436.81
815.036	13428.45
815.365	13307.55
815.693	13212.86
816.022	13272.52
816.351	13224.16
816.68	13104.39
817.008	13202.69
817.337	13053.09
817.665	13120.21
817.994	13023.94
818.322	13035.46
818.651	12941.23
818.979	12977.61
819.307	12945.97
819.636	12959.76
819.964	12827.56
820.292	12885.64
820.62	12816.71
820.948	12844.05
821.276	12854.68
821.604	12819.65
821.932	12821.68
822.259	12849.25
822.587	12856.26
822.915	12740.55
823.243	12793.66
823.57	12760.89
823.898	12747.11
824.225	12642.48
824.553	12781.23
824.88	12722.25
825.207	12780.33
825.535	12719.54
825.862	12770.61
826.189	12661.91
826.516	12744.85
826.843	12740.33
827.17	12793.66
827.497	12698.97
827.824	12742.81
828.151	12771.74
828.478	12710.27
828.805	12712.53
829.131	12716.15
829.458	12703.27
829.785	12612.87
830.111	12724.28
830.438	12695.58
830.764	12692.42
831.09	12728.8
831.417	12637.51
831.743	12672.53
832.069	12655.36
832.395	12662.59
832.722	12618.98
833.048	12570.39
833.374	12614.68
833.7	12513.89
834.026	12638.18
834.351	12553.89
834.677	12588.24
835.003	12612.65
835.329	12563.38
835.654	12576.27
835.98	12469.15
836.306	12559.09
836.631	12457.62
836.956	12502.37
837.282	12465.53
837.607	12366.1
837.932	12306.89
838.258	12400
838.583	12327.91
838.908	12300.57
839.233	12399.32
839.558	12341.47
839.883	12220.34
840.208	12208.37
840.533	12202.94
840.858	12255.14
841.182	12150.06
841.507	12138.99
841.832	12120.01
842.156	12140.34
842.481	12094.02
842.805	12055.83
843.13	12006.11
843.454	12087.46
843.778	11948.71
844.103	11951.88
844.427	11912.78
844.751	11830.75
845.075	11873.68
845.399	11834.59
845.723	11747.13
846.047	11805.21
846.371	11703.29
846.695	11671.43
847.019	11566.8
847.343	11548.72
847.666	11467.37
847.99	11441.38
848.313	11358.67
848.637	11307.37
848.96	11341.04
849.284	11331.78
849.607	11139.24
849.931	11203.65
850.254	11072.12
850.577	11047.49
850.9	11022.86
851.223	10917.1
851.546	10887.04
851.869	10832.58
852.192	10899.02
852.515	10874.16
852.838	10797.78
853.161	10712.59
853.483	10725.24
853.806	10638.46
854.129	10698.12
854.451	10618.35
854.774	10595.53
855.096	10491.12
855.419	10489.31
855.741	10446.15
856.063	10396.44
856.385	10460.84
856.708	10364.35
857.03	10303.33
857.352	10357.34
857.674	10272.6
857.996	10211.13
858.318	10182.66
858.64	10245.03
858.961	10165.03
859.283	10092.26
859.605	10063.11
859.926	10126.61
860.248	10078.93
860.57	10031.93
860.891	9970.01
861.212	9966.62
861.534	9904.92
861.855	9923.23
862.176	9920.06
862.498	9899.5
862.819	9888.2
863.14	9792.84
863.461	9877.58
863.782	9792.16
864.103	9815.66
864.424	9723.91
864.745	9749.67
865.065	9734.31
865.386	9716
865.707	9721.65
866.027	9662.44
866.348	9615.89
866.668	9658.6
866.989	9581.09
867.309	9546.97
867.63	9613.63
867.95	9565.95
868.27	9556.01
868.59	9518.72
868.91	9541.09
869.23	9505.16
869.55	9492.96
869.87	9475.56
870.19	9507.65
870.51	9432.62
870.83	9375.22
871.15	9380.19
871.469	9392.62
871.789	9413.86
872.109	9402.56
872.428	9336.35
872.748	9359.63
873.067	9375.9
873.386	9359.85
873.706	9279.4
874.025	9260.65
874.344	9207.09
874.663	9261.32
874.982	9243.7
875.301	9235.34
875.62	9193.3
875.939	9113.76
876.258	9209.8
876.577	9107.88
876.896	9157.6
877.214	9132.97
877.533	9129.8
877.852	9093.42
878.17	9076.24
878.489	9137.49
878.807	9035.34
879.125	9019.52
879.444	9113.53
879.762	9026.08
880.08	9012.07
880.398	8924.38
880.716	8935.01
881.034	8957.38
881.352	8861.56
881.67	8858.4
881.988	8958.96
882.306	8832.41
882.624	8878.96
882.941	8834.67
883.259	8769.59
883.577	8820.88
883.894	8744.5
884.212	8742.24
884.529	8730.26
884.846	8808.68
885.164	8716.25
885.481	8653.2
885.798	8647.56
886.115	8585.64
886.432	8608.01
886.75	8550.83
887.067	8550.83
887.383	8495.69
887.7	8537.73
888.017	8530.72
888.334	8480.55
888.651	8507.9
888.967	8446.88
889.284	8359.65
889.6	8444.17
889.917	8305.64
890.233	8340.44
890.55	8304.06
890.866	8318.98
891.182	8303.61
891.498	8277.4
891.815	8282.14
892.131	8204.18
892.447	8168.47
892.763	8140.9
893.079	8110.85
893.395	8131.64
893.71	8068.36
894.026	8028.59
894.342	8056.84
894.657	8029.49
894.973	7982.26
895.289	7888.25
895.604	7936.84
895.92	7899.55
896.235	7857.97
896.55	7866.33
896.865	7852.55
897.181	7835.37
897.496	7826.56
897.811	7768.93
898.126	7749.5
898.441	7756.96
898.756	7692.55
899.071	7585.66
899.386	7607.36
899.7	7564.19
900.015	7536.17
900.33	7488.72
900.644	7460.24
900.959	7497.53
901.273	7467.02
901.588	7482.16
901.902	7360.36
902.216	7344.76
902.531	7374.14
902.845	7333.47
903.159	7277.87
903.473	7275.16
903.787	7219.12
904.101	7196.97
904.415	7155.39
904.729	7148.16
905.042	7088.5
905.356	7116.07
905.67	7033.36
905.984	7018.22
906.297	7069.52
906.611	6957.88
906.924	7026.81
907.237	6964.44
907.551	6900.93
907.864	6875.4
908.177	6892.35
908.491	6919.24
908.804	6790.88
909.117	6824.33
909.43	6757.66
909.743	6735.74
910.056	6709.75
910.368	6650.09
910.681	6656.87
910.994	6628.4
911.307	6602.64
911.619	6526.71
911.932	6561.06
912.244	6455.3
912.557	6503.2
912.869	6489.42
913.181	6392.47
913.494	6434.05
913.806	6402.42
914.118	6402.64
914.43	6347.73
914.742	6363.55
915.054	6316.32
915.366	6242.19
915.678	6255.53
915.99	6244.45
916.302	6194.29
916.613	6114.97
916.925	6195.64
917.236	6133.95
917.548	6085.36
917.859	6062.54
918.171	6081.52
918.482	6061.18
918.794	5977.12
919.105	5973.05
919.416	5918.36
919.727	5939.38
920.038	5943.67
920.349	5878.14
920.66	5815.54
920.971	5790.23
921.282	5827.97
921.593	5757.01
921.903	5710.46
922.214	5757.69
922.525	5686.05
922.835	5705.49
923.146	5668.88
923.456	5640.4
923.767	5608.76
924.077	5585.04
924.387	5581.87
924.697	5553.4
925.008	5562.66
925.318	5467.07
925.628	5500.29
925.938	5443.35
926.248	5417.58
926.558	5407.87
926.867	5431.14
927.177	5385.04
927.487	5346.17
927.796	5312.5
928.106	5308.21
928.416	5281.32
928.725	5247.87
929.034	5208.1
929.344	5235.44
929.653	5186.63
929.962	5186.86
930.271	5116.57
930.581	5094.88
930.89	5037.25
931.199	5081.55
931.508	5071.6
931.817	5073.41
932.125	5011.27
932.434	4969.01
932.743	4941.21
933.051	4949.12
933.36	4940.53
933.669	4938.05
933.977	4864.83
934.286	4859.63
934.594	4836.58
934.902	4818.73
935.21	4818.96
935.519	4781.22
935.827	4776.02
936.135	4710.94
936.443	4684.72
936.751	4674.1
937.059	4653.76
937.367	4662.35
937.674	4611.73
937.982	4588
938.29	4572.63
938.597	4588.23
938.905	4508
939.213	4541.22
939.52	4504.84
939.827	4494.9
940.135	4516.36
940.442	4430.49
940.749	4457.83
941.056	4418.74
941.363	4395.01
941.67	4392.98
941.977	4351.4
942.284	4343.49
942.591	4354.33
942.898	4358.63
943.205	4329.48
943.511	4254.45
943.818	4253.09
944.125	4255.81
944.431	4188.24
944.738	4210.16
945.044	4200.67
945.35	4191.4
945.657	4115.02
945.963	4157.73
946.269	4147.79
946.575	4141.68
946.881	4099.65
947.187	4090.39
947.493	4019.65
947.799	4055.36
948.105	4005.42
948.41	4004.51
948.716	3947.79
949.022	3986.21
949.327	3958.86
949.633	3937.4
949.938	3915.25
950.244	3922.48
950.549	3852.2
950.854	3832.99
951.16	3836.83
951.465	3799.1
951.77	3806.78
952.075	3790.51
952.38	3800.22
952.685	3782.37
952.99	3727.46
953.294	3760.68
953.599	3719.32
953.904	3665.77
954.209	3640
954.513	3712.77
954.818	3680.23
955.122	3663.28
955.426	3645.43
955.731	3599.1
956.035	3553.68
956.339	3553.23
956.643	3547.35
956.948	3523.62
957.252	3517.29
957.556	3522.94
957.86	3496.96
958.163	3468.48
958.467	3466
958.771	3482.49
959.075	3449.95
959.378	3441.59
959.682	3437.3
959.985	3404.3
960.289	3384.42
960.592	3368.15
960.896	3375.15
961.199	3305.77
961.502	3337.19
961.805	3290.41
962.108	3320.46
962.411	3273.23
962.714	3299.45
963.017	3230.07
963.32	3270.52
963.623	3233.01
963.926	3215.38
964.228	3197.08
964.531	3220.13
964.833	3189.39
965.136	3183.97
965.438	3121.6
965.741	3124.31
966.043	3152.78
966.345	3120.69
966.648	3122.5
966.95	3090.19
967.252	3036.18
967.554	3009.29
967.856	3048.38
968.158	2994.37
968.46	3024.2
968.761	3001.15
969.063	2948.72
969.365	2966.12
969.666	2973.81
969.968	2932.68
970.269	2924.09
970.571	2916.18
970.872	2916.63
971.174	2870.53
971.475	2886.35
971.776	2850.87
972.077	2843.64
972.378	2883.86
972.679	2840.48
972.98	2830.98
973.281	2817.43
973.582	2795.51
973.883	2767.71
974.183	2792.79
974.484	2774.72
974.785	2734.04
975.085	2734.72
975.386	2749.41
975.686	2713.93
975.986	2716.41
976.287	2703.3
976.587	2646.36
976.887	2659.69
977.187	2651.78
977.487	2645.91
977.787	2633.25
978.087	2633.48
978.387	2619.69
978.687	2621.5
978.987	2565.91
979.286	2565.68
979.586	2568.39
979.885	2535.4
980.185	2508.06
980.484	2566.13
980.784	2539.24
981.083	2500.6
981.382	2472.8
981.682	2513.03
981.981	2469.41
982.28	2485.91
982.579	2455.18
982.878	2469.41
983.177	2444.33
983.475	2447.04
983.774	2402.97
984.073	2390.77
984.372	2429.87
984.67	2389.64
984.969	2391.22
985.267	2358.23
985.566	2367.49
985.864	2343.99
986.162	2312.81
986.461	2308.74
986.759	2298.34
987.057	2303.54
987.355	2311.45
987.653	2289.3
987.951	2287.04
988.249	2249.31
988.547	2231.23
988.844	2253.37
989.142	2228.51
989.44	2203.2
989.737	2212.24
990.035	2193.26
990.332	2181.06
990.63	2206.14
990.927	2138.12
991.224	2155.97
991.521	2146.71
991.819	2154.17
992.116	2138.12
992.413	2125.24
992.71	2098.57
993.006	2085.69
993.303	2121.85
993.6	2123.43
993.897	2093.83
994.193	2080.27
994.49	2061.06
994.787	2036.66
995.083	2040.72
995.379	1988.75
995.676	2045.02
995.972	2026.94
996.268	1994.4
996.565	1990.78
996.861	1951.01
997.157	1958.47
997.453	1960.5
997.749	1956.21
998.044	1938.13
998.34	1934.06
998.636	1930.44
998.932	1908.3
999.227	1903.55
999.523	1897.22
999.818	1860.39
1000.114	1866.49
1000.409	1857
1000.704	1829.43
1001	1807.28
1001.295	1833.27
1001.59	1848.64
1001.885	1821.75
1002.18	1807.51
1002.475	1782.2
1002.77	1789.88
1003.065	1800.5
1003.359	1768.87
1003.654	1772.26
1003.949	1777.91
1004.243	1726.61
1004.538	1723.22
1004.832	1734.74
1005.127	1754.4
1005.421	1683.9
1005.715	1675.54
1006.009	1704.46
1006.304	1696.55
1006.598	1688.42
1006.892	1643.67
1007.186	1673.73
1007.48	1642.77
1007.773	1638.02
1008.067	1590.57
1008.361	1624.24
1008.655	1631.92
1008.948	1616.55
1009.242	1595.09
1009.535	1574.75
1009.829	1582.88
1010.122	1542.88
1010.415	1532.49
1010.708	1542.66
1011.001	1530
1011.295	1529.1
1011.588	1548.08
1011.881	1513.05
1012.173	1509.44
1012.466	1500.62
1012.759	1493.62
1013.052	1464.02
1013.344	1506.05
1013.637	1488.42
1013.93	1456.11
1014.222	1452.26
1014.514	1438.03
1014.807	1445.26
1015.099	1420.17
1015.391	1438.71
1015.683	1381.31
1015.976	1404.81
1016.268	1399.84
1016.56	1371.81
1016.851	1378.14
1017.143	1392.83
1017.435	1349.22
1017.727	1343.34
1018.018	1327.3
1018.31	1323.45
1018.602	1336.56
1018.893	1337.69
1019.185	1322.78
1019.476	1296.34
1019.767	1316.9
1020.058	1293.62
1020.35	1281.87
1020.641	1280.29
1020.932	1269.67
1021.223	1252.27
1021.514	1232.38
1021.804	1229.45
1022.095	1242.55
1022.386	1217.02
1022.677	1236.9
1022.967	1208.43
1023.258	1194.87
1023.548	1191.03
1023.839	1169.11
1024.129	1179.95
1024.419	1174.53
1024.709	1176.34
1025	1174.98
1025.29	1160.97
1025.58	1144.93
1025.87	1162.78
1026.16	1148.32
1026.449	1129.56
1026.739	1106.28
1027.029	1107.19
1027.319	1129.79
1027.608	1100.18
1027.898	1063.8
1028.187	1082.33
1028.477	1059.96
1028.766	1073.29
1029.055	1079.39
1029.344	1059.51
1029.634	1034.87
1029.923	1046.4
1030.212	1040.75
1030.501	1005.95
1030.79	1018.83
1031.078	1019.96
1031.367	1024.93
1031.656	1010.92
1031.945	982.67
1032.233	980.19
1032.522	989.23
1032.81	975.67
1033.099	973.41
1033.387	982.45
1033.675	958.72
1033.963	964.59
1034.251	953.52
1034.54	939.06
1034.828	919.17
1035.116	922.33
1035.403	897.7
1035.691	915.56
1035.979	905.16
1036.267	899.28
1036.554	903.13
1036.842	916.91
1037.129	902.9
1037.417	885.27
1037.704	893.86
1037.992	873.75
1038.279	866.06
1038.566	865.39
1038.853	865.39
1039.14	865.39
