Data from hue_32_FLMS001491_00087.txt Node
Date: Tue Feb 07 17:24:02 GMT 2017
User: dcchb
Spectrometer: FLMS00149
Trigger mode: 0
Integration Time (sec): 2.000000E-2
Scans to average: 10
Electric dark correction enabled: true
Nonlinearity correction enabled: false
Boxcar width: 0
XAxis mode: Wavelengths
Number of Pixels in Spectrum: 2048
>>>>>Begin Spectral Data<<<<<
341.393	-5.1
341.776	-5.1
342.16	-5.1
342.543	-57.75
342.927	-79.22
343.31	-57.75
343.693	-77.19
344.077	-62.95
344.46	-74.02
344.843	-50.52
345.226	-28.37
345.61	-32.22
345.993	-22.95
346.376	-12.33
346.759	14.79
347.142	19.31
347.525	30.15
347.908	68.8
348.291	76.93
348.674	97.5
349.057	110.83
349.44	113.32
349.823	138.85
350.206	159.87
350.588	201
350.971	224.27
351.354	223.6
351.737	224.05
352.119	266.98
352.502	271.96
352.884	285.06
353.267	269.24
353.65	292.52
354.032	308.79
354.414	313.54
354.797	309.24
355.179	313.99
355.562	332.29
355.944	318.06
356.326	339.52
356.709	349.02
357.091	373.65
357.473	376.36
357.855	347.21
358.238	342.24
358.62	349.02
359.002	331.62
359.384	355.12
359.766	373.2
360.148	353.76
360.53	337.72
360.912	350.6
361.294	344.72
361.676	353.31
362.057	315.12
362.439	335.91
362.821	318.06
363.203	343.82
363.584	319.19
363.966	335.91
364.348	321.45
364.729	323.71
365.111	315.34
365.493	329.36
365.874	326.87
366.256	315.34
366.637	311.5
367.019	312.86
367.4	329.58
367.781	322.35
368.163	331.39
368.544	321.22
368.925	302.92
369.306	332.97
369.688	316.7
370.069	317.38
370.45	335.91
370.831	301.56
371.212	327.55
371.593	335.01
371.974	313.54
372.355	329.13
372.736	320.09
373.117	323.48
373.498	319.19
373.879	335.91
374.26	317.6
374.641	316.25
375.021	323.71
375.402	330.26
375.783	311.05
376.163	331.62
376.544	339.75
376.925	347.66
377.305	330.71
377.686	330.94
378.066	332.97
378.447	346.53
378.827	339.52
379.208	323.71
379.588	339.07
379.968	327.55
380.349	336.36
380.729	329.58
381.109	342.91
381.489	330.71
381.87	346.53
382.25	349.69
382.63	351.5
383.01	362.58
383.39	364.16
383.77	359.64
384.15	343.14
384.53	385.17
384.91	342.91
385.29	336.59
385.67	346.98
386.049	342.69
386.429	368
386.809	349.24
387.189	353.76
387.568	355.34
387.948	342.69
388.328	364.38
388.707	346.08
389.087	365.06
389.466	372.29
389.846	368
390.225	380.65
390.605	382.69
390.984	361.9
391.363	383.37
391.743	369.58
392.122	385.4
392.501	374.55
392.881	378.39
393.26	392.63
393.639	407.32
394.018	400.54
394.397	395.57
394.776	389.69
395.155	375
395.534	372.97
395.913	383.14
396.292	400.54
396.671	380.2
397.05	415
397.429	394.66
397.808	407.77
398.186	395.57
398.565	430.37
398.944	383.59
399.323	405.96
399.701	401.67
400.08	412.07
400.458	406.19
400.837	412.74
401.215	407.32
401.594	403.03
401.972	403.25
402.351	417.49
402.729	421.78
403.107	424.72
403.486	415.46
403.864	394.44
404.242	428.56
404.62	435.79
404.999	409.35
405.377	433.53
405.755	452.29
406.133	429.24
406.511	431.5
406.889	447.32
407.267	451.16
407.645	471.27
408.023	446.64
408.401	441.44
408.779	446.64
409.156	451.16
409.534	469.24
409.912	468.56
410.29	467.21
410.667	501.33
411.045	455.23
411.422	461.56
411.8	459.75
412.178	499.97
412.555	474.66
412.933	485.74
413.31	478.5
413.687	475.34
414.065	505.4
414.442	491.16
414.819	493.19
415.197	499.75
415.574	494.1
415.951	514.66
416.328	515.79
416.705	513.08
417.082	511.27
417.46	521.44
417.837	530.25
418.214	523.02
418.591	523.02
418.967	531.84
419.344	548.33
419.721	536.13
420.098	543.14
420.475	553.98
420.852	582
421.228	562.8
421.605	559.63
421.982	565.06
422.358	554.66
422.735	548.11
423.111	575.45
423.488	585.39
423.864	554.21
424.241	600.31
424.617	596.69
424.994	601.44
425.37	581.33
425.746	573.19
426.123	591.5
426.499	585.17
426.875	606.64
427.251	585.85
427.627	622.23
428.003	621.33
428.379	641.21
428.756	611.16
429.132	630.14
429.507	634.66
429.883	636.01
430.259	647.77
430.635	640.76
431.011	640.08
431.387	662.91
431.763	656.58
432.138	664.94
432.514	684.15
432.89	676.92
433.265	699.29
433.641	690.93
434.016	689.12
434.392	702.68
434.767	702
435.143	714.43
435.518	729.12
435.894	729.8
436.269	742.23
436.644	745.39
437.02	741.77
437.395	743.13
437.77	763.92
438.145	772.73
438.52	753.75
438.895	778.84
439.271	765.5
439.646	794.2
440.021	762.34
440.395	783.13
440.77	802.11
441.145	813.86
441.52	802.11
441.895	793.98
442.27	815.67
442.645	809.57
443.019	822.68
443.394	807.54
443.769	814.99
444.143	821.77
444.518	807.31
444.892	829.23
445.267	844.37
445.641	853.18
446.016	844.6
446.39	867.87
446.764	867.87
447.139	873.52
447.513	878.04
447.887	894.54
448.262	844.82
448.636	884.82
449.01	873.3
449.384	900.19
449.758	887.53
450.132	944.48
450.506	918.27
450.88	939.74
451.254	917.14
451.628	926.4
452.002	947.19
452.376	948.1
452.75	960.07
453.123	977.25
453.497	978.38
453.871	993.97
454.244	1021.77
454.618	998.72
454.992	1022.44
455.365	1013.63
455.739	1023.35
456.112	1051.14
456.486	1082.56
456.859	1054.76
457.232	1071.03
457.606	1080.75
457.979	1104.48
458.352	1132.72
458.725	1134.76
459.099	1149.45
459.472	1153.97
459.845	1175.44
460.218	1169.79
460.591	1192.38
460.964	1155.32
461.337	1200.97
461.71	1228.77
462.083	1212.5
462.456	1262.89
462.829	1261.31
463.201	1300.63
463.574	1274.87
463.947	1267.41
464.32	1319.39
464.692	1364.58
465.065	1313.96
465.438	1359.84
465.81	1397.35
466.183	1412.27
466.555	1439.16
466.928	1448.2
467.3	1475.31
467.672	1469.66
468.045	1492.26
468.417	1480.06
468.789	1524.35
469.161	1543.11
469.534	1589.89
469.906	1612.71
470.278	1634.41
470.65	1639.6
471.022	1676.21
471.394	1715.99
471.766	1706.72
472.138	1741.97
472.51	1758.24
472.882	1783.1
473.253	1833.95
473.625	1861.29
473.997	1902.42
474.369	1940.84
474.74	1948.52
475.112	2033.04
475.484	2032.14
475.855	2072.36
476.227	2115.3
476.598	2180.83
476.97	2180.61
477.341	2258.57
477.713	2339.7
478.084	2328.17
478.455	2393.03
478.827	2459.02
479.198	2544.21
479.569	2563.65
479.94	2661.72
480.311	2695.62
480.682	2713.7
481.053	2806.58
481.424	2891.77
481.795	2946.24
482.166	3005.44
482.537	3082.05
482.908	3151.43
483.279	3195.27
483.65	3292.44
484.021	3378.77
484.391	3444.3
484.762	3516.16
485.133	3534.02
485.503	3615.15
485.874	3741.02
486.244	3802.03
486.615	3848.59
486.985	3976.27
487.356	4110.95
487.726	4134.68
488.097	4231.4
488.467	4289.03
488.837	4409.7
489.207	4527.89
489.578	4528.57
489.948	4682.46
490.318	4688.11
490.688	4794.32
491.058	4914.09
491.428	5015.79
491.798	5083.81
492.168	5187.99
492.538	5290.13
492.908	5338.04
493.278	5467.53
493.648	5510.69
494.017	5615.32
494.387	5684.7
494.757	5749.55
495.126	5872.94
495.496	5894.63
495.866	5978.47
496.235	6074.97
496.605	6148.41
496.974	6165.36
497.344	6321.97
497.713	6392.93
498.082	6398.12
498.452	6533.26
498.821	6580.49
499.19	6661.17
499.559	6768.51
499.928	6781.39
500.298	6916.3
500.667	6916.3
501.036	6987.49
501.405	7081.49
501.774	7092.57
502.143	7164.2
502.512	7229.29
502.88	7341.37
503.249	7300.47
503.618	7405.55
503.987	7528.49
504.356	7564.42
504.724	7593.57
505.093	7592.22
505.462	7761.7
505.83	7812.1
506.199	7822.94
506.567	7964.18
506.936	7911.53
507.304	8097.74
507.672	8126.44
508.041	8162.14
508.409	8284.17
508.777	8309.71
509.145	8368.47
509.514	8409.37
509.882	8387
510.25	8455.24
510.618	8599.87
510.986	8563.04
511.354	8642.58
511.722	8658.18
512.09	8778.85
512.458	8768
512.826	8887.77
513.193	8963.7
513.561	8937.72
513.929	9032.63
514.297	9095
514.664	9163.93
515.032	9218.61
515.4	9263.36
515.767	9346.07
516.135	9320.53
516.502	9329.57
516.869	9461.09
517.237	9405.05
517.604	9481.66
517.972	9579.73
518.339	9644.37
518.706	9656.79
519.073	9746.74
519.44	9809.11
519.808	9863.12
520.175	9853.4
520.542	9987.63
520.909	10004.58
521.276	10063.79
521.643	10084.81
522.009	10169.77
522.376	10225.82
522.743	10296.33
523.11	10426.49
523.477	10469.43
523.843	10532.93
524.21	10632.59
524.577	10722.98
524.943	10708.97
525.31	10727.73
525.676	10871.68
526.043	10925.46
526.409	10981.05
526.776	11063.76
527.142	11114.83
527.508	11174.95
527.874	11249.07
528.241	11247.03
528.607	11283.19
528.973	11432.79
529.339	11433.92
529.705	11492.9
530.071	11630.98
530.437	11682.05
530.803	11746.91
531.169	11819.22
531.535	11739.23
531.901	11790.07
532.267	11891.99
532.632	11957.52
532.998	12072.1
533.364	12061.7
533.73	12101.7
534.095	12266.67
534.461	12220.34
534.826	12306.44
535.192	12348.93
535.557	12415.37
535.923	12473.22
536.288	12478.87
536.653	12590.5
537.019	12544.4
537.384	12662.36
537.749	12671.63
538.114	12612.2
538.479	12681.12
538.845	12751.63
539.21	12720.67
539.575	12915.92
539.94	12947.1
540.305	13018.74
540.67	12929.7
541.034	13036.82
541.399	13168.11
541.764	13220.32
542.129	13203.82
542.494	13294.89
542.858	13392.97
543.223	13412.85
543.587	13441.1
543.952	13564.26
544.316	13504.83
544.681	13483.13
545.045	13711.38
545.41	13736.91
545.774	13807.19
546.138	13790.7
546.503	13884.93
546.867	13846.74
547.231	14010.35
547.595	14063.91
547.959	14076.11
548.324	14185.49
548.688	14143
549.052	14235.66
549.416	14269.55
549.779	14281.53
550.143	14293.06
550.507	14382.55
550.871	14380.96
551.235	14420.06
551.599	14516.33
551.962	14552.71
552.326	14631.58
552.689	14669.32
553.053	14666.83
553.417	14754.51
553.78	14934.62
554.143	14760.84
554.507	14890.55
554.87	14999.48
555.234	15095.07
555.597	15001.51
555.96	15118.8
556.323	15122.41
556.686	15145.69
557.05	15243.77
557.413	15265.01
557.776	15252.58
558.139	15418.22
558.502	15495.06
558.865	15505
559.228	15533.02
559.59	15637.43
559.953	15657.31
560.316	15782.96
560.679	15879.46
561.041	15890.3
561.404	15959.68
561.767	16014.37
562.129	15991.77
562.492	16108.38
562.854	16138.88
563.217	16143.86
563.579	16189.5
563.941	16302.27
564.304	16330.97
564.666	16468.59
565.028	16462.94
565.39	16569.15
565.753	16667.68
566.115	16665.2
566.477	16780.9
566.839	16775.7
567.201	16784.97
567.563	16867.68
567.925	16983.38
568.287	17001.91
568.648	17049.14
569.01	17103.83
569.372	17290.27
569.734	17284.62
570.095	17337.5
570.457	17457.04
570.819	17506.98
571.18	17577.04
571.542	17542.24
571.903	17642.57
572.265	17793.3
572.626	17930.02
572.987	17865.39
573.349	17959.17
573.71	18035.78
574.071	18086.4
574.432	18212.95
574.794	18365.49
575.155	18431.03
575.516	18501.08
575.877	18641.42
576.238	18759.15
576.599	18956.44
576.96	18945.14
577.32	19025.81
577.681	19234.62
578.042	19336.77
578.403	19492.24
578.763	19518
579.124	19709.64
579.485	19938.11
579.845	20017.43
580.206	20058.78
580.566	20309.85
580.927	20383.97
581.287	20623.06
581.648	20748.71
582.008	21021.69
582.368	21049.04
582.728	21274.57
583.089	21474.34
583.449	21679.53
583.809	21869.81
584.169	22037.71
584.529	22219.18
584.889	22534.87
585.249	22683.57
585.609	22824.36
585.969	23158.81
586.329	23353.38
586.688	23477.22
587.048	23795.86
587.408	23933.03
587.768	24277.2
588.127	24344.32
588.487	24653.91
588.846	24903.17
589.206	25056.62
589.565	25357.85
589.925	25593.78
590.284	25819.98
590.643	26121.9
591.003	26450.93
591.362	26760.75
591.721	26952.84
592.08	27217.01
592.44	27461.75
592.799	27675.3
593.158	27804.34
593.517	28289.3
593.876	28464.89
594.235	28665.79
594.593	28967.47
594.952	29371.53
595.311	29450.62
595.67	29821.91
596.029	30200.89
596.387	30277.95
596.746	30604.27
597.104	30728.1
597.463	31018.49
597.822	31361.31
598.18	31401.08
598.538	31746.16
598.897	32174.17
599.255	32059.37
599.613	32668.62
599.972	32630.88
600.33	32973.92
600.688	33038.33
601.046	33310.86
601.404	33834.01
601.762	33863.39
602.12	34160.33
602.478	34488.23
602.836	34578.85
603.194	34535.69
603.552	34933.42
603.91	35027.2
604.268	35316.68
604.625	35408.66
604.983	35760.97
605.341	35840.51
605.698	36027.4
606.056	36383.1
606.413	36416.54
606.771	36837.55
607.128	36911.22
607.485	36827.38
607.843	37183.3
608.2	37426.01
608.557	37633.23
608.914	37694.47
609.272	38035.03
609.629	38077.74
609.986	38244.07
610.343	38312.31
610.7	38706.2
611.057	38792.75
611.414	38967.89
611.771	39044.72
612.127	39219.18
612.484	39402
612.841	39599.06
613.198	39671.6
613.554	39733.52
613.911	40104.81
614.267	40151.81
614.624	40105.71
614.98	40224.58
615.337	40575.53
615.693	40681.74
616.05	40611.69
616.406	41105.68
616.762	40922.19
617.118	41065.69
617.475	41016.42
617.831	41255.29
618.187	41428.61
618.543	41513.58
618.899	41820.69
619.255	41849.85
619.611	41732.11
619.967	41957.87
620.323	42245.32
620.678	42190.63
621.034	42141.59
621.39	42133.68
621.746	42227.01
622.101	42641.24
622.457	42510.17
622.812	42585.42
623.168	42844.62
623.523	42789.48
623.879	42903.38
624.234	42768.47
624.589	42942.02
624.945	43001.91
625.3	43088.68
625.655	43217.27
626.01	43197.38
626.365	43245.29
626.72	43235.8
627.075	43261.11
627.43	43291.16
627.785	43265.85
628.14	43436.92
628.495	43359.41
628.85	43343.59
629.205	43248.45
629.559	43702
629.914	43456.58
630.269	43543.59
630.623	43378.17
630.978	43332.97
631.332	43634.43
631.687	43779.29
632.041	43638.73
632.396	43715.11
632.75	43507.88
633.104	43620.19
633.459	43388.56
633.813	43572.74
634.167	43497.71
634.521	43632.17
634.875	43543.59
635.229	43480.99
635.583	43343.14
635.937	43400.31
636.291	43416.13
636.645	43458.62
636.999	43409.35
637.352	43588.33
637.706	43319.86
638.06	43434.21
638.413	43407.32
638.767	43322.8
639.121	43314.89
639.474	43161
639.828	43114.9
640.181	43254.55
640.534	43264.95
640.888	43197.83
641.241	42957.61
641.594	43112.19
641.947	43198.74
642.301	43191.51
642.654	43134.78
643.007	43215.91
643.36	43175.91
643.713	43168
644.066	43369.81
644.419	43077.84
644.771	42783.38
645.124	42405.54
645.477	42408.7
645.83	42007.81
646.182	42145.43
646.535	41909.51
646.888	41930.07
647.24	41744.31
647.593	41988.37
647.945	41944.31
648.298	41949.5
648.65	41662.73
649.002	41560.36
649.355	41786.8
649.707	41690.08
650.059	41938.88
650.411	42381.58
650.763	42459.32
651.115	42722.14
651.467	42736.6
651.819	42556.27
652.171	42601.69
652.523	42567.34
652.875	42540
653.227	42401.24
653.578	42743.16
653.93	42521.47
654.282	42362.83
654.633	42244.19
654.985	42417.06
655.337	42384.52
655.688	42379.1
656.039	42499.55
656.391	42264.75
656.742	42382.26
657.094	42353.11
657.445	42535.03
657.796	42422.49
658.147	42308.82
658.498	42140.23
658.849	42434.01
659.2	42264.75
659.551	42193.34
659.902	42179.33
660.253	42124.19
660.604	42356.27
660.955	42196.05
661.306	42273.11
661.656	42165.54
662.007	42288.48
662.358	42163.28
662.708	42225.66
663.059	42086
663.409	41900.47
663.76	42256.61
664.11	42126.67
664.461	42201.7
664.811	42126.67
665.161	42101.36
665.511	41992.44
665.862	41965.78
666.212	42176.62
666.562	42082.61
666.912	42027.47
667.262	41992.67
667.612	41917.19
667.962	42000.58
668.312	41886
668.662	42128.93
669.011	42008.94
669.361	41915.15
669.711	41981.82
670.06	41936.85
670.41	41816.17
670.76	41801.71
671.109	41942.5
671.459	41891.88
671.808	41879.9
672.157	41829.06
672.507	41584.54
672.856	41867.7
673.205	41687.36
673.554	41850.98
673.904	41670.42
674.253	41904.53
674.602	41684.88
674.951	41182.52
675.3	41003.09
675.649	41675.39
675.998	41573.02
676.346	41567.82
676.695	41826.8
677.044	41296.19
677.393	41548.84
677.741	41516.3
678.09	41495.73
678.438	41368.95
678.787	41500.02
679.135	41427.71
679.484	41218.22
679.832	41431.1
680.181	41150.43
680.529	41123.31
680.877	41100.49
681.225	41077.89
681.573	41349.07
681.922	40986.59
682.27	40946.82
682.618	40973.03
682.966	40782.76
683.314	41049.64
683.661	40853.49
684.009	40629.09
684.357	40414.18
684.705	40489.88
685.053	40470.67
685.4	40572.37
685.748	40371.92
686.095	40372.14
686.443	40288.08
686.79	40037.46
687.138	40257.57
687.485	40231.36
687.832	39939.84
688.18	40030.91
688.527	39830.01
688.874	39858.49
689.221	39740.97
689.568	39701.43
689.915	39599.74
690.262	39706.4
690.609	39564.48
690.956	39271.83
691.303	39256.02
691.65	39087.66
691.997	39151.39
692.344	38861.45
692.69	38902.58
693.037	38855.35
693.383	38604.51
693.73	38711.17
694.077	38448.13
694.423	38545.3
694.769	38407.68
695.116	38299.66
695.462	38408.81
695.808	38178.98
696.155	38202.26
696.501	37970.85
696.847	37927.24
697.193	37769.05
697.539	37877.97
697.885	37647.92
698.231	37581.71
698.577	37534.48
698.923	37510.53
699.269	37262.17
699.614	37143.53
699.96	37079.12
700.306	36987.15
700.651	36800.26
700.997	36722.3
701.342	36628.29
701.688	36642.07
702.033	36515.97
702.379	36498.57
702.724	36374.74
703.069	36399.82
703.415	35991.24
703.76	36082.77
704.105	36133.61
704.45	35950.11
704.795	35825.6
705.14	35749.67
705.485	35705.6
705.83	35550.8
706.175	35628.31
706.52	35488.66
706.865	35436.68
707.209	35280.75
707.554	35055
707.899	35188.33
708.243	35001.21
708.588	34961.89
708.932	34831.5
709.277	34817.04
709.621	34814.55
709.966	34717.15
710.31	34726.87
710.654	34355.58
710.998	34423.15
711.342	34487.55
711.687	34260.67
712.031	34307.67
712.375	34089.37
712.719	34124.85
713.063	33998.98
713.407	34143.16
713.75	33851.86
714.094	33967.79
714.438	33690.51
714.782	33726.9
715.125	33556.73
715.469	33693.22
715.812	33498.43
716.156	33356.74
716.499	33373.68
716.843	33276.96
717.186	33058.89
717.53	33379.79
717.873	33288.72
718.216	33087.14
718.559	33049.17
718.902	32748.62
719.246	32942.28
719.589	32806.47
719.932	32648.05
720.275	32676.75
720.617	32728.96
720.96	32514.72
721.303	32554.95
721.646	32530.54
721.989	32428.17
722.331	32494.16
722.674	32322.41
723.016	32381.39
723.359	32426.82
723.701	32322.41
724.044	32132.81
724.386	32024.79
724.729	32139.59
725.071	32077.9
725.413	32059.14
725.755	31992.48
726.097	31905.7
726.439	31653.28
726.782	31788.64
727.124	31935.76
727.465	31635.88
727.807	31625.48
728.149	31652.15
728.491	31626.61
728.833	31725.82
729.175	31487.41
729.516	31397.24
729.858	31358.82
730.199	31281.99
730.541	31154.99
730.882	31224.36
731.224	31285.83
731.565	30961.77
731.906	31139.62
732.248	31079.06
732.589	30898.27
732.93	30858.27
733.271	30939.4
733.612	30921.09
733.953	30880.87
734.294	30635.45
734.635	30763.13
734.976	30713.42
735.317	30608.79
735.658	30645.17
735.999	30473.87
736.339	30466.42
736.68	30566.98
737.021	30381.22
737.361	30205.18
737.702	30456.25
738.042	30331.28
738.383	30272.3
738.723	30321.11
739.063	30190.49
739.404	30255.57
739.744	30171.96
740.084	30012.42
740.424	29986.2
740.764	30059.2
741.104	30049.48
741.444	29772.2
741.784	29730.39
742.124	29787.79
742.464	29782.82
742.804	29618.53
743.143	29612.65
743.483	29686.78
743.823	29543.95
744.162	29603.61
744.502	29668.25
744.841	29440
745.181	29444.52
745.52	29402.72
745.86	29384.64
746.199	29377.63
746.538	29521.58
746.877	29491.98
747.216	29337.86
747.556	29348.71
747.895	29198.2
748.234	29153.68
748.573	29003.86
748.911	29068.26
749.25	28973.8
749.589	29016.51
749.928	29180.35
750.267	28895.16
750.605	28932.22
750.944	28785.33
751.283	28753.92
751.621	28674.83
751.96	28724.54
752.298	28560.48
752.636	28609.29
752.975	28500.14
753.313	28446.81
753.651	28405.91
753.989	28393.25
754.327	28186.02
754.666	28229.64
755.004	28268.73
755.342	28184.89
755.679	28056.31
756.017	27948.97
756.355	28127.72
756.693	27980.15
757.031	27966.6
757.368	27781.29
757.706	27783.55
758.044	27674.85
758.381	27815.19
758.719	27537
759.056	27599.37
759.394	27395.99
759.731	27324.35
760.068	27158.48
760.405	27201.19
760.743	27146.96
761.08	27096.11
761.417	27007.75
761.754	26965.49
762.091	26888.21
762.428	26815.66
762.765	26717.59
763.102	26774.99
763.438	26623.13
763.775	26422
764.112	26584.26
764.449	26510.81
764.785	26324.38
765.122	26137.49
765.458	26075.8
765.795	25977.49
766.131	26072.18
766.467	25817.5
766.804	25657.28
767.14	25754.45
767.476	25667.67
767.812	25498.86
768.148	25572.76
768.485	25450.05
768.821	25207.8
769.157	25276.27
769.492	25187.01
769.828	25163.05
770.164	24935.04
770.5	24862.27
770.836	24886.9
771.171	24734.14
771.507	24604.42
771.842	24478.1
772.178	24495.95
772.513	24507.03
772.849	24276.07
773.184	24184.32
773.519	24323.98
773.855	24064.55
774.19	23909.07
774.525	23957.66
774.86	23894.16
775.195	23962.41
775.53	23754.73
775.865	23657.78
776.2	23557.67
776.535	23257.11
776.87	23361.07
777.205	23194.74
777.539	23086.72
777.874	23130.34
778.209	22923.11
778.543	22898.93
778.878	22706.39
779.212	22712.27
779.547	22595.89
779.881	22681.54
780.215	22552.5
780.55	22520.64
780.884	22334.65
781.218	22396.12
781.552	22346.4
781.886	22150.93
782.22	22007.88
782.554	22030.93
782.888	21758.85
783.222	21762.92
783.556	21660.55
783.889	21664.84
784.223	21525.41
784.557	21418.07
784.89	21463.72
785.224	21279.54
785.557	21155.47
785.891	21012.43
786.224	21117.06
786.558	21020.56
786.891	20742.6
787.224	20762.72
787.557	20716.84
787.891	20620.57
788.224	20670.74
788.557	20627.58
788.89	20574.02
789.223	20540.58
789.556	20353.24
789.888	20343.29
790.221	20375.16
790.554	20108.72
790.887	20093.13
791.219	20059.91
791.552	19949.86
791.884	19995.05
792.217	19841.16
792.549	19762.52
792.882	19619.7
793.214	19663.31
793.546	19578.34
793.879	19379.02
794.211	19402.75
794.543	19395.52
794.875	19346.71
795.207	19297.9
795.539	19207.73
795.871	19261.06
796.203	18968.87
796.535	18894.74
796.867	18915.99
797.198	18877.79
797.53	18841.86
797.862	18700.4
798.193	18781.07
798.525	18584.02
798.856	18674.41
799.188	18459.5
799.519	18499.27
799.85	18284.82
800.182	18324.14
800.513	18287.08
800.844	18127.98
801.175	18207.08
801.506	18206.17
801.837	18040.75
802.168	17995.56
802.499	18014.77
802.83	17878.05
803.161	17760.08
803.491	17824.94
803.822	17824.71
804.153	17760.99
804.483	17541.78
804.814	17548.79
805.145	17519.86
805.475	17511.28
805.805	17377.72
806.136	17451.39
806.466	17379.53
806.796	17264.28
807.126	17134.79
807.457	17225.86
807.787	17193.32
808.117	16989.71
808.447	17001.91
808.777	16961.23
809.107	16958.52
809.436	16963.04
809.766	16928.47
810.096	16812.99
810.426	16782.26
810.755	16732.54
811.085	16747
811.414	16715.82
811.744	16474.69
812.073	16457.07
812.403	16516.73
812.732	16359.89
813.061	16410.97
813.39	16321.03
813.719	16284.87
814.049	16335.71
814.378	16256.85
814.707	16156.28
815.036	16108.38
815.365	16062.28
815.693	15995.61
816.022	15887.14
816.351	15870.19
816.68	15827.71
817.008	15837.87
817.337	15704.77
817.665	15669.97
817.994	15737.99
818.322	15730.98
818.651	15594.49
818.979	15532.35
819.307	15571.67
819.636	15424.33
819.964	15450.31
820.292	15516.75
820.62	15534.83
820.948	15395.63
821.276	15554.49
821.604	15385.23
821.932	15422.97
822.259	15523.08
822.587	15416.64
822.915	15430.2
823.243	15457.32
823.57	15425.46
823.898	15364.21
824.225	15340.94
824.553	15308.4
824.88	15359.02
825.207	15373.03
825.535	15274.5
825.862	15360.37
826.189	15339.13
826.516	15408.96
826.843	15418.9
827.17	15334.38
827.497	15337.1
827.824	15347.49
828.151	15351.33
828.478	15408.96
828.805	15392.46
829.131	15258
829.458	15323.99
829.785	15225.01
830.111	15258.68
830.438	15415.74
830.764	15238.12
831.09	15237.89
831.417	15221.85
831.743	15309.75
832.069	15222.3
832.395	15215.74
832.722	15276.31
833.048	15173.26
833.374	15222.98
833.7	15185.24
834.026	15161.73
834.351	15112.92
834.677	15147.5
835.003	15162.86
835.329	15164.9
835.654	15104.11
835.98	15039.7
836.306	15114.28
836.631	15065.69
836.956	15057.78
837.282	14988.18
837.607	14914.28
837.932	14932.36
838.258	14940.5
838.583	14925.58
838.908	14815.98
839.233	14808.75
839.558	14816.43
839.883	14746.15
840.208	14713.84
840.533	14747.06
840.858	14754.97
841.182	14688.98
841.507	14666.83
841.832	14593.16
842.156	14587.29
842.481	14611.92
842.805	14492.6
843.13	14434.07
843.454	14427.06
843.778	14394.07
844.103	14352.49
844.427	14327.18
844.751	14296.9
845.075	14262.32
845.399	14194.08
845.723	14184.36
846.047	14080.18
846.371	14123.57
846.695	14053.51
847.019	13913.86
847.343	13844.48
847.666	13824.82
847.99	13780.98
848.313	13744.6
848.637	13714.99
848.96	13645.16
849.284	13631.15
849.607	13531.95
849.931	13472.29
850.254	13392.52
850.577	13366.3
850.9	13244.72
851.223	13306.87
851.546	13185.51
851.869	13108.68
852.192	13131.96
852.515	12977.84
852.838	12973.54
853.161	12999.76
853.483	12953.2
853.806	12813.32
854.129	12863.72
854.451	12780.33
854.774	12647.68
855.096	12709.14
855.419	12595.25
855.741	12631.86
856.063	12554.8
856.385	12515.25
856.708	12537.85
857.03	12419.66
857.352	12444.74
857.674	12383.95
857.996	12324.75
858.318	12278.19
858.64	12181.7
858.961	12183.51
859.283	12161.81
859.605	12176.95
859.926	12116.16
860.248	12076.17
860.57	11980.35
860.891	12034.13
861.212	11993.68
861.534	11959.56
861.855	11906.68
862.176	11826.45
862.498	11910.29
862.819	11889.28
863.14	11810.86
863.461	11771.77
863.782	11823.74
864.103	11823.29
864.424	11776.74
864.745	11764.76
865.065	11681.83
865.386	11722.28
865.707	11700.58
866.027	11623.75
866.348	11572.68
866.668	11649.96
866.989	11558.44
867.309	11523.86
867.63	11585.1
867.95	11544.2
868.27	11457.42
868.59	11452.23
868.91	11394.83
869.23	11394.38
869.55	11390.31
869.87	11435.73
870.19	11361.16
870.51	11377.43
870.83	11382.17
871.15	11272.12
871.469	11345.56
871.789	11339.91
872.109	11230.31
872.428	11271.21
872.748	11192.8
873.067	11208.39
873.386	11231.67
873.706	11148.51
874.025	11097.21
874.344	11095.17
874.663	11108.96
874.982	11057.89
875.301	11090.65
875.62	11077.55
875.939	11062.86
876.258	11055.18
876.577	10988.96
876.896	11031.22
877.214	10937.66
877.533	10895.18
877.852	10930.88
878.17	10900.83
878.489	10900.15
878.807	10882.52
879.125	10836.88
879.444	10856.76
879.762	10777.67
880.08	10803.88
880.398	10742.42
880.716	10731.79
881.034	10743.55
881.352	10664.45
881.67	10678.69
881.988	10642.3
882.306	10625.13
882.624	10536.32
882.941	10557.79
883.259	10566.15
883.577	10535.19
883.894	10542.87
884.212	10486.38
884.529	10467.17
884.846	10519.37
885.164	10459.48
885.481	10391.92
885.798	10424.91
886.115	10341.52
886.432	10306.04
886.75	10290.68
887.067	10218.81
887.383	10273.5
887.7	10291.81
888.017	10189.21
888.334	10154.41
888.651	10259.26
888.967	10199.38
889.284	10163.22
889.6	10152.83
889.917	9998.25
890.233	10040.96
890.55	9995.32
890.866	9941.76
891.182	9959.61
891.498	9880.52
891.815	9868.99
892.131	9759.84
892.447	9844.81
892.763	9712.16
893.079	9779.5
893.395	9745.61
893.71	9697.7
894.026	9644.14
894.342	9610.92
894.657	9632.84
894.973	9608.89
895.289	9510.81
895.604	9518.27
895.92	9482.79
896.235	9428.55
896.55	9404.15
896.865	9386.74
897.181	9324.6
897.496	9406.86
897.811	9367.31
898.126	9257.03
898.441	9228.1
898.756	9226.75
899.071	9139.07
899.386	9100.65
899.7	9121.89
900.015	9037.6
900.33	9008.22
900.644	9012.07
900.959	8991.5
901.273	8982.24
901.588	8934.55
901.902	8849.36
902.216	8864.5
902.531	8792.18
902.845	8748.57
903.159	8683.49
903.473	8687.78
903.787	8637.61
904.101	8649.14
904.415	8560.1
904.729	8612.98
905.042	8531.4
905.356	8535.92
905.67	8514.9
905.984	8452.08
906.297	8531.63
906.611	8457.96
906.924	8344.29
907.237	8360.11
907.551	8316.49
907.864	8290.28
908.177	8268.81
908.491	8246.21
908.804	8177.96
909.117	8165.76
909.43	8101.35
909.743	8043.5
910.056	8071.75
910.368	8061.58
910.681	7955.14
910.994	7888.93
911.307	7933.45
911.619	7813.23
911.932	7848.48
912.244	7840.34
912.557	7834.24
912.869	7795.6
913.181	7719.67
913.494	7728.94
913.806	7706.56
914.118	7569.17
914.43	7563.97
914.742	7546.12
915.054	7546.34
915.366	7556.51
915.678	7503.63
915.99	7418.43
916.302	7471.99
916.613	7301.6
916.925	7353.8
917.236	7326.69
917.548	7307.03
917.859	7247.37
918.171	7270.87
918.482	7212.79
918.794	7157.42
919.105	7120.59
919.416	7089.18
919.727	7079.01
920.038	7087.14
920.349	6974.15
920.66	7017.09
920.971	6915.85
921.282	6928.96
921.593	6836.76
921.903	6886.25
922.214	6778.68
922.525	6808.73
922.835	6775.74
923.146	6735.97
923.456	6756.31
923.767	6632.01
924.077	6681.96
924.387	6621.62
924.697	6586.59
925.008	6570.32
925.318	6577.55
925.628	6512.24
925.938	6474.05
926.248	6431.57
926.558	6439.25
926.867	6371.23
927.177	6375.98
927.487	6347.73
927.796	6300.72
928.106	6268.18
928.416	6304.79
928.725	6289.2
929.034	6249.43
929.344	6205.36
929.653	6160.39
929.962	6169.88
930.271	6135.76
930.581	6072.93
930.89	6033.39
931.199	5999.72
931.508	5992.71
931.817	6058.92
932.125	6032.93
932.434	5993.16
932.743	5907.51
933.051	5863.22
933.36	5862.09
933.669	5820.06
933.977	5803.56
934.286	5791.13
934.594	5737.58
934.902	5731.47
935.21	5728.99
935.519	5710.23
935.827	5712.04
936.135	5671.14
936.443	5574.87
936.751	5557.69
937.059	5551.82
937.367	5550.69
937.674	5533.29
937.982	5546.85
938.29	5444.93
938.597	5465.27
938.905	5428.2
939.213	5365.16
939.52	5377.81
939.827	5302.11
940.135	5321.31
940.442	5263.69
940.749	5274.31
941.056	5269.34
941.363	5205.84
941.67	5275.44
941.977	5197.7
942.284	5166.06
942.591	5138.72
942.898	5107.99
943.205	5125.84
943.511	5077.03
943.818	5076.8
944.125	5007.42
944.431	5008.1
944.738	5003.58
945.044	4957.93
945.35	4915.68
945.657	4917.48
945.963	4904.83
946.269	4896.69
946.575	4895.11
946.881	4834.55
947.187	4820.76
947.493	4777.83
947.799	4790.71
948.105	4757.71
948.41	4721.78
948.716	4687.89
949.022	4736.02
949.327	4688.79
949.633	4652.63
949.938	4618.06
950.244	4632.29
950.549	4574.22
950.854	4599.98
951.16	4563.14
951.465	4556.59
951.77	4506.65
952.075	4514.33
952.38	4467.78
952.685	4458.29
952.99	4435.46
953.294	4439.76
953.599	4365.63
953.904	4371.28
954.209	4330.38
954.513	4354.11
954.818	4309.14
955.122	4315.24
955.426	4328.12
955.731	4258.29
956.035	4268.24
956.339	4193.21
956.643	4234.34
956.948	4210.38
957.252	4177.16
957.556	4163.83
957.86	4171.51
958.163	4134.91
958.467	4091.29
958.771	4118.18
959.075	4107.11
959.378	4070.73
959.682	4052.42
959.985	4048.58
960.289	3995.25
960.592	3980.79
960.896	3924.29
961.199	3982.82
961.502	3966.1
961.805	3874.35
962.108	3879.77
962.411	3867.12
962.714	3861.92
963.017	3835.48
963.32	3868.25
963.623	3836.16
963.926	3780.34
964.228	3793.22
964.531	3783.28
964.833	3747.8
965.136	3721.13
965.438	3732.2
965.741	3700.34
966.043	3698.08
966.345	3657.86
966.648	3686.78
966.95	3677.52
967.252	3602.26
967.554	3630.06
967.856	3573.79
968.158	3534.92
968.46	3544.86
968.761	3568.14
969.063	3535.15
969.365	3513.23
969.666	3527.46
969.968	3419.67
970.269	3455.15
970.571	3448.37
970.872	3442.04
971.174	3415.38
971.475	3429.39
971.776	3415.6
972.077	3387.81
972.378	3358.88
972.679	3348.03
972.98	3316.17
973.281	3337.19
973.582	3312.1
973.883	3305.1
974.183	3279.56
974.484	3280.01
974.785	3222.84
975.085	3248.83
975.386	3262.84
975.686	3191.88
975.986	3188.04
976.287	3157.3
976.587	3151.65
976.887	3151.2
977.187	3155.5
977.487	3107.81
977.787	3105.78
978.087	3108.04
978.387	3113.24
978.687	3093.12
978.987	3046.57
979.286	2996.63
979.586	3024.2
979.885	3020.36
980.185	2948.72
980.484	2982.62
980.784	2980.36
981.083	2967.93
981.382	2954.82
981.682	2938.55
981.981	2920.93
982.28	2891.77
982.579	2883.64
982.878	2905.33
983.177	2843.64
983.475	2826.69
983.774	2835.5
984.073	2857.2
984.372	2800.48
984.67	2803.41
984.969	2797.99
985.267	2770.87
985.566	2798.44
985.864	2742.85
986.162	2731.78
986.461	2730.65
986.759	2717.09
987.057	2712.57
987.355	2662.18
987.653	2656.3
987.951	2660.37
988.249	2653.14
988.547	2647.03
988.844	2662.18
989.142	2631.89
989.44	2596.19
989.737	2580.82
990.035	2572.01
990.332	2588.05
990.63	2567.04
990.927	2525
991.224	2563.42
991.521	2556.64
991.819	2508.96
992.116	2520.03
992.413	2472.58
992.71	2483.2
993.006	2481.16
993.303	2485.23
993.6	2433.93
993.897	2436.19
994.193	2448.4
994.49	2400.94
994.787	2365.46
995.083	2425.35
995.379	2377.66
995.676	2372.69
995.972	2371.56
996.268	2330.66
996.565	2316.87
996.861	2285.01
997.157	2294.73
997.453	2314.84
997.749	2276.2
998.044	2268.29
998.34	2285.69
998.636	2256.54
998.932	2229.87
999.227	2191.45
999.523	2239.36
999.818	2197.33
1000.114	2198.23
1000.409	2158.23
1000.704	2144.22
1001	2190.55
1001.295	2134.28
1001.59	2100.61
1001.885	2123.43
1002.18	2109.2
1002.475	2087.95
1002.77	2088.41
1003.065	2056.99
1003.359	2088.63
1003.654	2052.93
1003.949	2080.95
1004.243	2048.86
1004.538	1971.12
1004.832	2011.35
1005.127	2016.32
1005.421	2005.24
1005.715	1993.72
1006.009	2002.53
1006.304	1964.12
1006.598	1960.05
1006.892	1905.13
1007.186	1908.75
1007.48	1922.53
1007.773	1924.34
1008.067	1878.92
1008.361	1886.6
1008.655	1860.39
1008.948	1865.13
1009.242	1860.84
1009.535	1866.72
1009.829	1835.98
1010.122	1807.06
1010.415	1830.79
1010.708	1790.56
1011.001	1784.23
1011.295	1734.97
1011.588	1756.66
1011.881	1772.71
1012.173	1743.56
1012.466	1767.28
1012.759	1721.41
1013.052	1726.16
1013.344	1700.85
1013.637	1709.88
1013.93	1706.49
1014.222	1694.97
1014.514	1672.6
1014.807	1658.36
1015.099	1647.06
1015.391	1643.45
1015.683	1645.93
1015.976	1604.8
1016.268	1621.75
1016.56	1593.05
1016.851	1578.81
1017.143	1596.44
1017.435	1582.88
1017.727	1574.07
1018.018	1576.78
1018.31	1531.36
1018.602	1535.2
1018.893	1515.99
1019.185	1497.46
1019.476	1501.53
1019.767	1495.88
1020.058	1472.6
1020.35	1470.79
1020.641	1458.37
1020.932	1454.52
1021.223	1447.74
1021.514	1436.22
1021.804	1430.57
1022.095	1407.97
1022.386	1391.7
1022.677	1405.94
1022.967	1395.09
1023.258	1363.68
1023.548	1378.82
1023.839	1375.43
1024.129	1352.83
1024.419	1367.29
1024.709	1320.52
1025	1332.27
1025.29	1310.35
1025.58	1321.87
1025.87	1291.36
1026.16	1290.01
1026.449	1307.41
1026.739	1268.09
1027.029	1266.28
1027.319	1275.32
1027.608	1259.5
1027.898	1238.26
1028.187	1231.93
1028.477	1220.63
1028.766	1243
1029.055	1236.68
1029.344	1200.97
1029.634	1205.72
1029.923	1191.71
1030.212	1193.29
1030.501	1185.38
1030.79	1184.7
1031.078	1183.34
1031.367	1138.15
1031.656	1146.96
1031.945	1137.47
1032.233	1124.59
1032.522	1109
1032.81	1111.26
1033.099	1076.68
1033.387	1105.61
1033.675	1086.85
1033.963	1080.97
1034.251	1079.62
1034.54	1059.73
1034.828	1076.45
1035.116	1058.15
1035.403	1059.51
1035.691	1027.87
1035.979	1051.37
1036.267	1036.91
1036.554	1026.74
1036.842	1007.76
1037.129	1008.89
1037.417	1018.6
1037.704	979.06
1037.992	1009.34
1038.279	1003.46
1038.566	967.98
1038.853	967.98
1039.14	967.98
