Data from hue_80_FLMS001491_88.txt Node
Date: Mon Feb 06 15:23:54 GMT 2017
User: dcchb
Spectrometer: FLMS00149
Trigger mode: 0
Integration Time (sec): 2.000000E-2
Scans to average: 10
Electric dark correction enabled: true
Nonlinearity correction enabled: false
Boxcar width: 0
XAxis mode: Wavelengths
Number of Pixels in Spectrum: 2048
>>>>>Begin Spectral Data<<<<<
341.393	-13.3
341.776	-13.3
342.16	-13.3
342.543	-56.69
342.927	-53.98
343.31	-71.83
343.693	-79.07
344.077	-64.6
344.46	-61.21
344.843	-49.24
345.226	-45.39
345.61	-33.64
345.993	-3.59
346.376	4.55
346.759	8.39
347.142	20.82
347.525	31.21
347.908	40.03
348.291	100.36
348.674	93.13
349.057	110.08
349.44	123.19
349.823	134.49
350.206	150.98
350.588	190.31
350.971	198.22
351.354	207.93
351.737	229.85
352.119	232.34
352.502	259.46
352.884	276.18
353.267	294.48
353.65	282.51
354.032	310.75
354.414	289.06
354.797	310.98
355.179	299.46
355.562	307.59
355.944	303.52
356.326	330.19
356.709	334.26
357.091	327.93
357.473	336.97
357.855	343.52
358.238	329.06
358.62	333.58
359.002	337.19
359.384	325.67
359.766	318.44
360.148	333.13
360.53	355.27
360.912	308.49
361.294	326.35
361.676	334.48
362.057	316.63
362.439	330.87
362.821	332.45
363.203	321.15
363.584	322.96
363.966	319.34
364.348	306.01
364.729	318.89
365.111	322.05
365.493	308.04
365.874	289.06
366.256	319.12
366.637	304.2
367.019	287.48
367.4	319.34
367.781	304.65
368.163	313.69
368.544	305.78
368.925	287.48
369.306	298.1
369.688	312.56
370.069	318.89
370.45	294.48
370.831	295.84
371.212	309.62
371.593	318.89
371.974	284.31
372.355	314.82
372.736	315.95
373.117	302.62
373.498	305.78
373.879	294.26
374.26	316.63
374.641	301.49
375.021	328.16
375.402	315.95
375.783	304.2
376.163	306.69
376.544	317.08
376.925	305.33
377.305	323.41
377.686	329.06
378.066	319.34
378.447	321.83
378.827	346.01
379.208	315.27
379.588	318.21
379.968	331.09
380.349	333.58
380.729	314.14
381.109	334.93
381.489	351.66
381.87	323.41
382.25	332.9
382.63	333.8
383.01	331.77
383.39	315.27
383.77	331.32
384.15	322.96
384.53	336.29
384.91	345.78
385.29	336.29
385.67	318.89
386.049	342.62
386.429	332
386.809	345.33
387.189	342.17
387.568	349.17
387.948	318.89
388.328	321.15
388.707	347.14
389.087	334.71
389.466	351.66
389.846	360.02
390.225	348.04
390.605	339.91
390.984	350.75
391.363	343.97
391.743	336.52
392.122	337.19
392.501	348.04
392.881	364.76
393.26	355.5
393.639	367.93
394.018	344.43
394.397	367.25
394.776	365.22
395.155	341.26
395.534	360.92
395.913	361.37
396.292	374.71
396.671	372
397.05	380.58
397.429	364.09
397.808	352.56
398.186	353.01
398.565	381.49
398.944	356.86
399.323	360.7
399.701	380.36
400.08	382.39
400.458	371.32
400.837	387.14
401.215	401.83
401.594	386.01
401.972	363.18
402.351	372.67
402.729	368.61
403.107	377.65
403.486	376.74
403.864	384.42
404.242	394.14
404.62	407.48
404.999	406.8
405.377	387.36
405.755	383.3
406.133	417.87
406.511	400.7
406.889	415.38
407.267	404.99
407.645	401.6
408.023	402.73
408.401	403.18
408.779	431.66
409.156	425.55
409.534	420.58
409.912	414.48
410.29	415.16
410.667	435.72
411.045	423.97
411.422	430.53
411.8	427.36
412.178	443.18
412.555	449.28
412.933	440.47
413.31	457.87
413.687	452.67
414.065	437.98
414.442	439.34
414.819	467.81
415.197	449.51
415.574	459.68
415.951	471.65
416.328	477.53
416.705	466.68
417.082	461.94
417.46	448.38
417.837	472.78
418.214	479.79
418.591	479.34
418.967	466.46
419.344	483.41
419.721	481.6
420.098	484.99
420.475	488.15
420.852	490.41
421.228	498.32
421.605	494.48
421.982	485.44
422.358	503.52
422.735	495.61
423.111	498.55
423.488	536.51
423.864	528.6
424.241	534.7
424.617	524.53
424.994	518.43
425.37	531.99
425.746	518.88
426.123	520.69
426.499	521.6
426.875	553.23
427.251	539.45
427.627	539.45
428.003	544.42
428.379	562.95
428.756	572.67
429.132	547.36
429.507	564.53
429.883	574.7
430.259	579.67
430.635	581.71
431.011	591.2
431.387	595.94
431.763	582.39
432.138	594.14
432.514	612.67
432.89	608.83
433.265	605.66
433.641	633.91
434.016	619.67
434.392	633.46
434.767	632.55
435.143	636.17
435.518	639.56
435.894	630.97
436.269	654.47
436.644	652.44
437.02	652.67
437.395	675.26
437.77	669.39
438.145	687.92
438.52	688.37
438.895	682.72
439.271	681.59
439.646	701.7
440.021	737.18
440.395	700.57
440.77	701.7
441.145	684.76
441.52	726.79
441.895	716.62
442.27	720.24
442.645	733.57
443.019	718.43
443.394	753.45
443.769	748.48
444.143	737.18
444.518	752.55
444.892	757.52
445.267	760.01
445.641	762.27
446.016	779.67
446.39	782.15
446.764	775.83
447.139	777.86
447.513	762.72
447.887	776.51
448.262	789.16
448.636	784.41
449.01	816.5
449.384	814.7
449.758	827.8
450.132	821.02
450.506	819.44
450.88	808.37
451.254	826.45
451.628	851.08
452.002	853.11
452.376	842.04
452.75	831.87
453.123	862.6
453.497	885.43
453.871	884.52
454.244	896.05
454.618	901.02
454.992	888.37
455.365	923.62
455.739	915.48
456.112	917.52
456.486	933.11
456.859	934.92
457.232	977.18
457.606	976.73
457.979	961.13
458.352	988.7
458.725	1017.85
459.099	998.65
459.472	1017.18
459.845	1043.39
460.218	1038.87
460.591	1086.1
460.964	1055.82
461.337	1079.55
461.71	1087.68
462.083	1103.28
462.456	1115.25
462.829	1094.69
463.201	1149.83
463.574	1148.25
463.947	1187.57
464.32	1183.27
464.692	1193.44
465.065	1229.15
465.438	1232.76
465.81	1215.82
466.183	1249.49
466.555	1289.49
466.928	1299.2
467.3	1321.8
467.672	1329.03
468.045	1357.73
468.417	1376.49
468.789	1412.87
469.161	1443.61
469.534	1442.48
469.906	1469.82
470.278	1475.92
470.65	1510.27
471.022	1518.18
471.394	1600.66
471.766	1596.6
472.138	1621.23
472.51	1670.72
472.882	1654.9
473.253	1746.2
473.625	1783.48
473.997	1820.55
474.369	1846.99
474.74	1876.14
475.112	1897.83
475.484	1989.81
475.855	2013.99
476.227	2034.78
476.598	2092.4
476.97	2154.1
477.341	2229.8
477.713	2263.7
478.084	2264.6
478.455	2377.82
478.827	2456.69
479.198	2508.21
479.569	2522.22
479.94	2651.03
480.311	2718.83
480.682	2796.11
481.053	2912.27
481.424	2945.04
481.795	3059.38
482.166	3081.53
482.537	3217.34
482.908	3302.77
483.279	3371.92
483.65	3493.95
484.021	3584.34
484.391	3692.36
484.762	3769.65
485.133	3811.23
485.503	3960.15
485.874	4061.62
486.244	4180.71
486.615	4377.31
486.985	4409.63
487.356	4549.29
487.726	4609.62
488.097	4797.42
488.467	4858.88
488.837	5018.88
489.207	5201.02
489.578	5321.92
489.948	5401.92
490.318	5513.56
490.688	5681.69
491.058	5753.55
491.428	5883.26
491.798	6101.34
492.168	6222.46
492.538	6306.08
492.908	6441.67
493.278	6563.7
493.648	6705.39
494.017	6885.95
494.387	7006.85
494.757	7116.45
495.126	7252.49
495.496	7331.81
495.866	7495.65
496.235	7601.86
496.605	7780.84
496.974	7932.48
497.344	8057.9
497.713	8096.54
498.082	8235.29
498.452	8392.58
498.821	8536.07
499.19	8605.68
499.559	8729.06
499.928	8820.14
500.298	9020.81
500.667	9064.65
501.036	9175.15
501.405	9289.5
501.774	9435.71
502.143	9527.69
502.512	9611.98
502.88	9796.83
503.249	9804.74
503.618	9917.28
503.987	10030.27
504.356	10154.56
504.724	10216.71
505.093	10308.01
505.462	10355.69
505.83	10510.94
506.199	10613.31
506.567	10761.78
506.936	10767.65
507.304	10964.26
507.672	11050.13
508.041	11146.4
508.409	11235.44
508.777	11266.17
509.145	11421.65
509.514	11468.65
509.882	11627.07
510.25	11605.37
510.618	11748.42
510.986	11721.53
511.354	11928.53
511.722	12042.65
512.09	12182.31
512.458	12120.16
512.826	12241.97
513.193	12326.03
513.561	12408.06
513.929	12389.53
514.297	12625.68
514.664	12700.71
515.032	12613.71
515.4	12781.61
515.767	12858.67
516.135	12947.26
516.502	12829.75
516.869	13107.25
517.237	13056.63
517.604	13130.76
517.972	13346.12
518.339	13271.54
518.706	13316.97
519.073	13419.56
519.44	13477.41
519.808	13577.3
520.175	13585.21
520.542	13739.55
520.909	13726
521.276	13808.25
521.643	13882.38
522.009	13976.61
522.376	14028.81
522.743	14141.13
523.11	14226.32
523.477	14372.31
523.843	14301.12
524.21	14472.64
524.577	14542.92
524.943	14567.55
525.31	14647.55
525.676	14712.64
526.043	14727.32
526.409	14792.41
526.776	14868.56
527.142	14875.57
527.508	14994.44
527.874	15046.19
528.241	15073.08
528.607	15152.4
528.973	15203.47
529.339	15127.31
529.705	15284.82
530.071	15326.18
530.437	15350.36
530.803	15445.05
531.169	15486.17
531.535	15454.31
531.901	15476.01
532.267	15465.61
532.632	15591.03
532.998	15521.88
533.364	15558.72
533.73	15594.65
534.095	15717.13
534.461	15676
534.826	15713.74
535.192	15772.95
535.557	15734.53
535.923	15788.31
536.288	15824.92
536.653	15756.9
537.019	15698.82
537.384	15686.62
537.749	15744.92
538.114	15751.03
538.479	15745.6
538.845	15791.7
539.21	15668.99
539.575	15798.71
539.94	15752.38
540.305	15826.5
540.67	15787.18
541.034	15828.76
541.399	15782.89
541.764	15777.01
542.129	15777.47
542.494	15746.96
542.858	15804.36
543.223	15762.78
543.587	15827.86
543.952	15751.7
544.316	15731.82
544.681	15645.27
545.045	15731.82
545.41	15775.66
545.774	15798.48
546.138	15807.97
546.503	15775.43
546.867	15751.93
547.231	15787.64
547.595	15756.45
547.959	15795.09
548.324	15716.68
548.688	15748.31
549.052	15789.22
549.416	15776.79
549.779	15694.08
550.143	15743.34
550.507	15803.91
550.871	15856.79
551.235	15678.26
551.599	15733.63
551.962	15751.03
552.326	15784.47
552.689	15792.38
553.053	15755.32
553.417	15692.95
553.78	15871.48
554.143	15758.71
554.507	15894.75
554.87	15867.41
555.234	15951.93
555.597	15711.48
555.96	15814.75
556.323	15896.79
556.686	15807.3
557.05	15920.74
557.413	15852.94
557.776	15890.46
558.139	15961.64
558.502	15930.68
558.865	15942.43
559.228	15999.38
559.59	15939.5
559.953	15962.32
560.316	16113.73
560.679	16010.68
561.041	16101.3
561.404	16063.79
561.767	16180.62
562.129	16081.41
562.492	16229.21
562.854	16157.57
563.217	16248.64
563.579	16174.52
563.941	16339.49
564.304	16384
564.666	16309.43
565.028	16377
565.39	16456.77
565.753	16466.26
566.115	16533.83
566.477	16509.2
566.839	16553.94
567.201	16632.81
567.563	16582.19
567.925	16575.64
568.287	16615.86
568.648	16692.02
569.01	16736.31
569.372	16826.7
569.734	16849.53
570.095	16881.17
570.457	16846.36
570.819	16948.51
571.18	16938.57
571.542	17059.24
571.903	16971.33
572.265	17064.44
572.626	16945.57
572.987	17075.06
573.349	17029.41
573.71	16995.51
574.071	17043.87
574.432	17153.7
574.794	17144.21
575.155	17129.3
575.516	17102.86
575.877	17205.68
576.238	17119.13
576.599	17187.15
576.96	17181.05
577.32	17309.4
577.681	17329.29
578.042	17296.75
578.403	17294.49
578.763	17396.41
579.124	17336.3
579.485	17349.85
579.845	17415.62
580.206	17386.24
580.566	17375.84
580.927	17348.72
581.287	17492.9
581.648	17415.62
582.008	17503.07
582.368	17410.42
582.728	17434.82
583.089	17461.04
583.449	17382.17
583.809	17401.83
584.169	17429.63
584.529	17365
584.889	17460.81
585.249	17291.55
585.609	17419.23
585.969	17522.96
586.329	17358.44
586.688	17379.91
587.048	17468.04
587.408	17331.1
587.768	17363.64
588.127	17313.47
588.487	17347.82
588.846	17287.94
589.206	17206.13
589.565	17315.51
589.925	17266.01
590.284	17318.89
590.643	17329.29
591.003	17435.28
591.362	17444.09
591.721	17400.02
592.08	17354.6
592.44	17314.15
592.799	17397.54
593.158	17359.57
593.517	17301.49
593.876	17389.85
594.235	17248.61
594.593	17309.18
594.952	17330.19
595.311	17289.97
595.67	17303.3
596.029	17245.45
596.387	17433.92
596.746	17358.22
597.104	17284.09
597.463	17274.6
597.822	17339.23
598.18	17261.04
598.538	17202.74
598.897	17368.16
599.255	17116.19
599.613	17431.89
599.972	17321.61
600.33	17348.27
600.688	17276.41
601.046	17339.46
601.404	17384.2
601.762	17366.13
602.12	17439.57
602.478	17384.66
602.836	17397.76
603.194	17301.27
603.552	17320.02
603.91	17259.24
604.268	17444.99
604.625	17302.17
604.983	17427.37
605.341	17285.45
605.698	17352.57
606.056	17414.49
606.413	17447.48
606.771	17397.76
607.128	17460.81
607.485	17334.04
607.843	17436.18
608.2	17525.44
608.557	17535.61
608.914	17495.16
609.272	17542.62
609.629	17612.22
609.986	17658.77
610.343	17596.63
610.7	17646.8
611.057	17731.77
611.414	17621.03
611.771	17624.88
612.127	17721.37
612.484	17671.88
612.841	17722.27
613.198	17690.18
613.554	17713.91
613.911	17769.5
614.267	17786.23
614.624	17807.24
614.98	17792.55
615.337	17881.82
615.693	17814.48
616.05	17834.36
616.406	17955.94
616.762	17797.07
617.118	17820.35
617.475	17858.54
617.831	17961.36
618.187	17987.8
618.543	18039.78
618.899	18057.41
619.255	17988.03
619.611	17925.43
619.967	18043.62
620.323	18135.14
620.678	17923.62
621.034	17936.05
621.39	17980.35
621.746	17957.97
622.101	18085.88
622.457	18007.24
622.812	18116.39
623.168	18114.81
623.523	18068.48
623.879	18150.06
624.234	18040.91
624.589	18086.33
624.945	18031.42
625.3	18160.45
625.655	18063.73
626.01	18183.96
626.365	18132.21
626.72	18065.09
627.075	18102.15
627.43	18133.56
627.785	18065.09
628.14	18107.57
628.495	18190.06
628.85	18114.58
629.205	18082.72
629.559	18068.48
629.914	18017.63
630.269	17949.39
630.623	18036.16
630.978	17910.74
631.332	17964.75
631.687	18006.33
632.041	17955.71
632.396	17924.98
632.75	17915.94
633.104	17879.78
633.459	17897.64
633.813	17851.76
634.167	17874.36
634.521	17883.17
634.875	17877.3
635.229	17820.35
635.583	17737.19
635.937	17828.94
636.291	17775.61
636.645	17767.24
636.999	17753.01
637.352	17781.48
637.706	17656.51
638.06	17697.42
638.413	17640.69
638.767	17614.03
639.121	17634.59
639.474	17556.85
639.828	17575.61
640.181	17539.23
640.534	17615.61
640.888	17541.49
641.241	17446.8
641.594	17470.08
641.947	17495.39
642.301	17425.78
642.654	17424.2
643.007	17435.95
643.36	17421.72
643.713	17362.06
644.066	17567.7
644.419	17360.48
644.771	17276.18
645.124	17113.48
645.477	17065.57
645.83	16985.12
646.182	16908.96
646.535	16812.47
646.888	16863.99
647.24	16815.86
647.593	16928.17
647.945	16936.76
648.298	16858.12
648.65	16772.02
649.002	16668.52
649.355	16783.09
649.707	16865.35
650.059	16933.37
650.411	17100.14
650.763	17161.16
651.115	17289.29
651.467	17241.16
651.819	17270.08
652.171	17211.78
652.523	17193.02
652.875	17192.57
653.227	17089.75
653.578	17249.97
653.93	17219.91
654.282	17069.64
654.633	17164.1
654.985	17055.17
655.337	17115.28
655.688	17202.51
656.039	17081.61
656.391	17087.49
656.742	17117.32
657.094	17111.22
657.445	17100.6
657.796	17088.17
658.147	17054.95
658.498	17091.56
658.849	17090.2
659.2	17105.79
659.551	17142.85
659.902	17133.59
660.253	17147.15
660.604	17087.04
660.955	17098.11
661.306	17164.55
661.656	17125.91
662.007	17055.85
662.358	17201.61
662.708	17176.53
663.059	17120.71
663.409	17056.98
663.76	17186.92
664.11	17146.7
664.461	17224.89
664.811	17220.37
665.161	17257.65
665.511	17205.9
665.862	17210.42
666.212	17323.19
666.562	17186.47
666.912	17162.06
667.262	17214.04
667.612	17189.41
667.962	17209.97
668.312	17145.34
668.662	17313.47
669.011	17232.57
669.361	17139.24
669.711	17195.06
670.06	17150.54
670.41	17146.02
670.76	17112.35
671.109	17063.76
671.459	17171.33
671.808	17057.21
672.157	17193.7
672.507	17050.65
672.856	17008.39
673.205	16996.42
673.554	17074.16
673.904	16981.95
674.253	17118
674.602	17051.11
674.951	16730.44
675.3	16664
675.649	16938.57
675.998	16903.31
676.346	16967.72
676.695	16964.33
677.044	16880.49
677.393	16862.64
677.741	16835.74
678.09	16867.16
678.438	16811.11
678.787	16849.53
679.135	16812.92
679.484	16734.28
679.832	16735.86
680.181	16674.17
680.529	16772.24
680.877	16687.05
681.225	16628.52
681.573	16795.97
681.922	16551.68
682.27	16615.86
682.618	16560.04
682.966	16414.96
683.314	16492.93
683.661	16494.06
684.009	16422.42
684.357	16361.86
684.705	16344.01
685.053	16301.52
685.4	16324.12
685.748	16165.93
686.095	16246.61
686.443	16194.4
686.79	16143.56
687.138	16059.94
687.485	16165.03
687.832	16084.8
688.18	16027.86
688.527	15956.44
688.874	15901.31
689.221	15966.61
689.568	15847.3
689.915	15885.03
690.262	15793.74
690.609	15803
690.956	15677.13
691.303	15645.49
691.65	15594.19
691.997	15633.74
692.344	15466.97
692.69	15517.36
693.037	15544.48
693.383	15306.07
693.73	15429.68
694.077	15331.38
694.423	15245.28
694.769	15186.3
695.116	15177.26
695.462	15080.08
695.808	15067.88
696.155	15022.91
696.501	14916.02
696.847	14923.03
697.193	14847.1
697.539	14831.05
697.885	14698.85
698.231	14736.59
698.577	14637.61
698.923	14704.05
699.269	14562.13
699.614	14474
699.96	14403.04
700.306	14411.17
700.651	14300.22
700.997	14300.9
701.342	14267.9
701.688	14250.5
702.033	14178.19
702.379	14222.03
702.724	14143.61
703.069	14110.39
703.415	13947.01
703.76	13941.36
704.105	13955.14
704.45	13942.26
704.795	13789.27
705.14	13820
705.485	13753.56
705.83	13710.4
706.175	13658.65
706.52	13658.43
706.865	13531.2
707.209	13563.74
707.554	13531.2
707.899	13607.58
708.243	13503.85
708.588	13395.16
708.932	13302.05
709.277	13320.13
709.621	13356.51
709.966	13250.75
710.31	13266.57
710.654	13166.46
710.998	13145.9
711.342	13172.11
711.687	13157.65
712.031	13061.38
712.375	13060.02
712.719	12935.96
713.063	13003.98
713.407	12978.22
713.75	12913.81
714.094	12882.4
714.438	12886.02
714.782	12843.31
715.125	12879.24
715.469	12855.06
715.812	12763.53
716.156	12703.65
716.499	12705
716.843	12818.67
717.186	12688.51
717.53	12709.3
717.873	12712.46
718.216	12649.19
718.559	12618.23
718.902	12485.35
719.246	12571
719.589	12559.47
719.932	12530.09
720.275	12495.07
720.617	12401.74
720.96	12449.64
721.303	12385.47
721.646	12451
721.989	12309.99
722.331	12385.01
722.674	12326.26
723.016	12314.73
723.359	12353.6
723.701	12376.65
724.044	12261.17
724.386	12213.72
724.729	12275.86
725.071	12241.51
725.413	12188.41
725.755	12264.34
726.097	12164.68
726.439	12170.56
726.782	12055.98
727.124	12256.2
727.465	12137.34
727.807	12140.05
728.149	12150.44
728.491	12045.59
728.833	12154.74
729.175	12025.7
729.516	12082.2
729.858	11990.45
730.199	12121.52
730.541	12087.85
730.882	12025.47
731.224	12138.92
731.565	12030.9
731.906	11988.41
732.248	12031.12
732.589	12029.54
732.93	11966.95
733.271	11955.87
733.612	12003.55
733.953	11957.23
734.294	11964.23
734.635	12007.85
734.976	12002.42
735.317	11935.76
735.658	11957.45
735.999	11945.7
736.339	11899.38
736.68	11964.23
737.021	12027.06
737.361	11900.28
737.702	12045.59
738.042	11977.57
738.383	11888.08
738.723	12001.52
739.063	11921.3
739.404	12053.72
739.744	12031.8
740.084	11944.35
740.424	12022.31
740.764	11945.48
741.104	12022.31
741.444	11931.92
741.784	11975.76
742.124	12003.33
742.464	12019.83
742.804	12029.32
743.143	12054.85
743.483	12091.91
743.823	12089.2
744.162	12089.43
744.502	12129.2
744.841	12184.79
745.181	12277.9
745.52	12184.11
745.86	12237.67
746.199	12259.14
746.538	12315.64
746.877	12361.74
747.216	12469.53
747.556	12472.69
747.895	12516.76
748.234	12522.41
748.573	12604.89
748.911	12640.83
749.25	12581.17
749.589	12688.28
749.928	12787.04
750.267	12807.38
750.605	12836.07
750.944	12934.83
751.283	12938.9
751.621	13135.05
751.96	13203.3
752.298	13207.82
752.636	13302.96
752.975	13361.94
753.313	13301.15
753.651	13530.97
753.989	13593.12
754.327	13688.71
754.666	13775.94
755.004	13839.21
755.342	14035.59
755.679	14135.93
756.017	14168.7
756.355	14284.4
756.693	14323.04
757.031	14510.83
757.368	14549.7
757.706	14595.8
758.044	14704.95
758.381	14835.57
758.719	14907.88
759.056	15119.18
759.394	15181.32
759.731	15255.45
760.068	15314.43
760.405	15345.84
760.743	15582.9
761.08	15704.47
761.417	15743.8
761.754	15826.05
762.091	15885.03
762.428	15975.65
762.765	16131.58
763.102	16359.82
763.438	16266.49
763.775	16302.42
764.112	16429.2
764.449	16600.04
764.785	16601.4
765.122	16593.49
765.458	16748.06
765.795	16834.84
766.131	16935.18
766.467	16903.09
766.804	16958
767.14	17000.03
767.476	17058.34
767.812	17133.36
768.148	17280.93
768.485	17299.69
768.821	17321.61
769.157	17385.56
769.492	17545.78
769.828	17448.83
770.164	17386.01
770.5	17455.84
770.836	17557.53
771.171	17577.19
771.507	17671.88
771.842	17595.27
772.178	17624.88
772.513	17613.12
772.849	17621.26
773.184	17668.26
773.519	17676.63
773.855	17715.49
774.19	17634.82
774.525	17684.54
774.86	17755.49
775.195	17698.77
775.53	17769.5
775.865	17742.61
776.2	17689.51
776.535	17635.72
776.87	17594.14
777.205	17549.85
777.539	17603.41
777.874	17609.28
778.209	17473.02
778.543	17555.95
778.878	17474.6
779.212	17478.44
779.547	17488.83
779.881	17528.83
780.215	17355.05
780.55	17457.42
780.884	17354.15
781.218	17333.36
781.552	17401.83
781.886	17329.29
782.22	17194.6
782.554	17274.15
782.888	17039.81
783.222	17099.24
783.556	17038.22
783.889	17022.63
784.223	16986.25
784.557	17009.52
784.89	16926.59
785.224	16885.46
785.557	16769.98
785.891	16781.73
786.224	16809.3
786.558	16679.14
786.891	16607.5
787.224	16530.44
787.557	16672.36
787.891	16617.9
788.224	16551.91
788.557	16509.65
788.89	16480.72
789.223	16516.88
789.556	16305.81
789.888	16300.62
790.221	16305.14
790.554	16139.49
790.887	16138.13
791.219	16100.62
791.552	16118.7
791.884	16040.74
792.217	16032.15
792.549	15952.38
792.882	15780.63
793.214	15800.74
793.546	15896.11
793.879	15812.27
794.211	15672.84
794.543	15761.65
794.875	15609.34
795.207	15789.67
795.539	15636.23
795.871	15618.83
796.203	15494.76
796.535	15444.14
796.867	15378.38
797.198	15377.25
797.53	15280.08
797.862	15255.45
798.193	15288.67
798.525	15125.51
798.856	15208.44
799.188	15075.34
799.519	15082.12
799.85	14892.97
800.182	15016.58
800.513	14937.71
800.844	14846.64
801.175	14885.29
801.506	14869.02
801.837	14767.55
802.168	14753.76
802.499	14726.87
802.83	14632.41
803.161	14593.32
803.491	14697.49
803.822	14652.07
804.153	14576.59
804.483	14353.32
804.814	14405.3
805.145	14392.64
805.475	14363.27
805.805	14213.67
806.136	14273.33
806.466	14255.25
806.796	14210.95
807.126	14098.41
807.457	14119.21
807.787	14157.4
808.117	14148.36
808.447	13984.29
808.777	14069.04
809.107	13962.82
809.436	13915.37
809.766	13934.13
810.096	13893.22
810.426	13806.9
810.755	13840.34
811.085	13723.06
811.414	13816.84
811.744	13654.81
812.073	13655.49
812.403	13676.73
812.732	13667.24
813.061	13542.95
813.39	13440.35
813.719	13472.89
814.049	13528.94
814.378	13442.61
814.707	13403.29
815.036	13341.15
815.365	13308.15
815.693	13230.87
816.022	13248.95
816.351	13114.71
816.68	13038.33
817.008	13215.05
817.337	13014.6
817.665	13066.58
817.994	13090.76
818.322	13048.27
818.651	12896.64
818.979	12930.31
819.307	13047.37
819.636	12919.24
819.964	12806.47
820.292	12861.84
820.62	12895.28
820.948	12893.47
821.276	12868.16
821.604	12831.56
821.932	12887.15
822.259	12817.77
822.587	12883.76
822.915	12802.4
823.243	12843.76
823.57	12814.83
823.898	12759.24
824.225	12748.39
824.553	12817.32
824.88	12724.21
825.207	12852.35
825.535	12821.84
825.862	12898.9
826.189	12730.31
826.516	12911.55
826.843	12820.26
827.17	12836.53
827.497	12791.1
827.824	12847.83
828.151	12834.95
828.478	12796.75
828.805	12809.41
829.131	12808.05
829.458	12780.26
829.785	12766.25
830.111	12811.89
830.438	12873.81
830.764	12794.27
831.09	12850.31
831.417	12704.1
831.743	12735.06
832.069	12784.78
832.395	12704.1
832.722	12733.48
833.048	12689.41
833.374	12728.51
833.7	12638.79
834.026	12690.54
834.351	12751.11
834.677	12742.74
835.003	12680.6
835.329	12678.56
835.654	12579.58
835.98	12579.36
836.306	12551.56
836.631	12538
836.956	12507.27
837.282	12561.96
837.607	12440.15
837.932	12486.25
838.258	12509.76
838.583	12428.63
838.908	12368.74
839.233	12422.98
839.558	12413.49
839.883	12379.36
840.208	12292.36
840.533	12291
840.858	12345.01
841.182	12292.59
841.507	12292.81
841.832	12163.55
842.156	12290.1
842.481	12201.74
842.805	12230.44
843.13	12178.01
843.454	12145.47
843.778	12055.98
844.103	12052.14
844.427	12025.25
844.751	12032.25
845.075	12010.56
845.399	11949.09
845.723	11851.47
846.047	11855.76
846.371	11858.93
846.695	11731.25
847.019	11640.4
847.343	11669.55
847.666	11603.11
847.99	11559.27
848.313	11463.68
848.637	11480.63
848.96	11465.94
849.284	11380.07
849.607	11359.73
849.931	11284.93
850.254	11189.11
850.577	11205.61
850.9	11115.44
851.223	11079.06
851.546	11001.55
851.869	10963.36
852.192	11047.2
852.515	10948.89
852.838	10893.98
853.161	10835.9
853.483	10759.07
853.806	10745.28
854.129	10792.96
854.451	10740.31
854.774	10648.34
855.096	10599.52
855.419	10550.26
855.741	10611.95
856.063	10544.38
856.385	10451.96
856.708	10507.77
857.03	10392.07
857.352	10474.78
857.674	10362.92
857.996	10277.95
858.318	10356.82
858.64	10272.75
858.961	10261.45
859.283	10253.77
859.605	10252.41
859.926	10245.63
860.248	10115.47
860.57	10090.84
860.891	10111.63
861.212	10083.6
861.534	10054.91
861.855	10042.25
862.176	10024.4
862.498	10051.29
862.819	9991.63
863.14	9956.6
863.461	9920.67
863.782	9928.81
864.103	9945.76
864.424	9888.13
864.745	9896.27
865.065	9800
865.386	9797.06
865.707	9821.69
866.027	9856.04
866.348	9719.77
866.668	9738.76
866.989	9786.21
867.309	9623.96
867.63	9768.36
867.95	9723.61
868.27	9620.11
868.59	9643.62
868.91	9646.33
869.23	9568.36
869.55	9555.71
869.87	9569.27
870.19	9604.52
870.51	9605.43
870.83	9590.96
871.15	9523.17
871.469	9497.86
871.789	9602.71
872.109	9566.33
872.428	9417.18
872.748	9492.43
873.067	9430.97
873.386	9508.25
873.706	9436.62
874.025	9373.34
874.344	9342.83
874.663	9361.59
874.982	9344.42
875.301	9402.27
875.62	9323.4
875.939	9333.79
876.258	9253.57
876.577	9180.8
876.896	9214.7
877.214	9146.23
877.533	9229.84
877.852	9255.6
878.17	9167.02
878.489	9275.49
878.807	9184.65
879.125	9144.19
879.444	9215.61
879.762	9115.49
880.08	9094.03
880.398	9040.69
880.716	9136.96
881.034	9030.3
881.352	8970.87
881.67	9066.23
881.988	9021.03
882.306	8985.1
882.624	8883.41
882.941	8899.68
883.259	8891.77
883.577	8832.79
883.894	8848.16
884.212	8853.13
884.529	8844.54
884.846	8792.57
885.164	8781.04
885.481	8761.61
885.798	8748.5
886.115	8690.87
886.432	8634.83
886.75	8632.34
887.067	8648.61
887.383	8557.77
887.7	8649.74
888.017	8673.47
888.334	8576.07
888.651	8542.18
888.967	8464.44
889.284	8544.44
889.6	8511.44
889.917	8478.45
890.233	8475.74
890.55	8370.2
890.866	8428.96
891.182	8412.46
891.498	8343.54
891.815	8246.37
892.131	8278.68
892.447	8289.53
892.763	8275.97
893.079	8219.93
893.395	8203.65
893.71	8096.31
894.026	8098.8
894.342	8128.18
894.657	8063.09
894.973	8072.36
895.289	8071.68
895.604	8016.77
895.92	7950.1
896.235	7927.73
896.55	7968.86
896.865	7934.06
897.181	7886.6
897.496	7874.17
897.811	7884.57
898.126	7796.66
898.441	7772.71
898.756	7760.5
899.071	7708.98
899.386	7785.59
899.7	7644.57
900.015	7601.41
900.33	7556.67
900.644	7574.07
900.959	7577.46
901.273	7528.19
901.588	7485.93
901.902	7413.17
902.216	7434.18
902.531	7406.84
902.845	7333.17
903.159	7328.2
903.473	7305.37
903.787	7299.27
904.101	7198.71
904.415	7221.99
904.729	7161.87
905.042	7180.63
905.356	7147.41
905.67	7134.76
905.984	7163.91
906.297	7111.25
906.611	7045.72
906.924	7036.91
907.237	6959.39
907.551	6986.74
907.864	6935.67
908.177	6988.09
908.491	6929.34
908.804	6865.38
909.117	6849.79
909.43	6786.52
909.743	6757.59
910.056	6708.1
910.368	6708.1
910.681	6701.55
910.994	6677.37
911.307	6615.45
911.619	6602.57
911.932	6614.32
912.244	6534.77
912.557	6568.22
912.869	6527.99
913.181	6540.2
913.494	6453.87
913.806	6450.71
914.118	6418.62
914.43	6427.88
914.742	6404.61
915.054	6330.71
915.366	6348.11
915.678	6295.91
915.99	6279.86
916.302	6181.33
916.613	6229.92
916.925	6141.79
917.236	6161.67
917.548	6108.57
917.859	6162.8
918.171	6090.49
918.482	6035.35
918.794	6052.75
919.105	6031.96
919.416	6046.2
919.727	5910.61
920.038	5924.17
920.349	5874
920.66	5922.36
920.971	5927.78
921.282	5822.25
921.593	5791.74
921.903	5749.03
922.214	5754.91
922.525	5730.5
922.835	5758.52
923.146	5698.64
923.456	5686.88
923.767	5616.6
924.077	5599.88
924.387	5642.82
924.697	5585.87
925.008	5565.98
925.318	5536.38
925.628	5484.18
925.938	5460.22
926.248	5453.22
926.558	5426.78
926.867	5401.92
927.177	5395.37
927.487	5398.53
927.796	5321.24
928.106	5330.96
928.416	5301.81
928.725	5293.45
929.034	5301.81
929.344	5238.31
929.653	5245.77
929.962	5196.73
930.271	5206.67
930.581	5175.26
930.89	5125.32
931.199	5081.93
931.508	5077.18
931.817	5104.3
932.125	5072.44
932.434	5051.42
932.743	4988.15
933.051	4976.39
933.36	4953.34
933.669	4950.63
933.977	4917.19
934.286	4877.19
934.594	4895.27
934.902	4839.68
935.21	4834.48
935.519	4813.01
935.827	4805.33
936.135	4781.37
936.443	4723.97
936.751	4776.85
937.059	4711.99
937.367	4710.19
937.674	4681.26
937.982	4663.18
938.29	4687.14
938.597	4637.19
938.905	4571.89
939.213	4557.42
939.52	4580.47
939.827	4559.46
940.135	4509.51
940.442	4468.39
940.749	4478.78
941.056	4490.76
941.363	4442.85
941.67	4473.58
941.977	4397.2
942.284	4359.91
942.591	4427.26
942.898	4385
943.205	4316.07
943.511	4328.73
943.818	4295.96
944.125	4279.69
944.431	4299.12
944.738	4265.45
945.044	4243.31
945.35	4258.9
945.657	4185.91
945.963	4176.87
946.269	4113.82
946.575	4124.21
946.881	4094.61
947.187	4095.51
947.493	4087.15
947.799	4078.57
948.105	4036.53
948.41	4036.08
948.716	4029.98
949.022	4026.14
949.327	4003.09
949.633	3960.83
949.938	3946.37
950.244	3980.71
950.549	3932.35
950.854	3926.7
951.16	3858.46
951.465	3866.14
951.77	3874.28
952.075	3818.46
952.38	3874.05
952.685	3815.75
952.99	3790.89
953.294	3765.8
953.599	3754.28
953.904	3733.72
954.209	3698.69
954.513	3731.91
954.818	3665.02
955.122	3629.09
955.426	3651.46
955.731	3620.05
956.035	3622.76
956.339	3613.72
956.643	3611.68
956.948	3620.72
957.252	3578.92
957.556	3562.87
957.86	3538.01
958.163	3538.92
958.467	3514.29
958.771	3498.69
959.075	3478.35
959.378	3482.42
959.682	3486.26
959.985	3445.81
960.289	3459.6
960.592	3421.86
960.896	3402.88
961.199	3368.08
961.502	3353.39
961.805	3365.14
962.108	3339.83
962.411	3306.61
962.714	3271.58
963.017	3336.89
963.32	3259.15
963.623	3250.11
963.926	3262.09
964.228	3211.92
964.531	3240.4
964.833	3224.8
965.136	3160.17
965.438	3191.13
965.741	3175.31
966.043	3140.74
966.345	3156.1
966.648	3122.43
966.95	3134.41
967.252	3129.44
967.554	3067.29
967.856	3094.18
968.158	3061.19
968.46	3006.95
968.761	3049.44
969.063	2981.64
969.365	2993.17
969.666	3032.72
969.968	2977.8
970.269	2953.62
970.571	2950.01
970.872	2947.75
971.174	2880.4
971.475	2907.52
971.776	2914.75
972.077	2866.62
972.378	2867.3
972.679	2909.1
972.98	2870.91
973.281	2834.98
973.582	2819.16
973.883	2818.71
974.183	2796.11
974.484	2805.6
974.785	2787.53
975.085	2786.4
975.386	2722.89
975.686	2717.47
975.986	2733.97
976.287	2729.67
976.587	2713.63
976.887	2673.4
977.187	2730.58
977.487	2686.51
977.787	2685.83
978.087	2687.64
978.387	2624.82
978.687	2622.78
978.987	2642.44
979.286	2576.23
979.586	2594.31
979.885	2586.63
980.185	2568.32
980.484	2573.97
980.784	2539.4
981.083	2531.26
981.382	2530.36
981.682	2501.21
981.981	2519.96
982.28	2508.21
982.579	2486.06
982.878	2477.93
983.177	2458.72
983.475	2412.85
983.774	2424.15
984.073	2451.26
984.372	2412.17
984.67	2412.85
984.969	2399.06
985.267	2387.76
985.566	2363.13
985.864	2366.07
986.162	2357.25
986.461	2382.79
986.759	2342.11
987.057	2310.7
987.355	2323.58
987.653	2287.65
987.951	2315.9
988.249	2296.47
988.547	2276.8
988.844	2255.11
989.142	2252.62
989.44	2226.64
989.737	2253.98
990.035	2204.94
990.332	2195.45
990.63	2172.63
990.927	2182.12
991.224	2186.41
991.521	2190.25
991.819	2157.03
992.116	2169.69
992.413	2167.43
992.71	2106.64
993.006	2102.57
993.303	2107.77
993.6	2105.96
993.897	2089.69
994.193	2066.41
994.49	2086.75
994.787	2084.72
995.083	2042.69
995.379	2043.36
995.676	2038.62
995.972	2029.58
996.268	2020.77
996.565	2024.83
996.861	2004.72
997.157	2002.01
997.453	2007.21
997.749	1984.83
998.044	1958.62
998.34	1919.98
998.636	1972.63
998.932	1919.53
999.227	1886.98
999.523	1900.09
999.818	1903.03
1000.114	1900.54
1000.409	1879.75
1000.704	1824.16
1001	1880.2
1001.295	1844.73
1001.59	1840.43
1001.885	1852.41
1002.18	1813.09
1002.475	1823.94
1002.77	1809.02
1003.065	1816.48
1003.359	1783.26
1003.654	1771.73
1003.949	1737.16
1004.243	1726.76
1004.538	1724.5
1004.832	1752.98
1005.127	1736.25
1005.421	1743.26
1005.715	1750.26
1006.009	1700.77
1006.304	1732.86
1006.598	1692.87
1006.892	1684.73
1007.186	1681.79
1007.48	1661.68
1007.773	1659.19
1008.067	1638.18
1008.361	1627.1
1008.655	1618.29
1008.948	1622.58
1009.242	1621
1009.535	1612.19
1009.829	1577.61
1010.122	1567.9
1010.415	1583.26
1010.708	1580.78
1011.001	1543.94
1011.295	1517.05
1011.588	1540.1
1011.881	1534.9
1012.173	1547.33
1012.466	1510.95
1012.759	1501.68
1013.052	1508.01
1013.344	1489.25
1013.637	1461.91
1013.93	1476.37
1014.222	1444.96
1014.514	1471.63
1014.807	1456.26
1015.099	1454
1015.391	1448.13
1015.683	1427.34
1015.976	1425.98
1016.268	1376.26
1016.56	1403.83
1016.851	1372.87
1017.143	1379.65
1017.435	1377.39
1017.727	1379.88
1018.018	1369.26
1018.31	1359.31
1018.602	1346.21
1018.893	1351.86
1019.185	1315.7
1019.476	1318.19
1019.767	1297.85
1020.058	1301.91
1020.35	1309.6
1020.641	1268.47
1020.932	1287.23
1021.223	1251.52
1021.514	1266.21
1021.804	1238.19
1022.095	1235.02
1022.386	1229.6
1022.677	1231.86
1022.967	1211.97
1023.258	1202.71
1023.548	1207.68
1023.839	1200
1024.129	1181.01
1024.419	1199.32
1024.709	1169.04
1025	1192.31
1025.29	1178.3
1025.58	1118.64
1025.87	1128.36
1026.16	1136.27
1026.449	1138.08
1026.739	1116.16
1027.029	1094.91
1027.319	1098.76
1027.608	1100.56
1027.898	1079.1
1028.187	1074.35
1028.477	1098.76
1028.766	1085.42
1029.055	1056.95
1029.344	1084.07
1029.634	1074.35
1029.923	1057.63
1030.212	1016.5
1030.501	1022.6
1030.79	1015.59
1031.078	1027.8
1031.367	1035.71
1031.656	1012.88
1031.945	997.97
1032.233	997.97
1032.522	988.25
1032.81	983.28
1033.099	969.27
1033.387	975.37
1033.675	963.39
1033.963	986.67
1034.251	938.53
1034.54	953.45
1034.828	948.03
1035.116	957.97
1035.403	925.2
1035.691	940.12
1035.979	918.42
1036.267	929.72
1036.554	893.11
1036.842	900.8
1037.129	901.93
1037.417	869.84
1037.704	910.06
1037.992	880.23
1038.279	893.34
1038.566	865.09
1038.853	865.09
1039.14	865.09
