Data from hue_190_FLMS001491_00041.txt Node
Date: Tue Feb 07 16:45:19 GMT 2017
User: dcchb
Spectrometer: FLMS00149
Trigger mode: 0
Integration Time (sec): 2.000000E-2
Scans to average: 10
Electric dark correction enabled: true
Nonlinearity correction enabled: false
Boxcar width: 0
XAxis mode: Wavelengths
Number of Pixels in Spectrum: 2048
>>>>>Begin Spectral Data<<<<<
341.393	-6.98
341.776	-6.98
342.16	-6.98
342.543	-55.79
342.927	-61.67
343.31	-90.82
343.693	-72.06
344.077	-83.81
344.46	-52.4
344.843	-52.4
345.226	-32.74
345.61	-29.58
345.993	-13.3
346.376	8.62
346.759	18.33
347.142	37.09
347.525	48.16
347.908	53.36
348.291	73.7
348.674	78.9
349.057	108.95
349.44	128.39
349.823	154.15
350.206	175.16
350.588	193.02
350.971	212
351.354	214.26
351.737	245.22
352.119	251.77
352.502	279.34
352.884	266.69
353.267	285.44
353.65	275.28
354.032	300.81
354.414	301.26
354.797	329.29
355.179	314.14
355.562	304.43
355.944	328.38
356.326	316.63
356.709	339
357.091	321.38
357.473	357.08
357.855	334.93
358.238	341.04
358.62	342.84
359.002	341.26
359.384	340.36
359.766	337.42
360.148	335.16
360.53	325.44
360.912	339.91
361.294	336.97
361.676	335.16
362.057	313.24
362.439	333.35
362.821	331.32
363.203	355.95
363.584	333.35
363.966	321.83
364.348	315.5
364.729	317.53
365.111	328.38
365.493	317.99
365.874	327.03
366.256	315.95
366.637	316.63
367.019	313.47
367.4	297.87
367.781	329.29
368.163	316.86
368.544	305.33
368.925	302.85
369.306	331.09
369.688	315.95
370.069	306.23
370.45	297.87
370.831	317.76
371.212	311.66
371.593	334.71
371.974	317.76
372.355	304.2
372.736	320.7
373.117	318.21
373.498	309.85
373.879	334.26
374.26	341.71
374.641	307.59
375.021	315.05
375.402	324.99
375.783	327.7
376.163	310.98
376.544	317.53
376.925	330.64
377.305	322.96
377.686	339.23
378.066	321.15
378.447	344.2
378.827	317.99
379.208	319.12
379.588	334.93
379.968	332
380.349	327.7
380.729	338.32
381.109	344.43
381.489	332.22
381.87	317.53
382.25	337.19
382.63	339.45
383.01	342.62
383.39	356.86
383.77	333.58
384.15	324.77
384.53	330.42
384.91	340.58
385.29	364.09
385.67	346.46
386.049	356.18
386.429	356.63
386.809	354.37
387.189	355.27
387.568	344.2
387.948	370.41
388.328	353.01
388.707	361.6
389.087	334.26
389.466	374.48
389.846	353.92
390.225	361.6
390.605	370.64
390.984	360.24
391.363	365.44
391.743	374.48
392.122	376.06
392.501	391.66
392.881	376.74
393.26	375.84
393.639	399.11
394.018	369.51
394.397	369.06
394.776	385.78
395.155	393.92
395.534	393.24
395.913	389.4
396.292	390.3
396.671	401.83
397.05	393.46
397.429	400.47
397.808	394.82
398.186	383.75
398.565	360.47
398.944	410.19
399.323	400.92
399.701	416.06
400.08	406.57
400.458	414.48
400.837	419.45
401.215	429.4
401.594	412.9
401.972	440.47
402.351	420.81
402.729	405.44
403.107	432.79
403.486	426.23
403.864	417.87
404.242	440.24
404.62	449.73
404.999	424.42
405.377	441.6
405.755	444.54
406.133	462.61
406.511	466.23
406.889	463.07
407.267	463.74
407.645	469.17
408.023	466.46
408.401	459.23
408.779	486.8
409.156	506
409.534	497.87
409.912	512.78
410.29	505.1
410.667	533.35
411.045	531.77
411.422	541.48
411.8	546
412.178	537.19
412.555	558.88
412.933	547.81
413.31	581.03
413.687	580.8
414.065	596.4
414.442	571.54
414.819	591.88
415.197	610.63
415.574	623.97
415.951	646.56
416.328	623.51
416.705	624.64
417.082	628.26
417.46	643.4
417.837	670.52
418.214	673.68
418.591	702.83
418.967	684.98
419.344	684.76
419.721	698.09
420.098	712.78
420.475	736.28
420.852	735.15
421.228	741.7
421.605	753.91
421.982	769.95
422.358	765.88
422.735	811.31
423.111	810.18
423.488	809.27
423.864	817.63
424.241	861.02
424.617	862.15
424.994	872.1
425.37	877.07
425.746	894.02
426.123	909.16
426.499	889.72
426.875	933.56
427.251	965.88
427.627	972.88
428.003	979.66
428.379	968.82
428.756	971.75
429.132	997.97
429.507	1020.11
429.883	1014.24
430.259	1049.94
430.635	1042.94
431.011	1068.93
431.387	1076.61
431.763	1087.91
432.138	1109.15
432.514	1129.26
432.89	1125.42
433.265	1153.67
433.641	1177.62
434.016	1189.38
434.392	1234.8
434.767	1264.18
435.143	1251.75
435.518	1272.54
435.894	1285.87
436.269	1342.37
436.644	1385.53
437.02	1379.65
437.395	1404.96
437.77	1420.33
438.145	1426.43
438.52	1461.23
438.895	1463.72
439.271	1502.81
439.646	1556.6
440.021	1532.87
440.395	1571.06
440.77	1586.2
441.145	1593.66
441.52	1631.85
441.895	1633.43
442.27	1654.9
442.645	1643.15
443.019	1707.78
443.394	1683.6
443.769	1738.51
444.143	1726.54
444.518	1763.82
444.892	1764.05
445.267	1810.38
445.641	1799.98
446.016	1805.63
446.39	1839.75
446.764	1838.85
447.139	1844.95
447.513	1852.63
447.887	1898.28
448.262	1904.61
448.636	1913.65
449.01	1947.77
449.384	1950.03
449.758	2004.72
450.132	2010.14
450.506	2022.8
450.88	2027.55
451.254	2049.92
451.628	2060.31
452.002	2125.62
452.376	2135.34
452.75	2117.71
453.123	2129.92
453.497	2206.3
453.871	2182.57
454.244	2242.23
454.618	2244.49
454.992	2299.63
455.365	2284.26
455.739	2368.55
456.112	2340.08
456.486	2366.97
456.859	2417.59
457.232	2469.79
457.606	2470.25
457.979	2489.68
458.352	2543.69
458.725	2567.64
459.099	2530.36
459.472	2630.47
459.845	2666.62
460.218	2671.6
460.591	2697.81
460.964	2692.84
461.337	2773.51
461.71	2827.07
462.083	2831.82
462.456	2881.99
462.829	2857.58
463.201	2940.52
463.574	2983.9
463.947	3015.32
464.32	3084.47
464.692	3115.88
465.065	3135.99
465.438	3178.7
465.81	3243.56
466.183	3240.85
466.555	3324.01
466.928	3315.87
467.3	3341.86
467.672	3427.73
468.045	3536.66
468.417	3493.04
468.789	3550.22
469.161	3616.2
469.534	3643.1
469.906	3742.3
470.278	3740.72
470.65	3776.65
471.022	3862.3
471.394	3945.01
471.766	3973.48
472.138	3993.6
472.51	4098.23
472.882	4170.77
473.253	4261.16
473.625	4289.86
473.997	4374.38
474.369	4400.36
474.74	4452.57
475.112	4556.74
475.484	4620.7
475.855	4693.46
476.227	4734.59
476.598	4842.16
476.97	4910.63
477.341	5031.76
477.713	5094.13
478.084	5125.77
478.455	5254.35
478.827	5293.22
479.198	5460
479.569	5485.53
479.94	5591.52
480.311	5697.28
480.682	5800.1
481.053	5957.16
481.424	5984.05
481.795	6089.81
482.166	6136.59
482.537	6261.56
482.908	6377.71
483.279	6493.19
483.65	6542
484.021	6701.77
484.391	6844.82
484.762	6822
485.133	6911.26
485.503	7007.98
485.874	7141.31
486.244	7280.29
486.615	7403.45
486.985	7483.9
487.356	7644.8
487.726	7652.48
488.097	7804.12
488.467	7845.25
488.837	8002.53
489.207	8086.14
489.578	8163.2
489.948	8271.45
490.318	8420.15
490.688	8375.85
491.058	8538.11
491.428	8605
491.798	8742.62
492.168	8803.41
492.538	8957.53
492.908	8987.59
493.278	9134.93
493.648	9079.11
494.017	9227.58
494.387	9336.96
494.757	9379.22
495.126	9466.45
495.496	9492.43
495.866	9477.29
496.235	9579.66
496.605	9662.83
496.974	9787.57
497.344	9889.49
497.713	9878.86
498.082	9882.25
498.452	10044.96
498.821	10044.74
499.19	10022.36
499.559	10187.78
499.928	10169.48
500.298	10169.25
500.667	10259.65
501.036	10277.27
501.405	10328.12
501.774	10406.53
502.143	10384.84
502.512	10407.44
502.88	10540.32
503.249	10512.07
503.618	10544.38
503.987	10622.12
504.356	10630.03
504.724	10626.19
505.093	10686.53
505.462	10649.92
505.83	10746.86
506.199	10722.23
506.567	10883.81
506.936	10865.28
507.304	10939.85
507.672	10973.3
508.041	10955.22
508.409	11029.79
508.777	11094.88
509.145	11015.11
509.514	11079.74
509.882	11112.5
510.25	11082.67
510.618	11118.61
510.986	11175.33
511.354	11248.77
511.722	11274.76
512.09	11354.31
512.458	11272.5
512.826	11338.94
513.193	11309.34
513.561	11310.92
513.929	11403.12
514.297	11485.38
514.664	11474.3
515.032	11465.49
515.4	11521.31
515.767	11499.84
516.135	11526.05
516.502	11444.25
516.869	11622.77
517.237	11582.77
517.604	11500.52
517.972	11531.93
518.339	11672.26
518.706	11581.64
519.073	11548.65
519.44	11568.31
519.808	11608.99
520.175	11523.79
520.542	11686.27
520.909	11719.95
521.276	11656.44
521.643	11661.64
522.009	11668.87
522.376	11728.76
522.743	11623.45
523.11	11789.55
523.477	11740.51
523.843	11782.09
524.21	11802.66
524.577	11869.77
524.943	11773.28
525.31	11831.81
525.676	11901.41
526.043	11872.71
526.409	11796.33
526.776	11843.11
527.142	11884.46
527.508	11830.23
527.874	11812.37
528.241	11846.04
528.607	11799.49
528.973	11895.08
529.339	11718.36
529.705	11792.94
530.071	11772.37
530.437	11779.15
530.803	11773.96
531.169	11800.4
531.535	11666.16
531.901	11640.4
532.267	11613.73
532.632	11627.75
532.998	11602.66
533.364	11648.76
533.73	11500.29
534.095	11489.44
534.461	11471.14
534.826	11509.33
535.192	11456.45
535.557	11434.3
535.923	11357.02
536.288	11322.67
536.653	11325.83
537.019	11234.54
537.384	11253.74
537.749	11252.39
538.114	11178.72
538.479	11114.09
538.845	11108.44
539.21	10976.46
539.575	11037.48
539.94	10969.91
540.305	10947.99
540.67	10924.49
541.034	10836.58
541.399	10790.93
541.764	10695.34
542.129	10731.72
542.494	10651.5
542.858	10581.44
543.223	10517.27
543.587	10534.67
543.952	10430.04
544.316	10381.68
544.681	10340.1
545.045	10344.16
545.41	10243.6
545.774	10309.14
546.138	10121.12
546.503	10131.74
546.867	10112.98
547.231	10111.63
547.595	10008.58
547.959	9975.13
548.324	9922.48
548.688	9898.53
549.052	9838.87
549.416	9801.13
549.779	9715.48
550.143	9713.22
550.507	9673.22
550.871	9681.13
551.235	9578.31
551.599	9608.14
551.962	9511.64
552.326	9504.86
552.689	9441.81
553.053	9393.23
553.417	9341.93
553.78	9410.63
554.143	9335.15
554.507	9332.89
554.87	9230.97
555.234	9320.91
555.597	9191.88
555.96	9177.64
556.323	9179.67
556.686	9096.06
557.05	9080.24
557.413	9072.56
557.776	9038.43
558.139	9014.48
558.502	8989.17
558.865	8915.5
559.228	9028.27
559.59	8950.3
559.953	8921.38
560.316	8970.87
560.679	8873.92
561.041	8874.82
561.404	8884.54
561.767	8873.02
562.129	8759.35
562.492	8827.37
562.854	8776.97
563.217	8775.62
563.579	8843.19
563.941	8793.47
564.304	8790.53
564.666	8792.11
565.028	8774.26
565.39	8749.63
565.753	8776.52
566.115	8764.77
566.477	8776.52
566.839	8737.43
567.201	8764.32
567.563	8755.5
567.925	8805.22
568.287	8764.54
568.648	8712.57
569.01	8716.64
569.372	8732.91
569.734	8749.18
570.095	8725.9
570.457	8777.42
570.819	8839.34
571.18	8770.42
571.542	8721.61
571.903	8775.16
572.265	8787.14
572.626	8721.61
572.987	8713.7
573.349	8715.51
573.71	8739.91
574.071	8686.81
574.432	8778.78
574.794	8753.47
575.155	8785.79
575.516	8755.73
575.877	8687.71
576.238	8709.63
576.599	8724.77
576.96	8694.94
577.32	8731.55
577.681	8757.76
578.042	8747.14
578.403	8726.35
578.763	8762.06
579.124	8718.67
579.485	8698.78
579.845	8737.43
580.206	8631.67
580.566	8718.9
580.927	8642.96
581.287	8709.18
581.648	8662.63
582.008	8740.36
582.368	8668.73
582.728	8636.64
583.089	8634.38
583.449	8620.37
583.809	8646.35
584.169	8638.22
584.529	8595.73
584.889	8598.67
585.249	8655.39
585.609	8525.91
585.969	8665.34
586.329	8567.71
586.688	8564.1
587.048	8590.08
587.408	8564.77
587.768	8511.67
588.127	8487.26
588.487	8482.74
588.846	8525
589.206	8495.85
589.565	8448.85
589.925	8506.25
590.284	8509.86
590.643	8567.71
591.003	8478.68
591.362	8506.02
591.721	8457.43
592.08	8468.28
592.44	8427.15
592.799	8446.59
593.158	8357.77
593.517	8442.07
593.876	8418.56
594.235	8346.02
594.593	8371.11
594.952	8327.27
595.311	8337.66
595.67	8342.86
596.029	8376.08
596.387	8305.12
596.746	8393.71
597.104	8332.01
597.463	8288.62
597.822	8374.27
598.18	8330.66
598.538	8321.62
598.897	8309.87
599.255	8259.47
599.613	8344.22
599.972	8284.1
600.33	8350.32
600.688	8255.18
601.046	8275.74
601.404	8250.66
601.762	8313.03
602.12	8391.67
602.478	8315.29
602.836	8354.16
603.194	8312.35
603.552	8296.99
603.91	8257.44
604.268	8323.43
604.625	8224.67
604.983	8302.41
605.341	8246.37
605.698	8243.88
606.056	8285.46
606.413	8249.75
606.771	8275.74
607.128	8312.35
607.485	8273.26
607.843	8251.56
608.2	8287.72
608.557	8322.07
608.914	8314.61
609.272	8272.58
609.629	8300.37
609.986	8344.44
610.343	8304.44
610.7	8348.74
611.057	8343.99
611.414	8268.96
611.771	8304.89
612.127	8339.02
612.484	8360.49
612.841	8367.04
613.198	8311.45
613.554	8359.81
613.911	8381.5
614.267	8362.52
614.624	8411.33
614.98	8386.02
615.337	8383.08
615.693	8322.3
616.05	8395.51
616.406	8407.49
616.762	8387.38
617.118	8413.59
617.475	8372.24
617.831	8376.31
618.187	8447.94
618.543	8419.69
618.899	8418.79
619.255	8430.77
619.611	8402.97
619.967	8462.18
620.323	8394.16
620.678	8420.37
621.034	8394.84
621.39	8396.87
621.746	8345.57
622.101	8482.52
622.457	8417.43
622.812	8422.41
623.168	8493.59
623.523	8434.16
623.879	8450.43
624.234	8414.27
624.589	8433.25
624.945	8407.04
625.3	8428.28
625.655	8442.52
626.01	8449.07
626.365	8415.63
626.72	8376.31
627.075	8313.93
627.43	8356.42
627.785	8324.78
628.14	8430.54
628.495	8364.78
628.85	8365.46
629.205	8379.02
629.559	8397.77
629.914	8314.39
630.269	8313.71
630.623	8315.74
630.978	8275.74
631.332	8379.47
631.687	8314.84
632.041	8300.15
632.396	8261.96
632.75	8254.73
633.104	8266.48
633.459	8264.44
633.813	8266.93
634.167	8241.62
634.521	8278.45
634.875	8233.48
635.229	8226.7
635.583	8163.88
635.937	8191.9
636.291	8158.68
636.645	8208.17
636.999	8166.14
637.352	8208.63
637.706	8085.69
638.06	8178.12
638.413	8144.22
638.767	8139.7
639.121	8092.24
639.474	8001.17
639.828	8141.28
640.181	8096.99
640.534	8125.01
640.888	8045.24
641.241	8007.73
641.594	8041.4
641.947	8078.46
642.301	8029.2
642.654	8037.78
643.007	8044.56
643.36	8068.74
643.713	8019.7
644.066	7982.87
644.419	8001.17
644.771	7925.24
645.124	7844.12
645.477	7861.52
645.83	7831.01
646.182	7828.75
646.535	7789.43
646.888	7791.91
647.24	7747.4
647.593	7793.04
647.945	7738.36
648.298	7725.02
648.65	7684.12
649.002	7663.78
649.355	7710.56
649.707	7755.53
650.059	7732.03
650.411	7936.54
650.763	7906.26
651.115	7979.25
651.467	7970.89
651.819	7975.64
652.171	7971.12
652.523	7924.34
652.875	7870.56
653.227	7957.79
653.578	7931.8
653.93	7928.86
654.282	7891.57
654.633	7910.55
654.985	7917.56
655.337	7966.82
655.688	7922.76
656.039	7999.14
656.391	7929.76
656.742	7941.06
657.094	7948.75
657.445	7988.07
657.796	7965.92
658.147	7959.59
658.498	7919.59
658.849	7965.47
659.2	7978.12
659.551	7967.95
659.902	7960.04
660.253	7997.11
660.604	7966.15
660.955	7965.69
661.306	7977.45
661.656	8023.77
662.007	7946.71
662.358	7988.97
662.708	7974.51
663.059	8014.51
663.409	7971.8
663.76	8030.78
664.11	8033.72
664.461	8040.72
664.811	8038.46
665.161	8024.22
665.511	8027.39
665.862	8050.44
666.212	8087.27
666.562	8050.44
666.912	8044.11
667.262	8035.98
667.612	7989.42
667.962	8068.52
668.312	7990.78
668.662	8045.24
669.011	8062.42
669.361	8001.85
669.711	7998.46
670.06	8005.47
670.41	7937.45
670.76	7935.64
671.109	8009.76
671.459	7984.23
671.808	8013.15
672.157	8003.21
672.507	7856.09
672.856	7970.44
673.205	7961.63
673.554	7967.95
673.904	7979.25
674.253	7944.68
674.602	7967.73
674.951	7812.03
675.3	7842.99
675.649	7873.27
675.998	7814.51
676.346	7899.26
676.695	7935.41
677.044	7860.39
677.393	7882.98
677.741	7888.18
678.09	7873.49
678.438	7851.12
678.787	7804.79
679.135	7849.09
679.484	7818.81
679.832	7806.15
680.181	7720.73
680.529	7752.82
680.877	7751.69
681.225	7718.02
681.573	7777.22
681.922	7790.78
682.27	7653.84
682.618	7691.13
682.966	7714.63
683.314	7692.93
683.661	7648.87
684.009	7672.82
684.357	7576.1
684.705	7594.63
685.053	7634.18
685.4	7548.08
685.748	7581.75
686.095	7472.15
686.443	7527.74
686.79	7411.81
687.138	7481.64
687.485	7536.55
687.832	7433.51
688.18	7410
688.527	7442.32
688.874	7379.72
689.221	7236.45
689.568	7307.63
689.915	7333.17
690.262	7300.4
690.609	7279.61
690.956	7250.69
691.303	7256.11
691.65	7135.43
691.997	7235.77
692.344	7161.87
692.69	7169.78
693.037	7064.7
693.383	7039.17
693.73	7040.52
694.077	7025.83
694.423	7011.82
694.769	7003.23
695.116	6896.34
695.462	6920.98
695.808	6920.75
696.155	6932.05
696.501	6804.82
696.847	6792.17
697.193	6833.75
697.539	6791.26
697.885	6743.13
698.231	6749.23
698.577	6787.42
698.923	6732.51
699.269	6631.72
699.614	6631.27
699.96	6604.83
700.306	6610.48
700.651	6609.8
700.997	6557.37
701.342	6552.62
701.688	6500.2
702.033	6491.83
702.379	6470.14
702.724	6450.71
703.069	6420.65
703.415	6377.49
703.76	6392.63
704.105	6372.74
704.45	6338.62
704.795	6308.34
705.14	6318.51
705.485	6265.4
705.83	6291.39
706.175	6209.36
706.52	6202.13
706.865	6181.11
707.209	6212.52
707.554	6121.68
707.899	6170.26
708.243	6079.19
708.588	6097.04
708.932	6065.86
709.277	6039.87
709.621	6034.67
709.966	6034.45
710.31	6014.11
710.654	5998.74
710.998	5985.86
711.342	6015.01
711.687	5967.33
712.031	5957.84
712.375	5848.69
712.719	5862.47
713.063	5917.61
713.407	5931.85
713.75	5874
714.094	5848.91
714.438	5884.62
714.782	5832.64
715.125	5844.39
715.469	5881
715.812	5831.29
716.156	5823.38
716.499	5805.07
716.843	5789.71
717.186	5798.29
717.53	5745.19
717.873	5781.57
718.216	5812.53
718.559	5733.44
718.902	5769.37
719.246	5715.36
719.589	5687.11
719.932	5723.72
720.275	5642.82
720.617	5704.29
720.96	5626.55
721.303	5663.38
721.646	5713.78
721.989	5648.47
722.331	5669.71
722.674	5652.31
723.016	5664.51
723.359	5642.37
723.701	5652.08
724.044	5620.22
724.386	5588.58
724.729	5665.64
725.071	5586.1
725.413	5632.87
725.755	5591.52
726.097	5585.42
726.439	5564.63
726.782	5596.27
727.124	5605.08
727.465	5553.78
727.807	5587
728.149	5544.74
728.491	5564.63
728.833	5575.7
729.175	5541.13
729.516	5575.7
729.858	5605.76
730.199	5586.32
730.541	5549.94
730.882	5556.27
731.224	5583.84
731.565	5527.11
731.906	5594.91
732.248	5580.45
732.589	5543.16
732.93	5521.24
733.271	5556.49
733.612	5530.05
733.953	5607.11
734.294	5580.22
734.635	5562.59
734.976	5528.92
735.317	5558.53
735.658	5599.2
735.999	5584.51
736.339	5607.11
736.68	5631.52
737.021	5597.85
737.361	5612.76
737.702	5661.35
738.042	5637.39
738.383	5634.46
738.723	5667.9
739.063	5688.69
739.404	5644.85
739.744	5646.21
740.084	5655.25
740.424	5726.43
740.764	5692.99
741.104	5699.31
741.444	5749.48
741.784	5709.93
742.124	5736.83
742.464	5780.22
742.804	5806.88
743.143	5767.56
743.483	5885.52
743.823	5783.6
744.162	5856.82
744.502	5909.25
744.841	5888.46
745.181	5970.04
745.52	5960.78
745.86	6035.58
746.199	5995.58
746.538	6051.17
746.877	6092.52
747.216	6129.58
747.556	6194.67
747.895	6227.89
748.234	6298.39
748.573	6276.25
748.911	6296.81
749.25	6418.62
749.589	6499.29
749.928	6474.89
750.267	6621.1
750.605	6670.59
750.944	6716.24
751.283	6762.56
751.621	6925.72
751.96	6896.34
752.298	7009.56
752.636	7096.56
752.975	7174.53
753.313	7275.09
753.651	7420.62
753.989	7463.33
754.327	7585.82
754.666	7714.4
755.004	7904.23
755.342	7995.52
755.679	8126.14
756.017	8201.62
756.355	8405
756.693	8486.13
757.031	8650.42
757.368	8719.35
757.706	8911.88
758.044	9020.81
758.381	9290.18
758.719	9400.91
759.056	9581.92
759.394	9712.09
759.731	9814.23
760.068	10016.04
760.405	10160.89
760.743	10283.37
761.08	10461.22
761.417	10592.29
761.754	10832.96
762.091	11005.84
762.428	11171.03
762.765	11267.75
763.102	11536.9
763.438	11615.09
763.775	11850.56
764.112	12055.08
764.449	12230.22
764.785	12358.8
765.122	12556.99
765.458	12680.6
765.795	12855.28
766.131	12986.81
766.467	13185.9
766.804	13281.71
767.14	13430.86
767.476	13599.44
767.812	13727.12
768.148	13948.59
768.485	13933.22
768.821	14176.6
769.157	14231.07
769.492	14473.77
769.828	14495.24
770.164	14618.4
770.5	14779.3
770.836	14970.71
771.171	14987.43
771.507	15124.83
771.842	15152.17
772.178	15357.59
772.513	15414.09
772.849	15484.59
773.184	15511.26
773.519	15619.05
773.855	15765.04
774.19	15843.45
774.525	15948.76
774.86	15977.91
775.195	16114.63
775.53	16174.29
775.865	16146.27
776.2	16155.31
776.535	16197.57
776.87	16298.36
777.205	16395.08
777.539	16466.49
777.874	16538.8
778.209	16554.62
778.543	16572.02
778.878	16554.4
779.212	16553.04
779.547	16612.92
779.881	16759.81
780.215	16776.76
780.55	16767.95
780.884	16814.28
781.218	16790.32
781.552	16836.65
781.886	16913.71
782.22	16821.73
782.554	16814.5
782.888	16838.91
783.222	16712.58
783.556	16764.79
783.889	16826.03
784.223	16790.77
784.557	16762.75
784.89	16781.51
785.224	16820.83
785.557	16721.85
785.891	16756.42
786.224	16720.72
786.558	16922.75
786.891	16657.9
787.224	16738.8
787.557	16665.8
787.891	16791
788.224	16727.95
788.557	16775.63
788.89	16806.37
789.223	16770.66
789.556	16646.6
789.888	16696.54
790.221	16595.07
790.554	16563.89
790.887	16562.3
791.219	16457.67
791.552	16447.05
791.884	16464.45
792.217	16483.44
792.549	16433.27
792.882	16410.67
793.214	16385.81
793.546	16436.43
793.879	16414.29
794.211	16248.19
794.543	16348.98
794.875	16241.64
795.207	16322.08
795.539	16242.77
795.871	16199.83
796.203	16048.87
796.535	16043.67
796.867	16066.27
797.198	15997.8
797.53	16066.72
797.862	15946.28
798.193	15980.17
798.525	15947.63
798.856	15933.39
799.188	15810.91
799.519	15758.26
799.85	15680.29
800.182	15761.42
800.513	15706.28
800.844	15586.06
801.175	15775.43
801.506	15763
801.837	15565.49
802.168	15595.55
802.499	15492.28
802.83	15454.09
803.161	15473.29
803.491	15502.22
803.822	15491.37
804.153	15407.76
804.483	15281.43
804.814	15253.41
805.145	15323.24
805.475	15211.38
805.805	15236.92
806.136	15165.51
806.466	15241.44
806.796	15124.6
807.126	15076.24
807.457	15021.33
807.787	15029.69
808.117	14927.77
808.447	14968.22
808.777	14935
809.107	14817.49
809.436	14805.51
809.766	14845.29
810.096	14745.63
810.426	14737.04
810.755	14765.74
811.085	14713.99
811.414	14727.78
811.744	14628.57
812.073	14634.45
812.403	14591.73
812.732	14549.25
813.061	14560.32
813.39	14443.49
813.719	14405.75
814.049	14499.31
814.378	14411.63
814.707	14434.45
815.036	14340.44
815.365	14340.22
815.693	14194.23
816.022	14324.4
816.351	14189.94
816.68	14102.71
817.008	14161.24
817.337	14054.8
817.665	14084.4
817.994	14179.54
818.322	14128.02
818.651	14022.03
818.979	14040.56
819.307	13999.21
819.636	13990.17
819.964	13964.18
820.292	13979.77
820.62	13984.29
820.948	13952.43
821.276	13968.47
821.604	13911.3
821.932	13965.54
822.259	13982.71
822.587	13851.87
822.915	13924.41
823.243	13976.84
823.57	13936.16
823.898	13874.69
824.225	13882.6
824.553	13848.25
824.88	13881.92
825.207	13944.29
825.535	13972.09
825.862	13901.13
826.189	13866.1
826.516	13940
826.843	13925.76
827.17	13921.92
827.497	13948.14
827.824	13954.46
828.151	13991.98
828.478	14016.38
828.805	13997.17
829.131	13939.55
829.458	13957.4
829.785	13933
830.111	14014.12
830.438	13984.29
830.764	13953.79
831.09	14071.07
831.417	13906.78
831.743	13912.66
832.069	14034.46
832.395	13912.66
832.722	13928.25
833.048	13794.69
833.374	13908.36
833.7	13882.15
834.026	13895.93
834.351	13941.58
834.677	13919.21
835.003	13891.87
835.329	13809.38
835.654	13826.11
835.98	13781.59
836.306	13836.95
836.631	13785.65
836.956	13822.04
837.282	13755.6
837.607	13692.55
837.932	13719.89
838.258	13734.36
838.583	13667.69
838.908	13578.43
839.233	13596.96
839.558	13598.77
839.883	13533.46
840.208	13571.42
840.533	13556.06
840.858	13495.72
841.182	13514.7
841.507	13466.11
841.832	13370.52
842.156	13388.6
842.481	13365.78
842.805	13355.16
843.13	13282.39
843.454	13350.64
843.778	13282.16
844.103	13287.14
844.427	13231.32
844.751	13238.55
845.075	13121.49
845.399	13194.71
845.723	13067.26
846.047	13062.74
846.371	12983.19
846.695	12987.03
847.019	12832.46
847.343	12838.79
847.666	12784.55
847.99	12739.81
848.313	12684.21
848.637	12627.94
848.96	12679.02
849.284	12453.94
849.607	12501.85
849.931	12402.87
850.254	12378.46
850.577	12348.4
850.9	12266.15
851.223	12265.24
851.546	12154.28
851.869	12096.66
852.192	12111.12
852.515	11999.71
852.838	11962.2
853.161	12043.1
853.483	11852.82
853.806	11843.11
854.129	11809.21
854.451	11797.91
854.774	11714.52
855.096	11782.77
855.419	11666.16
855.741	11689.44
856.063	11583.68
856.385	11516.79
856.708	11526.05
857.03	11463.68
857.352	11459.16
857.674	11430.46
857.996	11385.72
858.318	11307.08
858.64	11288.09
858.961	11286.96
859.283	11231.37
859.605	11214.2
859.926	11274.99
860.248	11146.63
860.57	11072.73
860.891	11158.38
861.212	11047.2
861.534	11012.39
861.855	11041.32
862.176	10985.28
862.498	10921.1
862.819	11007.42
863.14	10923.36
863.461	10969.46
863.782	10914.32
864.103	10877.71
864.424	10840.65
864.745	10792.29
865.065	10822.12
865.386	10777.82
865.707	10756.36
866.027	10759.29
866.348	10712.74
866.668	10828.44
866.989	10744.83
867.309	10684.27
867.63	10717.49
867.95	10676.81
868.27	10620.77
868.59	10627.77
868.91	10635.68
869.23	10525.85
869.55	10566.98
869.87	10601.33
870.19	10482.01
870.51	10559.75
870.83	10516.36
871.15	10461.67
871.469	10501.45
871.789	10472.97
872.109	10504.16
872.428	10354.56
872.748	10485.85
873.067	10420.09
873.386	10473.43
873.706	10356.14
874.025	10348.23
874.344	10308.91
874.663	10292.86
874.982	10233.66
875.301	10323.15
875.62	10239.53
875.939	10280.44
876.258	10315.69
876.577	10254.9
876.896	10306.2
877.214	10181.91
877.533	10214
877.852	10211.74
878.17	10157.5
878.489	10112.3
878.807	10125.86
879.125	10057.16
879.444	10144.85
879.762	10131.06
880.08	10075.24
880.398	9977.62
880.716	10060.78
881.034	10014.23
881.352	10000.67
881.67	9966.77
881.988	9961.12
882.306	9951.18
882.624	9845.19
882.941	9778.98
883.259	9827.34
883.577	9808.13
883.894	9783.73
884.212	9857.85
884.529	9772.2
884.846	9768.36
885.164	9705.08
885.481	9693.78
885.798	9662.15
886.115	9597.97
886.432	9597.52
886.75	9578.76
887.067	9583.05
887.383	9587.57
887.7	9611.75
888.017	9592.54
888.334	9516.61
888.651	9451.08
888.967	9403.4
889.284	9340.12
889.6	9333.12
889.917	9327.24
890.233	9346.22
890.55	9218.77
890.866	9250.18
891.182	9275.49
891.498	9266.45
891.815	9164.99
892.131	9148.26
892.447	9072.11
892.763	9155.04
893.079	9112.11
893.395	9049.28
893.71	8981.26
894.026	8983.29
894.342	9004.99
894.657	8950.3
894.973	8817.88
895.289	8858.55
895.604	8818.1
895.92	8741.72
896.235	8738.1
896.55	8752.79
896.865	8745.79
897.181	8727.26
897.496	8659.24
897.811	8614.27
898.126	8613.36
898.441	8576.75
898.756	8570.42
899.071	8490.88
899.386	8431.9
899.7	8405.23
900.015	8368.17
900.33	8344.89
900.644	8312.35
900.959	8364.1
901.273	8285.46
901.588	8344.44
901.902	8208.63
902.216	8176.54
902.531	8142.86
902.845	8106.26
903.159	8091.79
903.473	8056.54
903.787	8067.16
904.101	7908.97
904.415	8025.13
904.729	7948.75
905.042	7889.99
905.356	7864
905.67	7872.82
905.984	7822.65
906.297	7785.36
906.611	7791.69
906.924	7782.65
907.237	7790.78
907.551	7727.06
907.864	7632.82
908.177	7663.78
908.491	7569.09
908.804	7536.1
909.117	7541.52
909.43	7514.86
909.743	7443.22
910.056	7393.51
910.368	7476.44
910.681	7350.12
910.994	7361.87
911.307	7330.23
911.619	7227.86
911.932	7257.24
912.244	7211.82
912.557	7226.96
912.869	7128.43
913.181	7141.08
913.494	7093.4
913.806	7058.6
914.118	7067.87
914.43	7002.78
914.742	7031.03
915.054	6941.31
915.366	6900.86
915.678	6927.3
915.99	6882.79
916.302	6817.48
916.613	6769.34
916.925	6806.85
917.236	6811.15
917.548	6755.56
917.859	6795.33
918.171	6652.28
918.482	6690.7
918.794	6619.74
919.105	6623.58
919.416	6565.73
919.727	6544.94
920.038	6548.78
920.349	6505.85
920.66	6480.54
920.971	6475.79
921.282	6388.33
921.593	6396.24
921.903	6332.07
922.214	6341.78
922.525	6276.7
922.835	6269.02
923.146	6305.63
923.456	6263.59
923.767	6224.95
924.077	6154.89
924.387	6196.7
924.697	6137.49
925.008	6118.51
925.318	6071.51
925.628	6099.53
925.938	6013.2
926.248	6033.54
926.558	6015.92
926.867	5987.44
927.177	5960.32
927.487	5933.66
927.796	5850.5
928.106	5824.06
928.416	5794.45
928.725	5777.96
929.034	5792.42
929.344	5791.74
929.653	5799.42
929.962	5725.98
930.271	5716.04
930.581	5686.88
930.89	5634.91
931.199	5617.96
931.508	5648.47
931.817	5636.72
932.125	5588.58
932.434	5577.28
932.743	5521.69
933.051	5457.51
933.36	5474.23
933.669	5472.43
933.977	5467
934.286	5411.86
934.594	5389.72
934.902	5386.78
935.21	5391.52
935.519	5370.96
935.827	5294.8
936.135	5290.28
936.443	5276.95
936.751	5194.02
937.059	5187.91
937.367	5182.26
937.674	5180.68
937.982	5183.17
938.29	5124.41
938.597	5132.1
938.905	5119.89
939.213	5083.51
939.52	5064.53
939.827	5089.61
940.135	5008.26
940.442	5002.38
940.749	4904.76
941.056	4985.21
941.363	4888.94
941.67	4904.08
941.977	4816.17
942.284	4839.9
942.591	4834.03
942.898	4801.26
943.205	4772.33
943.511	4777.76
943.818	4820.01
944.125	4738.21
944.431	4753.58
944.738	4719.68
945.044	4707.25
945.35	4692.11
945.657	4639
945.963	4640.58
946.269	4612.56
946.575	4557.65
946.881	4575.05
947.187	4568.72
947.493	4544.99
947.799	4484.88
948.105	4468.61
948.41	4454.83
948.716	4443.75
949.022	4415.51
949.327	4394.49
949.633	4365.11
949.938	4358.11
950.244	4378.9
950.549	4326.92
950.854	4349.52
951.16	4319.69
951.465	4280.14
951.77	4259.13
952.075	4236.3
952.38	4242.85
952.685	4197.66
952.99	4154.95
953.294	4145
953.599	4131.9
953.904	4135.06
954.209	4112.91
954.513	4100.03
954.818	4056.19
955.122	4066.14
955.426	4018
955.731	4058
956.035	4032.24
956.339	3995.4
956.643	3994.05
956.948	3943.65
957.252	3945.46
957.556	3929.42
957.86	3928.51
958.163	3874.05
958.467	3825.01
958.771	3855.97
959.075	3837.44
959.378	3850.32
959.682	3814.62
959.985	3735.3
960.289	3795.86
960.592	3745.01
960.896	3759.03
961.199	3733.04
961.502	3720.83
961.805	3729.87
962.108	3721.29
962.411	3689.42
962.714	3617.11
963.017	3663.21
963.32	3630.89
963.623	3637.9
963.926	3585.24
964.228	3556.09
964.531	3556.77
964.833	3561.06
965.136	3490.56
965.438	3513.83
965.741	3528.07
966.043	3444.91
966.345	3435.64
966.648	3461.63
966.95	3407.62
967.252	3436.77
967.554	3383.22
967.856	3377.57
968.158	3377.34
968.46	3378.24
968.761	3335.99
969.063	3313.61
969.365	3333.5
969.666	3322.2
969.968	3234.52
970.269	3271.35
970.571	3278.81
970.872	3234.07
971.174	3226.38
971.475	3225.93
971.776	3248.76
972.077	3197.23
972.378	3171.47
972.679	3158.82
972.98	3153.39
973.281	3135.31
973.582	3125.6
973.883	3126.5
974.183	3101.19
974.484	3086.27
974.785	3073.17
975.085	3072.94
975.386	3069.33
975.686	3026.39
975.986	3020.51
976.287	3014.86
976.587	2968.09
976.887	2974.64
977.187	2996.11
977.487	2987.07
977.787	2907.75
978.087	2948.2
978.387	2912.27
978.687	2923.57
978.987	2881.99
979.286	2870.01
979.586	2878.14
979.885	2837.92
980.185	2821.87
980.484	2858.48
980.784	2801.54
981.083	2817.58
981.382	2790.01
981.682	2763.12
981.981	2772.61
982.28	2766.28
982.579	2742.1
982.878	2733.29
983.177	2725.38
983.475	2708.88
983.774	2678.6
984.073	2662.56
984.372	2649
984.67	2670.69
984.969	2678.6
985.267	2630.47
985.566	2647.87
985.864	2551.6
986.162	2576.91
986.461	2579.62
986.759	2568.77
987.057	2583.69
987.355	2555.67
987.653	2553.41
987.951	2499.62
988.249	2536.91
988.547	2491.49
988.844	2496.46
989.142	2509.57
989.44	2488.1
989.737	2477.03
990.035	2423.69
990.332	2407.65
990.63	2409.46
990.927	2418.72
991.224	2415.11
991.521	2376.69
991.819	2352.51
992.116	2383.47
992.413	2342.11
992.71	2321.55
993.006	2349.35
993.303	2349.8
993.6	2324.03
993.897	2282
994.193	2288.78
994.49	2290.14
994.787	2282.68
995.083	2248.1
995.379	2251.72
995.676	2237.03
995.972	2249.69
996.268	2192.51
996.565	2187.54
996.861	2225.05
997.157	2179.63
997.453	2146.86
997.749	2147.09
998.044	2146.64
998.34	2147.54
998.636	2164.04
998.932	2099.63
999.227	2116.81
999.523	2117.26
999.818	2073.65
1000.114	2105.96
1000.409	2056.47
1000.704	2065.96
1001	2015.34
1001.295	2043.59
1001.59	2004.04
1001.885	2023.48
1002.18	2031.16
1002.475	1964.04
1002.77	1987.32
1003.065	1965.85
1003.359	1967.66
1003.654	1946.87
1003.949	1918.17
1004.243	1929.7
1004.538	1921.79
1004.832	1881.79
1005.127	1883.59
1005.421	1892.41
1005.715	1889.24
1006.009	1874.1
1006.304	1880.43
1006.598	1838.62
1006.892	1849.7
1007.186	1790.26
1007.48	1814.9
1007.773	1826.19
1008.067	1795.24
1008.361	1817.83
1008.655	1777.83
1008.948	1762.02
1009.242	1764.95
1009.535	1747.1
1009.829	1718.85
1010.122	1710.94
1010.415	1718.63
1010.708	1694
1011.001	1716.37
1011.295	1669.36
1011.588	1679.53
1011.881	1665.52
1012.173	1654.45
1012.466	1628.46
1012.759	1620.55
1013.052	1658.74
1013.344	1606.77
1013.637	1620.55
1013.93	1581.68
1014.222	1611.74
1014.514	1581
1014.807	1576.71
1015.099	1542.13
1015.391	1569.93
1015.683	1527.67
1015.976	1545.3
1016.268	1512.98
1016.56	1511.63
1016.851	1499.65
1017.143	1516.37
1017.435	1514.56
1017.727	1458.52
1018.018	1446.32
1018.31	1456.94
1018.602	1449.48
1018.893	1403.83
1019.185	1447.9
1019.476	1446.54
1019.767	1428.24
1020.058	1417.39
1020.35	1406.77
1020.641	1394.79
1020.932	1397.28
1021.223	1363.16
1021.514	1352.31
1021.804	1335.36
1022.095	1352.99
1022.386	1364.51
1022.677	1334.68
1022.967	1329.48
1023.258	1312.99
1023.548	1328.13
1023.839	1286.1
1024.129	1274.57
1024.419	1280.9
1024.709	1290.16
1025	1264.18
1025.29	1255.14
1025.58	1241.13
1025.87	1237.74
1026.16	1225.76
1026.449	1202.03
1026.739	1212.2
1027.029	1232.99
1027.319	1188.92
1027.608	1175.82
1027.898	1191.41
1028.187	1197.74
1028.477	1160.9
1028.766	1172.43
1029.055	1156.83
1029.344	1143.05
1029.634	1133.11
1029.923	1130.62
1030.212	1114.12
1030.501	1108.25
1030.79	1122.03
1031.078	1105.08
1031.367	1098.3
1031.656	1060.34
1031.945	1088.14
1032.233	1091.3
1032.522	1055.82
1032.81	1049.72
1033.099	1067.8
1033.387	1041.81
1033.675	1015.14
1033.963	1017.18
1034.251	1045.42
1034.54	1004.97
1034.828	1000.68
1035.116	1006.1
1035.403	1007.69
1035.691	1016.27
1035.979	990.28
1036.267	993.9
1036.554	960
1036.842	981.7
1037.129	964.52
1037.417	944.18
1037.704	961.36
1037.992	953.9
1038.279	953.45
1038.566	915.94
1038.853	915.94
1039.14	915.94
