Data from hue_160_FLMS001491_00057.txt Node
Date: Tue Feb 07 16:51:23 GMT 2017
User: dcchb
Spectrometer: FLMS00149
Trigger mode: 0
Integration Time (sec): 2.000000E-2
Scans to average: 10
Electric dark correction enabled: true
Nonlinearity correction enabled: false
Boxcar width: 0
XAxis mode: Wavelengths
Number of Pixels in Spectrum: 2048
>>>>>Begin Spectral Data<<<<<
341.393	-5
341.776	-5
342.16	-5
342.543	-57.65
342.927	-37.09
343.31	-70.08
343.693	-75.73
344.077	-62.4
344.46	-52.46
344.843	-64.43
345.226	-40.71
345.61	-28.95
345.993	-23.08
346.376	-3.19
346.759	6.75
347.142	34.1
347.525	34.77
347.908	51.5
348.291	104.38
348.674	90.59
349.057	98.95
349.44	125.84
349.823	145.73
350.206	184.6
350.588	204.71
350.971	220.3
351.354	239.97
351.737	242
352.119	261.66
352.502	268.44
352.884	292.39
353.267	286.52
353.65	272.51
354.032	279.29
354.414	317.03
354.797	315.44
355.179	320.42
355.562	325.16
355.944	356.57
356.326	324.03
356.709	347.76
357.091	331.94
357.473	359.74
357.855	334.65
358.238	354.76
358.62	332.84
359.002	335.1
359.384	328.55
359.766	349.12
360.148	334.65
360.53	356.8
360.912	340.3
361.294	343.69
361.676	311.83
362.057	350.7
362.439	329.45
362.821	323.35
363.203	323.13
363.584	338.49
363.966	318.61
364.348	305.05
364.729	318.16
365.111	315.44
365.493	322
365.874	325.84
366.256	320.42
366.637	311.6
367.019	336.01
367.4	327.19
367.781	315.44
368.163	302.34
368.544	319.06
368.925	326.06
369.306	322.9
369.688	319.06
370.069	326.97
370.45	301.43
370.831	321.09
371.212	315.22
371.593	334.88
371.974	316.35
372.355	312.51
372.736	312.73
373.117	327.19
373.498	337.14
373.879	310.7
374.26	327.65
374.641	320.87
375.021	319.06
375.402	317.93
375.783	343.92
376.163	342.34
376.544	336.91
376.925	322.22
377.305	307.08
377.686	339.62
378.066	329.91
378.447	317.7
378.827	329.68
379.208	321.55
379.588	326.74
379.968	324.93
380.349	339.62
380.729	341.21
381.109	345.73
381.489	353.86
381.87	326.52
382.25	325.16
382.63	349.34
383.01	329.91
383.39	347.31
383.77	334.2
384.15	348.89
384.53	344.6
384.91	329.91
385.29	358.83
385.67	336.69
386.049	346.18
386.429	353.41
386.809	336.46
387.189	371.04
387.568	346.4
387.948	348.89
388.328	373.97
388.707	373.75
389.087	376.01
389.466	344.37
389.846	362.22
390.225	345.95
390.605	360.87
390.984	384.59
391.363	372.62
391.743	345.27
392.122	366.29
392.501	343.01
392.881	390.92
393.26	364.03
393.639	382.79
394.018	383.92
394.397	380.98
394.776	384.59
395.155	383.92
395.534	380.53
395.913	363.58
396.292	383.92
396.671	366.29
397.05	393.41
397.429	390.47
397.808	410.58
398.186	399.28
398.565	406.97
398.944	391.6
399.323	394.31
399.701	392.73
400.08	380.3
400.458	400.64
400.837	392.5
401.215	408.1
401.594	382.79
401.972	406.74
402.351	411.94
402.729	398.83
403.107	406.29
403.486	413.52
403.864	425.72
404.242	405.61
404.62	414.42
404.999	434.99
405.377	428.44
405.755	425.5
406.133	417.59
406.511	405.84
406.889	426.4
407.267	436.57
407.645	433.41
408.023	429.56
408.401	449.68
408.779	442.9
409.156	454.42
409.534	470.69
409.912	453.52
410.29	445.84
410.667	450.81
411.045	450.81
411.422	464.14
411.8	474.76
412.178	474.76
412.555	478.83
412.933	479.06
413.31	479.73
413.687	491.48
414.065	471.15
414.442	484.7
414.819	495.33
415.197	482.22
415.574	480.86
415.951	489.9
416.328	512.95
416.705	499.39
417.082	508.88
417.46	499.85
417.837	523.12
418.214	519.51
418.591	526.96
418.967	521.54
419.344	515.21
419.721	537.13
420.098	553.18
420.475	533.29
420.852	530.35
421.228	542.1
421.605	537.36
421.982	531.03
422.358	545.27
422.735	584.36
423.111	571.03
423.488	572.39
423.864	562.89
424.241	559.96
424.617	572.61
424.994	564.93
425.37	595.66
425.746	584.82
426.123	588.2
426.499	600.41
426.875	577.13
427.251	617.58
427.627	616.23
428.003	620.29
428.379	621.88
428.756	616.45
429.132	620.97
429.507	631.14
429.883	635.89
430.259	657.81
430.635	646.73
431.011	646.28
431.387	660.07
431.763	673.4
432.138	643.34
432.514	689.45
432.89	700.74
433.265	694.87
433.641	674.3
434.016	719.5
434.392	713.4
434.767	712.95
435.143	731.7
435.518	717.69
435.894	737.13
436.269	744.58
436.644	743.23
437.02	775.32
437.395	760.86
437.77	759.95
438.145	788.2
438.52	777.13
438.895	768.54
439.271	789.56
439.646	791.36
440.021	818.48
440.395	819.61
440.77	807.63
441.145	822.77
441.52	813.96
441.895	836.79
442.27	857.58
442.645	834.3
443.019	853.96
443.394	836.11
443.769	821.87
444.143	842.66
444.518	870.68
444.892	872.49
445.267	886.05
445.641	886.73
446.016	875.43
446.39	908.65
446.764	875.88
447.139	905.71
447.513	918.82
447.887	915.88
448.262	914.52
448.636	933.05
449.01	940.06
449.384	955.65
449.758	925.82
450.132	945.71
450.506	952.26
450.88	955.88
451.254	975.31
451.628	969.21
452.002	1004.92
452.376	1012.83
452.75	1023.45
453.123	1052.6
453.497	1027.29
453.871	1051.92
454.244	1048.76
454.618	1062.54
454.992	1070.68
455.365	1066.61
455.739	1086.27
456.112	1081.3
456.486	1116.1
456.859	1137.34
457.232	1124.69
457.606	1149.32
457.979	1152.48
458.352	1161.75
458.725	1201.07
459.099	1198.81
459.472	1239.94
459.845	1242.2
460.218	1253.95
460.591	1255.08
460.964	1283.1
461.337	1338.02
461.71	1321.07
462.083	1338.69
462.456	1342.08
462.829	1364
463.201	1367.39
463.574	1418.47
463.947	1413.04
464.32	1445.13
464.692	1464.57
465.065	1421.4
465.438	1479.25
465.81	1516.09
466.183	1512.47
466.555	1553.83
466.928	1597.9
467.3	1589.76
467.672	1608.97
468.045	1652.36
468.417	1663.2
468.789	1694.62
469.161	1702.75
469.534	1740.04
469.906	1778
470.278	1820.49
470.65	1848.51
471.022	1825.91
471.394	1955.85
471.766	1933.48
472.138	1981.16
472.51	2018.45
472.882	2071.33
473.253	2118.56
473.625	2131.22
473.997	2189.74
474.369	2245.11
474.74	2247.14
475.112	2347.93
475.484	2370.53
475.855	2428.83
476.227	2485.1
476.598	2544.31
476.97	2597.19
477.341	2724.65
477.713	2723.06
478.084	2777.53
478.455	2895.94
478.827	2919.22
479.198	3046.22
479.569	3086.22
479.94	3202.15
480.311	3247.12
480.682	3358.3
481.053	3465.19
481.424	3538.86
481.795	3602.81
482.166	3724.62
482.537	3786.54
482.908	3913.32
483.279	3979.53
483.65	4084.61
484.021	4215.91
484.391	4279.41
484.762	4388.78
485.133	4482.79
485.503	4611.83
485.874	4753.97
486.244	4845.95
486.615	5019.95
486.985	5112.15
487.356	5205.48
487.726	5315.54
488.097	5477.34
488.467	5545.81
488.837	5685.7
489.207	5801.4
489.578	5938.57
489.948	6101.05
490.318	6247.04
490.688	6280.03
491.058	6436.41
491.428	6593.7
491.798	6737.2
492.168	6836.18
492.538	6965.44
492.908	7075.49
493.278	7243.85
493.648	7271.42
494.017	7529.27
494.387	7593.22
494.757	7686.55
495.126	7851.29
495.496	7980.55
495.866	8000.21
496.235	8126.31
496.605	8270.04
496.974	8344.61
497.344	8519.97
497.713	8561.55
498.082	8681.78
498.452	8810.14
498.821	8880.87
499.19	8959.28
499.559	9074.99
499.928	9135.32
500.298	9301.2
500.667	9357.69
501.036	9395.2
501.405	9615.54
501.774	9595.65
502.143	9717.68
502.512	9760.17
502.88	9930.33
503.249	9910.45
503.618	9930.11
503.987	10062.08
504.356	10116.54
504.724	10243.09
505.093	10267.72
505.462	10379.36
505.83	10431.34
506.199	10511.33
506.567	10664.55
506.936	10630.88
507.304	10763.08
507.672	10786.13
508.041	10816.86
508.409	10936.41
508.777	11011.43
509.145	11119.23
509.514	11061.15
509.882	11133.01
510.25	11196.29
510.618	11209.17
510.986	11295.27
511.354	11383.4
511.722	11469.95
512.09	11460.69
512.458	11371.42
512.826	11630.63
513.193	11685.54
513.561	11615.26
513.929	11698.42
514.297	11777.74
514.664	11803.05
515.032	11815.93
515.4	11949.49
515.767	11860.9
516.135	11945.19
516.502	11891.86
516.869	12015.7
517.237	12057.96
517.604	11949.94
517.972	12135.25
518.339	12044.17
518.706	12158.07
519.073	12160.56
519.44	12207.56
519.808	12318.74
520.175	12189.93
520.542	12371.4
520.909	12325.3
521.276	12379.53
521.643	12499.76
522.009	12495.46
522.376	12471.06
522.743	12496.14
523.11	12586.76
523.477	12580.88
523.843	12613.43
524.21	12783.36
524.577	12803.02
524.943	12742.01
525.31	12790.82
525.676	12846.87
526.043	12848.67
526.409	12852.29
526.776	12942.23
527.142	12907.65
527.508	12978.39
527.874	12999.63
528.241	12928.45
528.607	13038.5
528.973	13035.34
529.339	12923.25
529.705	13081.21
530.071	12987.43
530.437	13046.18
530.803	13018.39
531.169	13055
531.535	12984.04
531.901	13016.35
532.267	12951.5
532.632	13034.43
532.998	13001.89
533.364	12932.29
533.73	12973.64
534.095	13000.76
534.461	13022.45
534.826	13019.74
535.192	12937.26
535.557	12981.78
535.923	12918.05
536.288	12866.07
536.653	12875.11
537.019	12821.33
537.384	12840.99
537.749	12827.43
538.114	12737.26
538.479	12759.86
538.845	12723.25
539.21	12673.76
539.575	12661.11
539.94	12635.35
540.305	12679.86
540.67	12593.31
541.034	12540.21
541.399	12548.12
541.764	12503.82
542.129	12459.08
542.494	12450.94
542.858	12376.14
543.223	12347.9
543.587	12352.19
543.952	12321.91
544.316	12300.44
544.681	12198.97
545.045	12318.29
545.41	12280.55
545.774	12247.56
546.138	12085.53
546.503	12190.61
546.867	12119.2
547.231	12138.18
547.595	12017.06
547.959	12074.91
548.324	12045.08
548.688	11959.88
549.052	11980.9
549.416	11895.03
549.779	11827.91
550.143	11807.8
550.507	11839.66
550.871	11853.9
551.235	11747.01
551.599	11823.16
551.962	11783.16
552.326	11710.4
552.689	11724.86
553.053	11653.45
553.417	11563.51
553.78	11689.83
554.143	11585.2
554.507	11577.97
554.87	11560.8
555.234	11629.72
555.597	11471.31
555.96	11523.28
556.323	11535.49
556.686	11498.65
557.05	11527.35
557.413	11470.86
557.776	11482.16
558.139	11463.17
558.502	11453.46
558.865	11399.67
559.228	11466.11
559.59	11426.34
559.953	11403.29
560.316	11487.13
560.679	11406
561.041	11470.86
561.404	11508.37
561.767	11523.51
562.129	11469.95
562.492	11481.25
562.854	11476.51
563.217	11481.48
563.579	11442.38
563.941	11577.52
564.304	11456.17
564.666	11536.17
565.028	11443.29
565.39	11515.6
565.753	11525.77
566.115	11595.6
566.477	11534.81
566.839	11575.03
567.201	11535.26
567.563	11538.65
567.925	11601.47
568.287	11612.1
568.648	11541.36
569.01	11606.67
569.372	11605.54
569.734	11578.88
570.095	11624.52
570.457	11657.97
570.819	11626.78
571.18	11690.74
571.542	11731.64
571.903	11697.07
572.265	11704.07
572.626	11795.14
572.987	11753.34
573.349	11733.67
573.71	11797.63
574.071	11759.66
574.432	11787.01
574.794	11822.49
575.155	11780.68
575.516	11762.6
575.877	11807.34
576.238	11827.91
576.599	11763.73
576.96	11794.69
577.32	11802.83
577.681	11821.58
578.042	11830.85
578.403	11774.58
578.763	11789.04
579.124	11804.63
579.485	11803.96
579.845	11846.21
580.206	11766.22
580.566	11779.78
580.927	11761.7
581.287	11878.76
581.648	11840.34
582.008	11789.04
582.368	11758.31
582.728	11808.93
583.089	11771.19
583.449	11743.84
583.809	11787.01
584.169	11803.28
584.529	11704.3
584.889	11834.24
585.249	11683.51
585.609	11738.87
585.969	11785.42
586.329	11661.36
586.688	11749.72
587.048	11676.5
587.408	11705.88
587.768	11649.61
588.127	11702.26
588.487	11668.59
588.846	11827.91
589.206	11663.85
589.565	11601.02
589.925	11693.9
590.284	11621.14
590.643	11676.27
591.003	11692.55
591.362	11686.44
591.721	11660
592.08	11581.59
592.44	11672.21
592.799	11651.87
593.158	11569.84
593.517	11608.48
593.876	11615.03
594.235	11540.91
594.593	11550.85
594.952	11516.51
595.311	11499.1
595.67	11545.66
596.029	11646.22
596.387	11561.93
596.746	11642.38
597.104	11576.62
597.463	11499.56
597.822	11612.1
598.18	11592.21
598.538	11498.65
598.897	11624.07
599.255	11390.63
599.613	11680.12
599.972	11526.67
600.33	11656.84
600.688	11501.14
601.046	11558.99
601.404	11610.06
601.762	11577.75
602.12	11629.04
602.478	11580.46
602.836	11568.48
603.194	11518.54
603.552	11565.09
603.91	11486.68
604.268	11535.49
604.625	11491.2
604.983	11453.68
605.341	11494.36
605.698	11559.89
606.056	11570.51
606.413	11470.4
606.771	11533.45
607.128	11615.94
607.485	11486.45
607.843	11589.05
608.2	11581.59
608.557	11563.96
608.914	11671.3
609.272	11590.4
609.629	11645.09
609.986	11671.53
610.343	11547.92
610.7	11650.51
611.057	11633.34
611.414	11646.22
611.771	11700.91
612.127	11685.31
612.484	11678.53
612.841	11689.61
613.198	11711.75
613.554	11647.58
613.911	11725.09
614.267	11695.03
614.624	11641.93
614.98	11688.03
615.337	11734.58
615.693	11754.69
616.05	11727.12
616.406	11784.75
616.762	11742.94
617.118	11730.96
617.475	11785.2
617.831	11828.59
618.187	11849.6
618.543	11790.4
618.899	11829.94
619.255	11804.18
619.611	11759.44
619.967	11931.41
620.323	11825.42
620.678	11850.06
621.034	11866.55
621.39	11823.16
621.746	11791.07
622.101	11994.68
622.457	11866.55
622.812	11904.29
623.168	11961.47
623.523	11876.04
623.879	11963.72
624.234	11905.2
624.589	11912.88
624.945	11904.52
625.3	11912.43
625.655	11919.43
626.01	11913.1
626.365	11942.03
626.72	11910.62
627.075	11791.53
627.43	11801.47
627.785	11833.11
628.14	11867.68
628.495	11939.32
628.85	11786.55
629.205	11817.51
629.559	11914.01
629.914	11800.11
630.269	11760.11
630.623	11744.07
630.978	11755.82
631.332	11746.1
631.687	11772.54
632.041	11707.01
632.396	11754.46
632.75	11717.18
633.104	11683.28
633.459	11667.24
633.813	11695.48
634.167	11667.24
634.521	11651.87
634.875	11710.4
635.229	11635.82
635.583	11617.07
635.937	11607.58
636.291	11619.1
636.645	11585.66
636.999	11535.04
637.352	11566.22
637.706	11483.51
638.06	11522.83
638.413	11563.51
638.767	11460.01
639.121	11506.11
639.474	11353.8
639.828	11486.68
640.181	11402.38
640.534	11445.32
640.888	11419.56
641.241	11370.07
641.594	11348.83
641.947	11456.62
642.301	11334.81
642.654	11413.46
643.007	11434.93
643.36	11423.85
643.713	11353.57
644.066	11454.13
644.419	11246.91
644.771	11244.2
645.124	11203.29
645.477	11144.09
645.83	11047.82
646.182	11048.27
646.535	11045.56
646.888	11042.39
647.24	10955.62
647.593	11052.34
647.945	11025.9
648.298	10980.25
648.65	10992
649.002	10904.32
649.355	10950.87
649.707	11050.53
650.059	11016.18
650.411	11131.88
650.763	11135.05
651.115	11276.06
651.467	11197.64
651.819	11223.41
652.171	11257.3
652.523	11276.51
652.875	11226.34
653.227	11153.35
653.578	11279.45
653.93	11167.59
654.282	11150.86
654.633	11170.3
654.985	11165.33
655.337	11186.57
655.688	11290.75
656.039	11233.35
656.391	11130.3
656.742	11239.9
657.094	11204.2
657.445	11243.74
657.796	11180.02
658.147	11189.06
658.498	11177.53
658.849	11213.69
659.2	11183.18
659.551	11170.53
659.902	11234.25
660.253	11231.09
660.604	11169.17
660.955	11176.18
661.306	11275.38
661.656	11258.88
662.007	11242.39
662.358	11231.54
662.708	11251.65
663.059	11260.24
663.409	11226.57
663.76	11269.51
664.11	11273.12
664.461	11271.77
664.811	11268.6
665.161	11209.62
665.511	11198.55
665.862	11245.55
666.212	11280.81
666.562	11265.89
666.912	11229.51
667.262	11193.12
667.612	11284.42
667.962	11290.07
668.312	11215.95
668.662	11307.92
669.011	11278.32
669.361	11275.38
669.711	11270.86
670.06	11231.77
670.41	11253.01
670.76	11251.43
671.109	11264.31
671.459	11194.48
671.808	11274.48
672.157	11230.41
672.507	11208.72
672.856	11236.06
673.205	11177.53
673.554	11188.38
673.904	11118.55
674.253	11210.52
674.602	11178.66
674.951	11035.16
675.3	10947.93
675.649	11159
675.998	11098.21
676.346	11177.98
676.695	11107.48
677.044	11021.83
677.393	11050.53
677.741	11055.05
678.09	11072.45
678.438	11050.98
678.787	11066.8
679.135	10987.93
679.484	11013.47
679.832	11035.16
680.181	10933.7
680.529	10937.54
680.877	10958.33
681.225	10866.13
681.573	10911.32
681.922	10860.25
682.27	10879.01
682.618	10834.26
682.966	10876.97
683.314	10889.85
683.661	10776.86
684.009	10728.73
684.357	10680.82
684.705	10688.5
685.053	10689.86
685.4	10710.2
685.748	10566.02
686.095	10575.51
686.443	10559.69
686.79	10622.52
687.138	10583.2
687.485	10588.17
687.832	10481.5
688.18	10510.88
688.527	10438.12
688.874	10471.33
689.221	10405.57
689.568	10368.06
689.915	10351.11
690.262	10334.84
690.609	10338.23
690.956	10281.28
691.303	10217.1
691.65	10193.15
691.997	10182.98
692.344	10104.34
692.69	10097.33
693.037	10094.62
693.383	10036.77
693.73	9972.14
694.077	9959.48
694.423	9990.67
694.769	9929.2
695.116	9877.68
695.462	9885.36
695.808	9870.45
696.155	9834.74
696.501	9767.17
696.847	9745.7
697.193	9737.57
697.539	9689.66
697.885	9667.74
698.231	9676.1
698.577	9629.78
698.923	9585.03
699.269	9536.44
699.614	9495.09
699.96	9404.24
700.306	9338.94
700.651	9339.61
700.997	9284.02
701.342	9353.85
701.688	9304.13
702.033	9224.59
702.379	9209.67
702.724	9153.18
703.069	9217.81
703.415	9090.35
703.76	9049.68
704.105	9026.4
704.45	9077.25
704.795	9031.6
705.14	8981.66
705.485	8896.69
705.83	8943.47
706.175	8903.01
706.52	8858.95
706.865	8813.75
707.209	8800.64
707.554	8793.41
707.899	8775.33
708.243	8714.32
708.588	8724.26
708.932	8656.02
709.277	8614.21
709.621	8673.42
709.966	8586.41
710.31	8628.45
710.654	8476.59
710.998	8572.85
711.342	8477.04
711.687	8529.69
712.031	8447.21
712.375	8413.76
712.719	8447.21
713.063	8368.79
713.407	8423.25
713.75	8392.07
714.094	8413.08
714.438	8343.71
714.782	8383.71
715.125	8314.33
715.469	8287.66
715.812	8322.01
716.156	8269.13
716.499	8231.62
716.843	8260.32
717.186	8271.62
717.53	8223.94
717.873	8236.82
718.216	8203.82
718.559	8171.51
718.902	8190.04
719.246	8219.64
719.589	8173.77
719.932	8146.65
720.275	8150.49
720.617	8132.87
720.96	8120.89
721.303	8103.71
721.646	8100.55
721.989	8052.19
722.331	8112.53
722.674	8013.09
723.016	8129.93
723.359	8057.39
723.701	8038.63
724.044	7987.56
724.386	7981.91
724.729	8073.21
725.071	8021.91
725.413	8043.6
725.755	7980.33
726.097	7956.82
726.439	7908.24
726.782	7917.5
727.124	7986.2
727.465	7925.64
727.807	7906.2
728.149	7935.36
728.491	7884.51
728.833	7958.86
729.175	7939.88
729.516	7966.77
729.858	7919.54
730.199	7930.84
730.541	7871.86
730.882	7883.61
731.224	7845.87
731.565	7849.26
731.906	7887.67
732.248	7882.93
732.589	7903.94
732.93	7882.48
733.271	7863.49
733.612	7923.83
733.953	7922.7
734.294	7847
734.635	7900.78
734.976	7861.69
735.317	7883.15
735.658	7884.28
735.999	7904.85
736.339	7863.04
736.68	7946.43
737.021	7896.26
737.361	7857.84
737.702	7920.67
738.042	7885.87
738.383	7876.15
738.723	7916.6
739.063	7891.74
739.404	7932.87
739.744	7922.48
740.084	7956.82
740.424	7985.98
740.764	8020.55
741.104	7981.23
741.444	7909.82
741.784	7991.85
742.124	8043.6
742.464	8052.19
742.804	8013.32
743.143	8070.04
743.483	8017.61
743.823	8117.05
744.162	8073.21
744.502	8123.6
744.841	8189.36
745.181	8248.79
745.52	8181.9
745.86	8266.2
746.199	8283.14
746.538	8346.42
746.877	8357.94
747.216	8406.98
747.556	8420.54
747.895	8512.06
748.234	8557.03
748.573	8568.33
748.911	8623.7
749.25	8696.47
749.589	8707.99
749.928	8816.92
750.267	8846.52
750.605	8915.67
750.944	8995.22
751.283	9038.6
751.621	9158.15
751.96	9215.77
752.298	9268.88
752.636	9416.9
752.975	9448.76
753.313	9481.3
753.651	9643.56
753.989	9756.55
754.327	9818.92
754.666	9930.56
755.004	10038.13
755.342	10188.63
755.679	10369.87
756.017	10348.63
756.355	10554.27
756.693	10585.23
757.031	10810.53
757.368	10822.51
757.706	11040.13
758.044	11220.24
758.381	11365.32
758.719	11418.88
759.056	11608.48
759.394	11730.28
759.731	11799.21
760.068	12050.5
760.405	12170.73
760.743	12271.29
761.08	12544.05
761.417	12554.67
761.754	12810.03
762.091	12892.74
762.428	13109.23
762.765	13132.73
763.102	13444.14
763.438	13506.96
763.775	13639.84
764.112	13951.02
764.449	14014.07
764.785	14166.15
765.122	14285.47
765.458	14313.95
765.795	14479.59
766.131	14670.32
766.467	14805.46
766.804	14948.51
767.14	15056.53
767.476	15201.83
767.812	15326.35
768.148	15487.7
768.485	15539
768.821	15625.1
769.157	15777.64
769.492	15843.85
769.828	16026.22
770.164	16092.2
770.5	16157.74
770.836	16241.35
771.171	16342.59
771.507	16513.66
771.842	16484.96
772.178	16594.11
772.513	16694.22
772.849	16755.01
773.184	16858.06
773.519	16952.52
773.855	16938.06
774.19	16958.4
774.525	17168.11
774.86	17210.37
775.195	17269.57
775.53	17291.72
775.865	17278.16
776.2	17396.58
776.535	17251.27
776.87	17313.19
777.205	17396.8
777.539	17428.21
777.874	17508.44
778.209	17502.34
778.543	17523.13
778.878	17609.23
779.212	17705.72
779.547	17591.6
779.881	17755.21
780.215	17677.93
780.55	17653.29
780.884	17633.63
781.218	17655.1
781.552	17722.9
781.886	17622.11
782.22	17712.73
782.554	17701.43
782.888	17670.24
783.222	17583.69
783.556	17549.79
783.889	17614.65
784.223	17544.6
784.557	17532.39
784.89	17651.71
785.224	17643.8
785.557	17507.53
785.891	17504.14
786.224	17593.18
786.558	17576.46
786.891	17475.9
787.224	17383.02
787.557	17402.23
787.891	17416.24
788.224	17471.6
788.557	17418.04
788.89	17373.07
789.223	17432.96
789.556	17256.24
789.888	17371.49
790.221	17270.25
790.554	17121.1
790.887	17111.16
791.219	17224.83
791.552	17058.73
791.884	17082.69
792.217	17079.3
792.549	17047.43
792.882	16941
793.214	16963.37
793.546	17008.79
793.879	16778.51
794.211	16786.2
794.543	16925.63
794.875	16805.63
795.207	16898.06
795.539	16855.12
795.871	16821.68
796.203	16701.68
796.535	16566.09
796.867	16624.62
797.198	16508.24
797.53	16528.35
797.862	16386.89
798.193	16542.81
798.525	16428.24
798.856	16459.2
799.188	16277.51
799.519	16208.36
799.85	16122.03
800.182	16255.14
800.513	16263.72
800.844	16073.9
801.175	16154.35
801.506	16101.24
801.837	16000.45
802.168	15889.72
802.499	16032.77
802.83	15943.06
803.161	15918.42
803.491	15974.92
803.822	15878.2
804.153	15777.64
804.483	15703.06
804.814	15623.29
805.145	15654.7
805.475	15612.44
805.805	15564.53
806.136	15604.08
806.466	15594.59
806.796	15545.1
807.126	15346.91
807.457	15388.27
807.787	15401.37
808.117	15340.81
808.447	15303.98
808.777	15317.76
809.107	15326.8
809.436	15223.75
809.766	15228.72
810.096	15067.6
810.426	15085.45
810.755	15137.65
811.085	15056.98
811.414	14973.36
811.744	14956.64
812.073	14990.76
812.403	14926.13
812.732	14812.92
813.061	14856.53
813.39	14745.8
813.719	14812.92
814.049	14825.8
814.378	14743.99
814.707	14698.57
815.036	14688.4
815.365	14730.66
815.693	14597.33
816.022	14629.64
816.351	14527.5
816.68	14396.66
817.008	14592.58
817.337	14448.18
817.665	14335.87
817.994	14444.11
818.322	14340.61
818.651	14251.35
818.979	14260.16
819.307	14319.82
819.636	14271.01
819.964	14166.38
820.292	14253.61
820.62	14282.08
820.948	14222.87
821.276	14221.52
821.604	14239.6
821.932	14212.03
822.259	14248.18
822.587	14242.54
822.915	14145.59
823.243	14263.1
823.57	14197.34
823.898	14231.01
824.225	14103.1
824.553	14167.06
824.88	14196.89
825.207	14252.03
825.535	14240.5
825.862	14215.64
826.189	14177.68
826.516	14163.22
826.843	14199.6
827.17	14217.68
827.497	14163.89
827.824	14161.18
828.151	14246.38
828.478	14228.3
828.805	14202.99
829.131	14146.49
829.458	14202.08
829.785	14132.71
830.111	14190.79
830.438	14240.5
830.764	14185.81
831.09	14169.99
831.417	14122.99
831.743	14186.72
832.069	14204.12
832.395	14121.41
832.722	14252.03
833.048	14141.75
833.374	14163.89
833.7	14110.79
834.026	13995.31
834.351	14170.67
834.677	14068.53
835.003	14042.09
835.329	14099.71
835.654	13987.17
835.98	14033.73
836.306	14059.72
836.631	13947.18
836.956	14050.9
837.282	13984.69
837.607	13914.18
837.932	14011.58
838.258	13977.46
838.583	13877.12
838.908	13924.58
839.233	13840.29
839.558	13827.18
839.883	13731.81
840.208	13743.34
840.533	13713.96
840.858	13690.23
841.182	13726.62
841.507	13765.94
841.832	13681.65
842.156	13657.69
842.481	13542.21
842.805	13576.56
843.13	13483.23
843.454	13546.51
843.778	13467.87
844.103	13379.51
844.427	13413.4
844.751	13414.31
845.075	13366.85
845.399	13351.94
845.723	13281.43
846.047	13230.13
846.371	13137.48
846.695	13152.85
847.019	13085.5
847.343	12941.33
847.666	12879.86
847.99	12793.31
848.313	12915.34
848.637	12792.4
848.96	12813.19
849.284	12799.86
849.607	12614.78
849.931	12618.62
850.254	12528.91
850.577	12487.55
850.9	12424.28
851.223	12427.44
851.546	12320.33
851.869	12293.66
852.192	12347.67
852.515	12203.94
852.838	12114
853.161	12203.72
853.483	12117.39
853.806	12065.42
854.129	11943.16
854.451	11974.35
854.774	11872.65
855.096	11864.74
855.419	11814.12
855.741	11838.08
856.063	11763.28
856.385	11702.49
856.708	11708.14
857.03	11637.41
857.352	11599.89
857.674	11608.03
857.996	11531.42
858.318	11524.41
858.64	11511.99
858.961	11384.53
859.283	11433.57
859.605	11307.92
859.926	11385.21
860.248	11392.89
860.57	11279.9
860.891	11294.82
861.212	11250.07
861.534	11194.48
861.855	11175.95
862.176	11201.26
862.498	11123.97
862.819	11210.75
863.14	11077.42
863.461	11169.4
863.782	11075.16
864.103	11112.67
864.424	11034.71
864.745	11021.38
865.065	10980.25
865.386	10986.35
865.707	10928.27
866.027	10917.65
866.348	10919.01
866.668	10929.63
866.989	10879.46
867.309	10842.17
867.63	10816.41
867.95	10817.77
868.27	10756.3
868.59	10746.36
868.91	10760.82
869.23	10794.26
869.55	10682.63
869.87	10708.84
870.19	10768.95
870.51	10700.48
870.83	10619.35
871.15	10700.26
871.469	10664.1
871.789	10651.44
872.109	10578.22
872.428	10556.98
872.748	10633.36
873.067	10586.13
873.386	10539.81
873.706	10618.9
874.025	10492.13
874.344	10439.92
874.663	10518.79
874.982	10410.77
875.301	10442.18
875.62	10446.7
875.939	10389.76
876.258	10347.72
876.577	10372.58
876.896	10328.29
877.214	10264.56
877.533	10309.98
877.852	10273.15
878.17	10310.66
878.489	10355.18
878.807	10358.57
879.125	10255.97
879.444	10291.68
879.762	10239.7
880.08	10196.99
880.398	10085.58
880.716	10194.96
881.034	10172.81
881.352	10122.19
881.67	10078.12
881.988	10036.77
882.306	10054.85
882.624	10024.34
882.941	10014.4
883.259	9921.97
883.577	10007.39
883.894	9866.83
884.212	9920.61
884.529	9881.07
884.846	9827.96
885.164	9779.15
885.481	9821.18
885.798	9835.19
886.115	9781.41
886.432	9705.25
886.75	9681.53
887.067	9766.72
887.383	9653.5
887.7	9673.84
888.017	9599.49
888.334	9625.93
888.651	9587.29
888.967	9528.76
889.284	9523.79
889.6	9538.7
889.917	9433.62
890.233	9514.75
890.55	9397.46
890.866	9388.43
891.182	9379.61
891.498	9412.83
891.815	9324.92
892.131	9305.04
892.447	9249.22
892.763	9229.11
893.079	9225.49
893.395	9213.06
893.71	9193.4
894.026	9132.16
894.342	9107.3
894.657	9038.83
894.973	9056
895.289	8936.69
895.604	9029.11
895.92	8934.2
896.235	8916.8
896.55	8920.19
896.865	8849.23
897.181	8859.4
897.496	8823.02
897.811	8783.02
898.126	8780.76
898.441	8696.69
898.756	8684.26
899.071	8626.19
899.386	8579.18
899.7	8564.72
900.015	8543.02
900.33	8496.02
900.644	8490.6
900.959	8484.95
901.273	8419.64
901.588	8343.71
901.902	8392.29
902.216	8281.11
902.531	8312.75
902.845	8281.11
903.159	8171.51
903.473	8205.41
903.787	8156.14
904.101	8134.9
904.415	8133.09
904.729	8105.3
905.042	8026.88
905.356	7970.16
905.67	8012.19
905.984	7937.39
906.297	7984.39
906.611	7903.72
906.924	7894.45
907.237	7795.92
907.551	7742.59
907.864	7782.59
908.177	7781.91
908.491	7691.07
908.804	7703.27
909.117	7601.35
909.43	7658.3
909.743	7597.51
910.056	7555.71
910.368	7519.1
910.681	7456.72
910.994	7494.46
911.307	7423.96
911.619	7321.59
911.932	7369.27
912.244	7280.91
912.557	7246.33
912.869	7283.4
913.181	7241.14
913.494	7217.41
913.806	7135.6
914.118	7122.95
914.43	7070.29
914.742	7120.46
915.054	7108.49
915.366	7086.79
915.678	7009.73
915.99	6937.42
916.302	6994.82
916.613	6923.18
916.925	6964.76
917.236	6944.87
917.548	6882.73
917.859	6870.98
918.171	6809.96
918.482	6777.65
918.794	6715.28
919.105	6692.45
919.416	6695.16
919.727	6694.94
920.038	6641.15
920.349	6553.47
920.66	6562.06
920.971	6540.59
921.282	6528.84
921.593	6477.32
921.903	6439.58
922.214	6461.95
922.525	6438.67
922.835	6390.09
923.146	6358
923.456	6364.32
923.767	6322.29
924.077	6254.95
924.387	6241.39
924.697	6233.71
925.008	6258.11
925.318	6149.64
925.628	6173.14
925.938	6153.93
926.248	6160.49
926.558	6124.56
926.867	6033.03
927.177	6070.55
927.487	6012.02
927.796	5965.24
928.106	5951.68
928.416	5900.61
928.725	5903.32
929.034	5870.1
929.344	5917.78
929.653	5864.45
929.962	5803.66
930.271	5758.24
930.581	5762.53
930.89	5713.72
931.199	5706.04
931.508	5689.77
931.817	5650.9
932.125	5680.27
932.434	5624.68
932.743	5600.95
933.051	5578.58
933.36	5566.61
933.669	5535.42
933.977	5548.3
934.286	5471.01
934.594	5497.23
934.902	5444.8
935.21	5385.37
935.519	5392.37
935.827	5406.16
936.135	5358.47
936.443	5311.47
936.751	5277.57
937.059	5329.55
937.367	5270.12
937.674	5269.44
937.982	5227.63
938.29	5194.86
938.597	5190.8
938.905	5163.23
939.213	5161.42
939.52	5101.08
939.827	5135.66
940.135	5067.18
940.442	5031.25
940.749	5020.4
941.056	5021.08
941.363	5031.03
941.67	4974.76
941.977	4942.44
942.284	4875.32
942.591	4852.95
942.898	4881.43
943.205	4891.59
943.511	4825.38
943.818	4857.7
944.125	4778.83
944.431	4746.51
944.738	4816.79
945.044	4739.51
945.35	4687.31
945.657	4650.47
945.963	4648.44
946.269	4628.32
946.575	4651.15
946.881	4604.82
947.187	4613.41
947.493	4607.76
947.799	4547.2
948.105	4523.02
948.41	4520.08
948.716	4573.86
949.022	4499.51
949.327	4474.2
949.633	4387.65
949.938	4388.56
950.244	4360.99
950.549	4397.37
950.854	4382.91
951.16	4369.35
951.465	4342.68
951.77	4276.02
952.075	4289.58
952.38	4299.52
952.685	4228.34
952.99	4196.7
953.294	4222.01
953.599	4199.86
953.904	4197.38
954.209	4192.86
954.513	4151.5
954.818	4130.03
955.122	4104.27
955.426	4134.1
955.731	4109.69
956.035	4064.72
956.339	4057.72
956.643	4070.6
956.948	3973.43
957.252	4001.9
957.556	4018.62
957.86	3977.04
958.163	4022.92
958.467	3946.31
958.771	3944.95
959.075	3904.73
959.378	3841.9
959.682	3870.83
959.985	3854.11
960.289	3864.28
960.592	3825.18
960.896	3851.85
961.199	3801.45
961.502	3725.98
961.805	3758.97
962.108	3776.82
962.411	3699.76
962.714	3710.38
963.017	3691.63
963.32	3678.75
963.623	3610.72
963.926	3664.73
964.228	3621.57
964.531	3632.42
964.833	3611.4
965.136	3548.8
965.438	3570.05
965.741	3542.7
966.043	3553.32
966.345	3528.47
966.648	3483.27
966.95	3512.42
967.252	3463.38
967.554	3429.94
967.856	3417.73
968.158	3425.64
968.46	3382.71
968.761	3362.82
969.063	3381.58
969.365	3377.28
969.666	3342.03
969.968	3326.66
970.269	3304.97
970.571	3327.12
970.872	3312.2
971.174	3270.85
971.475	3256.38
971.776	3212.54
972.077	3243.73
972.378	3208.93
972.679	3208.47
972.98	3211.19
973.281	3153.56
973.582	3154.92
973.883	3183.16
974.183	3150.17
974.484	3115.6
974.785	3102.04
975.085	3107.46
975.386	3087.12
975.686	3089.83
975.986	3049.84
976.287	3060.68
976.587	3003.06
976.887	3025.88
977.187	3030.4
977.487	2980.68
977.787	2953.79
978.087	2954.7
978.387	2938.43
978.687	2937.3
978.987	2918.31
979.286	2914.25
979.586	2878.99
979.885	2890.07
980.185	2914.02
980.484	2841.48
980.784	2871.08
981.083	2854.13
981.382	2823.17
981.682	2827.24
981.981	2827.02
982.28	2803.06
982.579	2750.86
982.878	2733.23
983.177	2754.25
983.475	2731.2
983.774	2712.22
984.073	2691.65
984.372	2664.53
984.67	2693.46
984.969	2647.81
985.267	2669.96
985.566	2649.62
985.864	2646.46
986.162	2616.85
986.461	2629.28
986.759	2598.55
987.057	2573.01
987.355	2566.68
987.653	2531.2
987.951	2552.45
988.249	2557.64
988.547	2523.75
988.844	2504.09
989.142	2518.32
989.44	2483.75
989.737	2484.43
990.035	2474.26
990.332	2477.87
990.63	2436.74
990.927	2449.85
991.224	2439.46
991.521	2422.05
991.819	2403.07
992.116	2415.73
992.413	2376.86
992.71	2384.77
993.006	2386.8
993.303	2381.83
993.6	2370.53
993.897	2335.96
994.193	2319.01
994.49	2315.62
994.787	2312.68
995.083	2297.09
995.379	2275.17
995.676	2281.04
995.972	2263.64
996.268	2232
996.565	2241.95
996.861	2233.13
997.157	2215.73
997.453	2190.65
997.749	2197.43
998.044	2173.25
998.34	2182.74
998.636	2131.67
998.932	2104.32
999.227	2142.06
999.523	2121.95
999.818	2112.91
1000.114	2107.26
1000.409	2080.6
1000.704	2070.43
1001	2097.32
1001.295	2048.96
1001.59	2058.9
1001.885	2035.4
1002.18	2047.83
1002.475	2012.12
1002.77	2029.52
1003.065	2002.4
1003.359	1989.75
1003.654	1957.43
1003.949	1966.25
1004.243	1961.05
1004.538	1917.66
1004.832	1911.56
1005.127	1918.79
1005.421	1874.05
1005.715	1878.79
1006.009	1886.7
1006.304	1871.56
1006.598	1867.49
1006.892	1873.59
1007.186	1843.09
1007.48	1827.72
1007.773	1847.15
1008.067	1818.46
1008.361	1783.88
1008.655	1793.14
1008.948	1798.12
1009.242	1759.02
1009.535	1756.54
1009.829	1762.86
1010.122	1780.04
1010.415	1716.99
1010.708	1715.86
1011.001	1704.79
1011.295	1711.57
1011.588	1691
1011.881	1665.24
1012.173	1670.21
1012.466	1666.82
1012.759	1653.04
1013.052	1670.89
1013.344	1617.1
1013.637	1612.58
1013.93	1631.57
1014.222	1587.5
1014.514	1578.91
1014.807	1574.17
1015.099	1587.5
1015.391	1577.78
1015.683	1590.89
1015.976	1566.48
1016.268	1537.11
1016.56	1521.06
1016.851	1539.59
1017.143	1512.25
1017.435	1503.89
1017.727	1512.7
1018.018	1479.25
1018.31	1479.93
1018.602	1488.52
1018.893	1449.2
1019.185	1464.79
1019.476	1435.64
1019.767	1474.28
1020.058	1432.93
1020.35	1395.64
1020.641	1413.95
1020.932	1386.83
1021.223	1383.44
1021.514	1382.53
1021.804	1357
1022.095	1350.9
1022.386	1355.64
1022.677	1328.3
1022.967	1303.67
1023.258	1324.91
1023.548	1334.63
1023.839	1298.47
1024.129	1321.29
1024.419	1296.66
1024.709	1298.47
1025	1285.59
1025.29	1268.86
1025.58	1252.14
1025.87	1268.19
1026.16	1239.49
1026.449	1237.68
1026.739	1234.06
1027.029	1215.53
1027.319	1232.03
1027.608	1210.34
1027.898	1211.01
1028.187	1198.13
1028.477	1163.78
1028.766	1184.8
1029.055	1178.02
1029.344	1162.65
1029.634	1146.61
1029.923	1133.05
1030.212	1110.23
1030.501	1152.03
1030.79	1109.55
1031.078	1111.35
1031.367	1097.8
1031.656	1097.12
1031.945	1104.35
1032.233	1074.07
1032.522	1079.27
1032.81	1086.5
1033.099	1073.16
1033.387	1060.73
1033.675	1037.46
1033.963	1040.62
1034.251	1036.33
1034.54	1034.97
1034.828	1037.68
1035.116	1039.94
1035.403	1019.38
1035.691	1027.97
1035.979	1032.94
1036.267	988.65
1036.554	1010.57
1036.842	977.57
1037.129	964.01
1037.417	985.03
1037.704	968.53
1037.992	962.43
1038.279	943
1038.566	949.78
1038.853	949.78
1039.14	949.78
