Data from hue_340_FLMS001491_75.txt Node
Date: Mon Feb 06 15:43:35 GMT 2017
User: dcchb
Spectrometer: FLMS00149
Trigger mode: 0
Integration Time (sec): 2.000000E-2
Scans to average: 10
Electric dark correction enabled: true
Nonlinearity correction enabled: false
Boxcar width: 0
XAxis mode: Wavelengths
Number of Pixels in Spectrum: 2048
>>>>>Begin Spectral Data<<<<<
341.393	-9.05
341.776	-9.05
342.16	-9.05
342.543	-57.87
342.927	-65.55
343.31	-56.74
343.693	-83.63
344.077	-48.15
344.46	-56.51
344.843	-45.44
345.226	-45.44
345.61	-29.62
345.993	-20.13
346.376	-1.37
346.759	-15.15
347.142	25.07
347.525	51.28
347.908	57.84
348.291	59.65
348.674	96.93
349.057	111.4
349.44	112.3
349.823	129.02
350.206	153.88
350.588	204.73
350.971	203.82
351.354	235.46
351.737	226.87
352.119	220.55
352.502	261.45
352.884	269.58
353.267	256.48
353.65	299.19
354.032	306.19
354.414	301.9
354.797	296.7
355.179	310.49
355.562	315.91
355.944	303.03
356.326	332.41
356.709	325.63
357.091	348.9
357.473	329.24
357.855	349.58
358.238	342.12
358.62	315.91
359.002	315.23
359.384	320.66
359.766	340.99
360.148	352.97
360.53	342.12
360.912	317.94
361.294	331.5
361.676	329.24
362.057	329.24
362.439	337.6
362.821	299.41
363.203	318.85
363.584	322.01
363.966	332.18
364.348	322.69
364.729	343.25
365.111	330.15
365.493	322.92
365.874	313.2
366.256	305.97
366.637	317.72
367.019	312.07
367.4	305.51
367.781	316.59
368.163	331.95
368.544	305.29
368.925	301.67
369.306	304.61
369.688	318.85
370.069	309.36
370.45	325.85
370.831	312.07
371.212	321.79
371.593	289.24
371.974	303.03
372.355	298.96
372.736	311.62
373.117	320.88
373.498	290.83
373.879	328.79
374.26	301.67
374.641	322.01
375.021	309.81
375.402	318.4
375.783	317.27
376.163	338.73
376.544	324.5
376.925	318.85
377.305	327.21
377.686	325.18
378.066	344.38
378.447	312.75
378.827	327.21
379.208	321.33
379.588	338.28
379.968	325.4
380.349	329.02
380.729	326.53
381.109	336.47
381.489	352.29
381.87	349.81
382.25	348
382.63	325.63
383.01	330.82
383.39	340.32
383.77	355.68
384.15	335.57
384.53	341.67
384.91	349.58
385.29	334.67
385.67	331.5
386.049	347.77
386.429	333.76
386.809	354.78
387.189	356.36
387.568	342.12
387.948	342.8
388.328	340.32
388.707	367.43
389.087	358.85
389.466	364.95
389.846	356.36
390.225	366.3
390.605	351.39
390.984	348
391.363	366.98
391.743	352.07
392.122	378.96
392.501	402.46
392.881	362.01
393.26	369.92
393.639	384.16
394.018	360.88
394.397	353.87
394.776	362.01
395.155	388.9
395.534	381.9
395.913	365.85
396.292	363.59
396.671	380.77
397.05	391.39
397.429	396.13
397.808	378.96
398.186	369.02
398.565	386.64
398.944	378.73
399.323	387.55
399.701	389.81
400.08	388.45
400.458	409.69
400.837	397.04
401.215	411.73
401.594	413.99
401.972	406.98
402.351	420.54
402.729	396.13
403.107	380.99
403.486	413.99
403.864	421.67
404.242	417.83
404.62	418.51
404.999	410.14
405.377	423.7
405.755	456.47
406.133	434.78
406.511	438.62
406.889	432.97
407.267	426.87
407.645	441.56
408.023	432.52
408.401	439.07
408.779	430.26
409.156	437.04
409.534	447.66
409.912	456.7
410.29	475.45
410.667	439.97
411.045	474.78
411.422	449.92
411.8	481.1
412.178	490.59
412.555	489.24
412.933	482.69
413.31	498.73
413.687	490.82
414.065	504.83
414.442	515.9
414.819	537.37
415.197	526.07
415.574	526.3
415.951	514.1
416.328	521.55
416.705	534.21
417.082	546.41
417.46	540.54
417.837	563.13
418.214	542.57
418.591	576.69
418.967	582.57
419.344	564.94
419.721	576.92
420.098	577.15
420.475	568.11
420.852	592.06
421.228	584.15
421.605	582.12
421.982	577.82
422.358	602.91
422.735	620.53
423.111	616.01
423.488	615.56
423.864	620.99
424.241	631.61
424.617	622.34
424.994	631.61
425.37	622.12
425.746	661.66
426.123	649.01
426.499	648.78
426.875	651.72
427.251	667.99
427.627	661.89
428.003	665.96
428.379	682.91
428.756	696.01
429.132	687.2
429.507	708.89
429.883	718.16
430.259	716.58
430.635	744.6
431.011	710.93
431.387	733.75
431.763	750.7
432.138	757.03
432.514	740.53
432.89	753.41
433.265	778.04
433.641	788.67
434.016	803.58
434.392	791.15
434.767	805.84
435.143	792.28
435.518	830.7
435.894	804.48
436.269	830.02
436.644	841.55
437.02	862.56
437.395	840.19
437.77	857.14
438.145	874.54
438.52	858.72
438.895	860.98
439.271	886.29
439.646	888.1
440.021	904.14
440.395	899.4
440.77	895.33
441.145	872.28
441.52	891.49
441.895	927.19
442.27	919.74
442.645	917.02
443.019	935.1
443.394	936.46
443.769	939.85
444.143	947.31
444.518	961.99
444.892	960.41
445.267	964.71
445.641	972.84
446.016	997.7
446.39	972.84
446.764	986.17
447.139	976.46
447.513	988.43
447.887	985.72
448.262	1000.86
448.636	1003.35
449.01	1001.09
449.384	1010.35
449.758	1007.19
450.132	1037.47
450.506	1023.69
450.88	997.7
451.254	1046.51
451.628	1042.22
452.002	1065.04
452.376	1060.75
452.75	1070.47
453.123	1066.85
453.497	1086.28
453.871	1108.21
454.244	1129.67
454.618	1087.87
454.992	1136.91
455.365	1129
455.739	1142.78
456.112	1169.67
456.486	1158.37
456.859	1174.19
457.232	1188.66
457.606	1167.86
457.979	1191.59
458.352	1201.54
458.725	1193.85
459.099	1233.85
459.472	1233.4
459.845	1246.05
460.218	1251.03
460.591	1264.36
460.964	1277.01
461.337	1306.17
461.71	1340.74
462.083	1316.79
462.456	1336
462.829	1355.2
463.201	1349.33
463.574	1344.36
463.947	1356.56
464.32	1357.92
464.692	1415.09
465.065	1382.32
465.438	1445.82
465.81	1463
466.183	1447.86
466.555	1472.26
466.928	1498.03
467.3	1499.38
467.672	1496.22
468.045	1525.6
468.417	1541.64
468.789	1565.82
469.161	1564.01
469.534	1580.51
469.906	1614.86
470.278	1625.71
470.65	1668.19
471.022	1661.41
471.394	1701.18
471.766	1721.3
472.138	1732.82
472.51	1745.93
472.882	1767.4
473.253	1795.19
473.625	1807.62
473.997	1860.73
474.369	1853.95
474.74	1920.61
475.112	1907.51
475.484	1946.6
475.855	1942.99
476.227	2007.62
476.598	2018.24
476.97	2041.97
477.341	2088.07
477.713	2096.65
478.084	2077.9
478.455	2154.28
478.827	2184.79
479.198	2226.82
479.569	2242.19
479.94	2307.5
480.311	2322.64
480.682	2345.69
481.053	2423.42
481.424	2442.86
481.795	2448.51
482.166	2508.17
482.537	2532.8
482.908	2560.37
483.279	2589.97
483.65	2633.59
484.021	2664.55
484.391	2659.12
484.762	2735.96
485.133	2752.91
485.503	2779.57
485.874	2842.17
486.244	2891.44
486.615	2939.34
486.985	2961.26
487.356	3056.85
487.726	3029.28
488.097	3073.58
488.467	3090.98
488.837	3149.73
489.207	3170.75
489.578	3217.98
489.948	3276.06
490.318	3308.15
490.688	3300.69
491.058	3357.41
491.428	3401.03
491.798	3411.87
492.168	3482.15
492.538	3504.53
492.908	3594.69
493.278	3622.72
493.648	3626.33
494.017	3623.85
494.387	3660.68
494.757	3689.15
495.126	3774.12
495.496	3763.5
495.866	3764.86
496.235	3814.8
496.605	3873.56
496.974	3866.78
497.344	3921.24
497.713	3912.2
498.082	3925.98
498.452	3959.66
498.821	3985.87
499.19	3998.07
499.559	4032.2
499.928	4071.29
500.298	4078.52
500.667	4114.23
501.036	4062.03
501.405	4127.33
501.774	4154.68
502.143	4235.58
502.512	4201.46
502.88	4218.18
503.249	4219.31
503.618	4251.4
503.987	4334.56
504.356	4334.79
504.724	4336.82
505.093	4311.51
505.462	4349.48
505.83	4355.35
506.199	4416.14
506.567	4468.57
506.936	4418.4
507.304	4473.31
507.672	4492.75
508.041	4517.38
508.409	4523.71
508.777	4551.96
509.145	4618.4
509.514	4566.65
509.882	4582.24
510.25	4596.48
510.618	4631.73
510.986	4646.42
511.354	4714.44
511.722	4675.8
512.09	4763.02
512.458	4735.45
512.826	4781.33
513.193	4787.2
513.561	4804.15
513.929	4851.84
514.297	4804.61
514.664	4883.25
515.032	4882.34
515.4	4927.09
515.767	4913.53
516.135	4892.51
516.502	4941.55
516.869	5030.81
517.237	5005.28
517.604	4972.51
517.972	5067.88
518.339	5099.29
518.706	5089.57
519.073	5040.31
519.44	5085.05
519.808	5126.4
520.175	5119.4
520.542	5152.62
520.909	5169.79
521.276	5142.22
521.643	5184.48
522.009	5264.48
522.376	5249.79
522.743	5307.87
523.11	5295.89
523.477	5371.6
523.843	5347.19
524.21	5392.61
524.577	5426.74
524.943	5402.56
525.31	5515.1
525.676	5552.61
526.043	5580.4
526.409	5584.92
526.776	5628.31
527.142	5606.17
527.508	5640.29
527.874	5704.02
528.241	5730
528.607	5697.69
528.973	5801.87
529.339	5786.73
529.705	5849.55
530.071	5859.49
530.437	5911.69
530.803	5915.31
531.169	5946.27
531.535	5930
531.901	5990.34
532.267	6021.07
532.632	6051.35
532.998	6082.76
533.364	6100.62
533.73	6137.9
534.095	6141.97
534.461	6233.72
534.826	6214.74
535.192	6185.59
535.557	6285.24
535.923	6275.75
536.288	6335.19
536.653	6315.3
537.019	6334.96
537.384	6388.29
537.749	6425.58
538.114	6458.8
538.479	6472.36
538.845	6436.65
539.21	6483.43
539.575	6528.4
539.94	6515.07
540.305	6566.37
540.67	6519.36
541.034	6616.99
541.399	6655.63
541.764	6668.51
542.129	6675.06
542.494	6736.31
542.858	6707.61
543.223	6779.69
543.587	6822.41
543.952	6810.65
544.316	6899.69
544.681	6859.24
545.045	6859.92
545.41	6978.11
545.774	7003.64
546.138	7005.45
546.503	6941.72
546.867	6984.89
547.231	7055.39
547.595	7061.5
547.959	7087.03
548.324	7166.13
548.688	7113.92
549.052	7157.54
549.416	7204.09
549.779	7226.46
550.143	7233.02
550.507	7312.56
550.871	7253.35
551.235	7268.27
551.599	7366.8
551.962	7395.5
552.326	7363.18
552.689	7428.27
553.053	7408.15
553.417	7479.79
553.78	7502.39
554.143	7442.05
554.507	7598.2
554.87	7503.29
555.234	7637.07
555.597	7624.64
555.96	7584.42
556.323	7670.74
556.686	7718.65
557.05	7722.27
557.413	7727.24
557.776	7763.4
558.139	7767.92
558.502	7782.83
558.865	7835.49
559.228	7848.82
559.59	7895.37
559.953	7866.22
560.316	8021.02
560.679	7974.47
561.041	8047.23
561.404	8062.15
561.767	8089.72
562.129	8101.92
562.492	8129.04
562.854	8129.94
563.217	8145.08
563.579	8178.53
563.941	8220.11
564.304	8256.27
564.666	8371.74
565.028	8324.29
565.39	8293.1
565.753	8345.98
566.115	8355.02
566.477	8449.93
566.839	8437.5
567.201	8512.76
567.563	8486.99
567.925	8607.67
568.287	8556.15
568.648	8542.59
569.01	8618.29
569.372	8802.47
569.734	8689.93
570.095	8733.77
570.457	8756.82
570.819	8800.21
571.18	8883.59
571.542	8911.16
571.903	8925.63
572.265	9025.74
572.626	9029.13
572.987	9124.04
573.349	9100.54
573.71	9206.52
574.071	9229.12
574.432	9268.89
574.794	9382.56
575.155	9403.13
575.516	9387.76
575.877	9531.71
576.238	9576.23
576.599	9659.84
576.96	9652.84
577.32	9733.97
577.681	9861.42
578.042	10010.8
578.403	10022.77
578.763	10098.25
579.124	10185.25
579.485	10287.85
579.845	10387.74
580.206	10410.79
580.566	10534.85
580.927	10635.19
581.287	10823.43
581.648	10926.03
582.008	11092.35
582.368	11232.46
582.728	11358.56
583.089	11445.11
583.449	11637.65
583.809	11817.53
584.169	11940.46
584.529	12192.66
584.889	12439.43
585.249	12549.71
585.609	12678.07
585.969	12891.4
586.329	13088.46
586.688	13280.54
587.048	13501.55
587.408	13585.39
587.768	13901.32
588.127	14056.11
588.487	14344.69
588.846	14606.38
589.206	14673.5
589.565	14940.38
589.925	15231
590.284	15520.93
590.643	15729.74
591.003	15977.19
591.362	16443.62
591.721	16637.51
592.08	16843.38
592.44	17220.78
592.799	17389.81
593.158	17699.86
593.517	17945.28
593.876	18243.12
594.235	18553.17
594.593	18714.97
594.952	19112.25
595.311	19377.78
595.67	19624.55
596.029	20075.39
596.387	20294.59
596.746	20579.78
597.104	20703.62
597.463	21062.93
597.822	21458.4
598.18	21669.92
598.538	21964.38
598.897	22251.15
599.255	22314.65
599.613	23008.42
599.972	23055.88
600.33	23453.15
600.688	23641.17
601.046	24029.18
601.404	24359.12
601.762	24443.18
602.12	24932.21
602.478	25214.24
602.836	25392.76
603.194	25454.01
603.552	25815.58
603.91	26022.8
604.268	26396.35
604.625	26518.84
604.983	26869.34
605.341	26992.27
605.698	27370.11
606.056	27613.72
606.413	27744.12
606.771	28167.83
607.128	28343.42
607.485	28548.84
607.843	28648.5
608.2	29070.41
608.557	29327.12
608.914	29463.84
609.272	29904.51
609.629	30031.06
609.986	30355.8
610.343	30277.16
610.7	30759.4
611.057	30897.93
611.414	31105.83
611.771	31173.4
612.127	31545.82
612.484	31699.94
612.841	31891.58
613.198	31983.55
613.554	31956.43
613.911	32429.42
614.267	32595.06
614.624	32720.03
614.98	33071.88
615.337	33290.64
615.693	33190.75
616.05	33268.49
616.406	33582.83
616.762	33514.13
617.118	33861.92
617.475	33822.6
617.831	34192.76
618.187	34279.54
618.543	34456.71
618.899	34783.93
619.255	34833.65
619.611	34748.45
619.967	35141.89
620.323	35155.45
620.678	35210.36
621.034	35258.95
621.39	35272.05
621.746	35426.4
622.101	35874.3
622.457	35584.36
622.812	35862.32
623.168	35959.72
623.523	36028.64
623.879	36247.62
624.234	36030
624.589	36222.54
624.945	36458.69
625.3	36514.51
625.655	36439.03
626.01	36634.5
626.365	36769.64
626.72	36776.42
627.075	36812.58
627.43	37011.67
627.785	37003.31
628.14	36972.57
628.495	37048.5
628.85	37166.01
629.205	37196.3
629.559	37310.19
629.914	37120.59
630.269	37283.98
630.623	37277.88
630.978	37277.65
631.332	37364.43
631.687	37529.62
632.041	37400.36
632.396	37469.28
632.75	37314.26
633.104	37464.31
633.459	37366.24
633.813	37494.59
634.167	37445.55
634.521	37481.26
634.875	37495.95
635.229	37430.64
635.583	37378.89
635.937	37481.49
636.291	37435.16
636.645	37436.74
636.999	37346.35
637.352	37529.39
637.706	37328.04
638.06	37509.51
638.413	37446.91
638.767	37439.68
639.121	37514.93
639.474	37214.37
639.828	37403.07
640.181	37427.7
640.534	37556.74
640.888	37268.38
641.241	37224.32
641.594	37321.04
641.947	37494.82
642.301	37445.55
642.654	37270.42
643.007	37420.02
643.36	37320.36
643.713	37418.66
644.066	37505.44
644.419	37297.99
644.771	37066.58
645.124	36724.67
645.477	36756.76
645.83	36434.73
646.182	36293.49
646.535	36363.78
646.888	36254.85
647.24	36158.36
647.593	36468.63
647.945	36357.9
648.298	36077.91
648.65	36040.62
649.002	35969.66
649.355	36158.36
649.707	36148.19
650.059	36357.22
650.411	36765.12
650.763	36769.87
651.115	37044.44
651.467	37044.44
651.819	36931.44
652.171	36972.8
652.523	36844.67
652.875	36964.21
653.227	36723.77
653.578	37033.59
653.93	36896.19
654.282	36732.35
654.633	36713.14
654.985	36769.64
655.337	36748.4
655.688	36795.85
656.039	36850.99
656.391	36648.97
656.742	36691.9
657.094	36683.77
657.445	36793.59
657.796	36706.59
658.147	36628.85
658.498	36670.43
658.849	36712.92
659.2	36749.3
659.551	36582.75
659.902	36652.81
660.253	36646.71
660.604	36684.9
660.955	36485.35
661.306	36698.68
661.656	36502.75
662.007	36512.47
662.358	36571.68
662.708	36652.13
663.059	36408.75
663.409	36390.44
663.76	36521.96
664.11	36554.05
664.461	36681.96
664.811	36676.08
665.161	36662.98
665.511	36478.8
665.862	36504.11
666.212	36508.18
666.562	36566.26
666.912	36450.78
667.262	36435.19
667.612	36580.27
667.962	36605.58
668.312	36383.21
668.662	36649.64
669.011	36358.35
669.361	36513.38
669.711	36469.99
670.06	36483.55
670.41	36274.51
670.76	36404.23
671.109	36529.65
671.459	36457.33
671.808	36326.04
672.157	36422.53
672.507	36246.26
672.856	36237.68
673.205	36323.32
673.554	36359.48
673.904	36237.9
674.253	36275.87
674.602	36255.3
674.951	35771.02
675.3	35556.57
675.649	36162.42
675.998	36070.9
676.346	36031.35
676.695	36185.7
677.044	35815.54
677.393	36020.06
677.741	36057.34
678.09	36047.17
678.438	35884.92
678.787	36056.44
679.135	35967.18
679.484	35649.67
679.832	35877.91
680.181	35725.15
680.529	35808.08
680.877	35773.28
681.225	35740.29
681.573	35954.52
681.922	35563.34
682.27	35531.03
682.618	35536.23
682.966	35479.05
683.314	35580.29
683.661	35414.87
684.009	35282.45
684.357	35144.15
684.705	35241.09
685.053	35166.52
685.4	35082.45
685.748	34974.21
686.095	35072.96
686.443	34848.79
686.79	34874.1
687.138	34854.44
687.485	34777.83
687.832	34758.62
688.18	34748.68
688.527	34625.74
688.874	34588.68
689.221	34382.81
689.568	34330.16
689.915	34300.55
690.262	34246.54
690.609	34227.56
690.956	34141.01
691.303	34105.53
691.65	33891.98
691.997	34002.71
692.344	33655.82
692.69	33804.52
693.037	33703.73
693.383	33500.35
693.73	33542.61
694.077	33321.14
694.423	33487.69
694.769	33313.23
695.116	33125.89
695.462	33155.5
695.808	33069.4
696.155	33019.46
696.501	32852.91
696.847	32863.53
697.193	32681.61
697.539	32715.28
697.885	32661.5
698.231	32494.05
698.577	32495.4
698.923	32481.39
699.269	32248.86
699.614	32159.59
699.96	32071.91
700.306	32108.29
700.651	31908.53
700.997	31926.83
701.342	31854.74
701.688	31729.1
702.033	31593.28
702.379	31521.64
702.724	31594.18
703.069	31634.86
703.415	31190.35
703.76	31307.86
704.105	31332.27
704.45	31210.24
704.795	31102.22
705.14	30994.65
705.485	30806.41
705.83	30730.93
706.175	30780.42
706.52	30664.26
706.865	30655.68
707.209	30630.14
707.554	30487.32
707.899	30581.33
708.243	30401.22
708.588	30311.96
708.932	30180.44
709.277	30231.51
709.621	30138.85
709.966	30030.38
710.31	29960.55
710.654	29696.38
710.998	29690.5
711.342	29879.2
711.687	29765.76
712.031	29667
712.375	29492.54
712.719	29549.49
713.063	29563.28
713.407	29557.85
713.75	29352.89
714.094	29349.5
714.438	29272.66
714.782	29306.56
715.125	28954.48
715.469	29151.54
715.812	28954.93
716.156	28931.65
716.499	28886.01
716.843	28941.82
717.186	28728.27
717.53	28848.04
717.873	28772.34
718.216	28787.03
718.559	28569.63
718.902	28412.35
719.246	28554.94
719.589	28491.44
719.932	28314.04
720.275	28271.56
720.617	28323.99
720.96	28277.43
721.303	28210.77
721.646	28271.78
721.989	28081.51
722.331	28118.34
722.674	28110.43
723.016	28081.96
723.359	27874.96
723.701	28019.81
724.044	27819.59
724.386	27761.97
724.729	27765.58
725.071	27747.5
725.413	27710.44
725.755	27770.56
726.097	27544.57
726.439	27412.37
726.782	27359.49
727.124	27503.9
727.465	27392.94
727.807	27375.09
728.149	27241.53
728.491	27247.18
728.833	27286.27
729.175	27217.12
729.516	27093.28
729.858	27123.57
730.199	27193.85
730.541	27070.91
730.882	27061.2
731.224	27106.84
731.565	26907.98
731.906	26926.28
732.248	26853.74
732.589	26741.66
732.93	26675.44
733.271	26698.94
733.612	26558.84
733.953	26794.08
734.294	26529.23
734.635	26481.55
734.976	26653.75
735.317	26444.71
735.658	26473.64
735.999	26489.46
736.339	26280.65
736.68	26509.12
737.021	26324.94
737.361	26223.48
737.702	26263.48
738.042	26310.03
738.383	26134.89
738.723	26244.49
739.063	26143.71
739.404	26220.09
739.744	26001.56
740.084	26105.51
740.424	26052.18
740.764	25931.28
741.104	26073.65
741.444	25888.34
741.784	25738.29
742.124	25734.9
742.464	25718.41
742.804	25843.83
743.143	25575.13
743.483	25701.23
743.823	25470.5
744.162	25580.56
744.502	25626.88
744.841	25352.31
745.181	25588.69
745.52	25463.27
745.86	25414.01
746.199	25499.88
746.538	25455.14
746.877	25292.65
747.216	25364.06
747.556	25278.64
747.895	25235.25
748.234	25181.92
748.573	25040.46
748.911	25134.92
749.25	24986
749.589	24904.42
749.928	24976.96
750.267	25011.98
750.605	24993.9
750.944	24896.05
751.283	24769.5
751.621	24731.54
751.96	24672.11
752.298	24640.47
752.636	24669.17
752.975	24528.15
753.313	24488.16
753.651	24491.32
753.989	24490.64
754.327	24301.49
754.666	24204.32
755.004	24248.16
755.342	24369.97
755.679	24150.76
756.017	24030.54
756.355	24116.87
756.693	23973.37
757.031	24067.6
757.368	23934.5
757.706	23793.03
758.044	23839.36
758.381	23815.86
758.719	23738.8
759.056	23746.48
759.394	23625.81
759.731	23487.96
760.068	23408.18
760.405	23380.39
760.743	23256.32
761.08	23351.91
761.417	23207.51
761.754	23170.9
762.091	23119.38
762.428	23068.98
762.765	22900.4
763.102	22997.57
763.438	22896.78
763.775	22794.41
764.112	22730.46
764.449	22736.56
764.785	22689.33
765.122	22420.64
765.458	22407.08
765.795	22367.53
766.131	22428.77
766.467	22381.54
766.804	22236.46
767.14	22135
767.476	22104.94
767.812	21862.01
768.148	22061.1
768.485	21825.17
768.821	21762.8
769.157	21621.11
769.492	21650.26
769.828	21692.75
770.164	21378.63
770.5	21330.72
770.836	21352.19
771.171	21280.56
771.507	21079.21
771.842	21040.56
772.178	21004.41
772.513	21064.52
772.849	20912.43
773.184	20797.63
773.519	20841.92
773.855	20738.65
774.19	20583.85
774.525	20603.29
774.86	20619.56
775.195	20460.69
775.53	20330.52
775.865	20236.74
776.2	20171.43
776.535	20082.85
776.87	20079.01
777.205	19869.29
777.539	19883.98
777.874	19963.3
778.209	19706.36
778.543	19600.83
778.878	19501.17
779.212	19549.53
779.547	19374.84
779.881	19386.37
780.215	19285.58
780.55	19399.93
780.884	19134.17
781.218	19137.34
781.552	19150.67
781.886	19013.27
782.22	18941.63
782.554	18904.12
782.888	18693.05
783.222	18654.86
783.556	18501.19
783.889	18594.75
784.223	18362.44
784.557	18419.16
784.89	18422.1
785.224	18264.82
785.557	18201.77
785.891	18109.11
786.224	18225.72
786.558	17990.47
786.891	17937.14
787.224	17919.06
787.557	17815.56
787.891	17820.31
788.224	17747.32
788.557	17690.37
788.89	17612.4
789.223	17670.71
789.556	17542.12
789.888	17485.85
790.221	17333.99
790.554	17317.72
790.887	17239.08
791.219	17209.25
791.552	17195.01
791.884	17062.81
792.217	16976.26
792.549	16963.16
792.882	16836.61
793.214	16740.11
793.546	16871.63
793.879	16735.14
794.211	16659.66
794.543	16627.12
794.875	16571.75
795.207	16661.92
795.539	16459.21
795.871	16493.11
796.203	16288.82
796.535	16339.67
796.867	16292.44
797.198	16155.95
797.53	16158.21
797.862	16054.93
798.193	16082.27
798.525	15905.1
798.856	15931.54
799.188	15872.56
799.519	15749.85
799.85	15689.52
800.182	15720.93
800.513	15715.5
800.844	15523.87
801.175	15693.36
801.506	15533.14
801.837	15520.03
802.168	15374.27
802.499	15413.82
802.83	15323.2
803.161	15219.47
803.491	15323.65
803.822	15187.61
804.153	15162.98
804.483	15034.17
804.814	15004.11
805.145	14985.13
805.475	14927.05
805.805	14952.36
806.136	14893.15
806.466	14934.28
806.796	14911.46
807.126	14675.98
807.457	14642.99
807.787	14687.96
808.117	14627.17
808.447	14560.96
808.777	14527.29
809.107	14572.94
809.436	14511.24
809.766	14556.44
810.096	14393.05
810.426	14250.23
810.755	14303.11
811.085	14297.01
811.414	14287.97
811.744	14181.99
812.073	14123.91
812.403	14161.2
812.732	14113.97
813.061	14054.53
813.39	13956
813.719	13985.15
814.049	14028.32
814.378	13951.48
814.707	13861.99
815.036	13857.02
815.365	13770.02
815.693	13738.61
816.022	13726.86
816.351	13567.09
816.68	13595.11
817.008	13583.58
817.337	13516.92
817.665	13607.09
817.994	13405.96
818.322	13482.8
818.651	13382.46
818.979	13364.61
819.307	13433.3
819.636	13332.29
819.964	13191.73
820.292	13362.57
820.62	13415.23
820.948	13202.35
821.276	13310.82
821.604	13223.59
821.932	13338.62
822.259	13299.07
822.587	13276.25
822.915	13206.87
823.243	13290.48
823.57	13258.39
823.898	13233.31
824.225	13144.95
824.553	13183.37
824.88	13220.2
825.207	13276.47
825.535	13178.17
825.862	13132.3
826.189	13148.34
826.516	13200.77
826.843	13271.5
827.17	13210.26
827.497	13292.52
827.824	13208.9
828.151	13181.33
828.478	13170.49
828.805	13275.57
829.131	13140.66
829.458	13135.91
829.785	13103.6
830.111	13138.85
830.438	13152.18
830.764	13089.13
831.09	13147.44
831.417	13074.44
831.743	13099.75
832.069	13078.96
832.395	13050.94
832.722	13079.19
833.048	12972.98
833.374	13049.81
833.7	13058.63
834.026	12921.23
834.351	13000.32
834.677	13012.53
835.003	13033.99
835.329	12915.35
835.654	12962.81
835.98	12874.9
836.306	12911.28
836.631	12848.69
836.956	12864.05
837.282	12862.47
837.607	12785.19
837.932	12797.84
838.258	12835.35
838.583	12796.49
838.908	12736.15
839.233	12728.92
839.558	12675.36
839.883	12639.43
840.208	12625.42
840.533	12573.89
840.858	12610.05
841.182	12582.03
841.507	12621.8
841.832	12544.74
842.156	12537.74
842.481	12502.71
842.805	12424.07
843.13	12437.62
843.454	12430.39
843.778	12430.17
844.103	12293.9
844.427	12259.55
844.751	12272.43
845.075	12295.93
845.399	12142.49
845.723	12159.21
846.047	12155.82
846.371	12050.06
846.695	12003.74
847.019	11962.16
847.343	11987.47
847.666	11921.25
847.99	11823.86
848.313	11835.61
848.637	11702.28
848.96	11716.51
849.284	11678.77
849.607	11547.93
849.931	11538.67
850.254	11528.5
850.577	11388.61
850.9	11337.77
851.223	11330.76
851.546	11292.34
851.869	11255.28
852.192	11315.62
852.515	11200.6
852.838	11129.86
853.161	11125.57
853.483	11036.76
853.806	11052.8
854.129	11005.12
854.451	10926.03
854.774	10893.03
855.096	10842.64
855.419	10822.75
855.741	10825.24
856.063	10742.08
856.385	10733.71
856.708	10742.53
857.03	10638.12
857.352	10649.88
857.674	10583.89
857.996	10582.08
858.318	10541.4
858.64	10560.16
858.961	10488.98
859.283	10505.25
859.605	10341.86
859.926	10496.66
860.248	10353.39
860.57	10367.85
860.891	10285.14
861.212	10321.3
861.534	10282.65
861.855	10247.17
862.176	10277.46
862.498	10229.1
862.819	10260.51
863.14	10159.94
863.461	10145.26
863.782	10091.02
864.103	10160.17
864.424	10068.2
864.745	10128.53
865.065	10002.43
865.386	10001.53
865.707	9943.45
866.027	10003.79
866.348	10044.47
866.668	10004.24
866.989	9968.54
867.309	9909.78
867.63	9859.84
867.95	9873.62
868.27	9883.57
868.59	9866.62
868.91	9841.08
869.23	9844.25
869.55	9807.41
869.87	9871.59
870.19	9811.25
870.51	9779.84
870.83	9797.69
871.15	9673.63
871.469	9721.54
871.789	9738.94
872.109	9702.78
872.428	9704.36
872.748	9643.8
873.067	9717.7
873.386	9692.39
873.706	9610.81
874.025	9574.88
874.344	9532.84
874.663	9625.72
874.982	9517.48
875.301	9543.69
875.62	9504.37
875.939	9440.19
876.258	9438.38
876.577	9461.88
876.896	9473.41
877.214	9406.29
877.533	9369.68
877.852	9418.72
878.17	9392.06
878.489	9439.74
878.807	9384.6
879.125	9392.96
879.444	9342.11
879.762	9318.84
880.08	9353.41
880.398	9259.18
880.716	9266.18
881.034	9245.84
881.352	9258.5
881.67	9208.33
881.988	9207.43
882.306	9183.02
882.624	9104.61
882.941	9136.02
883.259	9090.37
883.577	8995.46
883.894	9032.29
884.212	9003.59
884.529	9002.24
884.846	9000.88
885.164	9026.87
885.481	8983.7
885.798	8966.3
886.115	8880.2
886.432	8853.54
886.75	8847.44
887.067	8872.75
887.383	8854.22
887.7	8919.75
888.017	8844.05
888.334	8818.96
888.651	8773.09
888.967	8738.29
889.284	8637.5
889.6	8663.49
889.917	8647.89
890.233	8612.64
890.55	8625.97
890.866	8578.97
891.182	8600.89
891.498	8547.56
891.815	8522.02
892.131	8479.08
892.447	8497.84
892.763	8406.32
893.079	8456.49
893.395	8443.61
893.71	8381.23
894.026	8362.48
894.342	8269.82
894.657	8267.79
894.973	8232.76
895.289	8254.23
895.604	8251.29
895.92	8213.56
896.235	8149.6
896.55	8125.65
896.865	8120.45
897.181	8083.39
897.496	8110.51
897.811	7986.89
898.126	7966.33
898.441	7995.03
898.756	7930.17
899.071	7925.88
899.386	7889.04
899.7	7866.45
900.015	7879.55
900.33	7771.98
900.644	7788.93
900.959	7758.43
901.273	7695.83
901.588	7657.64
901.902	7630.52
902.216	7602.72
902.531	7614.93
902.845	7573.35
903.159	7497.42
903.473	7509.84
903.787	7501.71
904.101	7450.41
904.415	7464.42
904.729	7413.35
905.042	7395.95
905.356	7334.71
905.67	7309.4
905.984	7280.47
906.297	7277.31
906.611	7201.6
906.924	7224.43
907.237	7194.37
907.551	7148.5
907.864	7124.77
908.177	7125
908.491	7074.38
908.804	7050.2
909.117	7043.42
909.43	6954.15
909.743	6924.78
910.056	6929.97
910.368	6912.12
910.681	6905.79
910.994	6834.61
911.307	6823.99
911.619	6726.36
911.932	6770.2
912.244	6692.24
912.557	6745.57
912.869	6665.35
913.181	6604.11
913.494	6602.52
913.806	6575.63
914.118	6560.49
914.43	6516.2
914.742	6522.98
915.054	6457.44
915.366	6436.88
915.678	6500.15
915.99	6436.2
916.302	6408.86
916.613	6402.3
916.925	6313.04
917.236	6333.83
917.548	6243.44
917.859	6303.1
918.171	6270.1
918.482	6216.32
918.794	6187.17
919.105	6164.57
919.416	6147.39
919.727	6137.68
920.038	6112.37
920.349	6091.8
920.66	6052.03
920.971	6091.35
921.282	5984.01
921.593	5962.09
921.903	5947.85
922.214	5923.67
922.525	5897.01
922.835	5867.85
923.146	5864.24
923.456	5879.38
923.767	5757.35
924.077	5780.17
924.387	5764.58
924.697	5738.14
925.008	5690.23
925.318	5699.27
925.628	5670.12
925.938	5661.53
926.248	5545.38
926.558	5597.8
926.867	5560.74
927.177	5516.68
927.487	5491.14
927.796	5460.86
928.106	5470.8
928.416	5457.92
928.725	5391.26
929.034	5361.43
929.344	5386.51
929.653	5399.62
929.962	5273.75
930.271	5313.74
930.581	5294.08
930.89	5265.38
931.199	5223.35
931.508	5247.53
931.817	5149.68
932.125	5180.64
932.434	5185.16
932.743	5131.83
933.051	5078.5
933.36	5066.52
933.669	5055.22
933.977	5031.04
934.286	5023.58
934.594	5027.65
934.902	4997.59
935.21	4929.35
935.519	4953.98
935.827	4899.74
936.135	4873.08
936.443	4869.69
936.751	4881.21
937.059	4834.21
937.367	4792.85
937.674	4843.02
937.982	4806.19
938.29	4751.95
938.597	4763.7
938.905	4699.3
939.213	4682.8
939.52	4703.82
939.827	4693.65
940.135	4625.63
940.442	4584.5
940.749	4591.96
941.056	4558.51
941.363	4566.65
941.67	4535.46
941.977	4501.79
942.284	4475.8
942.591	4488.23
942.898	4448.91
943.205	4410.04
943.511	4393.99
943.818	4427.89
944.125	4338.85
944.431	4341.79
944.738	4363.26
945.044	4305.64
945.35	4290.72
945.657	4299.31
945.963	4247.56
946.269	4251.85
946.575	4242.36
946.881	4201.68
947.187	4208.69
947.493	4163.04
947.799	4124.85
948.105	4153.32
948.41	4088.92
948.716	4118.97
949.022	4088.47
949.327	4087.34
949.633	4069.48
949.938	4014.57
950.244	4019.09
950.549	4014.57
950.854	3979.77
951.16	3984.29
951.465	3926.66
951.77	3922.37
952.075	3907.23
952.38	3895.25
952.685	3919.66
952.99	3874.69
953.294	3816.38
953.599	3812.09
953.904	3766.44
954.209	3802.15
954.513	3761.69
954.818	3763.73
955.122	3751.3
955.426	3741.36
955.731	3728.02
956.035	3723.5
956.339	3671.08
956.643	3667.91
956.948	3683.05
957.252	3587.91
957.556	3636.5
957.86	3619.78
958.163	3608.25
958.467	3594.92
958.771	3594.24
959.075	3536.39
959.378	3524.41
959.682	3503.62
959.985	3512.44
960.289	3516.73
960.592	3476.28
960.896	3491.19
961.199	3459.1
961.502	3423.62
961.805	3408.03
962.108	3401.48
962.411	3424.08
962.714	3356.51
963.017	3359.67
963.32	3346.79
963.623	3309.05
963.926	3386.11
964.228	3317.19
964.531	3265.44
964.833	3272.22
965.136	3211.2
965.438	3239.9
965.741	3226.12
966.043	3216.62
966.345	3205.1
966.648	3227.92
966.95	3175.5
967.252	3161.71
967.554	3162.84
967.856	3116.51
968.158	3108.83
968.46	3102.28
968.761	3094.37
969.063	3078.77
969.365	3070.64
969.666	3062.73
969.968	3016.86
970.269	3033.13
970.571	3019.34
970.872	2995.84
971.174	2980.47
971.475	3016.4
971.776	2960.59
972.077	2937.08
972.378	2927.82
972.679	2882.62
972.98	2935.95
973.281	2921.49
973.582	2930.53
973.883	2857.31
974.183	2867.71
974.484	2843.53
974.785	2850.53
975.085	2812.57
975.386	2833.36
975.686	2787.48
975.986	2789.97
976.287	2762.85
976.587	2769.63
976.887	2764.21
977.187	2739.8
977.487	2710.65
977.787	2717.43
978.087	2694.83
978.387	2696.41
978.687	2660.71
978.987	2660.25
979.286	2652.8
979.586	2650.99
979.885	2639.92
980.185	2637.66
980.484	2625.91
980.784	2624.1
981.083	2617.09
981.382	2549.52
981.682	2575.74
981.981	2547.49
982.28	2539.81
982.579	2526.47
982.878	2536.87
983.177	2507.26
983.475	2511.56
983.774	2461.84
984.073	2476.98
984.372	2452.58
984.67	2453.48
984.969	2434.5
985.267	2445.8
985.566	2438.11
985.864	2406.48
986.162	2404.22
986.461	2385.46
986.759	2392.01
987.057	2380.26
987.355	2336.2
987.653	2348.17
987.951	2329.42
988.249	2334.84
988.547	2360.15
988.844	2319.7
989.142	2291.9
989.44	2280.83
989.737	2318.57
990.035	2267.5
990.332	2254.84
990.63	2222.3
990.927	2255.07
991.224	2246.03
991.521	2235.86
991.819	2223.66
992.116	2225.01
992.413	2191.57
992.71	2164
993.006	2189.08
993.303	2155.86
993.6	2173.49
993.897	2155.41
994.193	2126.03
994.49	2107.73
994.787	2093.94
995.083	2104.56
995.379	2072.47
995.676	2055.53
995.972	2120.38
996.268	2035.41
996.565	2025.24
996.861	2047.62
997.157	2028.41
997.453	2023.66
997.749	1988.41
998.044	1975.98
998.34	1986.6
998.636	1977.11
998.932	1994.96
999.227	1968.3
999.523	1934.17
999.818	1933.95
1000.114	1933.04
1000.409	1952.7
1000.704	1908.64
1001	1932.36
1001.295	1893.27
1001.59	1885.36
1001.885	1908.64
1002.18	1842.65
1002.475	1849.43
1002.77	1841.75
1003.065	1811.92
1003.359	1787.96
1003.654	1789.54
1003.949	1808.98
1004.243	1773.95
1004.538	1795.19
1004.832	1772.14
1005.127	1782.99
1005.421	1781.63
1005.715	1724.46
1006.009	1743.22
1006.304	1727.4
1006.598	1749.09
1006.892	1719.71
1007.186	1681.75
1007.48	1691.01
1007.773	1684.69
1008.067	1684.69
1008.361	1627.29
1008.655	1640.62
1008.948	1656.67
1009.242	1625.25
1009.535	1640.17
1009.829	1613.95
1010.122	1590.68
1010.415	1600.17
1010.708	1577.8
1011.001	1582.09
1011.295	1573.5
1011.588	1550.23
1011.881	1579.61
1012.173	1572.6
1012.466	1552.94
1012.759	1540.74
1013.052	1497.12
1013.344	1536.22
1013.637	1513.62
1013.93	1494.86
1014.222	1493.05
1014.514	1488.08
1014.807	1458.03
1015.099	1451.02
1015.391	1460.74
1015.683	1418.93
1015.976	1459.38
1016.268	1432.04
1016.56	1392.27
1016.851	1410.34
1017.143	1383.9
1017.435	1385.71
1017.727	1377.58
1018.018	1402.89
1018.31	1375.99
1018.602	1379.38
1018.893	1384.36
1019.185	1344.13
1019.476	1331.48
1019.767	1369.89
1020.058	1332.38
1020.35	1316.56
1020.641	1310.91
1020.932	1281.53
1021.223	1293.29
1021.514	1264.13
1021.804	1265.72
1022.095	1234.08
1022.386	1265.26
1022.677	1239.95
1022.967	1246.51
1023.258	1249.9
1023.548	1240.86
1023.839	1221.87
1024.129	1210.58
1024.419	1199.05
1024.709	1184.81
1025	1180.97
1025.29	1196.79
1025.58	1183.46
1025.87	1177.36
1026.16	1155.21
1026.449	1193.63
1026.739	1155.21
1027.029	1146.4
1027.319	1126.06
1027.608	1094.42
1027.898	1098.49
1028.187	1108.66
1028.477	1119.96
1028.766	1086.28
1029.055	1065.72
1029.344	1063.69
1029.634	1081.99
1029.923	1080.64
1030.212	1057.81
1030.501	1047.19
1030.79	1019.85
1031.078	1037.7
1031.367	1008.55
1031.656	1040.41
1031.945	1011.94
1032.233	1014.2
1032.522	1008.32
1032.81	986.4
1033.099	999.73
1033.387	997.25
1033.675	1008.55
1033.963	955.21
1034.251	952.73
1034.54	961.54
1034.828	947.98
1035.116	951.37
1035.403	953.63
1035.691	951.15
1035.979	930.81
1036.267	918.83
1036.554	945.05
1036.842	903.92
1037.129	904.59
1037.417	934.88
1037.704	906.85
1037.992	888.32
1038.279	884.93
1038.566	894.65
1038.853	894.65
1039.14	894.65
