Data from hue_32_FLMS001491_00099.txt Node
Date: Tue Feb 07 17:24:17 GMT 2017
User: dcchb
Spectrometer: FLMS00149
Trigger mode: 0
Integration Time (sec): 2.000000E-2
Scans to average: 10
Electric dark correction enabled: true
Nonlinearity correction enabled: false
Boxcar width: 0
XAxis mode: Wavelengths
Number of Pixels in Spectrum: 2048
>>>>>Begin Spectral Data<<<<<
341.393	-19.91
341.776	-19.91
342.16	-19.91
342.543	-71.89
342.927	-79.8
343.31	-73.02
343.693	-54.49
344.077	-58.78
344.46	-59.69
344.843	-47.26
345.226	-35.51
345.61	-42.74
345.993	-23.3
346.376	-11.33
346.759	19.63
347.142	14.43
347.525	30.93
347.908	44.72
348.291	91.27
348.674	93.08
349.057	112.06
349.44	122.23
349.823	137.82
350.206	157.48
350.588	198.84
350.971	204.26
351.354	235.9
351.737	221.21
352.119	262.79
352.502	265.5
352.884	277.25
353.267	272.51
353.65	298.95
354.032	304.37
354.414	310.02
354.797	326.06
355.179	330.36
355.562	327.87
355.944	344.14
356.326	330.13
356.709	348.44
357.091	334.65
357.473	333.07
357.855	327.87
358.238	344.82
358.62	340.53
359.002	357.7
359.384	348.89
359.766	345.5
360.148	344.14
360.53	344.14
360.912	339.17
361.294	321.77
361.676	348.66
362.057	318.16
362.439	327.19
362.821	352.05
363.203	322.22
363.584	332.39
363.966	346.4
364.348	337.14
364.729	323.35
365.111	333.3
365.493	329.91
365.874	324.26
366.256	323.35
366.637	312.05
367.019	308.44
367.4	308.21
367.781	332.62
368.163	310.47
368.544	317.7
368.925	325.16
369.306	308.66
369.688	321.55
370.069	317.7
370.45	339.17
370.831	304.6
371.212	318.38
371.593	313.18
371.974	311.6
372.355	330.13
372.736	344.37
373.117	340.75
373.498	334.43
373.879	318.61
374.26	322.68
374.641	326.29
375.021	290.81
375.402	321.32
375.783	338.72
376.163	311.15
376.544	317.93
376.925	319.96
377.305	346.4
377.686	338.04
378.066	338.27
378.447	320.64
378.827	332.39
379.208	332.84
379.588	354.54
379.968	327.42
380.349	329.23
380.729	338.04
381.109	314.09
381.489	360.41
381.87	341.88
382.25	352.05
382.63	332.17
383.01	348.44
383.39	329.23
383.77	345.73
384.15	360.41
384.53	356.57
384.91	354.09
385.29	355.44
385.67	336.23
386.049	354.54
386.429	370.36
386.809	373.3
387.189	368.1
387.568	369.23
387.948	365.16
388.328	357.93
388.707	367.87
389.087	368.1
389.466	358.15
389.846	356.57
390.225	364.93
390.605	386.85
390.984	394.31
391.363	374.43
391.743	383.01
392.122	379.62
392.501	384.82
392.881	382.11
393.26	372.17
393.639	372.39
394.018	388.21
394.397	371.49
394.776	370.58
395.155	396.8
395.534	368.32
395.913	383.46
396.292	372.39
396.671	402.9
397.05	402.22
397.429	406.51
397.808	372.62
398.186	394.99
398.565	392.73
398.944	408.32
399.323	397.02
399.701	390.02
400.08	405.16
400.458	418.72
400.837	383.24
401.215	401.77
401.594	425.5
401.972	406.97
402.351	439.06
402.729	419.62
403.107	426.18
403.486	416.68
403.864	390.92
404.242	423.69
404.62	407.19
404.999	429.11
405.377	439.96
405.755	427.31
406.133	431.15
406.511	418.04
406.889	433.18
407.267	441.54
407.645	439.51
408.023	432.95
408.401	451.49
408.779	437.02
409.156	459.62
409.534	463.91
409.912	459.62
410.29	477.02
410.667	448.1
411.045	469.56
411.422	462.11
411.8	466.17
412.178	470.69
412.555	493.74
412.933	465.04
413.31	498.72
413.687	483.12
414.065	470.69
414.442	501.43
414.819	491.48
415.197	507.53
415.574	507.08
415.951	480.64
416.328	502.33
416.705	495.33
417.082	505.95
417.46	516.57
417.837	492.39
418.214	507.08
418.591	529.45
418.967	515.21
419.344	498.49
419.721	517.92
420.098	532.84
420.475	519.05
420.852	519.28
421.228	539.84
421.605	533.29
421.982	547.53
422.358	536.23
422.735	553.63
423.111	554.31
423.488	563.35
423.864	561.99
424.241	572.16
424.617	576.91
424.994	569.9
425.37	550.92
425.746	561.09
426.123	579.62
426.499	595.89
426.875	573.74
427.251	588.66
427.627	603.35
428.003	621.65
428.379	611.48
428.756	633.4
429.132	624.14
429.507	619.84
429.883	627.53
430.259	644.25
430.635	626.4
431.011	639.5
431.387	632.27
431.763	637.24
432.138	653.29
432.514	642.89
432.89	664.36
433.265	676.79
433.641	686.06
434.016	676.56
434.392	684.47
434.767	693.96
435.143	708.2
435.518	683.34
435.894	721.53
436.269	696
436.644	712.04
437.02	752.27
437.395	722.44
437.77	732.83
438.145	744.81
438.52	745.94
438.895	747.75
439.271	755.43
439.646	768.09
440.021	761.08
440.395	787.52
440.77	802.44
441.145	768.31
441.52	783.68
441.895	762.66
442.27	789.1
442.645	798.14
443.019	828.2
443.394	797.24
443.769	796.11
444.143	815.32
444.518	818.48
444.892	823.23
445.267	836.11
445.641	830.01
446.016	846.05
446.39	814.64
446.764	827.97
447.139	824.81
447.513	842.21
447.887	861.87
448.262	846.73
448.636	868.65
449.01	867.75
449.384	893.96
449.758	863
450.132	888.99
450.506	899.38
450.88	912.49
451.254	922.43
451.628	907.97
452.002	910
452.376	920.85
452.75	919.72
453.123	942.32
453.497	946.39
453.871	957.01
454.244	976.44
454.618	979.16
454.992	1025.71
455.365	980.74
455.739	982.54
456.112	1033.62
456.486	1015.76
456.859	1022.09
457.232	1034.07
457.606	1055.99
457.979	1047.4
458.352	1040.4
458.725	1085.59
459.099	1091.69
459.472	1110.45
459.845	1141.18
460.218	1110.23
460.591	1111.13
460.964	1146.16
461.337	1144.12
461.71	1192.48
462.083	1208.75
462.456	1194.74
462.829	1215.08
463.201	1217.11
463.574	1209.21
463.947	1252.14
464.32	1255.76
464.692	1273.84
465.065	1277.45
465.438	1307.51
465.81	1347.73
466.183	1310.22
466.555	1355.87
466.928	1382.31
467.3	1378.01
467.672	1388.86
468.045	1426.37
468.417	1414.17
468.789	1442.87
469.161	1477.45
469.534	1492.81
469.906	1498.24
470.278	1518.8
470.65	1540.27
471.022	1568.74
471.394	1626.37
471.766	1636.99
472.138	1641.06
472.51	1736.65
472.882	1735.07
473.253	1720.15
473.625	1785.91
473.997	1791.34
474.369	1814.84
474.74	1869.3
475.112	1883.99
475.484	1938.45
475.855	1960.15
476.227	1994.27
476.598	2057.77
476.97	2064.78
477.341	2106.58
477.713	2144.55
478.084	2205.34
478.455	2255.51
478.827	2280.14
479.198	2391.77
479.569	2392.23
479.94	2426.12
480.311	2535.5
480.682	2527.81
481.053	2605.1
481.424	2693.69
481.795	2751.54
482.166	2812.33
482.537	2878.77
482.908	2931.65
483.279	2991.08
483.65	3070.4
484.021	3128.48
484.391	3198.08
484.762	3268.59
485.133	3302.71
485.503	3370.96
485.874	3443.5
486.244	3529.82
486.615	3600.1
486.985	3692.08
487.356	3742.47
487.726	3858.63
488.097	3919.87
488.467	4008.91
488.837	4098.4
489.207	4139.07
489.578	4250.26
489.948	4339.29
490.318	4424.04
490.688	4470.59
491.058	4566.41
491.428	4655.89
491.798	4738.38
492.168	4847.98
492.538	4911.93
492.908	4955.55
493.278	5074.87
493.648	5144.47
494.017	5168.65
494.387	5282.32
494.757	5341.75
495.126	5430.34
495.496	5501.97
495.866	5577.68
496.235	5605.7
496.605	5676.43
496.974	5727.05
497.344	5861.96
497.713	5890.44
498.082	5956.43
498.452	6060.15
498.821	6108.96
499.19	6139.7
499.559	6236.64
499.928	6287.49
500.298	6379.92
500.667	6414.04
501.036	6456.53
501.405	6554.38
501.774	6579.01
502.143	6623.3
502.512	6716.18
502.88	6756.18
503.249	6813.8
503.618	6909.17
503.987	6895.61
504.356	6967.02
504.724	7025.32
505.093	7073.01
505.462	7103.97
505.83	7178.31
506.199	7282.27
506.567	7360.91
506.936	7327.01
507.304	7491.53
507.672	7456.72
508.041	7570.39
508.409	7581.02
508.777	7717.06
509.145	7725.42
509.514	7739.43
509.882	7833.44
510.25	7776.94
510.618	7851.52
510.986	7924.74
511.354	8005.41
511.722	8108.23
512.09	8183.49
512.458	8134
512.826	8190.94
513.193	8245.86
513.561	8303.93
513.929	8307.78
514.297	8474.33
514.664	8481.33
515.032	8539.41
515.4	8588.22
515.767	8601.33
516.135	8702.79
516.502	8647.43
516.869	8681.33
517.237	8797.93
517.604	8805.84
517.972	8836.12
518.339	8896.91
518.706	8919.06
519.073	8996.35
519.44	9066.63
519.808	9157.7
520.175	9092.84
520.542	9158.38
520.909	9286.06
521.276	9245.38
521.643	9359.27
522.009	9382.55
522.376	9424.58
522.743	9510.91
523.11	9541.64
523.477	9610.11
523.843	9643.33
524.21	9752.26
524.577	9760.17
524.943	9885.36
525.31	9909.99
525.676	9957
526.043	9983.21
526.409	10081.51
526.776	10223.21
527.142	10192.02
527.508	10221.85
527.874	10318.8
528.241	10378.68
528.607	10418.23
528.973	10526.25
529.339	10509.3
529.705	10610.54
530.071	10725.34
530.437	10753.81
530.803	10809.86
531.169	10863.87
531.535	10869.52
531.901	10906.35
532.267	10926.69
532.632	11065.44
532.998	10979.8
533.364	11132.33
533.73	11228.83
534.095	11294.36
534.461	11267.25
534.826	11332.56
535.192	11403.97
535.557	11450.74
535.923	11402.38
536.288	11474.02
536.653	11539.78
537.019	11507.92
537.384	11591.08
537.749	11660.46
538.114	11749.04
538.479	11775.03
538.845	11814.8
539.21	11773.9
539.575	11934.12
539.94	11892.77
540.305	11982.03
540.67	12034.23
541.034	12074.46
541.399	12111.74
541.764	12116.04
542.129	12177.73
542.494	12282.36
542.858	12339.31
543.223	12337.05
543.587	12461.11
543.952	12443.26
544.316	12366.65
544.681	12565.07
545.045	12629.02
545.41	12613.88
545.774	12692.52
546.138	12618.17
546.503	12789.24
546.867	12779.52
547.231	12883.25
547.595	12904.04
547.959	12947.2
548.324	12909.24
548.688	12979.29
549.052	13157.14
549.416	13106.52
549.779	13169.34
550.143	13132.51
550.507	13283.92
550.871	13309.45
551.235	13428.55
551.599	13446.17
551.962	13505.15
552.326	13431.26
552.689	13507.87
553.053	13524.59
553.417	13551.25
553.78	13698.14
554.143	13583.8
554.507	13808.42
554.87	13787.86
555.234	13939.27
555.597	13829.66
555.96	13899.27
556.323	13970
556.686	13964.58
557.05	14050
557.413	14193.72
557.776	14045.93
558.139	14193.27
558.502	14240.28
558.865	14251.8
559.228	14386.94
559.59	14369.31
559.953	14386.49
560.316	14593.94
560.679	14515.07
561.041	14647.72
561.404	14713.48
561.767	14847.94
562.129	14838
562.492	14878.22
562.854	14859.02
563.217	14910.54
563.579	14996.64
563.941	15090.87
564.304	15129.07
564.666	15183.53
565.028	15085.45
565.39	15228.95
565.753	15318.89
566.115	15395.73
566.477	15456.29
566.839	15475.5
567.201	15541.48
567.563	15634.59
567.925	15653.8
568.287	15565.21
568.648	15763.4
569.01	15781.7
569.372	15915.71
569.734	15809.05
570.095	16030.28
570.457	16121.81
570.819	16076.16
571.18	16173.33
571.542	16230.05
571.903	16329.49
572.265	16345.98
572.626	16443.16
572.987	16519.31
573.349	16639.08
573.71	16664.62
574.071	16732.41
574.432	16889.47
574.794	16978.28
575.155	17038.85
575.516	17090.82
575.877	17110.71
576.238	17298.73
576.599	17413.3
576.96	17557.48
577.32	17575.33
577.681	17830.92
578.042	17863.46
578.403	17954.75
578.763	18025.26
579.124	18174.18
579.485	18353.16
579.845	18435.42
580.206	18655.75
580.566	18728.29
580.927	18946.82
581.287	19174.38
581.648	19156.08
582.008	19422.06
582.368	19649.62
582.728	19825.44
583.089	19985.89
583.449	20066.56
583.809	20301.81
584.169	20477.63
584.529	20616.15
584.889	20902.7
585.249	21060.66
585.609	21186.31
585.969	21574.55
586.329	21707.65
586.688	21962.33
587.048	22145.15
587.408	22437.12
587.768	22571.81
588.127	22852.93
588.487	23089.08
588.846	23555.28
589.206	23522.74
589.565	23754.6
589.925	24144.2
590.284	24286.56
590.643	24523.62
591.003	24925.19
591.362	25229.82
591.721	25401.34
592.08	25696.92
592.44	26058.95
592.799	26249.45
593.158	26515.88
593.517	26707.29
593.876	26923.33
594.235	27287.62
594.593	27460.94
594.952	27846.25
595.311	28053.47
595.67	28355.61
596.029	28858.87
596.387	28973.45
596.746	29198.3
597.104	29344.28
597.463	29707.44
597.822	30095
598.18	30098.16
598.538	30452.28
598.897	30923.9
599.255	30816.34
599.613	31576.99
599.972	31428.52
600.33	31900.83
600.688	31957.78
601.046	32471.43
601.404	32693.12
601.762	32731.31
602.12	33090.85
602.478	33337.17
602.836	33487.9
603.194	33538.3
603.552	33850.16
603.91	34102.35
604.268	34365.85
604.625	34442.23
604.983	34746.63
605.341	34761.09
605.698	35153.85
606.056	35406.05
606.413	35487.4
606.771	35730.56
607.128	36014.84
607.485	35982.08
607.843	36327.83
608.2	36613.02
608.557	36730.98
608.914	36849.85
609.272	37287.13
609.629	37356.5
609.986	37578.42
610.343	37690.28
610.7	38086.65
611.057	37984.51
611.414	38250.27
611.771	38438.06
612.127	38581.56
612.484	38775.9
612.841	38934.32
613.198	39061.32
613.554	39172.05
613.911	39481.42
614.267	39460.63
614.624	39595.31
614.98	39739.04
615.337	39920.96
615.693	40004.12
616.05	40024.91
616.406	40414.73
616.762	40360.49
617.118	40372.02
617.475	40591.45
617.831	40816.07
618.187	40939.91
618.543	41100.13
618.899	41309.85
619.255	41349.84
619.611	41263.29
619.967	41602.49
620.323	41658.99
620.678	41677.07
621.034	41695.82
621.39	41797.06
621.746	41870.28
622.101	42351.63
622.457	42138.75
622.812	42151.18
623.168	42381.91
623.523	42500.78
623.879	42621.45
624.234	42359.31
624.589	42555.46
624.945	42627.55
625.3	42651.96
625.655	42642.92
626.01	42662.58
626.365	42809.02
626.72	42925.17
627.075	42830.94
627.43	42970.14
627.785	42906.64
628.14	42981.44
628.495	43135.79
628.85	43110.02
629.205	42892.63
629.559	43325.16
629.914	43100.31
630.269	43292.39
630.623	43151.61
630.978	43129.23
631.332	43492.61
631.687	43402.9
632.041	43271.6
632.396	43385.5
632.75	43121.32
633.104	43309.34
633.459	43183.7
633.813	43180.53
634.167	43304.37
634.521	43205.84
634.875	43361.32
635.229	43270.92
635.583	43285.16
635.937	43132.4
636.291	43314.77
636.645	43088.56
636.999	43150.25
637.352	43195.67
637.706	43097.82
638.06	43275.44
638.413	43151.83
638.767	43060.53
639.121	43305.5
639.474	43031.16
639.828	42898.73
640.181	43162.68
640.534	43086.3
640.888	43114.09
641.241	42876.81
641.594	43056.92
641.947	43065.05
642.301	42872.52
642.654	43040.2
643.007	43080.42
643.36	42894.44
643.713	42950.93
644.066	43025.73
644.419	42907.32
644.771	42597.04
645.124	42362.47
645.477	42218.75
645.83	41959.55
646.182	41821.24
646.535	41783.96
646.888	41776.27
647.24	41546.9
647.593	41894.01
647.945	41725.88
648.298	41590.29
648.65	41566.56
649.002	41376.28
649.355	41653.57
649.707	41680.91
650.059	41604.08
650.411	42205.87
650.763	42258.3
651.115	42469.59
651.467	42576.25
651.819	42421.91
652.171	42396.37
652.523	42319.76
652.875	42363.38
653.227	42359.31
653.578	42569.93
653.93	42305.07
654.282	42331.97
654.633	42146.43
654.985	42252.42
655.337	42300.1
655.688	42251.29
656.039	42444.96
656.391	42119.32
656.742	42241.35
657.094	42185.98
657.445	42359.54
657.796	42347.78
658.147	41997.51
658.498	42084.06
658.849	42285.87
659.2	42180.78
659.551	42082.93
659.902	42234.34
660.253	42102.14
660.604	42098.53
660.955	41946.44
661.306	42023.05
661.656	41896.72
662.007	42091.29
662.358	42096.49
662.708	41989.6
663.059	41961.13
663.409	41823.5
663.76	42143.04
664.11	42025.99
664.461	42034.57
664.811	42046.78
665.161	42076.38
665.511	42025.31
665.862	41936.95
666.212	41998.19
666.562	42042.26
666.912	41811.98
667.262	41869.83
667.612	41774.24
667.962	41781.02
668.312	41813.34
668.662	42004.74
669.011	41885.42
669.361	41834.58
669.711	41814.24
670.06	41778.99
670.41	41775.37
670.76	41722.26
671.109	41830.74
671.459	41709.84
671.808	41863.05
672.157	41793.68
672.507	41550.52
672.856	41555.72
673.205	41751.42
673.554	41793.22
673.904	41620.57
674.253	41999.55
674.602	41763.62
674.951	41101.26
675.3	40930.87
675.649	41449.96
675.998	41496.28
676.346	41503.97
676.695	41770.17
677.044	41286.12
677.393	41491.99
677.741	41447.7
678.09	41449.28
678.438	41370.41
678.787	41363.18
679.135	41470.07
679.484	41151.21
679.832	41302.84
680.181	41081.6
680.529	41195.27
680.877	41190.08
681.225	41118.44
681.573	41355.49
681.922	40929.07
682.27	40874.6
682.618	41037.99
682.966	40729.07
683.314	40781.27
683.661	40753.25
684.009	40457.67
684.357	40464.22
684.705	40440.04
685.053	40461.51
685.4	40449.3
685.748	40190.55
686.095	40269.2
686.443	40195.07
686.79	40120.5
687.138	40161.18
687.485	40207.5
687.832	40002.76
688.18	39937.23
688.527	39831.01
688.874	39740.62
689.221	39603.68
689.568	39694.97
689.915	39580.17
690.262	39602.77
690.609	39343.8
690.956	39388.09
691.303	39202.1
691.65	39021.54
691.997	39135.89
692.344	38799.4
692.69	38751.27
693.037	38839.18
693.383	38497.49
693.73	38709.69
694.077	38404.61
694.423	38421.11
694.769	38264.73
695.116	38110.38
695.462	38148.35
695.808	38072.87
696.155	38140.44
696.501	37840.78
696.847	37790.62
697.193	37653.22
697.539	37735.48
697.885	37405.99
698.231	37516.73
698.577	37497.74
698.923	37414.81
699.269	37166.9
699.614	37212.55
699.96	36947.25
700.306	37019.56
700.651	36761.27
700.997	36713.58
701.342	36643.98
701.688	36473.36
702.033	36512.91
702.379	36367.6
702.724	36434.72
703.069	36472.46
703.415	36028.63
703.76	36015.97
704.105	36077.44
704.45	35994.28
704.795	35731.46
705.14	35622.99
705.485	35683.55
705.83	35653.72
706.175	35564.69
706.52	35562.65
706.865	35368.99
707.209	35373.5
707.554	35223.23
707.899	35381.64
708.243	35083.57
708.588	35033.17
708.932	34994.31
709.277	34851.94
709.621	34857.36
709.966	34760.87
710.31	34732.84
710.654	34385.73
710.998	34422.57
711.342	34400.2
711.687	34370.14
712.031	34261.22
712.375	34073.88
712.719	34168.79
713.063	34088.79
713.407	34036.59
713.75	33962.47
714.094	33884.05
714.438	33766.77
714.782	33894.67
715.125	33659.65
715.469	33742.36
715.812	33666.66
716.156	33289.72
716.499	33319.77
716.843	33432.09
717.186	33232.09
717.53	33365.65
717.873	33383.27
718.216	33174.92
718.559	33046.11
718.902	32916.17
719.246	32896.06
719.589	32828.04
719.932	32718.21
720.275	32709.85
720.617	32746.46
720.96	32795.27
721.303	32682.28
721.646	32588.95
721.989	32385.56
722.331	32590.75
722.674	32396.63
723.016	32450.19
723.359	32426.01
723.701	32409.74
724.044	32149.63
724.386	32134.27
724.729	32198.67
725.071	32081.16
725.413	32123.87
725.755	32018.34
726.097	31933.6
726.439	31817.21
726.782	31688.18
727.124	31936.53
727.465	31706.71
727.807	31641.63
728.149	31578.58
728.491	31637.33
728.833	31676.43
729.175	31446.15
729.516	31295.19
729.858	31395.98
730.199	31498.58
730.541	31221.3
730.882	31242.31
731.224	31290
731.565	30989.89
731.906	31132.03
732.248	31075.76
732.589	30973.85
732.93	30870.12
733.271	30890.91
733.612	30913.74
733.953	30886.62
734.294	30649.79
734.635	30680.97
734.976	30652.95
735.317	30501.32
735.658	30627.87
735.999	30507.42
736.339	30491.37
736.68	30554.65
737.021	30452.5
737.361	30412.05
737.702	30527.53
738.042	30400.75
738.383	30369.34
738.723	30341.55
739.063	30104.94
739.404	30313.3
739.744	30178.61
740.084	30046.41
740.424	30059.07
740.764	29978.84
741.104	30066.53
741.444	29921.22
741.784	29925.74
742.124	29954.89
742.464	29831.96
742.804	29760.32
743.143	29767.55
743.483	29754.67
743.823	29606.42
744.162	29612.3
744.502	29640.1
744.841	29524.39
745.181	29567.1
745.52	29426.77
745.86	29380.22
746.199	29383.38
746.538	29346.32
746.877	29426.09
747.216	29506.31
747.556	29268.58
747.895	29250.05
748.234	29147.23
748.573	29077.4
748.911	29057.29
749.25	29012.32
749.589	28807.8
749.928	28955.37
750.267	29052.32
750.605	28875.37
750.944	28739.56
751.283	28706.34
751.621	28737.07
751.96	28706.79
752.298	28764.64
752.636	28637.86
752.975	28329.62
753.313	28335.5
753.651	28417.08
753.989	28365.33
754.327	28300.92
754.666	28133.92
755.004	28149.29
755.342	28215.95
755.679	28133.24
756.017	27939.58
756.355	28016.18
756.693	27858.9
757.031	27947.03
757.368	27789.75
757.706	27693.93
758.044	27773.03
758.381	27804.21
758.719	27547.95
759.056	27581.62
759.394	27626.59
759.731	27237.67
760.068	27290.33
760.405	27167.84
760.743	27158.35
761.08	27171.46
761.417	26995.42
761.754	26968.98
762.091	26947.74
762.428	26842.66
762.765	26615.32
763.102	26797.23
763.438	26708.87
763.775	26528.09
764.112	26501.42
764.449	26507.98
764.785	26468.88
765.122	26154.76
765.458	25966.75
765.795	25983.47
766.131	26076.12
766.467	25896.92
766.804	25858.73
767.14	25596.81
767.476	25805.17
767.812	25504.39
768.148	25611.28
768.485	25527.44
768.821	25286.76
769.157	25296.03
769.492	25226.43
769.828	25173.55
770.164	24997.05
770.5	24969.26
770.836	24882.03
771.171	24629.38
771.507	24696.95
771.842	24493.57
772.178	24553
772.513	24451.76
772.849	24351.65
773.184	24265.1
773.519	24246.11
773.855	24118.89
774.19	24068.94
774.525	24022.62
774.86	24003.41
775.195	23842.96
775.53	23757.54
775.865	23698.11
776.2	23510.09
776.535	23417.89
776.87	23437.1
777.205	23328.4
777.539	23155.3
777.874	23177.22
778.209	23026.26
778.543	22956.88
778.878	22835.76
779.212	22778.36
779.547	22707.17
779.881	22612.03
780.215	22501.98
780.55	22573.84
780.884	22388.08
781.218	22294.07
781.552	22314.41
781.886	22142.44
782.22	22165.94
782.554	21942.45
782.888	21838.27
783.222	21647.99
783.556	21615
783.889	21605.05
784.223	21513.3
784.557	21429.46
784.89	21447.54
785.224	21269.02
785.557	21172.07
785.891	21147.89
786.224	21104.73
786.558	21182.47
786.891	20848.46
787.224	20763.27
787.557	20759.88
787.891	20690.5
788.224	20732.31
788.557	20754.23
788.89	20616.83
789.223	20522.14
789.556	20342.71
789.888	20253.45
790.221	20314.01
790.554	20069.5
790.887	20104.08
791.219	20005.32
791.552	19998.09
791.884	19802.61
792.217	19859.11
792.549	19795.84
792.882	19555.39
793.214	19543.86
793.546	19607.37
793.879	19435.84
794.211	19320.82
794.543	19370.08
794.875	19343.19
795.207	19386.81
795.539	19249.86
795.871	19183.87
796.203	18996.99
796.535	19020.94
796.867	18890.1
797.198	18884.45
797.53	18836.31
797.862	18699.82
798.193	18731.91
798.525	18583.89
798.856	18584.34
799.188	18415.31
799.519	18268.64
799.85	18289.43
800.182	18295.99
800.513	18270.9
800.844	18143.68
801.175	18161.08
801.506	18109.55
801.837	18049.21
802.168	18013.96
802.499	18006.73
802.83	17789.33
803.161	17860.07
803.491	17807.19
803.822	17822.1
804.153	17692.16
804.483	17547.98
804.814	17532.84
805.145	17505.05
805.475	17515.22
805.805	17415.33
806.136	17422.11
806.466	17337.59
806.796	17318.61
807.126	17200.2
807.457	17186.41
807.787	17204.94
808.117	17169.92
808.447	16985.97
808.777	17035.91
809.107	16961.33
809.436	16910.04
809.766	16788.46
810.096	16820.77
810.426	16832.3
810.755	16720.21
811.085	16694.45
811.414	16665.97
811.744	16483.38
812.073	16467.34
812.403	16496.26
812.732	16428.69
813.061	16386.43
813.39	16305.31
813.719	16261.69
814.049	16352.99
814.378	16248.58
814.707	16133.56
815.036	16094.24
815.365	16116.16
815.693	15941.93
816.022	15941.25
816.351	15867.35
816.68	15870.74
817.008	15926.56
817.337	15825.09
817.665	15756.85
817.994	15673.68
818.322	15717.3
818.651	15564.76
818.979	15513.69
819.307	15645.89
819.636	15532.44
819.964	15420.13
820.292	15549.85
820.62	15550.98
820.948	15438.89
821.276	15519.56
821.604	15416.29
821.932	15524.31
822.259	15508.94
822.587	15468.49
822.915	15322.96
823.243	15446.57
823.57	15334.94
823.898	15430.3
824.225	15309.63
824.553	15351.21
824.88	15334.26
825.207	15342.62
825.535	15372
825.862	15405.22
826.189	15315.28
826.516	15401.6
826.843	15377.42
827.17	15349.17
827.497	15363.41
827.824	15435.05
828.151	15361.15
828.478	15341.04
828.805	15394.37
829.131	15310.3
829.458	15236.41
829.785	15222.4
830.111	15367.03
830.438	15366.8
830.764	15296.52
831.09	15332.22
831.417	15261.94
831.743	15372.22
832.069	15246.35
832.395	15248.84
832.722	15254.26
833.048	15137.2
833.374	15270.76
833.7	15084.09
834.026	15186.69
834.351	15209.97
834.677	15196.63
835.003	15226.46
835.329	15190.76
835.654	15111.21
835.98	15016.53
836.306	14953.02
836.631	15006.81
836.956	15070.08
837.282	15088.61
837.607	14941.27
837.932	14929.75
838.258	14901.73
838.583	14891.33
838.908	14769.53
839.233	14764.33
839.558	14785.57
839.883	14795.06
840.208	14686.82
840.533	14712.58
840.858	14647.04
841.182	14680.94
841.507	14703.54
841.832	14556.43
842.156	14578.12
842.481	14543.09
842.805	14532.92
843.13	14521.85
843.454	14416.32
843.778	14420.84
844.103	14425.13
844.427	14294.29
844.751	14379.25
845.075	14294.96
845.399	14241.63
845.723	14204.57
846.047	14120.96
846.371	14086.83
846.695	14095.87
847.019	13914.86
847.343	13900.4
847.666	13859.27
847.99	13797.35
848.313	13841.87
848.637	13724.81
848.96	13651.36
849.284	13614.3
849.607	13563
849.931	13512.84
850.254	13380.18
850.577	13371.6
850.9	13223.58
851.223	13251.15
851.546	13173.41
851.869	13144.48
852.192	13175.67
852.515	13061.55
852.838	12903.81
853.161	13000.76
853.483	12932.29
853.806	12881.67
854.129	12852.52
854.451	12805.74
854.774	12762.8
855.096	12672.63
855.419	12673.31
855.741	12692.29
856.063	12528
856.385	12507.44
856.708	12443.94
857.03	12470.83
857.352	12479.19
857.674	12393.09
857.996	12276.71
858.318	12290.95
858.64	12225.86
858.961	12274.9
859.283	12234.23
859.605	12059.54
859.926	12163.04
860.248	12088.24
860.57	12109.94
860.891	12119.43
861.212	12019.09
861.534	12006.89
861.855	11853.67
862.176	12009.6
862.498	11890.28
862.819	11869.94
863.14	11897.96
863.461	11798.08
863.782	11839.43
864.103	11821.36
864.424	11712.88
864.745	11775.71
865.065	11702.49
865.386	11650.51
865.707	11648.03
866.027	11632.66
866.348	11580.91
866.668	11545.88
866.989	11558.76
867.309	11465.88
867.63	11498.65
867.95	11545.2
868.27	11458.2
868.59	11443.74
868.91	11411.2
869.23	11375.49
869.55	11376.85
869.87	11393.57
870.19	11390.86
870.51	11323.06
870.83	11387.47
871.15	11298.43
871.469	11296.17
871.789	11309.5
872.109	11258.43
872.428	11149.51
872.748	11219.79
873.067	11208.04
873.386	11234.03
873.706	11239.9
874.025	11156.06
874.344	11108.15
874.663	11132.56
874.982	11095.73
875.301	11107.48
875.62	11060.25
875.939	11072.45
876.258	11082.62
876.577	10998.55
876.896	10999.91
877.214	10952.45
877.533	10965.11
877.852	10905.67
878.17	10926.46
878.489	10944.54
878.807	10940.93
879.125	10850.53
879.444	10935.96
879.762	10822.06
880.08	10896.18
880.398	10774.83
880.716	10803.53
881.034	10691.67
881.352	10739.8
881.67	10714.94
881.988	10697.77
882.306	10653.48
882.624	10599.02
882.941	10531.45
883.259	10580.03
883.577	10507.49
883.894	10481.28
884.212	10535.29
884.529	10471.11
884.846	10412.13
885.164	10399.02
885.481	10347.95
885.798	10421.39
886.115	10288.06
886.432	10302.07
886.75	10316.08
887.067	10284.9
887.383	10224.11
887.7	10222.08
888.017	10262.53
888.334	10230.89
888.651	10156.54
888.967	10109.76
889.284	10043.55
889.6	10146.82
889.917	10105.02
890.233	10008.07
890.55	9980.5
890.866	10013.27
891.182	9998.8
891.498	9951.57
891.815	9912.93
892.131	9870.67
892.447	9836.78
892.763	9739.15
893.079	9730.56
893.395	9725.59
893.71	9721.3
894.026	9702.32
894.342	9624.8
894.657	9563.11
894.973	9543
895.289	9520.17
895.604	9524.69
895.92	9422.1
896.235	9405.15
896.55	9383.45
896.865	9462.55
897.181	9364.47
897.496	9455.09
897.811	9281.54
898.126	9278.6
898.441	9231.37
898.756	9185.27
899.071	9103.69
899.386	9146.4
899.7	9167.87
900.015	9051.49
900.33	9037.47
900.644	9041.32
900.959	9031.37
901.273	8960.19
901.588	8898.72
901.902	8870.92
902.216	8882.22
902.531	8800.19
902.845	8788.22
903.159	8740.76
903.473	8775.56
903.787	8692.4
904.101	8652.4
904.415	8687.88
904.729	8594.32
905.042	8584.6
905.356	8479.75
905.67	8492.86
905.984	8416.93
906.297	8472.07
906.611	8366.53
906.924	8391.84
907.237	8363.14
907.551	8365.85
907.864	8288.34
908.177	8285.4
908.491	8255.8
908.804	8251.96
909.117	8122.47
909.43	8141.23
909.743	8085.18
910.056	8082.92
910.368	8070.49
910.681	7999.31
910.994	7957.05
911.307	7918.41
911.619	7802.25
911.932	7899.43
912.244	7781.69
912.557	7792.54
912.869	7813.1
913.181	7718.64
913.494	7728.36
913.806	7673.67
914.118	7627.79
914.43	7562.94
914.742	7652.2
915.054	7578.98
915.366	7522.26
915.678	7476.16
915.99	7422.38
916.302	7347.8
916.613	7315.03
916.925	7370.4
917.236	7315.26
917.548	7340.34
917.859	7307.12
918.171	7284.07
918.482	7221.48
918.794	7180.12
919.105	7148.03
919.416	7102.84
919.727	7079.56
920.038	7142.16
920.349	6978.32
920.66	6985.32
920.971	6956.62
921.282	6962.5
921.593	6908.49
921.903	6828.72
922.214	6888.38
922.525	6814.48
922.835	6802.28
923.146	6686.35
923.456	6722.28
923.767	6705.78
924.077	6731.55
924.387	6664.66
924.697	6608.16
925.008	6560.25
925.318	6496.07
925.628	6522.29
925.938	6477.09
926.248	6510.31
926.558	6421.72
926.867	6450.42
927.177	6378.34
927.487	6335.4
927.796	6339.47
928.106	6277.32
928.416	6351.9
928.725	6286.36
929.034	6230.32
929.344	6203.2
929.653	6203.88
929.962	6118.23
930.271	6162.07
930.581	6104.9
930.89	6046.82
931.199	5998.23
931.508	6033.71
931.817	5996.2
932.125	5990.77
932.434	5966.37
932.743	5922.53
933.051	5872.59
933.36	5858.12
933.669	5842.53
933.977	5847.95
934.286	5842.98
934.594	5806.6
934.902	5738.8
935.21	5724.79
935.519	5687.73
935.827	5663.55
936.135	5628.75
936.443	5580.62
936.751	5585.36
937.059	5565.48
937.367	5544.68
937.674	5548.75
937.982	5529.54
938.29	5499.71
938.597	5474.18
938.905	5431.02
939.213	5416.78
939.52	5333.16
939.827	5341.07
940.135	5321.64
940.442	5311.92
940.749	5271.47
941.056	5291.81
941.363	5266.95
941.67	5233.96
941.977	5206.39
942.284	5160.97
942.591	5189.21
942.898	5137.24
943.205	5108.99
943.511	5098.59
943.818	5058.82
944.125	5047.75
944.431	5066.51
944.738	5039.61
945.044	4991.7
945.35	4965.72
945.657	4963.01
945.963	4906.28
946.269	4872.61
946.575	4917.36
946.881	4832.16
947.187	4876.23
947.493	4796.68
947.799	4811.6
948.105	4736.8
948.41	4787.64
948.716	4753.75
949.022	4682.11
949.327	4718.94
949.633	4666.97
949.938	4683.69
950.244	4656.8
950.549	4594.43
950.854	4542
951.16	4541.32
951.465	4521.21
951.77	4534.09
952.075	4513.75
952.38	4513.53
952.685	4492.51
952.99	4409.8
953.294	4474.88
953.599	4405.28
953.904	4357.82
954.209	4312.63
954.513	4320.08
954.818	4340.87
955.122	4323.47
955.426	4316.24
955.731	4276.47
956.035	4236.24
956.339	4235.34
956.643	4203.93
956.948	4198.96
957.252	4194.89
957.556	4164.61
957.86	4122.12
958.163	4109.24
958.467	4132.07
958.771	4077.15
959.075	4042.8
959.378	4045.97
959.682	4050.49
959.985	4010.94
960.289	3997.61
960.592	3988.57
960.896	4017.04
961.199	3968.91
961.502	3926.87
961.805	3925.74
962.108	3908.8
962.411	3850.04
962.714	3860.66
963.017	3847.1
963.32	3884.84
963.623	3857.27
963.926	3839.64
964.228	3788.35
964.531	3763.49
964.833	3784.96
965.136	3758.52
965.438	3736.6
965.741	3687.56
966.043	3717.61
966.345	3673.55
966.648	3654.79
966.95	3661.8
967.252	3622.48
967.554	3582.93
967.856	3583.38
968.158	3571.18
968.46	3537.51
968.761	3550.61
969.063	3542.03
969.365	3509.03
969.666	3509.26
969.968	3479.2
970.269	3492.99
970.571	3444.63
970.872	3425.64
971.174	3432.42
971.475	3440.79
971.776	3387
972.077	3367.79
972.378	3343.39
972.679	3374.57
972.98	3367.34
973.281	3343.39
973.582	3334.8
973.883	3305.65
974.183	3339.09
974.484	3294.12
974.785	3245.31
975.085	3240.79
975.386	3247.12
975.686	3203.28
975.986	3199.89
976.287	3160.79
976.587	3157.85
976.887	3156.72
977.187	3123.51
977.487	3148.14
977.787	3160.57
978.087	3068.59
978.387	3120.12
978.687	3085.99
978.987	3023.4
979.286	3036.05
979.586	3001.93
979.885	3028.59
980.185	3022.27
980.484	2996.28
980.784	2949.72
981.083	2976.62
981.382	2967.35
981.682	2947.01
981.981	2919.22
982.28	2925.09
982.579	2871.99
982.878	2860.46
983.177	2876.51
983.475	2860.24
983.774	2882.38
984.073	2830.41
984.372	2801.93
984.67	2785.21
984.969	2811.2
985.267	2768.71
985.566	2788.15
985.864	2749.73
986.162	2740.69
986.461	2746.34
986.759	2718.32
987.057	2713.8
987.355	2683.97
987.653	2702.27
987.951	2679.68
988.249	2682.84
988.547	2645.78
988.844	2627.02
989.142	2601.49
989.44	2583.86
989.737	2596.29
990.035	2538.66
990.332	2598.1
990.63	2587.02
990.927	2545.89
991.224	2536.4
991.521	2530.3
991.819	2540.7
992.116	2486.91
992.413	2500.24
992.71	2464.54
993.006	2480.13
993.303	2419.12
993.6	2411.89
993.897	2446.91
994.193	2397.42
994.49	2391.55
994.787	2404.2
995.083	2362.85
995.379	2396.97
995.676	2364.66
995.972	2355.16
996.268	2345.22
996.565	2326.24
996.861	2337.31
997.157	2337.76
997.453	2323.53
997.749	2274.94
998.044	2255.05
998.34	2235.62
998.636	2231.1
998.932	2258.67
999.227	2253.25
999.523	2211.89
999.818	2205.79
1000.114	2195.85
1000.409	2166.02
1000.704	2168.05
1001	2186.13
1001.295	2174.15
1001.59	2125.79
1001.885	2118.79
1002.18	2123.98
1002.475	2080.37
1002.77	2087.83
1003.065	2052.8
1003.359	2065.23
1003.654	2043.08
1003.949	2021.16
1004.243	2053.25
1004.538	2019.35
1004.832	2007.38
1005.127	1995.85
1005.421	1968.28
1005.715	1947.49
1006.009	1971.67
1006.304	1968.73
1006.598	1945.68
1006.892	1954.04
1007.186	1914.27
1007.48	1908.4
1007.773	1924.44
1008.067	1907.49
1008.361	1886.93
1008.655	1858
1008.948	1834.73
1009.242	1860.04
1009.535	1812.58
1009.829	1823.43
1010.122	1803.77
1010.415	1840.38
1010.708	1798.57
1011.001	1788.63
1011.295	1767.83
1011.588	1763.54
1011.881	1745.01
1012.173	1749.76
1012.466	1725.8
1012.759	1729.64
1013.052	1752.69
1013.344	1737.78
1013.637	1691.9
1013.93	1716.76
1014.222	1681.96
1014.514	1675.86
1014.807	1633.6
1015.099	1625.69
1015.391	1659.59
1015.683	1641.74
1015.976	1633.15
1016.268	1597.67
1016.56	1611.45
1016.851	1589.76
1017.143	1557.44
1017.435	1581.17
1017.727	1569.42
1018.018	1590.21
1018.31	1544.11
1018.602	1546.15
1018.893	1518.35
1019.185	1542.53
1019.476	1476.77
1019.767	1495.3
1020.058	1487.62
1020.35	1480.84
1020.641	1478.58
1020.932	1442.42
1021.223	1456.66
1021.514	1445.13
1021.804	1449.88
1022.095	1427.73
1022.386	1411.23
1022.677	1405.13
1022.967	1395.19
1023.258	1376.66
1023.548	1374.85
1023.839	1355.87
1024.129	1350.44
1024.419	1350.22
1024.709	1329.2
1025	1343.89
1025.29	1297.56
1025.58	1295.08
1025.87	1296.89
1026.16	1287.62
1026.449	1303.21
1026.739	1293.5
1027.029	1267.28
1027.319	1233.84
1027.608	1255.31
1027.898	1241.97
1028.187	1236.78
1028.477	1246.94
1028.766	1222.54
1029.055	1224.35
1029.344	1216.21
1029.634	1180.73
1029.923	1202.65
1030.212	1184.57
1030.501	1151.58
1030.79	1176.66
1031.078	1157
1031.367	1153.16
1031.656	1154.07
1031.945	1141.41
1032.233	1146.61
1032.522	1126.72
1032.81	1112.71
1033.099	1117.91
1033.387	1097.34
1033.675	1081.3
1033.963	1085.37
1034.251	1083.33
1034.54	1094.41
1034.828	1066.84
1035.116	1048.98
1035.403	1037.91
1035.691	1061.19
1035.979	1043.33
1036.267	1051.24
1036.554	1015.54
1036.842	1017.12
1037.129	1041.53
1037.417	1010.11
1037.704	975.99
1037.992	982.09
1038.279	982.77
1038.566	994.07
1038.853	994.07
1039.14	994.07
