Data from hue_28_FLMS001491_00053.txt Node
Date: Tue Feb 07 17:17:27 GMT 2017
User: dcchb
Spectrometer: FLMS00149
Trigger mode: 0
Integration Time (sec): 2.000000E-2
Scans to average: 10
Electric dark correction enabled: true
Nonlinearity correction enabled: false
Boxcar width: 0
XAxis mode: Wavelengths
Number of Pixels in Spectrum: 2048
>>>>>Begin Spectral Data<<<<<
341.393	-9.05
341.776	-9.05
342.16	-9.05
342.543	-51.09
342.927	-31.43
343.31	-80.92
343.693	-62.84
344.077	-56.74
344.46	-61.71
344.843	-57.64
345.226	-41.14
345.61	-44.76
345.993	-18.32
346.376	6.77
346.759	12.41
347.142	38.63
347.525	16.48
347.908	51.06
348.291	90.83
348.674	93.09
349.057	114.79
349.44	117.04
349.823	142.36
350.206	185.07
350.588	224.39
350.971	221.22
351.354	226.87
351.737	245.18
352.119	256.93
352.502	282.24
352.884	287.44
353.267	306.87
353.65	288.79
354.032	310.03
354.414	312.52
354.797	303.48
355.179	329.02
355.562	323.82
355.944	343.03
356.326	340.77
356.709	335.34
357.091	360.65
357.473	359.98
357.855	359.07
358.238	362.69
358.62	370.15
359.002	339.41
359.384	357.49
359.766	354.78
360.148	351.39
360.53	352.74
360.912	353.87
361.294	341.22
361.676	347.55
362.057	359.75
362.439	340.09
362.821	348.9
363.203	335.8
363.584	326.98
363.966	338.28
364.348	352.07
364.729	340.54
365.111	333.08
365.493	336.47
365.874	322.24
366.256	328.11
366.637	327.66
367.019	338.96
367.4	349.81
367.781	354.78
368.163	315.68
368.544	318.17
368.925	330.82
369.306	330.6
369.688	331.28
370.069	311.84
370.45	327.89
370.831	313.2
371.212	328.79
371.593	329.69
371.974	323.82
372.355	328.11
372.736	325.18
373.117	345.06
373.498	316.36
373.879	336.7
374.26	348.45
374.641	340.54
375.021	321.79
375.402	338.28
375.783	336.02
376.163	357.26
376.544	348
376.925	339.19
377.305	344.61
377.686	346.87
378.066	330.15
378.447	335.12
378.827	344.16
379.208	327.89
379.588	346.19
379.968	347.32
380.349	332.63
380.729	326.76
381.109	348.23
381.489	360.88
381.87	352.74
382.25	354.78
382.63	338.96
383.01	374.21
383.39	342.35
383.77	350.26
384.15	369.92
384.53	356.13
384.91	349.81
385.29	356.36
385.67	367.66
386.049	375.57
386.429	372.63
386.809	365.4
387.189	345.51
387.568	359.52
387.948	366.98
388.328	366.76
388.707	356.13
389.087	363.59
389.466	353.2
389.846	371.05
390.225	376.02
390.605	354.33
390.984	373.31
391.363	387.77
391.743	376.02
392.122	401.11
392.501	390.48
392.881	371.05
393.26	379.41
393.639	362.69
394.018	375.57
394.397	397.04
394.776	397.94
395.155	389.35
395.534	385.51
395.913	392.97
396.292	383.7
396.671	394.33
397.05	387.32
397.429	391.84
397.808	388.9
398.186	383.93
398.565	393.2
398.944	399.98
399.323	401.56
399.701	404.72
400.08	395.23
400.458	424.38
400.837	404.27
401.215	412.4
401.594	408.79
401.972	435.68
402.351	414.21
402.729	412.86
403.107	405.17
403.486	438.39
403.864	412.18
404.242	433.65
404.62	426.19
404.999	408.11
405.377	428.45
405.755	417.38
406.133	455.34
406.511	441.56
406.889	425.06
407.267	440.65
407.645	442.69
408.023	421.22
408.401	441.56
408.779	432.52
409.156	449.01
409.534	429.13
409.912	453.31
410.29	456.47
410.667	458.5
411.045	463.48
411.422	449.69
411.8	457.83
412.178	484.49
412.555	451.27
412.933	459.86
413.31	477.04
413.687	467.77
414.065	493.53
414.442	478.17
414.819	475.23
415.197	470.26
415.574	493.53
415.951	508.9
416.328	492.63
416.705	479.75
417.082	511.16
417.46	491.72
417.837	489.46
418.214	499.18
418.591	515.68
418.967	500.09
419.344	535.11
419.721	499.18
420.098	522.01
420.475	537.37
420.852	506.64
421.228	527.43
421.605	517.03
421.982	539.18
422.358	541.89
422.735	541.89
423.111	541.89
423.488	544.15
423.864	543.93
424.241	554.1
424.617	550.03
424.994	566.3
425.37	563.36
425.746	564.26
426.123	563.59
426.499	577.6
426.875	562
427.251	552.74
427.627	578.5
428.003	589.35
428.379	590.25
428.756	605.85
429.132	593.42
429.507	608.11
429.883	598.61
430.259	601.33
430.635	627.99
431.011	618.05
431.387	614.43
431.763	637.03
432.138	640.87
432.514	633.87
432.89	634.77
433.265	655.79
433.641	641.32
434.016	658.05
434.392	647.88
434.767	662.12
435.143	666.86
435.518	658.27
435.894	684.04
436.269	689.69
436.644	699.4
437.02	697.82
437.395	694.43
437.77	708.67
438.145	695.33
438.52	712.74
438.895	717.93
439.271	701.66
439.646	732.85
440.021	738.27
440.395	734.88
440.77	722.45
441.145	720.19
441.52	755.9
441.895	766.97
442.27	728.1
442.645	750.7
443.019	756.8
443.394	776.46
443.769	781.21
444.143	789.12
444.518	790.02
444.892	785.73
445.267	787.76
445.641	771.49
446.016	783.24
446.39	778.27
446.764	778.72
447.139	789.57
447.513	765.39
447.887	769.68
448.262	809.68
448.636	816.24
449.01	820.53
449.384	831.83
449.758	821.21
450.132	847.42
450.506	837.48
450.88	834.77
451.254	827.53
451.628	852.62
452.002	867.31
452.376	853.75
452.75	853.97
453.123	876.12
453.497	892.39
453.871	904.14
454.244	901.66
454.618	867.53
454.992	905.95
455.365	924.48
455.739	955.44
456.112	933.07
456.486	960.86
456.859	968.1
457.232	978.94
457.606	970.58
457.979	957.47
458.352	997.47
458.725	985.72
459.099	990.92
459.472	1037.02
459.845	1030.47
460.218	1022.56
460.591	1054.2
460.964	1070.01
461.337	1077.92
461.71	1081.54
462.083	1103.91
462.456	1081.09
462.829	1077.7
463.201	1102.56
463.574	1160.18
463.947	1141.65
464.32	1159.5
464.692	1167.86
465.065	1165.83
465.438	1188.2
465.81	1203.57
466.183	1204.47
466.555	1229.56
466.928	1220.74
467.3	1245.38
467.672	1256.45
468.045	1301.42
468.417	1291.93
468.789	1317.69
469.161	1335.54
469.534	1378.48
469.906	1363.57
470.278	1383.68
470.65	1403.56
471.022	1416.45
471.394	1459.61
471.766	1460.96
472.138	1500.51
472.51	1498.93
472.882	1548.19
473.253	1566.95
473.625	1611.69
473.997	1611.02
474.369	1645.59
474.74	1663.22
475.112	1697.34
475.484	1709.32
475.855	1756.78
476.227	1782.09
476.598	1825.7
476.97	1817.34
477.341	1883.78
477.713	1932.14
478.084	1961.06
478.455	1989.09
478.827	1989.54
479.198	2104.11
479.569	2084.68
479.94	2160.16
480.311	2191.79
480.682	2240.15
481.053	2314.28
481.424	2373.03
481.795	2375.52
482.166	2433.14
482.537	2481.95
482.908	2526.7
483.279	2525.8
483.65	2617.09
484.021	2679.92
484.391	2767.37
484.762	2753.81
485.133	2745.45
485.503	2838.1
485.874	2916.07
486.244	2956.52
486.615	3064.99
486.985	3073.58
487.356	3151.99
487.726	3219.79
488.097	3249.62
488.467	3314.02
488.837	3398.54
489.207	3425.66
489.578	3545.43
489.948	3593.11
490.318	3601.93
490.688	3678.31
491.058	3675.82
491.428	3752.88
491.798	3791.3
492.168	3907.45
492.538	3931.63
492.908	4006.66
493.278	4083.27
493.648	4081.69
494.017	4133.44
494.387	4215.24
494.757	4233.32
495.126	4328.91
495.496	4380.44
495.866	4367.78
496.235	4462.24
496.605	4452.3
496.974	4511.05
497.344	4582.46
497.713	4603.93
498.082	4656.13
498.452	4689.81
498.821	4772.52
499.19	4809.58
499.559	4837.15
499.928	4865.62
500.298	4895.22
500.667	4952.17
501.036	4939.52
501.405	5046.41
501.774	5056.35
502.143	5064.26
502.512	5106.07
502.88	5111.26
503.249	5216.57
503.618	5216.12
503.987	5260.86
504.356	5261.54
504.724	5288.21
505.093	5351.48
505.462	5365.49
505.83	5431.26
506.199	5390.8
506.567	5506.73
506.936	5457.7
507.304	5565.04
507.672	5581.99
508.041	5606.39
508.409	5693.85
508.777	5704.69
509.145	5758.03
509.514	5683.9
509.882	5796.9
510.25	5764.58
510.618	5766.39
510.986	5761.19
511.354	5873.05
511.722	5874.63
512.09	5964.35
512.458	5984.01
512.826	5974.07
513.193	5994.86
513.561	6074.18
513.929	6067.17
514.297	6176.32
514.664	6113.27
515.032	6163.44
515.4	6236.66
515.767	6253.38
516.135	6205.7
516.502	6240.05
516.869	6293.61
517.237	6325.7
517.604	6301.52
517.972	6394.17
518.339	6398.91
518.706	6355.52
519.073	6436.2
519.44	6474.17
519.808	6487.95
520.175	6433.26
520.542	6556.65
520.909	6573.15
521.276	6569.3
521.643	6624.9
522.009	6657.66
522.376	6660.15
522.743	6704.44
523.11	6768.4
523.477	6892.91
523.843	6779.24
524.21	6913.25
524.577	6983.31
524.943	6974.04
525.31	6976.07
525.676	7046.35
526.043	7132.91
526.409	7055.39
526.776	7112.57
527.142	7174.71
527.508	7173.13
527.874	7226.24
528.241	7290.64
528.607	7297.87
528.973	7339.45
529.339	7346.46
529.705	7426.46
530.071	7483.4
530.437	7513.23
530.803	7484.31
531.169	7605.89
531.535	7622.16
531.901	7602.5
532.267	7609.73
532.632	7720.69
532.998	7794.81
533.364	7803.85
533.73	7785.54
534.095	7810.85
534.461	7887.69
534.826	7895.82
535.192	7940.57
535.557	8051.3
535.923	7999.78
536.288	8064.86
536.653	8018.98
537.019	8074.35
537.384	8116.83
537.749	8191.86
538.114	8182.37
538.479	8154.57
538.845	8289.26
539.21	8231.86
539.575	8335.81
539.94	8334.68
540.305	8334.68
540.67	8368.81
541.034	8419.65
541.399	8376.26
541.764	8546.2
542.129	8516.82
542.494	8592.75
542.858	8643.15
543.223	8605.18
543.587	8686.09
543.952	8661.68
544.316	8739.42
544.681	8748.23
545.045	8800.43
545.41	8898.51
545.774	8838.17
546.138	8927.43
546.503	8937.6
546.867	8985.51
547.231	8990.03
547.595	9058.96
547.959	9120.2
548.324	9096.7
548.688	9054.44
549.052	9165.17
549.416	9204.49
549.779	9264.38
550.143	9285.39
550.507	9320.19
550.871	9333.53
551.235	9359.74
551.599	9456.46
551.962	9426.86
552.326	9410.13
552.689	9545.5
553.053	9444.94
553.417	9481.09
553.78	9653.74
554.143	9544.37
554.507	9675.21
554.87	9661.88
555.234	9751.59
555.597	9660.75
555.96	9821.42
556.323	9767.64
556.686	9759.96
557.05	9793.63
557.413	9886.73
557.776	9872.27
558.139	9936.67
558.502	9936.67
558.865	9928.09
559.228	10065.26
559.59	9966.73
559.953	10091.47
560.316	10162.88
560.679	10165.82
561.041	10207.85
561.404	10250.79
561.767	10307.96
562.129	10258.93
562.492	10400.62
562.854	10380.5
563.217	10422.31
563.579	10425.25
563.941	10517.9
564.304	10523.1
564.666	10544.34
565.028	10685.81
565.39	10654.62
565.753	10674.51
566.115	10695.75
566.477	10806.93
566.839	10762.64
567.201	10797.44
567.563	10809.65
567.925	10975.97
568.287	10872.69
568.648	10930.32
569.01	11020.26
569.372	11076.3
569.734	11023.42
570.095	11122.63
570.457	11157.66
570.819	11273.36
571.18	11261.16
571.542	11317.2
571.903	11329.63
572.265	11426.8
572.626	11512.9
572.987	11490.31
573.349	11571.88
573.71	11687.14
574.071	11757.64
574.432	11904.98
574.794	11949.28
575.155	11887.36
575.516	12043.29
575.877	12099.33
576.238	12219.78
576.599	12258.87
576.96	12382.26
577.32	12425.87
577.681	12558.53
578.042	12756.71
578.403	12855.47
578.763	12848.69
579.124	12992.19
579.485	13190.37
579.845	13354.66
580.206	13408.45
580.566	13515.34
580.927	13694.54
581.287	13871.03
581.648	13983.35
582.008	14178.14
582.368	14346.95
582.728	14429.21
583.089	14726.6
583.449	14861.29
583.809	15086.37
584.169	15262.86
584.529	15405.46
584.889	15830.3
585.249	15899.45
585.609	16143.52
585.969	16411.76
586.329	16617.85
586.688	16911.86
587.048	17058.29
587.408	17395.91
587.768	17634.78
588.127	17978.04
588.487	18252.39
588.846	18593.17
589.206	18716.33
589.565	19030.45
589.925	19453.26
590.284	19619.58
590.643	20021.61
591.003	20253.92
591.362	20712.89
591.721	21011.18
592.08	21193.55
592.44	21669.7
592.799	21906.98
593.158	22253.41
593.517	22496.8
593.876	22972.94
594.235	23187.17
594.593	23596.43
594.952	24040.94
595.311	24104.66
595.67	24637.08
596.029	25057.63
596.387	25404.74
596.746	25754.79
597.104	25959.08
597.463	26360.87
597.822	26788.66
598.18	26919.05
598.538	27296.22
598.897	27680.61
599.255	27907.73
599.613	28616.63
599.972	28715.39
600.33	29014.59
600.688	29302.04
601.046	29751.29
601.404	30068.57
601.762	30335.91
602.12	30738.84
602.478	31020.41
602.836	31296.56
603.194	31457.01
603.552	31975.64
603.91	32044.79
604.268	32450.66
604.625	32619.47
604.983	33186.46
605.341	33233.46
605.698	33607.24
606.056	34035.93
606.413	34144.62
606.771	34442.92
607.128	34828
607.485	34838.84
607.843	35160.19
608.2	35631.37
608.557	35937.12
608.914	35932.37
609.272	36361.74
609.629	36768.74
609.986	36953.36
610.343	36859.81
610.7	37515.38
611.057	37587.02
611.414	37793.79
611.771	38079.44
612.127	38322.59
612.484	38352.42
612.841	38839.87
613.198	38792.86
613.554	39029.47
613.911	39417.25
614.267	39366.86
614.624	39618.15
614.98	39757.58
615.337	40144.69
615.693	40289.77
616.05	40303.56
616.406	40841.17
616.762	40711.68
617.118	40861.51
617.475	41047.27
617.831	41304.44
618.187	41452.23
618.543	41551.21
618.899	41847.25
619.255	41959.56
619.611	42012.67
619.967	42313.9
620.323	42432.99
620.678	42469.38
621.034	42595.02
621.39	42608.81
621.746	42673.67
622.101	43055.35
622.457	42929.93
622.812	43025.97
623.168	43346.42
623.523	43399.75
623.879	43610.36
624.234	43336.93
624.589	43618.73
624.945	43637.71
625.3	43808.33
625.655	43821.21
626.01	44001.31
626.365	44103.91
626.72	43987.3
627.075	44046.74
627.43	44108.43
627.785	44082.44
628.14	44334.64
628.495	44326.96
628.85	44268.88
629.205	44328.99
629.559	44578.02
629.914	44470.68
630.269	44477.91
630.623	44542.09
630.978	44419.38
631.332	44730.56
631.687	44831.12
632.041	44688.75
632.396	44864.79
632.75	44750.45
633.104	44700.05
633.459	44639.94
633.813	44709.32
634.167	44710.45
634.521	44832.25
634.875	44757.68
635.229	44728.08
635.583	44625.25
635.937	44648.98
636.291	44716.1
636.645	44836.77
636.999	44636.55
637.352	44742.76
637.706	44750.45
638.06	44794.29
638.413	44886.94
638.767	44711.13
639.121	44836.55
639.474	44561.98
639.828	44674.74
640.181	44729.43
640.534	44707.96
640.888	44630.9
641.241	44500.06
641.594	44520.17
641.947	44735.31
642.301	44597.68
642.654	44665.7
643.007	44654.86
643.36	44563.56
643.713	44675.87
644.066	44851.24
644.419	44552.71
644.771	44315.2
645.124	44000.86
645.477	43730.59
645.83	43558.84
646.182	43358.17
646.535	43399.75
646.888	43350.26
647.24	43227.1
647.593	43522.46
647.945	43432.74
648.298	43170.15
648.65	43329.24
649.002	43088.12
649.355	43324.5
649.707	43287.21
650.059	43404.27
650.411	43915.44
650.763	43905.5
651.115	44392.94
651.467	44147.53
651.819	44166.51
652.171	44135.55
652.523	43979.17
652.875	44081.54
653.227	43910.92
653.578	44308.43
653.93	44028.88
654.282	43967.87
654.633	43836.57
654.985	44012.16
655.337	43992.5
655.688	43973.07
656.039	44109.79
656.391	43802.68
656.742	43888.1
657.094	43752.06
657.445	44031.6
657.796	43943.24
658.147	43891.26
658.498	43819.17
658.849	43874.09
659.2	43842
659.551	43678.39
659.902	43895.33
660.253	43842.45
660.604	43917.25
660.955	43684.49
661.306	43765.61
661.656	43665.73
662.007	43791.15
662.358	43783.47
662.708	43881.09
663.059	43855.56
663.409	43535.34
663.76	43984.59
664.11	43844.48
664.461	43678.61
664.811	43792.73
665.161	43705.96
665.511	43744.15
665.862	43667.76
666.212	43800.19
666.562	43769.46
666.912	43721.1
667.262	43586.64
667.612	43605.39
667.962	43684.03
668.312	43702.79
668.662	43752.51
669.011	43653.75
669.361	43575.79
669.711	43585.05
670.06	43582.57
670.41	43504.38
670.76	43586.64
671.109	43563.81
671.459	43513.19
671.808	43431.61
672.157	43675.9
672.507	43368.79
672.856	43303.25
673.205	43409.24
673.554	43434.32
673.904	43365.63
674.253	43579.63
674.602	43477.03
674.951	42849.48
675.3	42676.15
675.649	43331.5
675.998	43220.77
676.346	43161.79
676.695	43424.61
677.044	43234.78
677.393	43235.01
677.741	43347.09
678.09	42989.36
678.438	43056.48
678.787	43185.74
679.135	43136.48
679.484	42845.19
679.832	42871.4
680.181	42738.3
680.529	42851.97
680.877	42720.44
681.225	42799.54
681.573	42887.67
681.922	42809.93
682.27	42693.1
682.618	42666.66
682.966	42542.37
683.314	42620.11
683.661	42431.86
684.009	42263.28
684.357	42211.08
684.705	42220.12
685.053	42318.65
685.4	42114.58
685.748	41959.79
686.095	42028.49
686.443	41802.05
686.79	41891.31
687.138	41891.31
687.485	41754.82
687.832	41579.68
688.18	41672.79
688.527	41513.24
688.874	41360.25
689.221	41502.4
689.568	41221.27
689.915	41245.46
690.262	41156.64
690.609	41057.21
690.956	40984.22
691.303	40947.16
691.65	40714.85
691.997	40791.46
692.344	40553.95
692.69	40388.98
693.037	40557.56
693.383	40266.27
693.73	40400.51
694.077	40172.04
694.423	40138.14
694.769	40053.62
695.116	39970.01
695.462	39813.18
695.808	39798.71
696.155	39842.1
696.501	39478.27
696.847	39607.76
697.193	39160.31
697.539	39407.09
697.885	39061.78
698.231	38970.49
698.577	38918.96
698.923	39007.77
699.269	38714
699.614	38556.71
699.96	38598.97
700.306	38575.92
700.651	38451.86
700.997	38301.35
701.342	38385.87
701.688	38327.34
702.033	38189.72
702.379	38048.25
702.724	38135.25
703.069	37968.93
703.415	37720.8
703.76	37597.87
704.105	37652.1
704.45	37685.32
704.795	37468.38
705.14	37268.16
705.485	37208.73
705.83	37092.12
706.175	37074.04
706.52	36963.08
706.865	36875.85
707.209	36807.61
707.554	36743.43
707.899	36793.59
708.243	36631.57
708.588	36580.27
708.932	36347.5
709.277	36390.44
709.621	36246.49
709.966	36066.16
710.31	36259.6
710.654	35943.9
710.998	35937.57
711.342	35933.28
711.687	35846.95
712.031	35780.29
712.375	35552.5
712.719	35686.73
713.063	35419.62
713.407	35641.08
713.75	35491.93
714.094	35394.76
714.438	35163.81
714.782	35352.73
715.125	35055.11
715.469	35240.42
715.812	34899.41
716.156	34866.19
716.499	34867.54
716.843	34884.04
717.186	34606.53
717.53	34739.41
717.873	34761.56
718.216	34590.26
718.559	34504.84
718.902	34251.06
719.246	34346.65
719.589	34255.58
719.932	34182.59
720.275	34208.8
720.617	34064.4
720.96	34134
721.303	34002.48
721.646	34108.69
721.989	33902.15
722.331	33988.47
722.674	33893.78
723.016	33920.9
723.359	33837.97
723.701	33834.8
724.044	33579.89
724.386	33453.34
724.729	33590.52
725.071	33539.89
725.413	33362.5
725.755	33331.31
726.097	33333.12
726.439	33148.49
726.782	33144.65
727.124	33298.09
727.465	33088.83
727.807	33120.24
728.149	32994.15
728.491	32973.13
728.833	33010.64
729.175	32830.08
729.516	32821.95
729.858	32732.46
730.199	32723.19
730.541	32675.28
730.882	32626.7
731.224	32669.86
731.565	32418.57
731.906	32426.48
732.248	32583.99
732.589	32256.76
732.93	32185.58
733.271	32257.22
733.612	32332.7
733.953	32329.98
734.294	32152.59
734.635	32138.35
734.976	32194.62
735.317	32000.73
735.658	31911.92
735.999	32036.88
736.339	31851.8
736.68	31983.1
737.021	31815.19
737.361	31688.19
737.702	31799.83
738.042	31664.24
738.383	31640.06
738.723	31704.69
739.063	31521.19
739.404	31592.6
739.744	31502.21
740.084	31395.09
740.424	31478.25
740.764	31377.01
741.104	31406.39
741.444	31193.74
741.784	31153.52
742.124	31222.89
742.464	31188.77
742.804	30966.63
743.143	31059.28
743.483	31110.81
743.823	30791.94
744.162	30853.86
744.502	30833.98
744.841	30771.83
745.181	30786.97
745.52	30718.5
745.86	30636.02
746.199	30690.25
746.538	30529.35
746.877	30620.42
747.216	30719.4
747.556	30535.45
747.895	30574.32
748.234	30395.34
748.573	30319.41
748.911	30293.88
749.25	30266.31
749.589	30320.32
749.928	30144.96
750.267	30278.06
750.605	30199.19
750.944	30111.74
751.283	30071.06
751.621	30056.6
751.96	29930.95
752.298	29810.73
752.636	29863.38
752.975	29747.9
753.313	29503.84
753.651	29758.98
753.989	29497.97
754.327	29663.39
754.666	29368.25
755.004	29486.22
755.342	29494.58
755.679	29429.95
756.017	29115.38
756.355	29268.82
756.693	29203.74
757.031	29135.72
757.368	29075.83
757.706	29017.75
758.044	28818.89
758.381	28966.46
758.719	28770.53
759.056	28918.1
759.394	28680.59
759.731	28541.83
760.068	28469.29
760.405	28387.26
760.743	28271.56
761.08	28323.53
761.417	28144.1
761.754	28224.1
762.091	28137.1
762.428	27975.97
762.765	27838.8
763.102	27947.73
763.438	27634.51
763.775	27610.56
764.112	27626.38
764.449	27749.09
764.785	27440.85
765.122	27365.14
765.458	27285.37
765.795	27252.38
766.131	27303.45
766.467	27047.86
766.804	27060.52
767.14	26866.4
767.476	26943.68
767.812	26716.35
768.148	26644.03
768.485	26561.55
768.821	26403.59
769.157	26391.38
769.492	26332.4
769.828	26277.04
770.164	26020.54
770.5	26000.43
770.836	25893.09
771.171	25868.91
771.507	25835.46
771.842	25487.68
772.178	25607.9
772.513	25655.58
772.849	25346.89
773.184	25350.96
773.519	25335.82
773.855	25154.58
774.19	25071.87
774.525	25023.73
774.86	25070.51
775.195	24908.26
775.53	24799.11
775.865	24668.26
776.2	24497.19
776.535	24305.11
776.87	24381.94
777.205	24263.98
777.539	24104.66
777.874	24272.79
778.209	24071.67
778.543	23913.03
778.878	23808.85
779.212	23776.31
779.547	23598.46
779.881	23663.77
780.215	23530.21
780.55	23582.64
780.884	23358.92
781.218	23400.95
781.552	23328.64
781.886	23186.27
782.22	23059.04
782.554	23045.48
782.888	22798.71
783.222	22781.08
783.556	22637.58
783.889	22592.16
784.223	22453.18
784.557	22403.24
784.89	22402.56
785.224	22269.68
785.557	22207.76
785.891	22162.79
786.224	22064.49
786.558	22032.85
786.891	21795.8
787.224	21711.73
787.557	21756.7
787.891	21603.26
788.224	21556.48
788.557	21587.89
788.89	21422.47
789.223	21530.49
789.556	21327.33
789.888	21184.51
790.221	21100.9
790.554	21004.41
790.887	20922.83
791.219	20884.18
791.552	20887.12
791.884	20845.09
792.217	20651.65
792.549	20537.07
792.882	20488.49
793.214	20403.97
793.546	20445.32
793.879	20380.24
794.211	20257.76
794.543	20243.52
794.875	20178.21
795.207	20223.86
795.539	19981.38
795.871	20040.14
796.203	19827.94
796.535	19754.95
796.867	19757.66
797.198	19679.47
797.53	19730.09
797.862	19658.68
798.193	19599.24
798.525	19459.81
798.856	19532.13
799.188	19260.27
799.519	19218.92
799.85	19201.29
800.182	19177.11
800.513	19211.46
800.844	19003.1
801.175	19016.44
801.506	18959.94
801.837	18971.69
802.168	18895.53
802.499	18865.7
802.83	18719.27
803.161	18692.38
803.491	18639.72
803.822	18559.27
804.153	18543
804.483	18394.98
804.814	18318.37
805.145	18274.99
805.475	18313.18
805.805	18079.28
806.136	18134.88
806.466	18130.81
806.796	18141.2
807.126	17992.51
807.457	17924.71
807.787	17921.32
808.117	17818.27
808.447	17747.77
808.777	17771.27
809.107	17676.36
809.436	17678.17
809.766	17634.32
810.096	17541.22
810.426	17514.55
810.755	17513.88
811.085	17473.2
811.414	17389.36
811.744	17248.8
812.073	17222.81
812.403	17240.89
812.732	17192.08
813.061	17141
813.39	17005.87
813.719	17032.31
814.049	17139.65
814.378	17029.37
814.707	16991.4
815.036	16875.93
815.365	16754.35
815.693	16632.32
816.022	16782.14
816.351	16756.38
816.68	16558.42
817.008	16630.28
817.337	16485.2
817.665	16435.49
817.994	16433
818.322	16483.62
818.651	16323.85
818.979	16301.48
819.307	16362.27
819.636	16292.89
819.964	16150.52
820.292	16291.31
820.62	16219.45
820.948	16158.21
821.276	16239.78
821.604	16191.42
821.932	16143.74
822.259	16129.73
822.587	16095.83
822.915	16069.62
823.243	16054.7
823.57	15995.05
823.898	16099.9
824.225	16056.29
824.553	16020.58
824.88	16077.08
825.207	16156.4
825.535	16002.28
825.862	16035.95
826.189	15985.33
826.516	16076.85
826.843	16151.43
827.17	16098.32
827.497	16139
827.824	16066.46
828.151	16043.18
828.478	16019.23
828.805	16023.75
829.131	16050.86
829.458	15896.52
829.785	15895.61
830.111	15954.59
830.438	16101.03
830.764	15979
831.09	16107.81
831.417	15967.93
831.743	16022.62
832.069	16075.04
832.395	15907.36
832.722	16030.75
833.048	15870.08
833.374	15963.86
833.7	15783.75
834.026	15904.2
834.351	15891.32
834.677	15805.22
835.003	15802.73
835.329	15840.25
835.654	15800.47
835.98	15708.95
836.306	15734.49
836.631	15763.64
836.956	15672.34
837.282	15726.8
837.607	15642.96
837.932	15579.69
838.258	15549.18
838.583	15554.38
838.908	15515.96
839.233	15552.12
839.558	15457.43
839.883	15426.25
840.208	15402.97
840.533	15397.77
840.858	15372.24
841.182	15325.68
841.507	15311.67
841.832	15223.54
842.156	15230.77
842.481	15212.92
842.805	15234.39
843.13	15206.82
843.454	15123.43
843.778	15164.33
844.103	15071.91
844.427	14998.69
844.751	15009.53
845.075	14902.42
845.399	14861.29
845.723	14871.23
846.047	14894.74
846.371	14644.57
846.695	14662.2
847.019	14570
847.343	14508.76
847.666	14503.79
847.99	14384.69
848.313	14424.69
848.637	14273.96
848.96	14238.03
849.284	14293.17
849.607	14142.89
849.931	14137.69
850.254	14011.59
850.577	13877.81
850.9	13851.15
851.223	13812.5
851.546	13771.6
851.869	13733.41
852.192	13727.76
852.515	13672.62
852.838	13612.51
853.161	13570.48
853.483	13512.85
853.806	13392.18
854.129	13343.36
854.451	13295
854.774	13196.93
855.096	13244.61
855.419	13267.21
855.741	13116.93
856.063	13035.12
856.385	13067.44
856.708	13107.66
857.03	13045.74
857.352	13025.41
857.674	12892.75
857.996	12880.33
858.318	12742.25
858.64	12888.46
858.961	12791.51
859.283	12716.49
859.605	12698.18
859.926	12736.83
860.248	12690.05
860.57	12649.14
860.891	12561.92
861.212	12573.67
861.534	12521.92
861.855	12519.66
862.176	12439.43
862.498	12484.18
862.819	12454.12
863.14	12406.89
863.461	12393.11
863.782	12307.91
864.103	12358.08
864.424	12294.13
864.745	12312.88
865.065	12143.62
865.386	12127.12
865.707	12214.35
866.027	12113.11
866.348	12041.48
866.668	12131.42
866.989	12091.19
867.309	12093.68
867.63	12077.86
867.95	12045.54
868.27	11965.77
868.59	11970.29
868.91	11988.82
869.23	11973.23
869.55	11985.21
869.87	11900.92
870.19	11921.71
870.51	11832.44
870.83	11884.42
871.15	11858.43
871.469	11831.31
871.789	11810.52
872.109	11751.09
872.428	11710.86
872.748	11699.79
873.067	11674.26
873.386	11779.56
873.706	11764.2
874.025	11634.93
874.344	11629.06
874.663	11632.67
874.982	11610.75
875.301	11597.2
875.62	11529.85
875.939	11530.53
876.258	11554.94
876.577	11459.35
876.896	11434.26
877.214	11420.02
877.533	11445.33
877.852	11452.79
878.17	11427.26
878.489	11484.88
878.807	11370.99
879.125	11395.39
879.444	11381.83
879.762	11272.23
880.08	11291.21
880.398	11252.8
880.716	11298.67
881.034	11251.44
881.352	11208.96
881.67	11185.45
881.988	11224.1
882.306	11122.86
882.624	11098
882.941	11073.14
883.259	11005.8
883.577	11070.66
883.894	11007.38
884.212	10969.64
884.529	10972.58
884.846	10905.69
885.164	10863.66
885.481	10886.48
885.798	10854.16
886.115	10833.15
886.432	10786.37
886.75	10817.78
887.067	10781.17
887.383	10704.34
887.7	10739.14
888.017	10631.8
888.334	10630.44
888.651	10604.45
888.967	10656.43
889.284	10517.22
889.6	10561.97
889.917	10496.66
890.233	10449.2
890.55	10389.32
890.866	10424.57
891.182	10322.2
891.498	10307.29
891.815	10353.84
892.131	10232.03
892.447	10246.95
892.763	10182.09
893.079	10171.02
893.395	10109.1
893.71	10100.96
894.026	10144.13
894.342	10084.69
894.657	10032.94
894.973	10027.74
895.289	9994.75
895.604	9968.31
895.92	9883.57
896.235	9891.25
896.55	9855.77
896.865	9824.36
897.181	9824.81
897.496	9792.95
897.811	9697.36
898.126	9678.6
898.441	9699.17
898.756	9619.62
899.071	9505.27
899.386	9589.79
899.7	9482.45
900.015	9480.19
900.33	9399.29
900.644	9398.16
900.959	9369.68
901.273	9324.71
901.588	9352.51
901.902	9340.31
902.216	9296.69
902.531	9198.16
902.845	9171.04
903.159	9124.94
903.473	9121.33
903.787	9100.09
904.101	9079.75
904.415	9040.43
904.729	8966.3
905.042	8908.23
905.356	8918.17
905.67	8931.05
905.984	8826.87
906.297	8889.47
906.611	8791.62
906.924	8789.36
907.237	8732.86
907.551	8689.47
907.864	8642.02
908.177	8647.22
908.491	8618.29
908.804	8547.78
909.117	8436.6
909.43	8472.08
909.743	8421.46
910.056	8477.73
910.368	8422.59
910.681	8355.7
910.994	8352.53
911.307	8279.77
911.619	8240
911.932	8243.38
912.244	8178.3
912.557	8147.34
912.869	8083.16
913.181	8057.63
913.494	8086.1
913.806	8038.42
914.118	7962.26
914.43	7886.11
914.742	7930.4
915.054	7905.77
915.366	7865.54
915.678	7841.59
915.99	7773.11
916.302	7720.01
916.613	7736.28
916.925	7673.23
917.236	7639.11
917.548	7630.97
917.859	7589.62
918.171	7574.7
918.482	7526.79
918.794	7494.03
919.105	7469.62
919.416	7381.71
919.727	7379.68
920.038	7372.22
920.349	7353.01
920.66	7320.25
920.971	7309.4
921.282	7249.51
921.593	7200.47
921.903	7172.45
922.214	7154.15
922.525	7120.25
922.835	7097.2
923.146	7083.87
923.456	7049.07
923.767	6937.88
924.077	7021.5
924.387	6972.23
924.697	6865.12
925.008	6867.6
925.318	6820.6
925.628	6868.05
925.938	6802.52
926.248	6721.39
926.558	6755.74
926.867	6676.42
927.177	6708.96
927.487	6603.65
927.796	6584.9
928.106	6575.86
928.416	6507.16
928.725	6531.11
929.034	6490.89
929.344	6461.28
929.653	6456.77
929.962	6418.8
930.271	6405.69
930.581	6352.81
930.89	6288.41
931.199	6299.26
931.508	6297
931.817	6322.53
932.125	6261.52
932.434	6233.95
932.743	6159.15
933.051	6115.98
933.36	6091.13
933.669	6122.54
933.977	6037.79
934.286	6039.6
934.594	6054.06
934.902	5958.7
935.21	5956.89
935.519	5992.82
935.827	5957.57
936.135	5899.04
936.443	5885.93
936.751	5864.69
937.059	5826.5
937.367	5803
937.674	5786.95
937.982	5784.69
938.29	5692.94
938.597	5734.07
938.905	5682.1
939.213	5659.95
939.52	5594.87
939.827	5617.69
940.135	5621.31
940.442	5512.84
940.749	5588.31
941.056	5532.27
941.363	5447.07
941.67	5501.99
941.977	5421.99
942.284	5363.01
942.591	5372.95
942.898	5333.86
943.205	5369.34
943.511	5316.91
943.818	5290.69
944.125	5258.15
944.431	5262.45
944.738	5250.47
945.044	5221.54
945.35	5148.1
945.657	5144.03
945.963	5147.2
946.269	5025.62
946.575	5115.33
946.881	5062
947.187	5015
947.493	4990.36
947.799	5015.67
948.105	4934.09
948.41	4973.64
948.716	4939.29
949.022	4960.53
949.327	4895.68
949.633	4817.26
949.938	4833.08
950.244	4809.12
950.549	4787.2
950.854	4769.8
951.16	4761.89
951.465	4711.05
951.77	4653.65
952.075	4742.69
952.38	4676.93
952.685	4674.67
952.99	4620.66
953.294	4611.84
953.599	4610.49
953.904	4586.53
954.209	4520.09
954.513	4577.94
954.818	4493.65
955.122	4491.85
955.426	4514.9
955.731	4446.42
956.035	4438.74
956.339	4416.37
956.643	4431.73
956.948	4361.45
957.252	4377.27
957.556	4372.98
957.86	4329.36
958.163	4299.99
958.467	4295.24
958.771	4328.01
959.075	4268.8
959.378	4227.22
959.682	4206.2
959.985	4238.29
960.289	4151.06
960.592	4186.09
960.896	4127.56
961.199	4096.83
961.502	4061.35
961.805	4135.92
962.108	4056.83
962.411	4087.56
962.714	4042.37
963.017	4034
963.32	3984.97
963.623	4023.16
963.926	3965.53
964.228	3956.72
964.531	3916.95
964.833	3887.12
965.136	3898.41
965.438	3843.73
965.741	3831.07
966.043	3855.7
966.345	3810.51
966.648	3813.22
966.95	3801.47
967.252	3772.99
967.554	3760.56
967.856	3739.32
968.158	3696.84
968.46	3707.01
968.761	3719.21
969.063	3656.61
969.365	3646.22
969.666	3598.99
969.968	3627.24
970.269	3603.96
970.571	3601.25
970.872	3595.37
971.174	3522.83
971.475	3515.83
971.776	3574.81
972.077	3480.35
972.378	3551.3
972.679	3490.52
972.98	3434.02
973.281	3465.21
973.582	3417.07
973.883	3452.78
974.183	3449.84
974.484	3424.08
974.785	3394.25
975.085	3359.9
975.386	3334.59
975.686	3290.07
975.986	3318.32
976.287	3272.44
976.587	3276.06
976.887	3296.62
977.187	3309.5
977.487	3278.54
977.787	3245.55
978.087	3232.67
978.387	3205.33
978.687	3164.42
978.987	3154.71
979.286	3161.03
979.586	3147.47
979.885	3102.73
980.185	3106.34
980.484	3103.63
980.784	3128.27
981.083	3062.5
981.382	3044.88
981.682	3056.4
981.981	3067.7
982.28	3047.14
982.579	2999
982.878	3010.53
983.177	2990.42
983.475	2964.2
983.774	2935.28
984.073	2927.82
984.372	2869.29
984.67	2950.19
984.969	2920.81
985.267	2925.11
985.566	2891.66
985.864	2866.13
986.162	2838.78
986.461	2820.02
986.759	2817.31
987.057	2775.28
987.355	2778.67
987.653	2775.73
987.951	2800.59
988.249	2801.95
988.547	2771.89
988.844	2730.08
989.142	2735.96
989.44	2714.04
989.737	2731.67
990.035	2656.87
990.332	2680.14
990.63	2664.32
990.927	2643.76
991.224	2646.02
991.521	2609.18
991.819	2611.44
992.116	2604.21
992.413	2573.25
992.71	2602.63
993.006	2594.72
993.303	2540.26
993.6	2583.87
993.897	2541.39
994.193	2500.03
994.49	2525.34
994.787	2487.6
995.083	2472.24
995.379	2479.24
995.676	2466.59
995.972	2443.09
996.268	2425.23
996.565	2397.44
996.861	2406.02
997.157	2395.63
997.453	2382.07
997.749	2376.42
998.044	2337.33
998.34	2354.27
998.636	2357.44
998.932	2306.37
999.227	2325.35
999.523	2298.46
999.818	2331.9
1000.114	2300.49
1000.409	2264.56
1000.704	2280.38
1001	2237.67
1001.295	2247.38
1001.59	2239.02
1001.885	2228.4
1002.18	2198.8
1002.475	2173.49
1002.77	2185.24
1003.065	2125.81
1003.359	2165.13
1003.654	2123.77
1003.949	2129.87
1004.243	2089.87
1004.538	2106.37
1004.832	2096.65
1005.127	2095.52
1005.421	2045.58
1005.715	2056.2
1006.009	2053.27
1006.304	2046.94
1006.598	2013.27
1006.892	2027.73
1007.186	1973.49
1007.48	1983.44
1007.773	2005.58
1008.067	1972.36
1008.361	1956.54
1008.655	1927.62
1008.948	1947.73
1009.242	1922.65
1009.535	1924.46
1009.829	1898.24
1010.122	1897.11
1010.415	1891.24
1010.708	1851.69
1011.001	1847.17
1011.295	1845.36
1011.588	1826.38
1011.881	1818.24
1012.173	1829.54
1012.466	1780.28
1012.759	1813.95
1013.052	1806.27
1013.344	1770.79
1013.637	1769.43
1013.93	1755.19
1014.222	1744.8
1014.514	1757.23
1014.807	1702.54
1015.099	1712.03
1015.391	1699.83
1015.683	1702.77
1015.976	1672.94
1016.268	1670.45
1016.56	1687.17
1016.851	1623.45
1017.143	1628.19
1017.435	1610.34
1017.727	1595.88
1018.018	1607.85
1018.31	1631.36
1018.602	1619.6
1018.893	1584.8
1019.185	1568.76
1019.476	1544.8
1019.767	1581.64
1020.058	1537.57
1020.35	1534.63
1020.641	1491.92
1020.932	1525.14
1021.223	1517.69
1021.514	1495.99
1021.804	1486.73
1022.095	1506.84
1022.386	1472.94
1022.677	1442.89
1022.967	1445.37
1023.258	1419.61
1023.548	1416.45
1023.839	1442.43
1024.129	1418.93
1024.419	1432.94
1024.709	1393.4
1025	1381.19
1025.29	1386.84
1025.58	1362.21
1025.87	1369.44
1026.16	1323.11
1026.449	1346.17
1026.739	1348.65
1027.029	1337.35
1027.319	1310.23
1027.608	1311.59
1027.898	1281.53
1028.187	1292.38
1028.477	1277.92
1028.766	1300.97
1029.055	1238.15
1029.344	1239.5
1029.634	1237.24
1029.923	1237.92
1030.212	1194.53
1030.501	1238.37
1030.79	1211.71
1031.078	1202.21
1031.367	1179.16
1031.656	1181.2
1031.945	1158.6
1032.233	1161.76
1032.522	1159.5
1032.81	1149.79
1033.099	1140.07
1033.387	1142.1
1033.675	1120.41
1033.963	1130.58
1034.251	1139.84
1034.54	1098.71
1034.828	1099.17
1035.116	1089.9
1035.403	1091.26
1035.691	1084.93
1035.979	1091.71
1036.267	1058.94
1036.554	1056.68
1036.842	1060.3
1037.129	1045.61
1037.417	1012.61
1037.704	1006.29
1037.992	1030.02
1038.279	1048.09
1038.566	1027.3
1038.853	1027.3
1039.14	1027.3
