Data from hue_260_FLMS001491_00066.txt Node
Date: Tue Feb 07 15:59:24 GMT 2017
User: dcchb
Spectrometer: FLMS00149
Trigger mode: 0
Integration Time (sec): 2.000000E-2
Scans to average: 10
Electric dark correction enabled: true
Nonlinearity correction enabled: false
Boxcar width: 0
XAxis mode: Wavelengths
Number of Pixels in Spectrum: 2048
>>>>>Begin Spectral Data<<<<<
341.393	5.16
341.776	5.16
342.16	5.16
342.543	-51.57
342.927	-46.82
343.31	-63.09
343.693	-67.16
344.077	-83.2
344.46	-67.16
344.843	-52.47
345.226	-64.9
345.61	-23.77
345.993	-4.34
346.376	-11.79
346.759	33.63
347.142	34.53
347.525	50.58
347.908	58.26
348.291	76.34
348.674	88.54
349.057	96
349.44	114.3
349.823	149.33
350.206	163.34
350.588	189.11
350.971	196.34
351.354	206.96
351.737	237.24
352.119	244.24
352.502	269.56
352.884	292.38
353.267	261.87
353.65	279.5
354.032	308.2
354.414	313.85
354.797	307.97
355.179	293.74
355.562	319.5
355.944	311.81
356.326	326.95
356.709	299.84
357.091	335.77
357.473	343.23
357.855	357.91
358.238	344.13
358.62	340.74
359.002	352.26
359.384	338.03
359.766	331.47
360.148	324.24
360.53	324.47
360.912	337.8
361.294	316.33
361.676	331.7
362.057	336.22
362.439	305.03
362.821	327.18
363.203	305.03
363.584	315.43
363.966	331.02
364.348	309.78
364.729	299.38
365.111	317.01
365.493	309.1
365.874	299.61
366.256	310.68
366.637	299.84
367.019	333.73
367.4	304.81
367.781	313.4
368.163	298.93
368.544	299.16
368.925	298.25
369.306	329.89
369.688	311.59
370.069	300.51
370.45	306.62
370.831	314.07
371.212	311.81
371.593	300.97
371.974	327.18
372.355	304.81
372.736	314.75
373.117	321.53
373.498	319.05
373.879	320.63
374.26	322.89
374.641	301.87
375.021	312.49
375.402	316.56
375.783	307.75
376.163	311.81
376.544	318.59
376.925	315.66
377.305	312.49
377.686	308.42
378.066	331.93
378.447	327.18
378.827	330.12
379.208	335.54
379.588	318.14
379.968	317.92
380.349	335.77
380.729	336.9
381.109	321.08
381.489	330.12
381.87	337.35
382.25	315.43
382.63	340.74
383.01	344.36
383.39	328.54
383.77	343
384.15	326.73
384.53	337.8
384.91	347.29
385.29	348.2
385.67	342.77
386.049	339.16
386.429	336.67
386.809	330.57
387.189	348.88
387.568	339.84
387.948	332.15
388.328	351.13
388.707	350.91
389.087	358.59
389.466	355.2
389.846	362.21
390.225	380.96
390.605	365.37
390.984	361.3
391.363	368.08
391.743	355.65
392.122	363.34
392.501	378.25
392.881	355.43
393.26	375.77
393.639	381.64
394.018	386.84
394.397	377.8
394.776	374.86
395.155	377.35
395.534	380.74
395.913	377.35
396.292	386.16
396.671	388.2
397.05	393.85
397.429	387.52
397.808	399.04
398.186	397.24
398.565	415.54
398.944	402.88
399.323	394.98
399.701	402.88
400.08	407.86
400.458	403.79
400.837	398.37
401.215	409.66
401.594	399.72
401.972	424.13
402.351	414.18
402.729	442.21
403.107	423
403.486	430.68
403.864	423.68
404.242	415.54
404.62	427.29
404.999	407.86
405.377	441.75
405.755	432.49
406.133	444.24
406.511	463.45
406.889	453.28
407.267	469.78
407.645	460.06
408.023	462.77
408.401	475.88
408.779	485.14
409.156	476.78
409.534	492.6
409.912	501.19
410.29	503
410.667	520.62
411.045	498.48
411.422	526.72
411.8	532.15
412.178	532.82
412.555	537.12
412.933	533.05
413.31	556.78
413.687	553.62
414.065	567.85
414.442	585.03
414.819	560.39
415.197	578.02
415.574	591.35
415.951	603.11
416.328	595.65
416.705	628.42
417.082	627.06
417.46	613.73
417.837	626.83
418.214	622.09
418.591	671.13
418.967	658.47
419.344	647.17
419.721	660.05
420.098	673.16
420.475	674.74
420.852	669.77
421.228	703.22
421.605	725.81
421.982	721.52
422.358	693.72
422.735	740.96
423.111	736.66
423.488	749.09
423.864	764.68
424.241	788.86
424.617	767.85
424.994	789.54
425.37	804.91
425.746	817.56
426.123	833.16
426.499	818.02
426.875	829.77
427.251	886.26
427.627	859.82
428.003	866.15
428.379	877.9
428.756	885.81
429.132	901.4
429.507	892.82
429.883	921.06
430.259	915.41
430.635	950.89
431.011	948.86
431.387	969.65
431.763	997.22
432.138	993.15
432.514	1029.31
432.89	1013.94
433.265	1014.62
433.641	1048.29
434.016	1098.69
434.392	1094.84
434.767	1091.91
435.143	1118.12
435.518	1133.71
435.894	1146.37
436.269	1169.42
436.644	1196.54
437.02	1212.81
437.395	1239.7
437.77	1227.95
438.145	1241.96
438.52	1253.26
438.895	1280.6
439.271	1298.68
439.646	1340.94
440.021	1317.21
440.395	1325.57
440.77	1345.91
441.145	1347.72
441.52	1378.68
441.895	1364.44
442.27	1403.08
442.645	1417.55
443.019	1434.27
443.394	1420.03
443.769	1419.13
444.143	1443.76
444.518	1483.08
444.892	1496.87
445.267	1508.62
445.641	1507.94
446.016	1557.66
446.39	1515.17
446.764	1569.63
447.139	1527.38
447.513	1530.54
447.887	1589.52
448.262	1569.18
448.636	1564.89
449.01	1617.09
449.384	1607.82
449.758	1635.85
450.132	1634.72
450.506	1646.69
450.88	1695.28
451.254	1679.24
451.628	1673.81
452.002	1681.04
452.376	1709.29
452.75	1738.44
453.123	1744.09
453.497	1744.77
453.871	1773.92
454.244	1827.03
454.618	1825.22
454.992	1843.75
455.365	1824.99
455.739	1864.77
456.112	1884.2
456.486	1925.1
456.859	1938.44
457.232	1963.3
457.606	1969.4
457.979	1972.79
458.352	1989.96
458.725	2029.28
459.099	2040.36
459.472	2071.09
459.845	2101.6
460.218	2142.95
460.591	2147.02
460.964	2116.51
461.337	2187.24
461.71	2211.2
462.083	2243.29
462.456	2251.42
462.829	2247.58
463.201	2298.88
463.574	2293.91
463.947	2340.91
464.32	2349.95
464.692	2401.48
465.065	2412.1
465.438	2437.41
465.81	2486.22
466.183	2506.11
466.555	2497.97
466.928	2533.45
467.3	2510.4
467.672	2560.57
468.045	2632.66
468.417	2628.14
468.789	2647.57
469.161	2694.12
469.534	2744.74
469.906	2769.6
470.278	2802.82
470.65	2818.87
471.022	2868.36
471.394	2925.98
471.766	2958.98
472.138	2981.35
472.51	3008.69
472.882	3046.21
473.253	3084.4
473.625	3112.87
473.997	3158.52
474.369	3180.44
474.74	3228.8
475.112	3280.55
475.484	3325.29
475.855	3378.63
476.227	3362.36
476.598	3463.14
476.97	3474.44
477.341	3556.93
477.713	3598.06
478.084	3640.09
478.455	3707.2
478.827	3735.9
479.198	3806.64
479.569	3817.94
479.94	3924.83
480.311	3924.83
480.682	4014.77
481.053	4075.78
481.424	4132.28
481.795	4198.49
482.166	4256.79
482.537	4293.86
482.908	4365.27
483.279	4405.27
483.65	4464.25
484.021	4497.69
484.391	4554.87
484.762	4593.28
485.133	4608.2
485.503	4699.27
485.874	4770.68
486.244	4838.02
486.615	4868.3
486.985	4900.17
487.356	5043.67
487.726	5061.52
488.097	5119.37
488.467	5149.43
488.837	5246.6
489.207	5226.03
489.578	5366.6
489.948	5364.56
490.318	5449.98
490.688	5441.4
491.058	5495.41
491.428	5569.75
491.798	5674.38
492.168	5755.74
492.538	5734.95
492.908	5808.84
493.278	5825.12
493.648	5819.24
494.017	5904.21
494.387	5955.73
494.757	5982.63
495.126	6057.88
495.496	6070.76
495.866	6098.1
496.235	6119.12
496.605	6189.63
496.974	6221.49
497.344	6225.33
497.713	6268.49
498.082	6288.15
498.452	6374.25
498.821	6413.57
499.19	6348.94
499.559	6460.8
499.928	6424.42
500.298	6528.15
500.667	6530.63
501.036	6465.1
501.405	6553.23
501.774	6572.67
502.143	6645.21
502.512	6633.91
502.88	6681.14
503.249	6690.4
503.618	6738.09
503.987	6748.48
504.356	6794.58
504.724	6816.05
505.093	6825.99
505.462	6883.39
505.83	6884.07
506.199	6883.62
506.567	6955.93
506.936	6984.63
507.304	6982.15
507.672	7030.06
508.041	7065.53
508.409	7062.14
508.777	7094.69
509.145	7178.07
509.514	7154.35
509.882	7195.25
510.25	7167.9
510.618	7179.66
510.986	7222.37
511.354	7232.76
511.722	7292.2
512.09	7337.62
512.458	7264.63
512.826	7327.45
513.193	7369.03
513.561	7408.8
513.929	7420.1
514.297	7430.04
514.664	7468.91
515.032	7482.47
515.4	7478.63
515.767	7512.98
516.135	7512.08
516.502	7447.9
516.869	7558.18
517.237	7566.31
517.604	7491.74
517.972	7570.15
518.339	7587.78
518.706	7618.74
519.073	7535.13
519.44	7630.72
519.808	7688.8
520.175	7659.87
520.542	7735.12
520.909	7727.66
521.276	7713.88
521.643	7696.03
522.009	7814.44
522.376	7832.07
522.743	7832.97
523.11	7865.97
523.477	7942.57
523.843	7964.72
524.21	7938.05
524.577	7989.35
524.943	8020.54
525.31	8064.83
525.676	8033.19
526.043	8051.5
526.409	8096.69
526.776	8127.65
527.142	8085.85
527.508	8096.92
527.874	8090.14
528.241	8140.31
528.607	8170.14
528.973	8149.35
529.339	8137.37
529.705	8185.28
530.071	8216.69
530.437	8292.39
530.803	8279.97
531.169	8239.74
531.535	8221.44
531.901	8152.74
532.267	8276.58
532.632	8224.6
532.998	8263.02
533.364	8282
533.73	8262.34
534.095	8317.71
534.461	8266.18
534.826	8300.76
535.192	8275.9
535.557	8351.15
535.923	8266.41
536.288	8305.05
536.653	8333.3
537.019	8278.16
537.384	8331.26
537.749	8311.83
538.114	8299.85
538.479	8266.41
538.845	8241.77
539.21	8307.54
539.575	8268.21
539.94	8300.53
540.305	8218.72
540.67	8236.13
541.034	8208.1
541.399	8324.26
541.764	8263.02
542.129	8244.71
542.494	8219.4
542.858	8232.51
543.223	8245.84
543.587	8164.26
543.952	8222.57
544.316	8159.52
544.681	8210.59
545.045	8250.59
545.41	8167.43
545.774	8209.69
546.138	8167.43
546.503	8206.52
546.867	8158.39
547.231	8192.74
547.595	8219.4
547.959	8238.84
548.324	8158.16
548.688	8152.06
549.052	8170.36
549.416	8178.5
549.779	8117.48
550.143	8134.43
550.507	8141.21
550.871	8206.07
551.235	8042.01
551.599	8157.48
551.962	8084.26
552.326	8105.96
552.689	8164.04
553.053	8045.4
553.417	8146.41
553.78	8108.22
554.143	8133.98
554.507	8103.93
554.87	8156.35
555.234	8128.56
555.597	8078.62
555.96	8125.85
556.323	8119.29
556.686	8095.56
557.05	8155.9
557.413	8094.66
557.776	8190.25
558.139	8119.74
558.502	8167.2
558.865	8139.4
559.228	8178.5
559.59	8194.54
559.953	8231.83
560.316	8197.03
560.679	8202
561.041	8261.44
561.404	8239.51
561.767	8264.37
562.129	8264.6
562.492	8302.56
562.854	8366.52
563.217	8322.9
563.579	8348.21
563.941	8338.04
564.304	8376.91
564.666	8458.72
565.028	8368.33
565.39	8410.36
565.753	8429.79
566.115	8467.98
566.477	8463.69
566.839	8476.34
567.201	8511.82
567.563	8529.68
567.925	8573.52
568.287	8554.31
568.648	8580.3
569.01	8593.4
569.372	8598.15
569.734	8641.09
570.095	8686.28
570.457	8721.76
570.819	8728.77
571.18	8719.28
571.542	8774.42
571.903	8744.13
572.265	8794.08
572.626	8823.45
572.987	8783.91
573.349	8833.62
573.71	8846.73
574.071	8890.8
574.432	8864.81
574.794	8906.39
575.155	8946.62
575.516	8961.08
575.877	8978.7
576.238	8971.93
576.599	8986.84
576.96	9036.1
577.32	9036.1
577.681	9091.02
578.042	9076.1
578.403	9061.19
578.763	9075.88
579.124	9060.96
579.485	9175.08
579.845	9215.08
580.206	9185.48
580.566	9188.19
580.927	9193.84
581.287	9211.69
581.648	9235.2
582.008	9279.49
582.368	9268.41
582.728	9360.16
583.089	9315.64
583.449	9315.42
583.809	9371.46
584.169	9343.89
584.529	9389.99
584.889	9423.44
585.249	9408.07
585.609	9310.67
585.969	9460.73
586.329	9407.39
586.688	9420.95
587.048	9458.47
587.408	9400.84
587.768	9473.61
588.127	9552.47
588.487	9489.88
588.846	9585.69
589.206	9495.3
589.565	9521.52
589.925	9596.77
590.284	9588.18
590.643	9538.01
591.003	9580.27
591.362	9618.69
591.721	9686.93
592.08	9601.74
592.44	9627.73
592.799	9668.86
593.158	9681.96
593.517	9670.44
593.876	9692.58
594.235	9636.54
594.593	9607.39
594.952	9636.77
595.311	9687.61
595.67	9756.76
596.029	9763.77
596.387	9773.71
596.746	9833.37
597.104	9720.61
597.463	9785.92
597.822	9738.23
598.18	9753.6
598.538	9766.71
598.897	9875.18
599.255	9724.22
599.613	9893.26
599.972	9835.41
600.33	9839.7
600.688	9781.85
601.046	9811
601.404	9898.23
601.762	9895.52
602.12	9955.63
602.478	9919.92
602.836	9872.92
603.194	9840.15
603.552	9876.53
603.91	9826.59
604.268	9904.1
604.625	9824.11
604.983	9919.92
605.341	9832.92
605.698	9884.67
606.056	9920.6
606.413	9919.02
606.771	9906.14
607.128	9994.27
607.485	9916.53
607.843	9908.85
608.2	9974.61
608.557	9978.68
608.914	9932.8
609.272	10060.03
609.629	10030.2
609.986	10031.33
610.343	9939.58
610.7	10038.11
611.057	10074.49
611.414	10060.71
611.771	10072.24
612.127	10090.77
612.484	10038.56
612.841	10081.73
613.198	10057.32
613.554	10119.01
613.911	10106.13
614.267	10082.18
614.624	10142.29
614.98	10112.23
615.337	10150.43
615.693	10184.55
616.05	10167.6
616.406	10272
616.762	10209.41
617.118	10108.17
617.475	10106.36
617.831	10194.49
618.187	10241.72
618.543	10194.27
618.899	10263.87
619.255	10276.3
619.611	10197.43
619.967	10218.45
620.323	10286.24
620.678	10273.13
621.034	10260.93
621.39	10264.09
621.746	10253.25
622.101	10374.37
622.457	10255.73
622.812	10287.82
623.168	10364.88
623.523	10308.16
623.879	10314.49
624.234	10234.26
624.589	10261.83
624.945	10323.53
625.3	10290.08
625.655	10267.26
626.01	10288.27
626.365	10278.78
626.72	10269.29
627.075	10208.73
627.43	10271.33
627.785	10234.04
628.14	10237.88
628.495	10170.76
628.85	10203.53
629.205	10187.71
629.559	10252.8
629.914	10216.64
630.269	10203.76
630.623	10174.83
630.978	10212.12
631.332	10149.3
631.687	10171.89
632.041	10137.54
632.396	10173.02
632.75	10116.3
633.104	10106.13
633.459	10095.06
633.813	10107.26
634.167	10089.64
634.521	10070.43
634.875	10067.04
635.229	10025.68
635.583	10023.2
635.937	10048.73
636.291	9981.84
636.645	10020.71
636.999	9916.08
637.352	10024.33
637.706	9931.45
638.06	9910.43
638.413	9984.55
638.767	9864.11
639.121	9885.12
639.474	9858.46
639.828	9822.98
640.181	9890.55
640.534	9888.96
640.888	9881.96
641.241	9831.34
641.594	9835.63
641.947	9890.09
642.301	9824.56
642.654	9803.09
643.007	9901.39
643.36	9842.18
643.713	9771.23
644.066	9823.88
644.419	9791.11
644.771	9742.75
645.124	9613.26
645.477	9646.48
645.83	9579.14
646.182	9544.57
646.535	9516.54
646.888	9476.32
647.24	9452.82
647.593	9511.57
647.945	9459.6
648.298	9425.92
648.65	9403.78
649.002	9404.46
649.355	9462.76
649.707	9408.07
650.059	9478.58
650.411	9590.21
650.763	9545.92
651.115	9659.36
651.467	9597.67
651.819	9652.36
652.171	9672.02
652.523	9559.48
652.875	9606.94
653.227	9633.6
653.578	9645.35
653.93	9649.87
654.282	9585.02
654.633	9586.37
654.985	9619.14
655.337	9653.49
655.688	9588.86
656.039	9614.39
656.391	9543.89
656.742	9622.76
657.094	9586.82
657.445	9664.56
657.796	9653.49
658.147	9561.74
658.498	9617.33
658.849	9623.66
659.2	9678.12
659.551	9582.3
659.902	9596.09
660.253	9614.39
660.604	9651
660.955	9612.81
661.306	9604.22
661.656	9598.35
662.007	9614.39
662.358	9631.57
662.708	9605.13
663.059	9637.9
663.409	9627.95
663.76	9626.15
664.11	9644.68
664.461	9688.29
664.811	9582.53
665.161	9662.53
665.511	9549.54
665.862	9644.68
666.212	9637.9
666.562	9686.03
666.912	9621.63
667.262	9593.6
667.612	9620.95
667.962	9636.31
668.312	9651.68
668.662	9648.97
669.011	9656.43
669.361	9566.03
669.711	9619.37
670.06	9558.35
670.41	9596.09
670.76	9567.62
671.109	9657.56
671.459	9542.98
671.808	9564.45
672.157	9572.81
672.507	9475.64
672.856	9494.62
673.205	9516.09
673.554	9635.64
673.904	9501.4
674.253	9545.92
674.602	9495.75
674.951	9386.83
675.3	9390.9
675.649	9462.99
675.998	9387.06
676.346	9489.88
676.695	9497.34
677.044	9381.63
677.393	9427.28
677.741	9415.76
678.09	9411.91
678.438	9318.36
678.787	9446.26
679.135	9368.98
679.484	9312.71
679.832	9298.02
680.181	9318.58
680.529	9270.9
680.877	9334.63
681.225	9282.43
681.573	9258.02
681.922	9260.28
682.27	9170.11
682.618	9180.06
682.966	9279.26
683.314	9145.71
683.661	9229.77
684.009	9168.53
684.357	9092.15
684.705	9140.51
685.053	9148.87
685.4	9137.12
685.748	9051.47
686.095	9022.09
686.443	9014.64
686.79	9030.23
687.138	8968.54
687.485	8991.36
687.832	8880.85
688.18	8855.09
688.527	8866.62
688.874	8911.36
689.221	8866.84
689.568	8797.69
689.915	8795.88
690.262	8778.71
690.609	8764.47
690.956	8712.5
691.303	8713.85
691.65	8683.12
691.997	8679.28
692.344	8603.35
692.69	8575.78
693.037	8569
693.383	8488.77
693.73	8525.61
694.077	8453.97
694.423	8473.41
694.769	8412.17
695.116	8433.86
695.462	8323.58
695.808	8350.02
696.155	8365.84
696.501	8318.61
696.847	8267.31
697.193	8252.17
697.539	8230.48
697.885	8155.22
698.231	8162.68
698.577	8148.67
698.923	8102.12
699.269	8079.75
699.614	8041.1
699.96	8036.58
700.306	8013.98
700.651	8048.11
700.997	7936.25
701.342	7908
701.688	7905.51
702.033	7912.97
702.379	7874.1
702.724	7818.74
703.069	7831.39
703.415	7754.56
703.76	7788.91
704.105	7740.77
704.45	7696.93
704.795	7665.97
705.14	7661.68
705.485	7572.19
705.83	7611.06
706.175	7637.72
706.52	7556.14
706.865	7533.09
707.209	7610.6
707.554	7521.12
707.899	7540.78
708.243	7434.11
708.588	7430.27
708.932	7398.86
709.277	7381.23
709.621	7459.87
709.966	7327.67
710.31	7350.72
710.654	7287.22
710.998	7253.33
711.342	7283.38
711.687	7251.97
712.031	7213.55
712.375	7259.43
712.719	7178.53
713.063	7201.58
713.407	7169.26
713.75	7138.75
714.094	7106.44
714.438	7119.54
714.782	7159.54
715.125	7085.2
715.469	7133.33
715.812	7063.5
716.156	6990.96
716.499	7076.83
716.843	7025.76
717.186	7018.3
717.53	7016.04
717.873	7058.98
718.216	6995.48
718.559	6999.32
718.902	6906.89
719.246	6976.5
719.589	6950.28
719.932	6936.72
720.275	6913
720.617	6877.29
720.96	6929.72
721.303	6894.24
721.646	6899.89
721.989	6885.65
722.331	6873
722.674	6873
723.016	6852.43
723.359	6830.74
723.701	6903.5
724.044	6788.93
724.386	6740.35
724.729	6764.75
725.071	6796.39
725.413	6775.15
725.755	6844.75
726.097	6760.01
726.439	6784.19
726.782	6738.31
727.124	6775.6
727.465	6762.27
727.807	6780.57
728.149	6760.23
728.491	6707.8
728.833	6728.14
729.175	6705.32
729.516	6726.33
729.858	6690.86
730.199	6693.79
730.541	6687.92
730.882	6650.4
731.224	6733.57
731.565	6737.18
731.906	6662.83
732.248	6762.72
732.589	6714.58
732.93	6685.43
733.271	6711.19
733.612	6762.04
733.953	6676.84
734.294	6669.39
734.635	6658.09
734.976	6667.58
735.317	6609.28
735.658	6677.75
735.999	6686.56
736.339	6685.43
736.68	6691.08
737.021	6663.29
737.361	6680.23
737.702	6644.08
738.042	6731.53
738.383	6733.11
738.723	6657.41
739.063	6660.12
739.404	6702.38
739.744	6730.85
740.084	6751.42
740.424	6731.98
740.764	6721.14
741.104	6792.55
741.444	6780.34
741.784	6772.89
742.124	6753.23
742.464	6729.5
742.804	6758.2
743.143	6811.3
743.483	6816.5
743.823	6847.01
744.162	6801.36
744.502	6849.72
744.841	6852.88
745.181	6913.22
745.52	6879.78
745.86	6978.76
746.199	6916.61
746.538	6918.19
746.877	7014.91
747.216	7070.28
747.556	7073.67
747.895	7081.13
748.234	7089.71
748.573	7198.41
748.911	7229.15
749.25	7242.48
749.589	7300.56
749.928	7307.11
750.267	7394.79
750.605	7383.04
750.944	7469.82
751.283	7504.62
751.621	7550.49
751.96	7618.97
752.298	7755.69
752.636	7805.18
752.975	7836.36
753.313	7941.22
753.651	8033.42
753.989	8091.5
754.327	8133.08
754.666	8199.97
755.004	8224.83
755.342	8421.21
755.679	8524.93
756.017	8594.08
756.355	8655.78
756.693	8774.42
757.031	8909.1
757.368	8917.01
757.706	9142.77
758.044	9230.22
758.381	9322.65
758.719	9366.04
759.056	9597.67
759.394	9647.61
759.731	9702.08
760.068	9887.38
760.405	9989.3
760.743	10134.15
761.08	10282.63
761.417	10361.95
761.754	10443.3
762.091	10580.24
762.428	10672.67
762.765	10848.26
763.102	11041.02
763.438	11030.63
763.775	11137.74
764.112	11307.68
764.449	11448.24
764.785	11570.27
765.122	11582.93
765.458	11722.36
765.795	11807.33
766.131	11955.35
766.467	12059.75
766.804	12207.55
767.14	12126.42
767.476	12342.23
767.812	12474.66
768.148	12551.94
768.485	12642.11
768.821	12694.99
769.157	12785.61
769.492	12862.67
769.828	13003.23
770.164	12905.38
770.5	13116.67
770.836	13120.97
771.171	13157.8
771.507	13253.85
771.842	13270.12
772.178	13413.39
772.513	13534.97
772.849	13484.12
773.184	13562.31
773.519	13638.02
773.855	13641.86
774.19	13770.67
774.525	13818.58
774.86	13822.42
775.195	13854.51
775.53	13811.35
775.865	13885.02
776.2	13857.9
776.535	13903.32
776.87	13966.6
777.205	13996.43
777.539	13919.59
777.874	14084.11
778.209	13976.77
778.543	14082.53
778.878	13997.1
779.212	14080.04
779.547	14045.01
779.881	14071
780.215	14103.77
780.55	14247.94
780.884	14160.49
781.218	14078.23
781.552	14160.04
781.886	14107.38
782.22	14106.93
782.554	14037.33
782.888	14044.79
783.222	13982.64
783.556	14004.34
783.889	13997.1
784.223	13975.86
784.557	13970.44
784.89	13966.14
785.224	13967.5
785.557	13937.44
785.891	13898.58
786.224	13876.43
786.558	13895.86
786.891	13824.23
787.224	13943.32
787.557	13810.89
787.891	13788.52
788.224	13769.54
788.557	13831.23
788.89	13838.01
789.223	13842.08
789.556	13669.43
789.888	13738.58
790.221	13699.71
790.554	13563.44
790.887	13633.05
791.219	13614.74
791.552	13577.45
791.884	13560.73
792.217	13571.35
792.549	13482.77
792.882	13476.67
793.214	13393.28
793.546	13399.15
793.879	13393.96
794.211	13418.59
794.543	13370.91
794.875	13379.04
795.207	13354.63
795.539	13268.08
795.871	13300.4
796.203	13096.34
796.535	13141.53
796.867	13067.64
797.198	13089.33
797.53	13116.45
797.862	13042.55
798.193	13044.81
798.525	12964.14
798.856	13021.54
799.188	12850.69
799.519	12832.61
799.85	12767.76
800.182	12815.44
800.513	12826.74
800.844	12700.19
801.175	12873.29
801.506	12695.22
801.837	12666.07
802.168	12667.65
802.499	12598.27
802.83	12606.41
803.161	12477.82
803.491	12539.06
803.822	12606.18
804.153	12486.41
804.483	12381.33
804.814	12436.01
805.145	12357.82
805.475	12371.38
805.805	12386.07
806.136	12241.67
806.466	12283.7
806.796	12330.48
807.126	12128.68
807.457	12193.99
807.787	12208.45
808.117	12172.97
808.447	12109.02
808.777	12108.57
809.107	12065.86
809.436	12022.69
809.766	12018.85
810.096	12085.06
810.426	11946.76
810.755	11985.63
811.085	11901.79
811.414	11952.19
811.744	11844.62
812.073	11831.74
812.403	11842.58
812.732	11774.56
813.061	11803.72
813.39	11708.58
813.719	11638.07
814.049	11744.73
814.378	11697.73
814.707	11597.17
815.036	11656.6
815.365	11582.48
815.693	11446.44
816.022	11522.37
816.351	11568.47
816.68	11483.5
817.008	11485.08
817.337	11423.16
817.665	11360.11
817.994	11409.15
818.322	11418.19
818.651	11344.74
818.979	11351.07
819.307	11288.25
819.636	11293.45
819.964	11244.86
820.292	11197.86
820.62	11381.58
820.948	11179.32
821.276	11276.27
821.604	11247.12
821.932	11246.89
822.259	11244.86
822.587	11200.12
822.915	11258.64
823.243	11237.63
823.57	11205.54
823.898	11277.4
824.225	11222.04
824.553	11205.31
824.88	11257.51
825.207	11279.21
825.535	11197.86
825.862	11262.03
826.189	11185.43
826.516	11323.28
826.843	11311.98
827.17	11294.12
827.497	11329.38
827.824	11244.41
828.151	11300
828.478	11241.02
828.805	11267.23
829.131	11243.28
829.458	11199.44
829.785	11201.02
830.111	11221.81
830.438	11211.87
830.764	11261.58
831.09	11227.01
831.417	11258.64
831.743	11201.7
832.069	11190.17
832.395	11172.32
832.722	11226.1
833.048	11182.94
833.374	11173.22
833.7	11088.71
834.026	11204.41
834.351	11175.48
834.677	11142.04
835.003	11173.22
835.329	11116.5
835.654	11170.06
835.98	11085.09
836.306	11143.85
836.631	11051.87
836.956	11163.28
837.282	11052.1
837.607	11030.85
837.932	11036.05
838.258	10946.34
838.583	11002.38
838.908	10876.28
839.233	10874.47
839.558	10884.19
839.883	10887.35
840.208	10893.23
840.533	10924.42
840.858	10861.14
841.182	10859.11
841.507	10846.68
841.832	10771.2
842.156	10805.55
842.481	10733.46
842.805	10693.01
843.13	10743.18
843.454	10727.59
843.778	10635.84
844.103	10623.86
844.427	10625.21
844.751	10615.05
845.075	10572.56
845.399	10534.82
845.723	10415.5
846.047	10495.27
846.371	10349.06
846.695	10366.01
847.019	10295.96
847.343	10288.27
847.666	10216.19
847.99	10169.18
848.313	10146.81
848.637	10077.43
848.96	10072.91
849.284	10054.61
849.607	10009.86
849.931	9925.12
850.254	9941.39
850.577	9843.31
850.9	9811.9
851.223	9784.11
851.546	9798.8
851.869	9740.72
852.192	9759.48
852.515	9700.04
852.838	9627.5
853.161	9641.29
853.483	9572.59
853.806	9510.89
854.129	9530.1
854.451	9494.17
854.774	9462.99
855.096	9404.68
855.419	9366.49
855.741	9401.29
856.063	9335.31
856.385	9323.55
856.708	9260.51
857.03	9236.78
857.352	9266.38
857.674	9146.16
857.996	9174.63
858.318	9121.07
858.64	9101.87
858.961	9068.42
859.283	9101.87
859.605	8989.33
859.926	9086.05
860.248	9099.61
860.57	8971.93
860.891	9046.5
861.212	8955.2
861.534	8878.14
861.855	8875.66
862.176	8887.18
862.498	8876.33
862.819	8904.81
863.14	8881.31
863.461	8796.56
863.782	8819.84
864.103	8752.72
864.424	8767.41
864.745	8751.37
865.065	8787.75
865.386	8750.24
865.707	8770.8
866.027	8734.19
866.348	8696.9
866.668	8692.16
866.989	8643.35
867.309	8636.57
867.63	8648.09
867.95	8649
868.27	8550.02
868.59	8577.13
868.91	8551.6
869.23	8616.45
869.55	8479.73
869.87	8592.95
870.19	8557.02
870.51	8506.63
870.83	8530.35
871.15	8447.42
871.469	8405.84
871.789	8419.4
872.109	8463.69
872.428	8437.25
872.748	8370.81
873.067	8381.88
873.386	8401.09
873.706	8366.29
874.025	8347.76
874.344	8293.3
874.663	8337.14
874.982	8314.09
875.301	8323.13
875.62	8280.87
875.939	8282.9
876.258	8293.07
876.577	8197.48
876.896	8291.49
877.214	8211.95
877.533	8173.53
877.852	8174.43
878.17	8227.76
878.489	8206.3
878.807	8182.12
879.125	8063.93
879.444	8102.12
879.762	8112.96
880.08	8137.6
880.398	8045.85
880.716	8085.17
881.034	8045.17
881.352	8054.66
881.67	8059.18
881.988	8031.16
882.306	7988.45
882.624	7965.17
882.941	7915.68
883.259	7917.72
883.577	7964.72
883.894	7883.14
884.212	7896.93
884.529	7872.29
884.846	7829.36
885.164	7875.91
885.481	7798.85
885.798	7848.79
886.115	7738.74
886.432	7789.81
886.75	7736.7
887.067	7698.29
887.383	7665.97
887.7	7688.57
888.017	7620.77
888.334	7637.5
888.651	7632.07
888.967	7615.58
889.284	7596.82
889.6	7618.74
889.917	7524.05
890.233	7516.82
890.55	7487.67
890.866	7446.99
891.182	7456.48
891.498	7428.24
891.815	7398.63
892.131	7435.02
892.447	7364.96
892.763	7367.9
893.079	7307.11
893.395	7261.24
893.71	7246.32
894.026	7215.36
894.342	7256.26
894.657	7174.23
894.973	7180.56
895.289	7175.36
895.604	7149.15
895.92	7095.14
896.235	7052.43
896.55	7039.55
896.865	7038.64
897.181	6984.18
897.496	7037.51
897.811	6992.99
898.126	6931.98
898.441	6896.27
898.756	6920
899.071	6850.62
899.386	6877.97
899.7	6772.66
900.015	6778.08
900.33	6690.18
900.644	6709.84
900.959	6765.88
901.273	6774.92
901.588	6672.55
901.902	6598.2
902.216	6647.92
902.531	6616.51
902.845	6596.85
903.159	6571.54
903.473	6564.08
903.787	6468.49
904.101	6459
904.415	6482.73
904.729	6441.37
905.042	6414.03
905.356	6367.47
905.67	6400.47
905.984	6317.98
906.297	6351.66
906.611	6280.92
906.924	6368.83
907.237	6293.8
907.551	6219.46
907.864	6170.64
908.177	6199.79
908.491	6167.25
908.804	6118.21
909.117	6128.16
909.43	6132.68
909.743	6037.76
910.056	6080.7
910.368	5979.01
910.681	5968.61
910.994	5957.77
911.307	5907.15
911.619	5959.12
911.932	5908.28
912.244	5890.42
912.557	5862.18
912.869	5849.97
913.181	5805
913.494	5742.86
913.806	5752.8
914.118	5734.04
914.43	5675.74
914.742	5710.32
915.054	5694.72
915.366	5685.01
915.678	5611.11
915.99	5592.35
916.302	5538.57
916.613	5551
916.925	5550.55
917.236	5485.46
917.548	5489.98
917.859	5439.36
918.171	5404.11
918.482	5418.57
918.794	5337.44
919.105	5354.85
919.416	5348.74
919.727	5321.4
920.038	5344
920.349	5259.48
920.66	5259.03
920.971	5228.75
921.282	5199.14
921.593	5238.69
921.903	5220.61
922.214	5158.01
922.525	5144.46
922.835	5080.28
923.146	5052.03
923.456	5084.12
923.767	5046.38
924.077	5071.24
924.387	4988.75
924.697	5015.42
925.008	4992.37
925.318	4957.12
925.628	4975.42
925.938	4932.26
926.248	4922.54
926.558	4859.26
926.867	4845.93
927.177	4907.63
927.487	4798.02
927.796	4837.34
928.106	4795.09
928.416	4779.49
928.725	4775.43
929.034	4752.38
929.344	4730
929.653	4714.18
929.962	4659.95
930.271	4631.02
930.581	4613.17
930.89	4611.14
931.199	4607.75
931.508	4621.53
931.817	4587.63
932.125	4552.15
932.434	4490.46
932.743	4529.56
933.051	4520.74
933.36	4499.73
933.669	4444.13
933.977	4452.72
934.286	4428.54
934.594	4412.95
934.902	4409.79
935.21	4379.96
935.519	4370.92
935.827	4376.57
936.135	4301.99
936.443	4278.49
936.751	4243.69
937.059	4224.93
937.367	4220.19
937.674	4242.56
937.982	4239.62
938.29	4171.37
938.597	4170.7
938.905	4114.2
939.213	4117.36
939.52	4124.37
939.827	4117.59
940.135	4085.05
940.442	4095.22
940.749	4035.78
941.056	4065.16
941.363	4015.67
941.67	3978.16
941.977	3978.38
942.284	3932.06
942.591	3930.02
942.898	3963.02
943.205	3901.55
943.511	3883.25
943.818	3880.31
944.125	3847.99
944.431	3841.44
944.738	3781.33
945.044	3812.29
945.35	3773.42
945.657	3769.58
945.963	3750.14
946.269	3745.17
946.575	3745.17
946.881	3734.32
947.187	3699.52
947.493	3683.93
947.799	3669.92
948.105	3642.8
948.41	3610.48
948.716	3636.02
949.022	3603.93
949.327	3611.39
949.633	3582.24
949.938	3531.84
950.244	3549.92
950.549	3530.71
950.854	3568.45
951.16	3493.43
951.465	3483.26
951.77	3458.4
952.075	3486.19
952.38	3479.19
952.685	3420.66
952.99	3437.83
953.294	3425.86
953.599	3368.46
953.904	3370.26
954.209	3382.69
954.513	3352.41
954.818	3375.01
955.122	3350.6
955.426	3333.66
955.731	3258.63
956.035	3282.58
956.339	3285.75
956.643	3264.73
956.948	3268.12
957.252	3233.32
957.556	3225.18
957.86	3210.72
958.163	3200.33
958.467	3191.06
958.771	3178.63
959.075	3191.74
959.378	3118.29
959.682	3140.67
959.985	3106.77
960.289	3099.76
960.592	3119.65
960.896	3081.23
961.199	3059.09
961.502	3031.06
961.805	3040.78
962.108	3041.91
962.411	3034.68
962.714	3011.63
963.017	2946.32
963.32	2967.79
963.623	2968.02
963.926	2959.43
964.228	2921.69
964.531	2904.29
964.833	2902.93
965.136	2888.7
965.438	2869.49
965.741	2843.27
966.043	2885.76
966.345	2845.98
966.648	2863.61
966.95	2845.98
967.252	2828.58
967.554	2793.78
967.856	2816.15
968.158	2757.4
968.46	2751.3
968.761	2722.15
969.063	2729.38
969.365	2711.07
969.666	2730.06
969.968	2683.28
970.269	2710.62
970.571	2690.06
970.872	2709.94
971.174	2659.32
971.475	2677.4
971.776	2655.26
972.077	2639.44
972.378	2604.63
972.679	2639.66
972.98	2610.96
973.281	2593.34
973.582	2593.79
973.883	2595.82
974.183	2562.83
974.484	2521.47
974.785	2535.26
975.085	2519.21
975.386	2548.14
975.686	2478.99
975.986	2472.21
976.287	2502.26
976.587	2464.53
976.887	2466.33
977.187	2438.09
977.487	2464.53
977.787	2429.05
978.087	2414.36
978.387	2417.07
978.687	2409.39
978.987	2391.76
979.286	2364.87
979.586	2380.46
979.885	2339.33
980.185	2344.98
980.484	2343.17
980.784	2351.31
981.083	2285.1
981.382	2307.24
981.682	2311.54
981.981	2297.75
982.28	2327.81
982.579	2298.2
982.878	2235.61
983.177	2243.06
983.475	2239.45
983.774	2222.27
984.073	2204.19
984.372	2215.72
984.67	2223.4
984.969	2201.03
985.267	2184.08
985.566	2179.79
985.864	2170.52
986.162	2164.87
986.461	2171.2
986.759	2145.89
987.057	2089.17
987.355	2113.12
987.653	2129.85
987.951	2097.3
988.249	2090.3
988.547	2080.35
988.844	2053.01
989.142	2068.38
989.44	2027.25
989.737	2051.2
990.035	2028.38
990.332	2018.21
990.63	1990.41
990.927	2015.5
991.224	1977.98
991.521	2008.04
991.819	1997.65
992.116	1950.41
992.413	1972.56
992.71	1977.53
993.006	1926.23
993.303	1907.93
993.6	1956.29
993.897	1921.04
994.193	1914.71
994.49	1914.94
994.787	1897.53
995.083	1894.37
995.379	1867.03
995.676	1865.9
995.972	1858.67
996.268	1824.99
996.565	1835.62
996.861	1821.38
997.157	1819.34
997.453	1812.57
997.749	1812.79
998.044	1784.32
998.34	1773.24
998.636	1768.95
998.932	1763.75
999.227	1765.56
999.523	1761.49
999.818	1738.22
1000.114	1734.15
1000.409	1695.05
1000.704	1693.47
1001	1728.95
1001.295	1707.48
1001.59	1664.55
1001.885	1689.86
1002.18	1697.99
1002.475	1685.79
1002.77	1669.07
1003.065	1640.59
1003.359	1650.76
1003.654	1634.94
1003.949	1622.06
1004.243	1635.17
1004.538	1593.81
1004.832	1616.19
1005.127	1605.34
1005.421	1596.53
1005.715	1570.99
1006.009	1566.24
1006.304	1573.93
1006.598	1556.75
1006.892	1538
1007.186	1525.34
1007.48	1517.88
1007.773	1530.09
1008.067	1483.31
1008.361	1495.74
1008.655	1490.54
1008.948	1467.94
1009.242	1481.05
1009.535	1458.45
1009.829	1436.53
1010.122	1460.94
1010.415	1423.2
1010.708	1442.86
1011.001	1414.61
1011.295	1435.4
1011.588	1386.59
1011.881	1404.67
1012.173	1398.34
1012.466	1395.85
1012.759	1359.02
1013.052	1391.79
1013.344	1339.36
1013.637	1338
1013.93	1335.52
1014.222	1359.24
1014.514	1351.33
1014.807	1356.76
1015.099	1324.89
1015.391	1308.85
1015.683	1306.82
1015.976	1275.86
1016.268	1256.2
1016.56	1299.13
1016.851	1289.87
1017.143	1285.35
1017.435	1248.51
1017.727	1250.55
1018.018	1254.84
1018.31	1248.29
1018.602	1230.21
1018.893	1214.16
1019.185	1217.1
1019.476	1203.32
1019.767	1174.62
1020.058	1195.63
1020.35	1203.77
1020.641	1204.9
1020.932	1194.73
1021.223	1168.74
1021.514	1180.49
1021.804	1144.79
1022.095	1138.68
1022.386	1126.03
1022.677	1131
1022.967	1112.24
1023.258	1130.78
1023.548	1121.06
1023.839	1105.92
1024.129	1065.24
1024.419	1062.75
1024.709	1080.38
1025	1100.49
1025.29	1036.31
1025.58	1061.62
1025.87	1035.18
1026.16	1041.51
1026.449	1069.08
1026.739	1054.39
1027.029	1035.86
1027.319	1040.38
1027.608	1039.7
1027.898	1037.67
1028.187	1001.74
1028.477	1009.87
1028.766	986.37
1029.055	997.67
1029.344	970.55
1029.634	977.79
1029.923	980.72
1030.212	974.4
1030.501	973.04
1030.79	951.35
1031.078	940.27
1031.367	953.6
1031.656	935.3
1031.945	945.24
1032.233	915.87
1032.522	936.2
1032.81	942.53
1033.099	899.14
1033.387	899.59
1033.675	908.18
1033.963	909.99
1034.251	902.98
1034.54	878.35
1034.828	882.65
1035.116	878.35
1035.403	869.09
1035.691	876.32
1035.979	840.16
1036.267	850.78
1036.554	858.92
1036.842	848.07
1037.129	841.07
1037.417	855.75
1037.704	834.74
1037.992	822.76
1038.279	838.81
1038.566	801.52
1038.853	801.52
1039.14	801.52
