Data from hue_310_FLMS001491_13.txt Node
Date: Mon Feb 06 15:48:54 GMT 2017
User: dcchb
Spectrometer: FLMS00149
Trigger mode: 0
Integration Time (sec): 2.000000E-2
Scans to average: 10
Electric dark correction enabled: true
Nonlinearity correction enabled: false
Boxcar width: 0
XAxis mode: Wavelengths
Number of Pixels in Spectrum: 2048
>>>>>Begin Spectral Data<<<<<
341.393	-8.64
341.776	-8.64
342.16	-8.64
342.543	-62.43
342.927	-75.08
343.31	-70.34
343.693	-80.51
344.077	-76.21
344.46	-68.53
344.843	-62.88
345.226	-51.13
345.61	-15.65
345.993	-20.17
346.376	-5.03
346.759	35.2
347.142	26.16
347.525	44.69
347.908	46.5
348.291	65.48
348.674	106.16
349.057	126.27
349.44	138.24
349.823	157
350.206	169.43
350.588	186.15
350.971	223.21
351.354	205.14
351.737	246.72
352.119	246.72
352.502	261.86
352.884	277.9
353.267	275.19
353.65	282.65
354.032	276.09
354.414	281.29
354.797	324.45
355.179	320.61
355.562	321.52
355.944	328.52
356.326	342.99
356.709	332.14
357.091	317.68
357.473	342.31
357.855	320.39
358.238	362.19
358.62	342.31
359.002	336.66
359.384	346.83
359.766	351.12
360.148	348.86
360.53	342.53
360.912	346.38
361.294	333.95
361.676	323.1
362.057	326.71
362.439	324.91
362.821	328.3
363.203	331.01
363.584	328.75
363.966	328.97
364.348	317.68
364.729	313.38
365.111	314.74
365.493	322.19
365.874	307.51
366.256	326.26
366.637	316.55
367.019	325.36
367.4	285.13
367.781	309.09
368.163	324.23
368.544	312.25
368.925	310.67
369.306	314.29
369.688	295.08
370.069	302.31
370.45	322.42
370.831	316.77
371.212	323.78
371.593	302.99
371.974	322.87
372.355	315.64
372.736	298.01
373.117	299.14
373.498	312.48
373.879	321.29
374.26	293.72
374.641	326.94
375.021	316.55
375.402	317.9
375.783	311.8
376.163	329.65
376.544	341.4
376.925	295.98
377.305	331.01
377.686	325.36
378.066	324
378.447	323.32
378.827	335.3
379.208	346.15
379.588	316.09
379.968	315.87
380.349	342.76
380.729	310.9
381.109	334.85
381.489	326.49
381.87	332.14
382.25	349.09
382.63	347.5
383.01	358.8
383.39	352.7
383.77	336.88
384.15	351.35
384.53	348.41
384.91	342.08
385.29	341.63
385.67	339.82
386.049	353.61
386.429	369.2
386.809	361.97
387.189	358.8
387.568	360.61
387.948	366.04
388.328	359.71
388.707	366.26
389.087	335.53
389.466	364.68
389.846	368.3
390.225	372.36
390.605	375.3
390.984	367.62
391.363	365.13
391.743	364.23
392.122	366.26
392.501	364.91
392.881	382.08
393.26	410.1
393.639	374.85
394.018	377.79
394.397	395.19
394.776	385.47
395.155	359.26
395.534	381.63
395.913	387.73
396.292	405.36
396.671	394.96
397.05	366.26
397.429	402.87
397.808	379.14
398.186	359.03
398.565	401.97
398.944	377.56
399.323	399.26
399.701	402.19
400.08	404.68
400.458	389.09
400.837	417.79
401.215	411.46
401.594	419.37
401.972	407.16
402.351	397
402.729	417.11
403.107	429.99
403.486	437.9
403.864	424.34
404.242	416.2
404.62	412.14
404.999	416.43
405.377	427.28
405.755	431.8
406.133	422.53
406.511	427.5
406.889	432.93
407.267	467.05
407.645	455.52
408.023	453.49
408.401	457.33
408.779	456.2
409.156	471.12
409.534	460.5
409.912	480.38
410.29	503.66
410.667	471.34
411.045	485.81
411.422	496.43
411.8	519.93
412.178	491.23
412.555	510.89
412.933	532.36
413.31	538.91
413.687	541.62
414.065	528.97
414.442	543.88
414.819	569.19
415.197	557.89
415.574	591.79
415.951	584.33
416.328	588.18
416.705	588.18
417.082	619.36
417.46	612.36
417.837	629.08
418.214	636.08
418.591	633.6
418.967	646.71
419.344	662.98
419.721	666.14
420.098	657.78
420.475	675.63
420.852	696.42
421.228	691.68
421.605	674.95
421.982	716.31
422.358	695.29
422.735	702.3
423.111	712.24
423.488	714.95
423.864	730.32
424.241	721.96
424.617	757.89
424.994	738
425.37	752.69
425.746	787.95
426.123	770.77
426.499	794.05
426.875	810.32
427.251	795.85
427.627	815.97
428.003	834.72
428.379	834.05
428.756	829.3
429.132	836.08
429.507	839.7
429.883	850.77
430.259	872.69
430.635	869.53
431.011	883.31
431.387	907.49
431.763	929.41
432.138	911.56
432.514	931.67
432.89	940.48
433.265	949.07
433.641	968.51
434.016	971.9
434.392	1003.08
434.767	1007.6
435.143	1002.18
435.518	1006.7
435.894	1028.84
436.269	1038.11
436.644	1047.37
437.02	1051.89
437.395	1067.94
437.77	1085.34
438.145	1090.31
438.52	1085.56
438.895	1105
439.271	1110.87
439.646	1135.28
440.021	1132.34
440.395	1163.08
440.77	1124.66
441.145	1131.89
441.52	1170.08
441.895	1169.4
442.27	1144.55
442.645	1175.28
443.019	1169.86
443.394	1171.89
443.769	1199.91
444.143	1181.38
444.518	1190.19
444.892	1224.32
445.267	1212.57
445.641	1241.94
446.016	1195.84
446.39	1196.3
446.764	1236.97
447.139	1252.11
447.513	1243.98
447.887	1249.18
448.262	1248.5
448.636	1234.94
449.01	1259.35
449.384	1287.14
449.758	1281.94
450.132	1277.65
450.506	1281.72
450.88	1297.76
451.254	1296.18
451.628	1309.51
452.002	1281.94
452.376	1330.76
452.75	1318.1
453.123	1305.67
453.497	1298.44
453.871	1325.78
454.244	1379.34
454.618	1364.43
454.992	1392.45
455.365	1398.55
455.739	1384.09
456.112	1404.65
456.486	1437.65
456.859	1410.08
457.232	1435.16
457.606	1442.84
457.979	1455.27
458.352	1430.19
458.725	1450.75
459.099	1481.03
459.472	1493.24
459.845	1487.59
460.218	1533.46
460.591	1526.91
460.964	1523.07
461.337	1577.98
461.71	1574.37
462.083	1599.45
462.456	1572.33
462.829	1587.25
463.201	1639.45
463.574	1608.26
463.947	1614.14
464.32	1656.4
464.692	1646.23
465.065	1669.73
465.438	1670.63
465.81	1665.21
466.183	1704.31
466.555	1719.67
466.928	1729.39
467.3	1709.28
467.672	1757.86
468.045	1755.6
468.417	1787.92
468.789	1795.38
469.161	1811.2
469.534	1853.68
469.906	1848.93
470.278	1850.29
470.65	1853.23
471.022	1870.85
471.394	1917.86
471.766	1934.13
472.138	1901.14
472.51	1960.34
472.882	1976.84
473.253	1997.18
473.625	2027.23
473.997	2012.55
474.369	2037.18
474.74	2069.27
475.112	2104.29
475.484	2122.83
475.855	2155.59
476.227	2174.8
476.598	2187.46
476.97	2203.73
477.341	2241.69
477.713	2265.42
478.084	2259.55
478.455	2307.91
478.827	2326.66
479.198	2348.58
479.569	2382.03
479.94	2416.6
480.311	2407.56
480.682	2452.31
481.053	2520.33
481.424	2540.67
481.795	2549.48
482.166	2567.11
482.537	2588.58
482.908	2607.33
483.279	2657.95
483.65	2676.71
484.021	2682.36
484.391	2743.83
484.762	2722.13
485.133	2796.48
485.503	2767.78
485.874	2818.63
486.244	2810.49
486.615	2886.87
486.985	2908.57
487.356	2948.11
487.726	2934.1
488.097	3019.98
488.467	3002.12
488.837	3040.99
489.207	3081.67
489.578	3135.45
489.948	3132.06
490.318	3130.48
490.688	3217.03
491.058	3178.17
491.428	3222.46
491.798	3276.24
492.168	3292.06
492.538	3293.42
492.908	3357.37
493.278	3348.78
493.648	3344.49
494.017	3387.65
494.387	3390.59
494.757	3437.37
495.126	3448.89
495.496	3456.35
495.866	3529.12
496.235	3506.52
496.605	3525.95
496.974	3555.78
497.344	3600.53
497.713	3566.86
498.082	3603.24
498.452	3592.17
498.821	3640.75
499.19	3631.03
499.559	3652.05
499.928	3710.13
500.298	3685.27
500.667	3742.67
501.036	3741.54
501.405	3740.64
501.774	3775.21
502.143	3796
502.512	3785.83
502.88	3802.1
503.249	3826.51
503.618	3834.19
503.987	3888.2
504.356	3851.82
504.724	3864.25
505.093	3867.86
505.462	3896.79
505.83	3899.28
506.199	3954.64
506.567	3961.65
506.936	3978.82
507.304	4003.68
507.672	3994.64
508.041	4037.58
508.409	4005.26
508.777	4040.74
509.145	4073.28
509.514	4027.18
509.882	4076.22
510.25	4071.02
510.618	4105.15
510.986	4097.24
511.354	4140.17
511.722	4157.12
512.09	4187.63
512.458	4167.07
512.826	4228.76
513.193	4232.6
513.561	4160.51
513.929	4197.12
514.297	4244.35
514.664	4240.96
515.032	4210.45
515.4	4274.41
515.767	4314.41
516.135	4299.49
516.502	4265.82
516.869	4342.43
517.237	4323.45
517.604	4356.21
517.972	4378.36
518.339	4364.12
518.706	4388.3
519.073	4353.95
519.44	4404.35
519.808	4428.75
520.175	4437.34
520.542	4466.04
520.909	4482.76
521.276	4463.78
521.643	4496.32
522.009	4466.27
522.376	4511.01
522.743	4522.76
523.11	4535.19
523.477	4579.48
523.843	4601.63
524.21	4646.15
524.577	4629.43
524.943	4691.35
525.31	4675.98
525.676	4718.46
526.043	4707.39
526.409	4675.53
526.776	4786.26
527.142	4799.82
527.508	4843.21
527.874	4858.8
528.241	4824.9
528.607	4853.83
528.973	4924.33
529.339	4889.98
529.705	4913.26
530.071	4998.46
530.437	5011.56
530.803	4976.76
531.169	5065.8
531.535	5028.74
531.901	5037.33
532.267	5080.71
532.632	5123.65
532.998	5143.54
533.364	5217.89
533.73	5156.42
534.095	5189.64
534.461	5204.33
534.826	5292.46
535.192	5259.24
535.557	5301.95
535.923	5301.27
536.288	5299.47
536.653	5327.49
537.019	5293.36
537.384	5343.53
537.749	5379.46
538.114	5354.38
538.479	5358.9
538.845	5397.99
539.21	5435.73
539.575	5474.15
539.94	5487.26
540.305	5525.67
540.67	5517.09
541.034	5608.84
541.399	5565.22
541.764	5629.4
542.129	5614.26
542.494	5656.29
542.858	5649.06
543.223	5671.21
543.587	5750.3
543.952	5773.13
544.316	5778.77
544.681	5818.77
545.045	5807.47
545.41	5825.1
545.774	5927.47
546.138	5866
546.503	5875.5
546.867	5953.23
547.231	5961.37
547.595	6021.48
547.959	6029.84
548.324	6027.81
548.688	5970.41
549.052	6013.34
549.416	6083.63
549.779	6077.3
550.143	6074.36
550.507	6162.72
550.871	6168.59
551.235	6157.52
551.599	6176.5
551.962	6262.6
552.326	6229.38
552.689	6239.1
553.053	6244.75
553.417	6218.76
553.78	6308.25
554.143	6306.44
554.507	6367.46
554.87	6381.7
555.234	6472.99
555.597	6371.3
555.96	6421.24
556.323	6410.62
556.686	6506.89
557.05	6498.98
557.413	6458.76
557.776	6477.74
558.139	6510.51
558.502	6547.12
558.865	6585.53
559.228	6635.7
559.59	6625.98
559.953	6634.8
560.316	6666.43
560.679	6673.89
561.041	6773.32
561.404	6734.46
561.767	6709.82
562.129	6729.94
562.492	6849.48
562.854	6757.51
563.217	6836.6
563.579	6829.37
563.941	6894.9
564.304	6902.36
564.666	6953.43
565.028	6974.68
565.39	6968.12
565.753	7000.21
566.115	6973.09
566.477	7107.33
566.839	7061.23
567.201	7127.89
567.563	7109.59
567.925	7174.44
568.287	7034.33
568.648	7150.04
569.01	7138.51
569.372	7257.83
569.734	7210.83
570.095	7337.15
570.457	7376.25
570.819	7357.26
571.18	7417.15
571.542	7411.5
571.903	7450.14
572.265	7500.54
572.626	7588.67
572.987	7630.25
573.349	7528.11
573.71	7657.82
574.071	7675
574.432	7782.34
574.794	7819.4
575.155	7822.34
575.516	7859.62
575.877	7994.99
576.238	8084.25
576.599	8077.7
576.96	8169.45
577.32	8259.39
577.681	8300.97
578.042	8351.59
578.403	8435.88
578.763	8528.98
579.124	8627.51
579.485	8687.17
579.845	8847.85
580.206	8939.6
580.566	9016.66
580.927	9133.49
581.287	9281.06
581.648	9381.84
582.008	9562.63
582.368	9619.8
582.728	9865.67
583.089	9890.76
583.449	10127.59
583.809	10239
584.169	10431.99
584.529	10608.25
584.889	10842.6
585.249	10970.28
585.609	11168.01
585.969	11400.77
586.329	11495.46
586.688	11740.88
587.048	12017.03
587.408	12121.21
587.768	12427.87
588.127	12632.61
588.487	12854.75
588.846	13219.48
589.206	13331.8
589.565	13580.6
589.925	13912.12
590.284	14179.68
590.643	14425.55
591.003	14746.67
591.362	15000.91
591.721	15249.26
592.08	15458.29
592.44	15884.95
592.799	16107.77
593.158	16445.61
593.517	16658.26
593.876	16901.65
594.235	17167.85
594.593	17564.91
594.952	17920.15
595.311	18081.5
595.67	18382.74
596.029	18776.85
596.387	19167.8
596.746	19403.05
597.104	19645.08
597.463	19984.05
597.822	20256.81
598.18	20482.12
598.538	20796.91
598.897	21174.75
599.255	21321.87
599.613	21871.68
599.972	22069.65
600.33	22398.45
600.688	22494.95
601.046	22822.62
601.404	23314.58
601.762	23514.58
602.12	23893.1
602.478	24230.27
602.836	24374.22
603.194	24535.57
603.552	24955.45
603.91	25011.94
604.268	25513.62
604.625	25628.42
604.983	25940.05
605.341	26030.45
605.698	26495.07
606.056	26858.9
606.413	27018.22
606.771	27282.39
607.128	27567.13
607.485	27674.24
607.843	27982.48
608.2	28275.81
608.557	28542.02
608.914	28666.31
609.272	28978.16
609.629	29213.64
609.986	29497.25
610.343	29489.79
610.7	29967.52
611.057	30115.54
611.414	30262.88
611.771	30475.53
612.127	30691.11
612.484	30889.53
612.841	31218.33
613.198	31186.24
613.554	31410.87
613.911	31666.91
614.267	31803.18
614.624	31962.04
614.98	32174.92
615.337	32418.3
615.693	32570.39
616.05	32643.15
616.406	32855.12
616.762	32943.71
617.118	33151.16
617.475	33162.91
617.831	33456.46
618.187	33576.01
618.543	33735.55
618.899	34089.89
619.255	34148.88
619.611	34157.24
619.967	34453.05
620.323	34416.44
620.678	34541.18
621.034	34570.56
621.39	34760.39
621.746	34724.23
622.101	35279.02
622.457	35088.96
622.812	35209.87
623.168	35452.12
623.523	35519.91
623.879	35575.51
624.234	35612.79
624.589	35743.18
624.945	35884.2
625.3	35836.29
625.655	36023.63
626.01	36086.23
626.365	36154.02
626.72	36205.32
627.075	36256.39
627.43	36289.61
627.785	36410.06
628.14	36600.11
628.495	36528.93
628.85	36586.1
629.205	36601.47
629.559	36745.19
629.914	36593.56
630.269	36642.14
630.623	36624.74
630.978	36683.72
631.332	36872.87
631.687	36928.24
632.041	36927.56
632.396	36897.96
632.75	36803.04
633.104	36934.34
633.459	36961.46
633.813	36922.81
634.167	36882.59
634.521	36949.48
634.875	36938.86
635.229	36901.57
635.583	36921.46
635.937	36900.89
636.291	36999.87
636.645	36895.47
636.999	36858.18
637.352	36991.29
637.706	36919.42
638.06	37066.99
638.413	37022.47
638.767	37028.8
639.121	36996.71
639.474	36817.28
639.828	36864.74
640.181	36924.4
640.534	37005.07
640.888	36899.76
641.241	36862.93
641.594	36874
641.947	36951.06
642.301	36944.73
642.654	36900.44
643.007	36879.88
643.36	36892.98
643.713	36947.22
644.066	36901.35
644.419	36827.68
644.771	36447.12
645.124	36243.06
645.477	36190.63
645.83	36098.88
646.182	35928.04
646.535	35994.48
646.888	35822.96
647.24	35733.69
647.593	35931.65
647.945	35787.93
648.298	35632.68
648.65	35641.72
649.002	35514.94
649.355	35670.87
649.707	35605.56
650.059	35702.06
650.411	36159.22
650.763	36229.27
651.115	36526.21
651.467	36473.33
651.819	36523.95
652.171	36476.05
652.523	36495.48
652.875	36363.51
653.227	36263.62
653.578	36613.44
653.93	36433.34
654.282	36177.52
654.633	36229.27
654.985	36328.03
655.337	36354.69
655.688	36369.83
656.039	36416.84
656.391	36090.07
656.742	36038.32
657.094	36207.58
657.445	36290.51
657.796	36185.66
658.147	36113.57
658.498	36050.97
658.849	36166.45
659.2	36241.7
659.551	36075.38
659.902	36126.9
660.253	36121.48
660.604	36224.08
660.955	35958.77
661.306	36247.58
661.656	36024.08
662.007	36046.23
662.358	36108.37
662.708	36105.66
663.059	35983.63
663.409	35875.16
663.76	36157.86
664.11	36031.31
664.461	36138.88
664.811	36101.14
665.161	35966.23
665.511	35948.83
665.862	35900.47
666.212	36067.7
666.562	36140.24
666.912	36007.36
667.262	36040.13
667.612	35873.58
667.962	36022.5
668.312	35897.76
668.662	36060.46
669.011	35920.35
669.361	35853.24
669.711	36053.46
670.06	35938.43
670.41	35765.1
670.76	35791.77
671.109	35979.11
671.459	35893.01
671.808	35763.75
672.157	35905.67
672.507	35660.25
672.856	35722.85
673.205	35724.88
673.554	35738.21
673.904	35768.27
674.253	35871.77
674.602	35740.7
674.951	35371.22
675.3	35073.82
675.649	35689.63
675.998	35641.04
676.346	35683.3
676.695	35762.62
677.044	35333.48
677.393	35549.97
677.741	35668.61
678.09	35487.37
678.438	35330.09
678.787	35496.41
679.135	35557.88
679.484	35272.69
679.832	35536.86
680.181	35255.51
680.529	35398.11
680.877	35272.24
681.225	35185.69
681.573	35494.38
681.922	35211.67
682.27	35055.07
682.618	35096.65
682.966	34971.45
683.314	35188.62
683.661	34916.54
684.009	34818.24
684.357	34799.25
684.705	34708.41
685.053	34713.61
685.4	34583.44
685.748	34582.76
686.095	34533.5
686.443	34404.01
686.79	34338.93
687.138	34423.45
687.485	34359.04
687.832	34165.37
688.18	34276.78
688.527	34091.02
688.874	33972.16
689.221	33940.29
689.568	34008.54
689.915	33859.39
690.262	33797.02
690.609	33700.07
690.956	33459.18
691.303	33609.68
691.65	33418.27
691.997	33395.9
692.344	33304.6
692.69	33231.39
693.037	33216.92
693.383	32907.1
693.73	33132.86
694.077	32996.59
694.423	33014.44
694.769	32907.33
695.116	32786.65
695.462	32654.9
695.808	32610.39
696.155	32538.3
696.501	32411.07
696.847	32537.17
697.193	32221.7
697.539	32322.48
697.885	32046.56
698.231	31985.77
698.577	31983.51
698.923	31894.47
699.269	31816.28
699.614	31720.24
699.96	31645.67
700.306	31721.82
700.651	31538.55
700.997	31405.45
701.342	31394.82
701.688	31369.29
702.033	31214.26
702.379	31172.46
702.724	31095.85
703.069	31092.69
703.415	30798.23
703.76	30711.23
704.105	30882.97
704.45	30802.75
704.795	30631.68
705.14	30597.11
705.485	30493.38
705.83	30314.17
706.175	30431.23
706.52	30299.94
706.865	30249.54
707.209	30340.16
707.554	30029.66
707.899	30195.76
708.243	29905.15
708.588	29974.52
708.932	29735.88
709.277	29759.84
709.621	29685.04
709.966	29608.2
710.31	29577.92
710.654	29378.61
710.998	29408.89
711.342	29376.35
711.687	29238.95
712.031	29166.63
712.375	29035.11
712.719	29052.96
713.063	29043.47
713.407	29038.5
713.75	29002.12
714.094	28923.48
714.438	28790.6
714.782	28893.42
715.125	28614.33
715.469	28767.1
715.812	28573.88
716.156	28436.26
716.499	28422.02
716.843	28484.84
717.186	28377.28
717.53	28445.52
717.873	28437.84
718.216	28402.81
718.559	28317.84
718.902	28010.96
719.246	28105.87
719.589	28104.52
719.932	27982.94
720.275	27980
720.617	27905.42
720.96	27880.57
721.303	27836.73
721.646	27825.43
721.989	27655.49
722.331	27794.69
722.674	27698.65
723.016	27568.48
723.359	27656.62
723.701	27586.56
724.044	27437.19
724.386	27290.07
724.729	27316.51
725.071	27443.74
725.413	27434.25
725.755	27333.24
726.097	27233.8
726.439	27061.6
726.782	27195.61
727.124	27243.07
727.465	27064.99
727.807	26958.56
728.149	26909.29
728.491	26873.14
728.833	26943.87
729.175	26813.25
729.516	26827.26
729.858	26663.2
730.199	26740.71
730.541	26709.07
730.882	26682.86
731.224	26782.06
731.565	26482.19
731.906	26510.43
732.248	26542.3
732.589	26300.49
732.93	26285.35
733.271	26249.65
733.612	26337.1
733.953	26408.51
734.294	26293.72
734.635	26089.88
734.976	26238.12
735.317	26041.52
735.658	26093.49
735.999	26079.03
736.339	25986.38
736.68	26029.32
737.021	25893.27
737.361	25873.61
737.702	25975.98
738.042	25898.25
738.383	25808.76
738.723	25799.27
739.063	25754.75
739.404	25759.49
739.744	25643.34
740.084	25518.82
740.424	25640.4
740.764	25632.04
741.104	25649.44
741.444	25487.86
741.784	25394.3
742.124	25410.35
742.464	25390.01
742.804	25289.22
743.143	25183.01
743.483	25330.35
743.823	25234.53
744.162	25089.91
744.502	25133.75
744.841	25015.56
745.181	25133.29
745.52	24989.12
745.86	25112.28
746.199	25072.28
746.538	24948.21
746.877	25009.46
747.216	24981.43
747.556	24872.06
747.895	24881.32
748.234	24774.43
748.573	24724.72
748.911	24780.99
749.25	24727.43
749.589	24573.76
749.928	24695.57
750.267	24670.26
750.605	24537.15
750.944	24488.79
751.283	24345.97
751.621	24436.82
751.96	24363.6
752.298	24251.74
752.636	24289.47
752.975	24165.18
753.313	24064.4
753.651	24142.59
753.989	23985.53
754.327	23956.15
754.666	23817.62
755.004	23915.92
755.342	23915.47
755.679	23935.13
756.017	23625.54
756.355	23764.29
756.693	23550.96
757.031	23634.58
757.368	23538.76
757.706	23509.16
758.044	23396.39
758.381	23393.9
758.719	23397.52
759.056	23345.32
759.394	23256.73
759.731	22980.36
760.068	23134.7
760.405	23005.44
760.743	22988.04
761.08	23016.74
761.417	22940.58
761.754	22877.31
762.091	22842.28
762.428	22744.66
762.765	22582.4
763.102	22595.06
763.438	22461.95
763.775	22411.33
764.112	22451.78
764.449	22346.47
764.785	22228.51
765.122	22154.16
765.458	22026.48
765.795	22072.36
766.131	22110.55
766.467	21876.88
766.804	21815.64
767.14	21656.32
767.476	21669.88
767.812	21615.65
768.148	21614.29
768.485	21465.14
768.821	21353.73
769.157	21420.4
769.492	21364.81
769.828	21162.55
770.164	21022.89
770.5	20988.77
770.836	20955.55
771.171	20912.16
771.507	20874.87
771.842	20658.16
772.178	20655.45
772.513	20633.3
772.849	20558.95
773.184	20444.38
773.519	20422.23
773.855	20338.39
774.19	20329.35
774.525	20299.52
774.86	20233.99
775.195	20209.36
775.53	19967.78
775.865	19882.81
776.2	19788.58
776.535	19712.42
776.87	19681.69
777.205	19626.55
777.539	19553.55
777.874	19509.04
778.209	19413.67
778.543	19378.87
778.878	19243.73
779.212	19319.21
779.547	19132.55
779.881	19151.3
780.215	19019.78
780.55	19098.2
780.884	18893.91
781.218	18952.21
781.552	18790.64
781.886	18748.6
782.22	18671.09
782.554	18605.33
782.888	18416.18
783.222	18297.77
783.556	18322.17
783.889	18272.46
784.223	18178.45
784.557	18129.86
784.89	18164.66
785.224	17980.04
785.557	17863.88
785.891	17959.02
786.224	17829.08
786.558	17808.29
786.891	17635.64
787.224	17604.68
787.557	17583.44
787.891	17554.28
788.224	17408.53
788.557	17514.74
788.89	17426.15
789.223	17337.11
789.556	17186.38
789.888	17202.2
790.221	17136.89
790.554	16990.68
790.887	16941.19
791.219	16958.59
791.552	16990.68
791.884	16781.65
792.217	16781.2
792.549	16696.91
792.882	16587.76
793.214	16515.22
793.546	16579.85
793.879	16362
794.211	16358.16
794.543	16501.43
794.875	16293.98
795.207	16361.1
795.539	16203.36
795.871	16174.89
796.203	16039.97
796.535	15975.57
796.867	15972.18
797.198	15875.46
797.53	15931.28
797.862	15741.9
798.193	15899.86
798.525	15701.45
798.856	15742.35
799.188	15632.07
799.519	15539.65
799.85	15503.26
800.182	15433.66
800.513	15558.63
800.844	15288.58
801.175	15338.07
801.506	15310.5
801.837	15233.22
802.168	15187.11
802.499	15144.18
802.83	15074.58
803.161	15014.46
803.491	15017.63
803.822	15039.1
804.153	14962.04
804.483	14798.65
804.814	14755.26
805.145	14725.66
805.475	14716.84
805.805	14666.9
806.136	14700.12
806.466	14596.4
806.796	14663.96
807.126	14459.22
807.457	14419.9
807.787	14464.2
808.117	14420.36
808.447	14264.2
808.777	14364.31
809.107	14324.31
809.436	14258.55
809.766	14211.55
810.096	14182.62
810.426	14135.62
810.755	14090.42
811.085	14091.1
811.414	14047.48
811.744	13947.37
812.073	13901.95
812.403	13969.75
812.732	13804.33
813.061	13876.41
813.39	13790.54
813.719	13724.55
814.049	13772.46
814.378	13699.02
814.707	13652.24
815.036	13583.77
815.365	13561.17
815.693	13465.13
816.022	13483.88
816.351	13386.48
816.68	13352.59
817.008	13417.9
817.337	13297.45
817.665	13178.35
817.994	13205.92
818.322	13245.92
818.651	13196.88
818.979	13186.26
819.307	13180.84
819.636	13163.89
819.964	13071.46
820.292	13067.4
820.62	13019.49
820.948	13101.29
821.276	13043.67
821.604	13036.21
821.932	13008.87
822.259	13006.38
822.587	13019.71
822.915	12940.17
823.243	12999.83
823.57	12997.34
823.898	12940.62
824.225	13017.91
824.553	12970
824.88	12963.44
825.207	13038.7
825.535	12863.79
825.862	13022.43
826.189	12995.99
826.516	12977.23
826.843	13034.63
827.17	12957.79
827.497	12981.75
827.824	12894.29
828.151	12878.7
828.478	12933.16
828.805	12970.45
829.131	12920.96
829.458	12967.96
829.785	12935.42
830.111	12997.12
830.438	12986.49
830.764	12921.86
831.09	12871.92
831.417	12873.28
831.743	12912.37
832.069	12944.46
832.395	12878.25
832.722	12852.03
833.048	12866.72
833.374	12793.51
833.7	12769.78
834.026	12778.36
834.351	12846.39
834.677	12901.3
835.003	12849.55
835.329	12799.15
835.654	12756.9
835.98	12684.13
836.306	12729.78
836.631	12613.85
836.956	12709.44
837.282	12697.69
837.607	12630.57
837.932	12604.36
838.258	12603.91
838.583	12584.25
838.908	12438.94
839.233	12488.43
839.558	12494.98
839.883	12471.71
840.208	12418.6
840.533	12395.78
840.858	12447.53
841.182	12424.7
841.507	12324.14
841.832	12268.1
842.156	12292.73
842.481	12262.45
842.805	12299.96
843.13	12234.2
843.454	12254.76
843.778	12147.65
844.103	12093.18
844.427	12081.89
844.751	12141.55
845.075	12126.86
845.399	12065.84
845.723	11942.91
846.047	11943.58
846.371	11852.06
846.695	11904.49
847.019	11864.26
847.343	11720.54
847.666	11711.95
847.99	11630.6
848.313	11651.84
848.637	11499.08
848.96	11563.03
849.284	11548.11
849.607	11411.85
849.931	11354
850.254	11342.24
850.577	11266.54
850.9	11166.2
851.223	11178.41
851.546	11127.11
851.869	11123.94
852.192	11137.5
852.515	10999.65
852.838	10997.85
853.161	10986.55
853.483	10868.36
853.806	10868.36
854.129	10841.92
854.451	10843.05
854.774	10797.85
855.096	10715.14
855.419	10730.06
855.741	10688.48
856.063	10569.38
856.385	10518.76
856.708	10582.26
857.03	10501.59
857.352	10531.42
857.674	10408.48
857.996	10419.78
858.318	10324.42
858.64	10346.11
858.961	10368.26
859.283	10275.15
859.605	10292.1
859.926	10252.33
860.248	10243.74
860.57	10225.44
860.891	10163.07
861.212	10099.11
861.534	10105.89
861.855	10122.62
862.176	10102.05
862.498	10062.96
862.819	10100.02
863.14	10051.88
863.461	9994.03
863.782	9950.42
864.103	10029.51
864.424	9906.12
864.745	9933.02
865.065	9885.79
865.386	9852.34
865.707	9846.01
866.027	9930.98
866.348	9887.59
866.668	9809.63
866.989	9781.61
867.309	9737.31
867.63	9755.85
867.95	9733.25
868.27	9645.79
868.59	9726.92
868.91	9704.32
869.23	9750.42
869.55	9693.25
869.87	9632.23
870.19	9648.96
870.51	9661.38
870.83	9606.47
871.15	9563.76
871.469	9566.92
871.789	9592.23
872.109	9592.01
872.428	9450.99
872.748	9583.19
873.067	9548.17
873.386	9525.57
873.706	9458.45
874.025	9459.36
874.344	9438.11
874.663	9467.72
874.982	9381.39
875.301	9387.49
875.62	9321.28
875.939	9339.81
876.258	9384.78
876.577	9294.84
876.896	9307.04
877.214	9316.08
877.533	9320.6
877.852	9284.67
878.17	9241.51
878.489	9212.36
878.807	9269.98
879.125	9187.72
879.444	9214.84
879.762	9110.66
880.08	9155.41
880.398	9065.02
880.716	9171.23
881.034	9119.48
881.352	9062.08
881.67	8987.05
881.988	9037.22
882.306	9003.55
882.624	9031.12
882.941	8982.76
883.259	8960.16
883.577	8963.55
883.894	8870.44
884.212	8895.53
884.529	8829.99
884.846	8872.25
885.164	8820.95
885.481	8785.48
885.798	8778.7
886.115	8741.86
886.432	8777.79
886.75	8650.79
887.067	8679.26
887.383	8658.92
887.7	8651.92
888.017	8633.16
888.334	8625.48
888.651	8595.2
888.967	8625.25
889.284	8541.87
889.6	8488.53
889.917	8426.61
890.233	8491.02
890.55	8465.94
890.866	8369.21
891.182	8431.36
891.498	8358.82
891.815	8433.17
892.131	8332.83
892.447	8294.64
892.763	8269.1
893.079	8264.13
893.395	8246.51
893.71	8207.64
894.026	8249.9
894.342	8152.5
894.657	8111.14
894.973	8068.88
895.289	8056.23
895.604	8067.3
895.92	8055.55
896.235	7923.8
896.55	7978.04
896.865	7946.63
897.181	7948.44
897.496	8023.69
897.811	7866.4
898.126	7854.2
898.441	7784.15
898.756	7836.8
899.071	7793.64
899.386	7739.4
899.7	7652.62
900.015	7720.42
900.33	7599.07
900.644	7599.29
900.959	7686.75
901.273	7555.45
901.588	7550.71
901.902	7513.64
902.216	7507.99
902.531	7470.03
902.845	7479.29
903.159	7447.88
903.473	7374.89
903.787	7366.08
904.101	7298.51
904.415	7304.16
904.729	7303.93
905.042	7253.76
905.356	7223.71
905.67	7208.12
905.984	7224.61
906.297	7150.04
906.611	7092.41
906.924	7074.11
907.237	7098.74
907.551	7041.11
907.864	7055.8
908.177	6958.63
908.491	6962.7
908.804	6888.8
909.117	6862.59
909.43	6876.82
909.743	6816.94
910.056	6844.06
910.368	6821.23
910.681	6752.08
910.994	6743.5
911.307	6679.77
911.619	6630.05
911.932	6658.75
912.244	6647.45
912.557	6599.54
912.869	6536.95
913.181	6586.44
913.494	6588.7
913.806	6504.18
914.118	6475.48
914.43	6425.31
914.742	6438.42
915.054	6425.09
915.366	6379.66
915.678	6342.6
915.99	6312.77
916.302	6278.65
916.613	6297.63
916.925	6249.72
917.236	6235.71
917.548	6182.15
917.859	6146.45
918.171	6127.24
918.482	6095.15
918.794	6047.92
919.105	6093.12
919.416	6064.19
919.727	6014.47
920.038	6014.7
920.349	5966.34
920.66	5926.79
920.971	5950.3
921.282	5880.24
921.593	5849.06
921.903	5844.99
922.214	5820.36
922.525	5815.38
922.835	5796.18
923.146	5702.17
923.456	5703.52
923.767	5710.75
924.077	5653.13
924.387	5661.49
924.697	5636.63
925.008	5632.79
925.318	5601.83
925.628	5562.74
925.938	5534.94
926.248	5516.41
926.558	5488.16
926.867	5444.09
927.177	5439.57
927.487	5347.15
927.796	5396.19
928.106	5373.59
928.416	5365.68
928.725	5372.46
929.034	5266.92
929.344	5303.08
929.653	5263.99
929.962	5219.92
930.271	5216.3
930.581	5201.61
930.89	5167.04
931.199	5149.19
931.508	5108.06
931.817	5109.87
932.125	5117.1
932.434	5083.88
932.743	5001.62
933.051	5025.35
933.36	4989.64
933.669	4952.13
933.977	4907.39
934.286	4929.53
934.594	4927.27
934.902	4882.53
935.21	4861.74
935.519	4879.59
935.827	4816.54
936.135	4776.09
936.443	4798.46
936.751	4771.8
937.059	4723.89
937.367	4702.64
937.674	4705.36
937.982	4653.61
938.29	4694.96
938.597	4656.77
938.905	4579.71
939.213	4582.65
939.52	4580.84
939.827	4591.01
940.135	4535.64
940.442	4517.56
940.749	4519.6
941.056	4527.73
941.363	4481.63
941.67	4466.27
941.977	4448.64
942.284	4446.61
942.591	4388.53
942.898	4422.2
943.205	4402.77
943.511	4345.14
943.818	4343.56
944.125	4270.57
944.431	4268.31
944.738	4302.88
945.044	4253.84
945.35	4236.44
945.657	4218.82
945.963	4209.32
946.269	4179.72
946.575	4149.89
946.881	4118.25
947.187	4118.25
947.493	4116.9
947.799	4127.52
948.105	4074.64
948.41	4041.87
948.716	4059.95
949.022	4013.62
949.327	4029.67
949.633	3958.94
949.938	3981.31
950.244	3946.96
950.549	3901.76
950.854	3916
951.16	3913.51
951.465	3887.75
951.77	3893.17
952.075	3886.17
952.38	3891.37
952.685	3845.04
952.99	3797.13
953.294	3812.5
953.599	3755.1
953.904	3751.26
954.209	3758.04
954.513	3728.89
954.818	3711.71
955.122	3731.37
955.426	3690.92
955.731	3646.4
956.035	3631.94
956.339	3620.87
956.643	3592.39
956.948	3583.58
957.252	3588.32
957.556	3586.06
957.86	3609.34
958.163	3565.05
958.467	3542.22
958.771	3531.38
959.075	3489.12
959.378	3511.94
959.682	3455.22
959.985	3442.34
960.289	3453.41
960.592	3399.4
960.896	3371.38
961.199	3396.46
961.502	3399.85
961.805	3338.61
962.108	3357.14
962.411	3322.12
962.714	3281.21
963.017	3303.81
963.32	3309.46
963.623	3288.9
963.926	3267.65
964.228	3233.76
964.531	3249.12
964.833	3217.71
965.136	3214.77
965.438	3200.99
965.741	3172.74
966.043	3137.04
966.345	3153.98
966.648	3130.93
966.95	3144.04
967.252	3161.22
967.554	3121.22
967.856	3073.31
968.158	3059.75
968.46	3063.14
968.761	3023.59
969.063	3029.92
969.365	3024.5
969.666	2998.73
969.968	2964.84
970.269	2953.09
970.571	2924.61
970.872	2968.68
971.174	2975.68
971.475	2906.31
971.776	2928.23
972.077	2853.88
972.378	2885.52
972.679	2863.15
972.98	2827.89
973.281	2876.03
973.582	2832.19
973.883	2824.28
974.183	2818.17
974.484	2812.3
974.785	2780.21
975.085	2804.62
975.386	2805.75
975.686	2760.1
975.986	2746.76
976.287	2747.89
976.587	2708.57
976.887	2696.82
977.187	2732.08
977.487	2684.84
977.787	2652.98
978.087	2690.27
978.387	2655.47
978.687	2648.69
978.987	2617.28
979.286	2630.83
979.586	2613.43
979.885	2599.2
980.185	2597.16
980.484	2549.03
980.784	2550.38
981.083	2542.25
981.382	2541.12
981.682	2520.56
981.981	2506.77
982.28	2514.91
982.579	2486.66
982.878	2507.45
983.177	2505.64
983.475	2438.52
983.774	2406.21
984.073	2442.59
984.372	2442.82
984.67	2408.69
984.969	2438.75
985.267	2425.87
985.566	2382.48
985.864	2374.8
986.162	2367.34
986.461	2381.8
986.759	2346.77
987.057	2332.31
987.355	2344.74
987.653	2309.26
987.951	2314.23
988.249	2317.62
988.547	2279.88
988.844	2274.23
989.142	2288.7
989.44	2272.2
989.737	2217.96
990.035	2262.71
990.332	2229.49
990.63	2222.48
990.927	2222.94
991.224	2212.99
991.521	2175.93
991.819	2175.03
992.116	2175.25
992.413	2158.76
992.71	2153.79
993.006	2158.76
993.303	2133.22
993.6	2072.88
993.897	2133.22
994.193	2129.61
994.49	2064.52
994.787	2095.26
995.083	2064.07
995.379	2051.64
995.676	2049.16
995.972	2014.81
996.268	2033.56
996.565	2018.65
996.861	2001.92
997.157	2022.04
997.453	1977.74
997.749	1982.04
998.044	1971.42
998.34	1951.53
998.636	1942.72
998.932	1913.57
999.227	1928.48
999.523	1914.24
999.818	1923.73
1000.114	1920.8
1000.409	1893.91
1000.704	1867.01
1001	1863.62
1001.295	1864.3
1001.59	1848.03
1001.885	1856.84
1002.18	1849.84
1002.475	1832.66
1002.77	1809.16
1003.065	1800.8
1003.359	1800.8
1003.654	1781.82
1003.949	1751.08
1004.243	1746.79
1004.538	1752.21
1004.832	1747.69
1005.127	1761.25
1005.421	1733.23
1005.715	1734.59
1006.009	1696.62
1006.304	1702.72
1006.598	1709.28
1006.892	1689.84
1007.186	1681.93
1007.48	1662.5
1007.773	1661.59
1008.067	1638.32
1008.361	1617.98
1008.655	1674.93
1008.948	1631.54
1009.242	1615.95
1009.535	1591.09
1009.829	1577.98
1010.122	1587.47
1010.415	1583.18
1010.708	1573.91
1011.001	1527.81
1011.295	1534.59
1011.588	1531.65
1011.881	1513.12
1012.173	1557.42
1012.466	1545.67
1012.759	1489.85
1013.052	1496.85
1013.344	1496.4
1013.637	1491.43
1013.93	1464.09
1014.222	1493.01
1014.514	1464.99
1014.807	1439.23
1015.099	1443.3
1015.391	1460.24
1015.683	1418.89
1015.976	1415.27
1016.268	1409.4
1016.56	1392
1016.851	1388.61
1017.143	1377.99
1017.435	1367.14
1017.727	1362.39
1018.018	1377.76
1018.31	1356.52
1018.602	1345.67
1018.893	1326.46
1019.185	1335.28
1019.476	1308.84
1019.767	1342.28
1020.058	1319.91
1020.35	1303.19
1020.641	1286.46
1020.932	1270.64
1021.223	1240.59
1021.514	1242.4
1021.804	1250.76
1022.095	1249.63
1022.386	1258.22
1022.677	1245.33
1022.967	1217.31
1023.258	1191.78
1023.548	1247.59
1023.839	1204.88
1024.129	1225.67
1024.419	1169.86
1024.709	1173.02
1025	1162.4
1025.29	1159.91
1025.58	1143.87
1025.87	1154.49
1026.16	1148.39
1026.449	1160.14
1026.739	1112.91
1027.029	1125.56
1027.319	1105.45
1027.608	1118.33
1027.898	1112.46
1028.187	1092.34
1028.477	1080.14
1028.766	1077.43
1029.055	1062.51
1029.344	1056.86
1029.634	1049.41
1029.923	1062.06
1030.212	1047.37
1030.501	1032.68
1030.79	1025
1031.078	1007.15
1031.367	1026.36
1031.656	997.43
1031.945	1014.38
1032.233	1003.53
1032.522	1001.27
1032.81	990.65
1033.099	969.41
1033.387	973.25
1033.675	959.47
1033.963	945
1034.251	959.92
1034.54	959.01
1034.828	946.59
1035.116	965.57
1035.403	940.94
1035.691	949.3
1035.979	931.44
1036.267	918.34
1036.554	961.73
1036.842	927.83
1037.129	932.35
1037.417	897.55
1037.704	888.06
1037.992	900.26
1038.279	882.63
1038.566	862.97
1038.853	862.97
1039.14	862.97
