Data from hue_270_FLMS001491_00009.txt Node
Date: Tue Feb 07 15:56:42 GMT 2017
User: dcchb
Spectrometer: FLMS00149
Trigger mode: 0
Integration Time (sec): 2.000000E-2
Scans to average: 10
Electric dark correction enabled: true
Nonlinearity correction enabled: false
Boxcar width: 0
XAxis mode: Wavelengths
Number of Pixels in Spectrum: 2048
>>>>>Begin Spectral Data<<<<<
341.393	-13.36
341.776	-13.36
342.16	-13.36
342.543	-56.07
342.927	-86.13
343.31	-53.59
343.693	-73.47
344.077	-56.07
344.46	-48.61
344.843	-60.37
345.226	-51.33
345.61	-28.28
345.993	-7.94
346.376	1.78
346.759	-2.74
347.142	21.67
347.525	46.75
347.908	47.43
348.291	77.26
348.674	75
349.057	112.51
349.44	129.91
349.823	136.92
350.206	155.9
350.588	192.06
350.971	210.59
351.354	234.99
351.737	217.14
352.119	231.83
352.502	241.77
352.884	279.51
353.267	281.32
353.65	292.85
354.032	273.18
354.414	304.37
354.797	305.05
355.179	306.4
355.562	297.82
355.944	321.32
356.326	329.23
356.709	326.97
357.091	332.17
357.473	338.27
357.855	344.82
358.238	335.56
358.62	332.84
359.002	331.71
359.384	320.19
359.766	330.13
360.148	335.78
360.53	328.32
360.912	326.52
361.294	328.32
361.676	320.87
362.057	329.68
362.439	345.05
362.821	334.2
363.203	323.81
363.584	313.64
363.966	338.95
364.348	328.78
364.729	306.86
365.111	319.51
365.493	312.51
365.874	300.3
366.256	334.43
366.637	329.91
367.019	329.23
367.4	315.67
367.781	303.01
368.163	319.29
368.544	300.3
368.925	319.74
369.306	304.82
369.688	293.3
370.069	325.39
370.45	318.83
370.831	302.56
371.212	299.62
371.593	303.47
371.974	327.19
372.355	312.73
372.736	316.57
373.117	324.26
373.498	312.51
373.879	320.64
374.26	306.86
374.641	298.04
375.021	322.68
375.402	323.81
375.783	309.57
376.163	309.57
376.544	308.44
376.925	346.4
377.305	311.15
377.686	316.12
378.066	339.85
378.447	319.96
378.827	320.19
379.208	334.43
379.588	319.29
379.968	337.36
380.349	330.36
380.729	347.76
381.109	317.93
381.489	315.44
381.87	338.49
382.25	337.82
382.63	345.73
383.01	343.24
383.39	320.87
383.77	347.53
384.15	339.85
384.53	341.43
384.91	350.47
385.29	339.4
385.67	338.04
386.049	340.98
386.429	351.15
386.809	342.56
387.189	342.34
387.568	350.02
387.948	351.6
388.328	356.8
388.707	352.73
389.087	369
389.466	349.12
389.846	363.13
390.225	370.13
390.605	350.02
390.984	362.22
391.363	388.66
391.743	375.56
392.122	368.55
392.501	382.33
392.881	380.98
393.26	384.59
393.639	366.29
394.018	395.44
394.397	367.19
394.776	359.06
395.155	379.4
395.534	381.2
395.913	356.57
396.292	376.23
396.671	408.77
397.05	391.6
397.429	403.12
397.808	400.64
398.186	402.9
398.565	376.01
398.944	390.24
399.323	387.98
399.701	420.07
400.08	420.3
400.458	408.77
400.837	431.82
401.215	434.54
401.594	425.27
401.972	426.63
402.351	439.96
402.729	421.66
403.107	432.73
403.486	429.34
403.864	449.45
404.242	442.45
404.62	461.65
404.999	436.8
405.377	462.78
405.755	462.78
406.133	442.67
406.511	468.89
406.889	483.8
407.267	484.25
407.645	479.73
408.023	465.95
408.401	498.49
408.779	492.39
409.156	484.25
409.534	511.6
409.912	504.82
410.29	507.08
410.667	511.82
411.045	519.96
411.422	541.43
411.8	543.69
412.178	546.4
412.555	556.79
412.933	553.18
413.31	562.44
413.687	571.03
414.065	573.97
414.442	576.45
414.819	590.24
415.197	578.94
415.574	580.52
415.951	624.81
416.328	608.32
416.705	609.67
417.082	601.31
417.46	616.9
417.837	625.72
418.214	646.28
418.591	627.75
418.967	650.35
419.344	655.32
419.721	686.73
420.098	658.94
420.475	685.6
420.852	691.25
421.228	698.94
421.605	733.51
421.982	718.6
422.358	717.47
422.735	738.71
423.111	755.66
423.488	746.84
423.864	757.69
424.241	766.96
424.617	768.99
424.994	808.54
425.37	775.77
425.746	830.91
426.123	827.07
426.499	830.23
426.875	856.22
427.251	841.98
427.627	851.7
428.003	858.25
428.379	892.38
428.756	924.92
429.132	905.03
429.507	944.13
429.883	938.03
430.259	940.96
430.635	947.52
431.011	932.38
431.387	967.86
431.763	1001.75
432.138	1008.53
432.514	998.59
432.89	1027.52
433.265	1042.66
433.641	1036.33
434.016	1065.03
434.392	1090.79
434.767	1086.04
435.143	1106.61
435.518	1136.44
435.894	1109.55
436.269	1161.98
436.644	1176.44
437.02	1168.53
437.395	1182.31
437.77	1220.73
438.145	1233.16
438.52	1245.59
438.895	1259.15
439.271	1261.86
439.646	1318.81
440.021	1320.39
440.395	1313.84
440.77	1320.84
441.145	1352.93
441.52	1367.17
441.895	1387.96
442.27	1417.56
442.645	1385.25
443.019	1413.95
443.394	1410.78
443.769	1404.91
444.143	1426.6
444.518	1468.86
444.892	1444.45
445.267	1473.38
445.641	1502.53
446.016	1485.36
446.39	1472.7
446.764	1525.58
447.139	1527.39
447.513	1522.64
447.887	1545.02
448.262	1559.7
448.636	1531
449.01	1569.2
449.384	1582.08
449.758	1575.75
450.132	1635.63
450.506	1635.41
450.88	1592.92
451.254	1620.27
451.628	1636.76
452.002	1652.81
452.376	1660.27
452.75	1689.42
453.123	1689.87
453.497	1732.36
453.871	1730.55
454.244	1779.81
454.618	1770.32
454.992	1781.85
455.365	1780.04
455.739	1839.02
456.112	1835.18
456.486	1846.7
456.859	1878.79
457.232	1851.67
457.606	1893.26
457.979	1915.63
458.352	1947.27
458.725	1968.96
459.099	1957.66
459.472	2016.87
459.845	2010.54
460.218	2029.75
460.591	2024.78
460.964	2061.39
461.337	2082.85
461.71	2102.06
462.083	2147.94
462.456	2142.97
462.829	2147.03
463.201	2169.86
463.574	2195.17
463.947	2229.29
464.32	2276.75
464.692	2287.82
465.065	2282.17
465.438	2331.21
465.81	2341.38
466.183	2323.07
466.555	2391.32
466.928	2435.16
467.3	2407.37
467.672	2448.95
468.045	2498.21
468.417	2492.56
468.789	2546.35
469.161	2563.07
469.534	2559
469.906	2629.73
470.278	2655.72
470.65	2620.69
471.022	2707.7
471.394	2726.68
471.766	2765.1
472.138	2790.18
472.51	2832.44
472.882	2884.19
473.253	2895.94
473.625	2918.31
473.997	2981.59
474.369	2982.94
474.74	3009.38
475.112	3049.84
475.484	3097.74
475.855	3183.16
476.227	3194.01
476.598	3231.53
476.97	3257.29
477.341	3325.99
477.713	3370.05
478.084	3370.28
478.455	3474.46
478.827	3456.15
479.198	3573.21
479.569	3546.77
479.94	3630.61
480.311	3642.36
480.682	3721.68
481.053	3766.2
481.424	3797.61
481.795	3812.53
482.166	3915.35
482.537	3965.52
482.908	3975.01
483.279	4032.18
483.65	4128.45
484.021	4172.97
484.391	4199.86
484.762	4222.46
485.133	4268.11
485.503	4280.76
485.874	4343.81
486.244	4412.74
486.615	4465.39
486.985	4481.21
487.356	4519.85
487.726	4631.49
488.097	4646.86
488.467	4707.42
488.837	4745.38
489.207	4767.98
489.578	4822.9
489.948	4843.01
490.318	4969.11
490.688	4912.84
491.058	5007.75
491.428	5052.04
491.798	5094.98
492.168	5216.78
492.538	5181.08
492.908	5246.16
493.278	5306.95
493.648	5324.35
494.017	5362.09
494.387	5401.19
494.757	5425.37
495.126	5526.83
495.496	5514.63
495.866	5522.99
496.235	5583.1
496.605	5578.81
496.974	5628.98
497.344	5694.51
497.713	5682.53
498.082	5766.83
498.452	5750.1
498.821	5784
499.19	5781.97
499.559	5813.6
499.928	5865.81
500.298	5875.07
500.667	5896.31
501.036	5904
501.405	6021.51
501.774	5955.3
502.143	5989.42
502.512	6063.54
502.88	6028.74
503.249	6033.71
503.618	6062.86
503.987	6117.55
504.356	6116.87
504.724	6157.32
505.093	6143.54
505.462	6187.38
505.83	6249.3
506.199	6267.6
506.567	6260.82
506.936	6327.94
507.304	6377.21
507.672	6355.51
508.041	6398.22
508.409	6400.48
508.777	6454.27
509.145	6472.57
509.514	6429.41
509.882	6495.17
510.25	6494.94
510.618	6537.43
510.986	6521.83
511.354	6557.77
511.722	6565.67
512.09	6611.32
512.458	6609.29
512.826	6612
513.193	6678.67
513.561	6651.32
513.929	6691.32
514.297	6719.34
514.664	6739.68
515.032	6753.92
515.4	6800.7
515.767	6784.43
516.135	6799.34
516.502	6762.73
516.869	6896.97
517.237	6891.09
517.604	6855.16
517.972	6835.95
518.339	6981.48
518.706	6924.76
519.073	6929.28
519.44	6983.97
519.808	6971.99
520.175	6942.84
520.542	7059
520.909	7047.92
521.276	7046.34
521.643	7063.06
522.009	7098.54
522.376	7126.34
522.743	7117.98
523.11	7246.33
523.477	7268.71
523.843	7261.02
524.21	7315.49
524.577	7386.67
524.943	7383.05
525.31	7350.96
525.676	7403.62
526.043	7456.72
526.409	7366.78
526.776	7476.16
527.142	7464.18
527.508	7523.84
527.874	7519.77
528.241	7614.46
528.607	7691.75
528.973	7673.67
529.339	7620.79
529.705	7675.48
530.071	7703.95
530.437	7727
530.803	7755.7
531.169	7700.33
531.535	7751.86
531.901	7702.82
532.267	7754.12
532.632	7775.81
532.998	7739.2
533.364	7824.4
533.73	7781.91
534.095	7875.24
534.461	7838.64
534.826	7891.74
535.192	7895.36
535.557	7974.45
535.923	7884.51
536.288	7934.68
536.653	7963.6
537.019	7926.54
537.384	7958.86
537.749	7984.62
538.114	7959.31
538.479	8025.3
538.845	8021.91
539.21	8019.42
539.575	8028.91
539.94	8022.13
540.305	8121.11
540.67	8037.5
541.034	8054.45
541.399	8097.39
541.764	8138.51
542.129	8083.15
542.494	8111.85
542.858	8060.1
543.223	8085.63
543.587	8162.92
543.952	8098.52
544.316	8166.76
544.681	8177.61
545.045	8186.2
545.41	8237.95
545.774	8188.68
546.138	8226.2
546.503	8217.83
546.867	8236.59
547.231	8296.48
547.595	8326.31
547.959	8288.12
548.324	8264.39
548.688	8233.65
549.052	8301.67
549.416	8338.74
549.779	8293.54
550.143	8307.55
550.507	8315.01
550.871	8332.41
551.235	8305.29
551.599	8349.36
551.962	8449.24
552.326	8402.91
552.689	8422.8
553.053	8395.46
553.417	8414.67
553.78	8548.45
554.143	8442.69
554.507	8453.53
554.87	8456.47
555.234	8521.33
555.597	8571.27
555.96	8595.23
556.323	8561.78
556.686	8518.84
557.05	8617.82
557.413	8618.05
557.776	8632.51
558.139	8707.31
558.502	8715.67
558.865	8669.8
559.228	8760.19
559.59	8705.96
559.953	8779.4
560.316	8819.4
560.679	8802.45
561.041	8908.89
561.404	8918.38
561.767	8974.43
562.129	8909.12
562.492	8952.73
562.854	8940.75
563.217	9017.81
563.579	8973.75
563.941	9062.11
564.304	9145.04
564.666	9120.86
565.028	9157.92
565.39	9167.19
565.753	9215.55
566.115	9210.35
566.477	9255.1
566.839	9242.67
567.201	9327.41
567.563	9331.25
567.925	9365.6
568.287	9389.33
568.648	9376.45
569.01	9459.16
569.372	9518.14
569.734	9503.45
570.095	9540.06
570.457	9585.93
570.819	9584.8
571.18	9582.54
571.542	9670.68
571.903	9610.11
572.265	9705.03
572.626	9718.13
572.987	9776.21
573.349	9806.95
573.71	9818.02
574.071	9824.57
574.432	9914.74
574.794	9918.13
575.155	9930.33
575.516	9960.39
575.877	10023.89
576.238	9989.99
576.599	10064.57
576.96	10039.26
577.32	10064.11
577.681	10208.29
578.042	10198.8
578.403	10138.24
578.763	10198.35
579.124	10259.36
579.485	10246.48
579.845	10375.07
580.206	10349.76
580.566	10300.04
580.927	10420.94
581.287	10407.38
581.648	10399.02
582.008	10520.6
582.368	10498.68
582.728	10575.06
583.089	10512.01
583.449	10560.82
583.809	10580.71
584.169	10621.84
584.529	10621.61
584.889	10733.47
585.249	10664.78
585.609	10708.16
585.969	10728.96
586.329	10702.29
586.688	10840.59
587.048	10752.01
587.408	10809.18
587.768	10818.9
588.127	10836.97
588.487	10876.97
588.846	10956.07
589.206	10850.76
589.565	10891.66
589.925	11023.86
590.284	10990.19
590.643	11066.8
591.003	11054.82
591.362	11075.84
591.721	11044.65
592.08	11078.78
592.44	11163.07
592.799	11195.84
593.158	11180.92
593.517	11121.04
593.876	11267.7
594.235	11239.68
594.593	11213.46
594.952	11221.6
595.311	11228.15
595.67	11359.9
596.029	11343.18
596.387	11388.37
596.746	11406.68
597.104	11380.46
597.463	11418.88
597.822	11438.09
598.18	11387.69
598.538	11420.69
598.897	11529.16
599.255	11428.82
599.613	11558.76
599.972	11480.57
600.33	11549.27
600.688	11471.31
601.046	11579.55
601.404	11610.29
601.762	11567.35
602.12	11561.48
602.478	11617.29
602.836	11632.89
603.194	11608.25
603.552	11605.32
603.91	11587.69
604.268	11617.29
604.625	11594.24
604.983	11657.97
605.341	11606.9
605.698	11666.56
606.056	11792.88
606.413	11755.37
606.771	11764.18
607.128	11782.49
607.485	11719.44
607.843	11774.13
608.2	11814.35
608.557	11823.39
608.914	11840.79
609.272	11883.28
609.629	11831.07
609.986	11986.78
610.343	11871.3
610.7	11919.88
611.057	11878.98
611.414	11900.22
611.771	11870.17
612.127	11942.93
612.484	11907.46
612.841	12002.82
613.198	11993.1
613.554	11971.41
613.911	12005.98
614.267	12015.93
614.624	11993.55
614.98	11955.14
615.337	12042.14
615.693	12038.75
616.05	12007.34
616.406	12094.79
616.762	12078.75
617.118	12089.6
617.475	12035.14
617.831	12038.75
618.187	12203.49
618.543	12119.88
618.899	12179.09
619.255	12165.75
619.611	12092.99
619.967	12196.26
620.323	12234
620.678	12182.25
621.034	12169.37
621.39	12179.54
621.746	12145.42
622.101	12348.57
622.457	12189.71
622.812	12158.3
623.168	12190.16
623.523	12156.26
623.879	12287.56
624.234	12167.34
624.589	12239.2
624.945	12232.64
625.3	12318.07
625.655	12256.37
626.01	12279.65
626.365	12217.05
626.72	12225.64
627.075	12201.23
627.43	12146.09
627.785	12177.05
628.14	12197.84
628.495	12085.98
628.85	12191.74
629.205	12110.84
629.559	12187.67
629.914	12078.75
630.269	12114
630.623	12106.32
630.978	12078.3
631.332	12181.57
631.687	12103.38
632.041	12057.06
632.396	12020.9
632.75	12037.17
633.104	12018.64
633.459	12029.71
633.813	11970.05
634.167	11960.34
634.521	11962.37
634.875	11921.01
635.229	12006.66
635.583	11907
635.937	11873.11
636.291	11848.47
636.645	11871.3
636.999	11867.68
637.352	11863.39
637.706	11820.45
638.06	11815.93
638.413	11808.25
638.767	11775.71
639.121	11799.89
639.474	11762.83
639.828	11753.11
640.181	11765.99
640.534	11758.76
640.888	11777.06
641.241	11710.4
641.594	11667.91
641.947	11612.55
642.301	11707.91
642.654	11735.71
643.007	11662.94
643.36	11683.73
643.713	11615.26
644.066	11645.09
644.419	11624.3
644.771	11514.92
645.124	11463.4
645.477	11386.79
645.83	11339.33
646.182	11329.62
646.535	11288.94
646.888	11263.86
647.24	11216.4
647.593	11258.21
647.945	11253.24
648.298	11263.18
648.65	11202.16
649.002	11131.66
649.355	11223.41
649.707	11266.34
650.059	11211.88
650.411	11431.76
650.763	11478.09
651.115	11573
651.467	11556.73
651.819	11424.3
652.171	11535.94
652.523	11449.84
652.875	11434.47
653.227	11435.6
653.578	11396.28
653.93	11443.06
654.282	11390.41
654.633	11420.91
654.985	11354.25
655.337	11424.53
655.688	11464.08
656.039	11523.28
656.391	11457.52
656.742	11363.06
657.094	11372.55
657.445	11400.58
657.796	11394.93
658.147	11365.77
658.498	11369.62
658.849	11371.2
659.2	11334.81
659.551	11427.24
659.902	11362.61
660.253	11363.29
660.604	11427.92
660.955	11344.08
661.306	11445.55
661.656	11371.65
662.007	11521.7
662.358	11426.11
662.708	11468.6
663.059	11388.15
663.409	11358.32
663.76	11441.25
664.11	11388.37
664.461	11473.57
664.811	11430.63
665.161	11407.81
665.511	11399.9
665.862	11408.26
666.212	11462.72
666.562	11479.9
666.912	11438.77
667.262	11400.8
667.612	11459.78
667.962	11478.31
668.312	11472.21
668.662	11528.03
669.011	11369.39
669.361	11432.89
669.711	11393.8
670.06	11335.49
670.41	11313.12
670.76	11408.03
671.109	11351.31
671.459	11441.93
671.808	11321.71
672.157	11336.4
672.507	11298.66
672.856	11308.83
673.205	11333.23
673.554	11276.51
673.904	11251.2
674.253	11341.82
674.602	11293.23
674.951	11077.42
675.3	11072.22
675.649	11257.53
675.998	11226.12
676.346	11262.73
676.695	11258.21
677.044	11175.5
677.393	11126.68
677.741	11206.23
678.09	11202.62
678.438	11088.95
678.787	11148.83
679.135	11122.62
679.484	11010.53
679.832	11093.24
680.181	11070.64
680.529	11058.21
680.877	11076.52
681.225	10933.24
681.573	11151.77
681.922	10968.95
682.27	10918.33
682.618	11046.91
682.966	10948.38
683.314	10980.25
683.661	10870.42
684.009	10849.4
684.357	10835.39
684.705	10824.32
685.053	10777.32
685.4	10854.6
685.748	10773.25
686.095	10823.19
686.443	10644.89
686.79	10608.28
687.138	10642.86
687.485	10658.9
687.832	10645.34
688.18	10640.14
688.527	10556.3
688.874	10532.35
689.221	10547.27
689.568	10491.22
689.915	10451.9
690.262	10521.5
690.609	10450.32
690.956	10344.78
691.303	10340.49
691.65	10300.04
691.997	10300.72
692.344	10199.25
692.69	10211.23
693.037	10256.43
693.383	10135.52
693.73	10081.51
694.077	9999.48
694.423	10091.68
694.769	10043.78
695.116	10040.16
695.462	9960.16
695.808	9900.05
696.155	10013.04
696.501	9891.92
696.847	9958.58
697.193	9797.45
697.539	9851.69
697.885	9695.76
698.231	9732.6
698.577	9773.5
698.923	9693.28
699.269	9675.2
699.614	9597.01
699.96	9537.8
700.306	9562.66
700.651	9520.4
700.997	9436.33
701.342	9441.76
701.688	9465.03
702.033	9432.27
702.379	9437.92
702.724	9336.45
703.069	9388.88
703.415	9231.59
703.76	9308.43
704.105	9232.95
704.45	9121.99
704.795	9120.41
705.14	9160.18
705.485	9090.81
705.83	9121.09
706.175	9096.46
706.52	9046.97
706.865	8996.12
707.209	8938.95
707.554	8959.06
707.899	8994.31
708.243	8885.16
708.588	8889.68
708.932	8834.99
709.277	8841.32
709.621	8886.74
709.966	8789.8
710.31	8797.93
710.654	8665.73
710.998	8661.44
711.342	8772.4
711.687	8611.04
712.031	8625.28
712.375	8663.02
712.719	8554.1
713.063	8599.75
713.407	8589.12
713.75	8573.98
714.094	8560.42
714.438	8517.26
714.782	8530.82
715.125	8522.23
715.469	8500.77
715.812	8455.57
716.156	8395.68
716.499	8471.16
716.843	8484.95
717.186	8433.65
717.53	8495.34
717.873	8424.38
718.216	8424.38
718.559	8342.13
718.902	8303.93
719.246	8377.38
719.589	8325.85
719.932	8186.65
720.275	8239.08
720.617	8299.87
720.96	8309.81
721.303	8255.8
721.646	8226.87
721.989	8209.25
722.331	8191.85
722.674	8209.02
723.016	8234.33
723.359	8192.3
723.701	8169.02
724.044	8170.6
724.386	8142.36
724.729	8162.24
725.071	8129.93
725.413	8189.81
725.755	8119.53
726.097	8132.41
726.439	8074.79
726.782	8035.24
727.124	8118.4
727.465	8077.5
727.807	8114.33
728.149	8094.67
728.491	8008.8
728.833	8058.74
729.175	8032.3
729.516	8109.14
729.858	8022.81
730.199	8052.19
730.541	7991.63
730.882	8020.33
731.224	8035.47
731.565	7975.58
731.906	7988.46
732.248	8042.47
732.589	8001.8
732.93	7963.38
733.271	7987.56
733.612	7983.49
733.953	8064.39
734.294	7995.24
734.635	7912.76
734.976	8010.38
735.317	7983.72
735.658	7920.22
735.999	7960.21
736.339	7987.78
736.68	7945.75
737.021	7969.25
737.361	7927.9
737.702	7968.8
738.042	7959.31
738.383	7969.93
738.723	7962.47
739.063	7903.94
739.404	7978.97
739.744	7964.51
740.084	7952.98
740.424	7997.5
740.764	7999.76
741.104	8067.1
741.444	8025.07
741.784	7989.59
742.124	8073.43
742.464	8018.74
742.804	8009.7
743.143	8022.36
743.483	8044.28
743.823	8014.45
744.162	8093.32
744.502	8089.02
744.841	8162.02
745.181	8152.3
745.52	8175.8
745.86	8190.72
746.199	8191.62
746.538	8245.63
746.877	8291.05
747.216	8324.27
747.556	8321.56
747.895	8415.8
748.234	8351.62
748.573	8458.51
748.911	8567.2
749.25	8548.9
749.589	8555.9
749.928	8690.14
750.267	8691.27
750.605	8699.18
750.944	8771.27
751.283	8822.34
751.621	8945.5
751.96	8987.53
752.298	9027.53
752.636	9103.91
752.975	9179.17
753.313	9214.64
753.651	9346.39
753.989	9415.32
754.327	9488.76
754.666	9534.18
755.004	9752.26
755.342	9867.96
755.679	9868.64
756.017	9969.65
756.355	10146.37
756.693	10299.36
757.031	10417.32
757.368	10393.6
757.706	10529.19
758.044	10710.42
758.381	10867.03
758.719	11008.27
759.056	11191.32
759.394	11272.44
759.731	11363.06
760.068	11498.43
760.405	11593.11
760.743	11706.56
761.08	11991.07
761.417	12071.97
761.754	12175.47
762.091	12352.19
762.428	12523.03
762.765	12540.88
763.102	12783.59
763.438	12909.24
763.775	13037.14
764.112	13238.72
764.449	13480.75
764.785	13532.95
765.122	13609.11
765.458	13714.41
765.795	13845.48
766.131	13976.33
766.467	14208.19
766.804	14245.25
767.14	14384.9
767.476	14616.08
767.812	14757.55
768.148	14861.28
768.485	14871.67
768.821	15024.21
769.157	15119.57
769.492	15324.99
769.828	15434.37
770.164	15444.54
770.5	15517.76
770.836	15697.64
771.171	15782.38
771.507	15837.07
771.842	15928.59
772.178	15992.09
772.513	16051.98
772.849	16260.11
773.184	16291.97
773.519	16401.35
773.855	16391.86
774.19	16444.29
774.525	16567.45
774.86	16672.53
775.195	16679.31
775.53	16743.71
775.865	16913.88
776.2	16754.56
776.535	16771.51
776.87	16901.9
777.205	16948.68
777.539	17030.71
777.874	17048.56
778.209	17019.19
778.543	17028.68
778.878	17042.24
779.212	17086.3
779.547	17144.15
779.881	17223.93
780.215	17233.42
780.55	17288.1
780.884	17236.35
781.218	17335.56
781.552	17350.7
781.886	17349.57
782.22	17240.42
782.554	17302.34
782.888	17203.81
783.222	17269.8
783.556	17189.58
783.889	17189.12
784.223	17131.27
784.557	17065.74
784.89	17251.5
785.224	17147.54
785.557	17202.91
785.891	17171.5
786.224	17109.35
786.558	17151.16
786.891	17059.41
787.224	17020.32
787.557	16997.49
787.891	16996.59
788.224	16982.12
788.557	17064.61
788.89	17098.28
789.223	17083.36
789.556	17017.38
789.888	17013.54
790.221	16906.65
790.554	16902.8
790.887	16903.93
791.219	16837.95
791.552	16828.46
791.884	16764.95
792.217	16774.45
792.549	16698.97
792.882	16620.1
793.214	16671.4
793.546	16737.61
793.879	16574.45
794.211	16447.22
794.543	16552.53
794.875	16497.84
795.207	16709.36
795.539	16442.03
795.871	16458.3
796.203	16386.66
796.535	16309.37
796.867	16358.86
797.198	16339.88
797.53	16268.7
797.862	16278.87
798.193	16296.04
798.525	16168.81
798.856	16139.66
799.188	16025.77
799.519	15980.57
799.85	15963.39
800.182	16020.34
800.513	15875.03
800.844	15842.72
801.175	15907.12
801.506	15817.63
801.837	15849.95
802.168	15757.75
802.499	15786.45
802.83	15660.58
803.161	15634.36
803.491	15627.81
803.822	15695.38
804.153	15546.91
804.483	15447.7
804.814	15414.93
805.145	15376.52
805.475	15429.4
805.805	15350.75
806.136	15361.15
806.466	15368.83
806.796	15289.97
807.126	15207.48
807.457	15204.32
807.787	15115.05
808.117	15108.5
808.447	15146.24
808.777	15200.25
809.107	15052.46
809.436	15074.83
809.766	15091.78
810.096	14927.26
810.426	14910.99
810.755	14909.64
811.085	14920.03
811.414	14849.3
811.744	14785.12
812.073	14762.52
812.403	14743.31
812.732	14738.57
813.061	14732.47
813.39	14569.31
813.719	14578.8
814.049	14687.5
814.378	14586.03
814.707	14529.53
815.036	14562.98
815.365	14535.41
815.693	14295.64
816.022	14387.84
816.351	14369.54
816.68	14268.75
817.008	14371.35
817.337	14274.17
817.665	14254.51
817.994	14300.84
818.322	14253.38
818.651	14131.58
818.979	14199.82
819.307	14245.02
819.636	14186.72
819.964	14045.48
820.292	14118.02
820.62	14215.42
820.948	14074.18
821.276	14132.03
821.604	14046.38
821.932	14084.8
822.259	14026.72
822.587	13983.11
822.915	14028.08
823.243	14066.49
823.57	13996.67
823.898	14045.25
824.225	13982.88
824.553	14025.14
824.88	14050.22
825.207	14035.53
825.535	14036.89
825.862	14156.21
826.189	13979.27
826.516	14042.99
826.843	14142.2
827.17	14119.83
827.497	14176.55
827.824	14111.69
828.151	14097.68
828.478	14081.64
828.805	14218.58
829.131	14109.43
829.458	14174.74
829.785	14022.88
830.111	14140.62
830.438	14123.22
830.764	14154.4
831.09	14065.36
831.417	14075.31
831.743	14140.39
832.069	14160.73
832.395	13915.99
832.722	14050.9
833.048	13997.34
833.374	14028.98
833.7	14082.31
834.026	14071.24
834.351	13913.5
834.677	13979.27
835.003	14033.05
835.329	13983.56
835.654	13912.15
835.98	13817.46
836.306	13899.04
836.631	13816.33
836.956	13890
837.282	13833.96
837.607	13706.05
837.932	13805.48
838.258	13802.55
838.583	13763.9
838.908	13638.26
839.233	13685.26
839.558	13710.35
839.883	13662.21
840.208	13591.93
840.533	13584.02
840.858	13583.8
841.182	13576.56
841.507	13516.9
841.832	13528.88
842.156	13441.88
842.481	13591.25
842.805	13420.64
843.13	13402.33
843.454	13445.27
843.778	13278.04
844.103	13299.96
844.427	13244.6
844.751	13319.17
845.075	13165.5
845.399	13210.92
845.723	13068.78
846.047	13155.56
846.371	13064.49
846.695	13042.34
847.019	12903.81
847.343	12860.2
847.666	12784.72
847.99	12763.93
848.313	12858.62
848.637	12597.61
848.96	12673.99
849.284	12617.27
849.607	12486.42
849.931	12524.84
850.254	12386.54
850.577	12364.62
850.9	12305.64
851.223	12290.27
851.546	12276.49
851.869	12149.03
852.192	12224.28
852.515	12044.4
852.838	12038.75
853.161	12064.51
853.483	12045.08
853.806	11896.61
854.129	11929.83
854.451	11873.78
854.774	11789.72
855.096	11783.16
855.419	11676.5
855.741	11738.65
856.063	11674.02
856.385	11597.18
856.708	11596.73
857.03	11514.02
857.352	11520.12
857.674	11482.61
857.996	11465.66
858.318	11362.61
858.64	11408.26
858.961	11382.27
859.283	11408.26
859.605	11287.81
859.926	11288.94
860.248	11266.57
860.57	11169.4
860.891	11226.34
861.212	11184.08
861.534	11067.03
861.855	11057.31
862.176	11129.17
862.498	11084.43
862.819	11124.88
863.14	11021.6
863.461	11029.74
863.782	10935.05
864.103	10965.79
864.424	11007.14
864.745	11000.81
865.065	10858.67
865.386	10810.53
865.707	10858.9
866.027	10802.4
866.348	10923.75
866.668	10877.43
866.989	10797.88
867.309	10722.85
867.63	10784.55
867.95	10801.95
868.27	10675.85
868.59	10708.39
868.91	10694.15
869.23	10651.44
869.55	10575.06
869.87	10683.08
870.19	10604.21
870.51	10590.65
870.83	10684.21
871.15	10532.58
871.469	10488.51
871.789	10618.45
872.109	10530.09
872.428	10521.5
872.748	10523.76
873.067	10397.44
873.386	10426.36
873.706	10474.05
874.025	10451
874.344	10365.8
874.663	10424.56
874.982	10375.97
875.301	10298.68
875.62	10333.71
875.939	10312.02
876.258	10352.02
876.577	10257.1
876.896	10248.74
877.214	10237.89
877.533	10236.99
877.852	10297.55
878.17	10149.76
878.489	10198.35
878.807	10190.89
879.125	10107.28
879.444	10185.24
879.762	10078.35
880.08	10093.72
880.398	10085.13
880.716	10163.55
881.034	10054.4
881.352	10046.49
881.67	10002.87
881.988	9976.43
882.306	9893.04
882.624	9889.2
882.941	9917.9
883.259	9862.54
883.577	9850.11
883.894	9773.5
884.212	9828.87
884.529	9776.44
884.846	9768.98
885.164	9759.04
885.481	9711.81
885.798	9715.2
886.115	9576.44
886.432	9639.72
886.75	9668.64
887.067	9575.99
887.383	9583
887.7	9589.78
888.017	9556.1
888.334	9476.33
888.651	9495.32
888.967	9476.33
889.284	9427.97
889.6	9384.58
889.917	9334.42
890.233	9355.66
890.55	9252.16
890.866	9364.25
891.182	9346.17
891.498	9264.13
891.815	9217.13
892.131	9219.62
892.447	9178.71
892.763	9121.31
893.079	9149.79
893.395	9133.29
893.71	9043.12
894.026	9045.38
894.342	9009
894.657	9004.48
894.973	8916.57
895.289	8884.48
895.604	8959.96
895.92	8849.91
896.235	8823.47
896.55	8784.6
896.865	8781.89
897.181	8736.69
897.496	8645.85
897.811	8636.81
898.126	8667.54
898.441	8629.35
898.756	8593.64
899.071	8506.64
899.386	8477.26
899.7	8371.05
900.015	8466.64
900.33	8386.64
900.644	8370.6
900.959	8358.85
901.273	8338.96
901.588	8285.86
901.902	8215.12
902.216	8232.98
902.531	8146.2
902.845	8135.35
903.159	8071.85
903.473	8146.42
903.787	8049.03
904.101	8035.69
904.415	7984.62
904.729	7948.01
905.042	7926.32
905.356	7869.6
905.67	7861.46
905.984	7842.7
906.297	7862.82
906.611	7737.17
906.924	7773.78
907.237	7807.68
907.551	7687.68
907.864	7654.46
908.177	7688.36
908.491	7597.51
908.804	7594.57
909.117	7523.84
909.43	7511.86
909.743	7469.61
910.056	7403.17
910.368	7471.87
910.681	7437.74
910.994	7371.3
911.307	7303.51
911.619	7226.45
911.932	7261.02
912.244	7256.28
912.557	7174.92
912.869	7195.04
913.181	7198.65
913.494	7176.96
913.806	7081.82
914.118	7046.79
914.43	7013.57
914.742	7040.92
915.054	6980.81
915.366	6945.78
915.678	6915.95
915.99	6868.72
916.302	6810.19
916.613	6820.13
916.925	6808.15
917.236	6817.87
917.548	6743.75
917.859	6728.38
918.171	6666.92
918.482	6684.54
918.794	6581.72
919.105	6590.08
919.416	6560.48
919.727	6593.47
920.038	6541.27
920.349	6504.66
920.66	6473.02
920.971	6481.38
921.282	6420.59
921.593	6412.91
921.903	6361.61
922.214	6368.39
922.525	6332.91
922.835	6280.26
923.146	6279.81
923.456	6214.72
923.767	6254.04
924.077	6154.16
924.387	6149.64
924.697	6155.74
925.008	6112.13
925.318	6114.84
925.628	6053.15
925.938	6067.83
926.248	5936.54
926.558	6000.04
926.867	5998.68
927.177	5955.52
927.487	5950.1
927.796	5881.4
928.106	5893.83
928.416	5861.29
928.725	5838.69
929.034	5806.37
929.344	5741.97
929.653	5843.66
929.962	5745.58
930.271	5678.01
930.581	5674.17
930.89	5695.42
931.199	5676.88
931.508	5611.12
931.817	5588.75
932.125	5603.21
932.434	5607.28
932.743	5525.48
933.051	5520.28
933.36	5503.56
933.669	5437.34
933.977	5398.02
934.286	5392.82
934.594	5396.44
934.902	5359.83
935.21	5364.35
935.519	5329.1
935.827	5348.53
936.135	5281.87
936.443	5249.78
936.751	5219.27
937.059	5238.7
937.367	5199.61
937.674	5169.33
937.982	5152.38
938.29	5147.41
938.597	5184.69
938.905	5077.58
939.213	5069.22
939.52	5049.56
939.827	5085.04
940.135	5037.13
940.442	5028.31
940.749	4973.85
941.056	4968.65
941.363	4902.44
941.67	4911.93
941.977	4865.61
942.284	4862.44
942.591	4821.31
942.898	4805.27
943.205	4792.16
943.511	4763.91
943.818	4751.94
944.125	4744.48
944.431	4685.5
944.738	4669.45
945.044	4663.8
945.35	4689.34
945.657	4629
945.963	4584.48
946.269	4617.93
946.575	4577.48
946.881	4522.11
947.187	4496.8
947.493	4557.82
947.799	4484.83
948.105	4393.53
948.41	4434.43
948.716	4462
949.022	4454.54
949.327	4440.08
949.633	4373.19
949.938	4375
950.244	4358.05
950.549	4320.54
950.854	4273.31
951.16	4297.71
951.465	4250.26
951.77	4205.96
952.075	4222.23
952.38	4234.44
952.685	4187.43
952.99	4146.53
953.294	4137.04
953.599	4162.35
953.904	4119.86
954.209	4063.14
954.513	4092.97
954.818	4055.01
955.122	4039.41
955.426	4062.24
955.731	4029.47
956.035	3988.12
956.339	3965.97
956.643	3984.73
956.948	3905.86
957.252	3928
957.556	3926.87
957.86	3880.55
958.163	3880.55
958.467	3873.09
958.771	3850.04
959.075	3836.48
959.378	3818.4
959.682	3831.74
959.985	3822.7
960.289	3771.62
960.592	3750.16
960.896	3712.87
961.199	3731.4
961.502	3742.25
961.805	3676.26
962.108	3656.6
962.411	3631.06
962.714	3648.69
963.017	3653.89
963.32	3614.57
963.623	3610.5
963.926	3614.11
964.228	3542.7
964.531	3518.75
964.833	3553.1
965.136	3459.09
965.438	3501.8
965.741	3493.67
966.043	3438.3
966.345	3462.93
966.648	3454.8
966.95	3426.32
967.252	3430.39
967.554	3359.21
967.856	3393.55
968.158	3372.09
968.46	3360.11
968.761	3331.86
969.063	3319.88
969.365	3287.79
969.666	3313.1
969.968	3275.82
970.269	3292.54
970.571	3278.3
970.872	3243.5
971.174	3236.27
971.475	3191.07
971.776	3205.99
972.077	3166.44
972.378	3152.43
972.679	3170.74
972.98	3111.98
973.281	3151.75
973.582	3126.22
973.883	3107.46
974.183	3110.4
974.484	3105.88
974.785	3090.74
975.085	3069.04
975.386	3024.98
975.686	3011.42
975.986	2972.32
976.287	3014.58
976.587	2964.41
976.887	2983.4
977.187	2956.96
977.487	2953.57
977.787	2944.98
978.087	2921.25
978.387	2904.08
978.687	2900.69
978.987	2863.63
979.286	2883.29
979.586	2863.63
979.885	2837.41
980.185	2822.04
980.484	2782.95
980.784	2806.23
981.083	2798.77
981.382	2759
981.682	2782.72
981.981	2782.05
982.28	2764.19
982.579	2749.05
982.878	2709.28
983.177	2664.08
983.475	2699.11
983.774	2645.78
984.073	2645.1
984.372	2639.22
984.67	2615.72
984.969	2657.08
985.267	2617.08
985.566	2569.85
985.864	2620.24
986.162	2559.68
986.461	2569.17
986.759	2551.77
987.057	2526.46
987.355	2543.86
987.653	2506.12
987.951	2496.86
988.249	2507.25
988.547	2468.83
988.844	2456.4
989.142	2495.73
989.44	2442.62
989.737	2464.99
990.035	2417.08
990.332	2411.66
990.63	2396.52
990.927	2395.84
991.224	2367.37
991.521	2361.49
991.819	2362.17
992.116	2333.02
992.413	2355.16
992.71	2316.07
993.006	2300.48
993.303	2336.63
993.6	2305.9
993.897	2309.29
994.193	2270.87
994.49	2233.59
994.787	2239.23
995.083	2229.52
995.379	2208.28
995.676	2245.34
995.972	2227.48
996.268	2216.18
996.565	2193.13
996.861	2185.68
997.157	2179.8
997.453	2193.59
997.749	2164.66
998.044	2116.53
998.34	2132.8
998.636	2111.78
998.932	2086.47
999.227	2110.42
999.523	2117.2
999.818	2074.72
1000.114	2049.64
1000.409	2023.42
1000.704	2035.62
1001	2028.17
1001.295	2001.5
1001.59	2018.45
1001.885	2004.66
1002.18	1985.46
1002.475	1981.39
1002.77	1997.66
1003.065	1948.85
1003.359	1941.16
1003.654	1947.04
1003.949	1891.67
1004.243	1912.69
1004.538	1907.94
1004.832	1860.71
1005.127	1891.22
1005.421	1897.77
1005.715	1848.96
1006.009	1863.2
1006.304	1829.75
1006.598	1803.77
1006.892	1812.81
1007.186	1805.57
1007.48	1766.25
1007.773	1776.2
1008.067	1775.52
1008.361	1751.11
1008.655	1755.86
1008.948	1730.32
1009.242	1757.67
1009.535	1718.57
1009.829	1704.11
1010.122	1687.84
1010.415	1695.75
1010.708	1668.4
1011.001	1664.56
1011.295	1649.65
1011.588	1652.81
1011.881	1627.5
1012.173	1659.36
1012.466	1606.03
1012.759	1604
1013.052	1612.36
1013.344	1638.8
1013.637	1573.72
1013.93	1578.46
1014.222	1548.63
1014.514	1571.46
1014.807	1536.2
1015.099	1544.11
1015.391	1538.69
1015.683	1510.44
1015.976	1500.05
1016.268	1511.57
1016.56	1479.71
1016.851	1486.49
1017.143	1465.02
1017.435	1481.51
1017.727	1465.02
1018.018	1452.14
1018.31	1445.13
1018.602	1428.63
1018.893	1399.26
1019.185	1413.95
1019.476	1377.34
1019.767	1389.31
1020.058	1408.52
1020.35	1405.81
1020.641	1385.25
1020.932	1363.78
1021.223	1359.03
1021.514	1341.18
1021.804	1317.45
1022.095	1321.74
1022.386	1304.34
1022.677	1297.79
1022.967	1284.23
1023.258	1300.05
1023.548	1302.31
1023.839	1309.99
1024.129	1267.74
1024.419	1244.23
1024.709	1251.46
1025	1250.56
1025.29	1237.68
1025.58	1230.9
1025.87	1207.17
1026.16	1201.97
1026.449	1215.08
1026.739	1211.47
1027.029	1195.65
1027.319	1204.23
1027.608	1185.48
1027.898	1180.51
1028.187	1163.78
1028.477	1152.03
1028.766	1130.79
1029.055	1149.32
1029.344	1153.16
1029.634	1100.51
1029.923	1132.82
1030.212	1112.48
1030.501	1080.62
1030.79	1105.03
1031.078	1100.06
1031.367	1046.05
1031.656	1067.97
1031.945	1080.62
1032.233	1061.86
1032.522	1065.03
1032.81	1040.62
1033.099	1051.24
1033.387	1042.88
1033.675	1023
1033.963	1006.5
1034.251	999.27
1034.54	1001.98
1034.828	1002.21
1035.116	997.23
1035.403	996.78
1035.691	977.57
1035.979	980.06
1036.267	984.35
1036.554	984.58
1036.842	955.65
1037.129	966.27
1037.417	949.1
1037.704	940.96
1037.992	929.44
1038.279	936.22
1038.566	939.38
1038.853	939.38
1039.14	939.38
