Data from hue_260_FLMS001491_00002.txt Node
Date: Tue Feb 07 15:58:28 GMT 2017
User: dcchb
Spectrometer: FLMS00149
Trigger mode: 0
Integration Time (sec): 2.000000E-2
Scans to average: 10
Electric dark correction enabled: true
Nonlinearity correction enabled: false
Boxcar width: 0
XAxis mode: Wavelengths
Number of Pixels in Spectrum: 2048
>>>>>Begin Spectral Data<<<<<
341.393	-2.91
341.776	-2.91
342.16	-2.91
342.543	-46.3
342.927	-49.24
343.31	-56.02
343.693	-82.23
344.077	-62.12
344.46	-79.97
344.843	-52.85
345.226	-52.85
345.61	-13.98
345.993	-19.86
346.376	-13.08
346.759	8.39
347.142	33.25
347.525	57.88
347.908	76.64
348.291	67.15
348.674	86.13
349.057	103.53
349.44	120.93
349.823	132
350.206	158.67
350.588	191.21
350.971	208.16
351.354	214.26
351.737	250.19
352.119	233.69
352.502	240.93
352.884	268.72
353.267	275.5
353.65	279.34
354.032	270.98
354.414	299.46
354.797	311.66
355.179	313.69
355.562	305.56
355.944	327.03
356.326	323.86
356.709	327.93
357.091	311.43
357.473	327.25
357.855	320.25
358.238	347.59
358.62	318.89
359.002	322.28
359.384	351.21
359.766	328.38
360.148	347.59
360.53	345.33
360.912	326.57
361.294	322.96
361.676	316.86
362.057	315.73
362.439	348.72
362.821	318.44
363.203	305.1
363.584	321.38
363.966	315.5
364.348	320.7
364.729	317.76
365.111	303.3
365.493	315.5
365.874	335.39
366.256	309.4
366.637	323.41
367.019	320.92
367.4	296.07
367.781	314.82
368.163	287.7
368.544	298.55
368.925	318.89
369.306	309.85
369.688	304.65
370.069	297.65
370.45	289.96
370.831	316.63
371.212	324.99
371.593	306.01
371.974	300.13
372.355	322.28
372.736	327.7
373.117	324.77
373.498	300.36
373.879	305.1
374.26	313.01
374.641	311.88
375.021	311.43
375.402	316.63
375.783	338.1
376.163	326.57
376.544	310.98
376.925	318.66
377.305	331.09
377.686	326.57
378.066	319.57
378.447	345.56
378.827	321.15
379.208	342.17
379.588	331.77
379.968	342.17
380.349	333.58
380.729	324.31
381.109	323.86
381.489	329.96
381.87	346.23
382.25	310.75
382.63	339.23
383.01	334.48
383.39	355.95
383.77	334.71
384.15	343.3
384.53	339.45
384.91	334.03
385.29	332.45
385.67	336.52
386.049	343.97
386.429	353.24
386.809	355.95
387.189	374.48
387.568	336.97
387.948	368.38
388.328	366.12
388.707	358.21
389.087	363.86
389.466	385.55
389.846	365.89
390.225	354.82
390.605	371.32
390.984	379.23
391.363	369.96
391.743	368.61
392.122	364.09
392.501	368.83
392.881	360.7
393.26	378.78
393.639	381.71
394.018	381.94
394.397	400.24
394.776	388.04
395.155	398.44
395.534	377.87
395.913	389.85
396.292	381.94
396.671	400.02
397.05	415.16
397.429	410.64
397.808	391.66
398.186	387.14
398.565	420.13
398.944	408.15
399.323	407.25
399.701	402.28
400.08	406.12
400.458	407.7
400.837	424.88
401.215	424.42
401.594	419.45
401.972	439.79
402.351	441.37
402.729	427.59
403.107	447.7
403.486	427.59
403.864	457.87
404.242	448.6
404.62	459.68
404.999	457.64
405.377	457.19
405.755	467.81
406.133	484.08
406.511	459.9
406.889	482.5
407.267	483.63
407.645	466
408.023	498.09
408.401	513.91
408.779	502.84
409.156	502.84
409.534	534.25
409.912	529.05
410.29	527.7
410.667	520.69
411.045	533.12
411.422	538.32
411.8	538.77
412.178	557.53
412.555	555.27
412.933	554.82
413.31	588.04
413.687	576.51
414.065	605.89
414.442	615.61
414.819	610.41
415.197	626.9
415.574	639.79
415.951	649.5
416.328	608.83
416.705	635.72
417.082	640.46
417.46	659.45
417.837	647.92
418.214	662.38
418.591	676.39
418.967	704.42
419.344	691.31
419.721	693.8
420.098	719.78
420.475	736.05
420.852	702.38
421.228	742.61
421.605	753.45
421.982	761.82
422.358	764.98
422.735	770.4
423.111	770.4
423.488	800.46
423.864	815.37
424.241	819.89
424.617	821.48
424.994	816.96
425.37	849.95
425.746	829.61
426.123	858.08
426.499	888.59
426.875	887.24
427.251	914.13
427.627	908.25
428.003	915.71
428.379	904.64
428.756	961.13
429.132	976.05
429.507	966.78
429.883	988.02
430.259	982.15
430.635	1011.53
431.011	1006.1
431.387	1035.26
431.763	1026.44
432.138	1057.63
432.514	1072.54
432.89	1066.21
433.265	1083.39
433.641	1151.64
434.016	1099.89
434.392	1148.25
434.767	1165.65
435.143	1160.22
435.518	1191.64
435.894	1216.27
436.269	1215.59
436.644	1259.88
437.02	1240.9
437.395	1275.93
437.77	1303.5
438.145	1299.43
438.52	1321.12
438.895	1358.41
439.271	1353.44
439.646	1407.45
440.021	1376.04
440.395	1438.41
440.77	1408.8
441.145	1455.58
441.52	1489.48
441.895	1471.85
442.27	1453.55
442.645	1505.53
443.019	1526.54
443.394	1519.99
443.769	1555.47
444.143	1538.74
444.518	1590.04
444.892	1572.19
445.267	1564.28
445.641	1594.11
446.016	1578.29
446.39	1636.6
446.764	1620.55
447.139	1637.95
447.513	1653.32
447.887	1631.85
448.262	1673.88
448.636	1682.92
449.01	1682.02
449.384	1719.98
449.758	1726.76
450.132	1759.98
450.506	1742.36
450.88	1742.81
451.254	1776.03
451.628	1770.6
452.002	1789.81
452.376	1782.81
452.75	1857.83
453.123	1849.25
453.497	1898.28
453.871	1875.01
454.244	1934.44
454.618	1921.11
454.992	1900.09
455.365	1988.45
455.739	1991.16
456.112	2020.09
456.486	2042.01
456.859	2046.98
457.232	2082.46
457.606	2072.97
457.979	2129.46
458.352	2149.58
458.725	2154.1
459.099	2155.45
459.472	2202
459.845	2203.81
460.218	2256.01
460.591	2286.3
460.964	2251.04
461.337	2324.94
461.71	2351.6
462.083	2365.84
462.456	2431.15
462.829	2395.9
463.201	2426.18
463.574	2426.63
463.947	2492.39
464.32	2523.35
464.692	2547.76
465.065	2554.99
465.438	2583.24
465.81	2633.63
466.183	2647.19
466.555	2681.09
466.928	2689.22
467.3	2693.29
467.672	2736.45
468.045	2756.79
468.417	2804.02
468.789	2830.69
469.161	2865.04
469.534	2904.81
469.906	2971.7
470.278	2948.43
470.65	2998.59
471.022	3064.13
471.394	3072.04
471.766	3136.44
472.138	3143
472.51	3224.58
472.882	3227.29
473.253	3258.25
473.625	3351.8
473.997	3388.64
474.369	3402.2
474.74	3454.85
475.112	3488.98
475.484	3581.18
475.855	3601.74
476.227	3615.3
476.598	3702.76
476.97	3700.27
477.341	3778.91
477.713	3808.97
478.084	3870.89
478.455	3921.73
478.827	3961.96
479.198	4051.45
479.569	4086.7
479.94	4174.16
480.311	4196.98
480.682	4311.78
481.053	4316.52
481.424	4373.02
481.795	4460.02
482.166	4475.62
482.537	4572.56
482.908	4645.56
483.279	4674.93
483.65	4742.28
484.021	4879.22
484.391	4848.26
484.762	4908.6
485.133	4907.24
485.503	4982.27
485.874	5101.59
486.244	5127.58
486.615	5254.81
486.985	5254.13
487.356	5380.68
487.726	5365.08
488.097	5499.54
488.467	5515.59
488.837	5598.75
489.207	5642.59
489.578	5691.63
489.948	5749.26
490.318	5779.99
490.688	5831.74
491.058	5884.62
491.428	6007.33
491.798	5999.42
492.168	6136.14
492.538	6155.8
492.908	6165.06
493.278	6252.75
493.648	6292.29
494.017	6268.11
494.387	6415.23
494.757	6435.34
495.126	6436.92
495.496	6449.35
495.866	6515.79
496.235	6608.44
496.605	6634.43
496.974	6617.93
497.344	6684.15
497.713	6698.61
498.082	6746.29
498.452	6806.85
498.821	6866.51
499.19	6855.89
499.559	6906.29
499.928	6938.38
500.298	7014.08
500.667	7020.41
501.036	7015.44
501.405	7065.38
501.774	7038.71
502.143	7088.43
502.512	7109.45
502.88	7171.37
503.249	7170.91
503.618	7229.67
503.987	7227.18
504.356	7259.5
504.724	7266.28
505.093	7238.03
505.462	7370.68
505.83	7383.11
506.199	7374.07
506.567	7465.14
506.936	7422.66
507.304	7538.36
507.672	7514.63
508.041	7523.67
508.409	7628.98
508.777	7606.61
509.145	7650
509.514	7659.49
509.882	7697.45
510.25	7767.51
510.618	7748.98
510.986	7694.29
511.354	7772.48
511.722	7893.83
512.09	7881.85
512.458	7817.9
512.826	7891.57
513.193	7858.58
513.561	7891.12
513.929	7952.81
514.297	8025.81
514.664	8047.5
515.032	8026.48
515.4	8083.88
515.767	8025.58
516.135	8130.44
516.502	7983.1
516.869	8092.47
517.237	8132.7
517.604	8117.33
517.972	8254.5
518.339	8136.99
518.706	8218.8
519.073	8283.88
519.44	8317.32
519.808	8283.2
520.175	8299.7
520.542	8334.72
520.909	8348.51
521.276	8315.74
521.643	8362.07
522.009	8470.77
522.376	8421.28
522.743	8493.14
523.11	8483.65
523.477	8559.35
523.843	8617.2
524.21	8590.31
524.577	8650.42
524.943	8613.36
525.31	8680.7
525.676	8703.3
526.043	8736.07
526.409	8706.69
526.776	8820.14
527.142	8720.93
527.508	8748.05
527.874	8901.49
528.241	8874.6
528.607	8844.09
528.973	8920.92
529.339	8880.7
529.705	8868.5
530.071	8886.12
530.437	8947.14
530.803	8991.66
531.169	9013.58
531.535	8962.05
531.901	8928.61
532.267	8968.15
532.632	8995.5
532.998	8990.98
533.364	9041.82
533.73	9017.87
534.095	9100.35
534.461	9078.66
534.826	9045.67
535.192	9076.85
535.557	9145.55
535.923	9066.68
536.288	9149.39
536.653	9040.24
537.019	8941.49
537.384	9049.28
537.749	9108.72
538.114	9073.46
538.479	9022.39
538.845	9120.24
539.21	9027.81
539.575	9070.75
539.94	9056.97
540.305	9097.19
540.67	9076.63
541.034	9044.08
541.399	9075.27
541.764	9003.63
542.129	9068.94
542.494	9042.05
542.858	9041.6
543.223	9073.01
543.587	9104.2
543.952	9040.69
544.316	9077.76
544.681	9044.99
545.045	9043.63
545.41	9094.03
545.774	9006.8
546.138	9024.2
546.503	9054.25
546.867	9025.33
547.231	9037.3
547.595	9078.43
547.959	9054.03
548.324	9047.47
548.688	9011.09
549.052	9116.62
549.416	9034.82
549.779	9022.62
550.143	9024.65
550.507	8995.95
550.871	8996.63
551.235	9042.73
551.599	8985.1
551.962	8996.18
552.326	9026.23
552.689	9054.48
553.053	8991.43
553.417	9010.19
553.78	9154.59
554.143	8992.11
554.507	9069.85
554.87	9016.06
555.234	9089.28
555.597	9066.46
555.96	9065.55
556.323	9038.89
556.686	9041.37
557.05	9055.16
557.413	9053.12
557.776	9023.97
558.139	9128.38
558.502	9129.05
558.865	9080.92
559.228	9134.48
559.59	9133.57
559.953	9159.79
560.316	9192.55
560.679	9202.95
561.041	9195.72
561.404	9216.96
561.767	9291.08
562.129	9235.94
562.492	9345.09
562.854	9336.28
563.217	9266.45
563.579	9330.86
563.941	9293.8
564.304	9361.14
564.666	9377.41
565.028	9372.21
565.39	9395.04
565.753	9469.16
566.115	9477.52
566.477	9545.31
566.839	9489.27
567.201	9603.39
567.563	9534.92
567.925	9635.03
568.287	9598.42
568.648	9668.02
569.01	9627.35
569.372	9653.33
569.734	9658.31
570.095	9726.1
570.457	9751.18
570.819	9821.46
571.18	9836.15
571.542	9776.04
571.903	9832.31
572.265	9823.5
572.626	9906.89
572.987	9981.23
573.349	9953.44
573.71	10014.45
574.071	9969.71
574.432	10026.88
574.794	10066.66
575.155	10108.69
575.516	10018.97
575.877	10091.51
576.238	10134.68
576.599	10114.56
576.96	10101.23
577.32	10167.44
577.681	10205.41
578.042	10284.5
578.403	10249.25
578.763	10201.57
579.124	10247.89
579.485	10262.13
579.845	10278.85
580.206	10368.34
580.566	10303.49
580.927	10356.82
581.287	10444.95
581.648	10483.14
582.008	10491.5
582.368	10413.31
582.728	10493.31
583.089	10489.7
583.449	10439.08
583.809	10498.06
584.169	10577.83
584.529	10557.94
584.889	10547.55
585.249	10591.84
585.609	10607.43
585.969	10654.66
586.329	10597.04
586.688	10638.39
587.048	10649.01
587.408	10638.39
587.768	10608.79
588.127	10707.09
588.487	10689.01
588.846	10750.03
589.206	10709.8
589.565	10729.69
589.925	10795
590.284	10714.1
590.643	10827.31
591.003	10837.03
591.362	10841.55
591.721	10816.92
592.08	10813.08
592.44	10930.14
592.799	10906.86
593.158	10857.82
593.517	10943.02
593.876	10834.77
594.235	10875.22
594.593	10924.94
594.952	10924.49
595.311	10878.84
595.67	11029.79
596.029	11093.52
596.387	11031.38
596.746	11094.88
597.104	10980.76
597.463	11004.71
597.822	11042.45
598.18	11033.41
598.538	10968.1
598.897	11066.18
599.255	10964.94
599.613	11156.57
599.972	11030.47
600.33	11072.96
600.688	11066.18
601.046	11103.24
601.404	11077.7
601.762	11149.11
602.12	11190.69
602.478	11096.46
602.836	11118.38
603.194	11088.32
603.552	11093.3
603.91	11089.23
604.268	11159.96
604.625	11181.88
604.983	11206.51
605.341	11123.58
605.698	11190.02
606.056	11233.63
606.413	11190.02
606.771	11217.81
607.128	11230.02
607.485	11216.23
607.843	11185.95
608.2	11270.01
608.557	11271.37
608.914	11286.74
609.272	11415.32
609.629	11326.28
609.986	11394.53
610.343	11362.44
610.7	11467.07
611.057	11399.95
611.414	11461.2
611.771	11372.38
612.127	11437.02
612.484	11353.18
612.841	11414.87
613.198	11467.3
613.554	11348.2
613.911	11449.44
614.267	11438.15
614.624	11469.11
614.98	11494.19
615.337	11610.8
615.693	11501.19
616.05	11519.73
616.406	11567.41
616.762	11532.15
617.118	11528.31
617.475	11462.33
617.831	11531.02
618.187	11542.1
618.543	11557.69
618.899	11559.72
619.255	11587.52
619.611	11531.02
619.967	11562.44
620.323	11665.48
620.678	11562.44
621.034	11545.26
621.39	11550.23
621.746	11554.98
622.101	11660.74
622.457	11575.32
622.812	11633.39
623.168	11651.47
623.523	11623.45
623.879	11667.97
624.234	11583.68
624.589	11700.06
624.945	11680.85
625.3	11645.37
625.655	11586.16
626.01	11590.23
626.365	11713.84
626.72	11617.35
627.075	11651.25
627.43	11623.9
627.785	11547.52
628.14	11677.91
628.495	11625.94
628.85	11620.29
629.205	11461.65
629.559	11539.16
629.914	11511.14
630.269	11554.07
630.623	11544.58
630.978	11497.58
631.332	11437.92
631.687	11551.81
632.041	11432.72
632.396	11563.57
632.75	11447.86
633.104	11425.72
633.459	11391.14
633.813	11404.47
634.167	11309.11
634.521	11419.61
634.875	11359.5
635.229	11348.2
635.583	11387.75
635.937	11354.08
636.291	11305.49
636.645	11346.85
636.999	11332.16
637.352	11372.16
637.706	11252.61
638.06	11267.98
638.413	11253.29
638.767	11299.84
639.121	11175.55
639.474	11208.1
639.828	11125.61
640.181	11216.68
640.534	11161.99
640.888	11117.02
641.241	11127.87
641.594	11110.92
641.947	11174.2
642.301	11138.04
642.654	11152.73
643.007	11094.43
643.36	11106.18
643.713	11145.27
644.066	11145.5
644.419	11087.19
644.771	11029.34
645.124	10952.51
645.477	10979.17
645.83	10869.57
646.182	10755.68
646.535	10739.63
646.888	10730.14
647.24	10718.16
647.593	10735.11
647.945	10736.24
648.298	10641.78
648.65	10673.87
649.002	10601.78
649.355	10756.58
649.707	10695.79
650.059	10795.68
650.411	10960.64
650.763	10827.77
651.115	10942.11
651.467	10880.65
651.819	10918.39
652.171	10842.91
652.523	10805.62
652.875	10862.79
653.227	10882.23
653.578	10941.21
653.93	10888.33
654.282	10884.49
654.633	10842.23
654.985	10844.71
655.337	10839.74
655.688	10830.03
656.039	10878.16
656.391	10783.93
656.742	10903.7
657.094	10890.36
657.445	10851.72
657.796	10877.71
658.147	10842.68
658.498	10870.48
658.849	10910.25
659.2	10884.94
659.551	10840.42
659.902	10826.86
660.253	10839.29
660.604	10844.26
660.955	10832.96
661.306	10912.06
661.656	10917.71
662.007	10957.71
662.358	10865.51
662.708	10914.54
663.059	10918.39
663.409	10869.12
663.76	10912.96
664.11	10936.24
664.461	10972.62
664.811	10923.81
665.161	10979.85
665.511	10853.53
665.862	10844.49
666.212	10967.88
666.562	10964.03
666.912	10869.8
667.262	10923.58
667.612	10901.89
667.962	10900.76
668.312	10966.07
668.662	10957.93
669.011	10878.16
669.361	10915.9
669.711	10832.51
670.06	10814.89
670.41	10850.14
670.76	10759.29
671.109	10858.27
671.459	10793.42
671.808	10811.5
672.157	10899.85
672.507	10740.76
672.856	10767.2
673.205	10810.59
673.554	10821.44
673.904	10761.33
674.253	10813.76
674.602	10768.33
674.951	10673.87
675.3	10557.94
675.649	10747.32
675.998	10676.58
676.346	10708.67
676.695	10782.8
677.044	10639.07
677.393	10638.84
677.741	10691.05
678.09	10644.72
678.438	10585.29
678.787	10642.69
679.135	10618.96
679.484	10515.46
679.832	10650.82
680.181	10543.93
680.529	10513.42
680.877	10491.5
681.225	10454.44
681.573	10536.47
681.922	10443.37
682.27	10407.44
682.618	10406.53
682.966	10455.12
683.314	10343.71
683.661	10425.74
684.009	10339.64
684.357	10328.34
684.705	10366.54
685.053	10347.78
685.4	10290.15
685.748	10245.18
686.095	10256.03
686.443	10219.19
686.79	10212.42
687.138	10208.57
687.485	10205.18
687.832	10158.63
688.18	10205.41
688.527	10101.46
688.874	10087.67
689.221	9970.61
689.568	10023.72
689.915	9959.77
690.262	9979.88
690.609	9887.9
690.956	9924.97
691.303	9907.11
691.65	9805.42
691.997	9762.26
692.344	9778.53
692.69	9706.67
693.037	9704.18
693.383	9693.78
693.73	9687.23
694.077	9628.93
694.423	9632.32
694.769	9539.89
695.116	9528.59
695.462	9506.9
695.808	9512.32
696.155	9480
696.501	9405.2
696.847	9437.07
697.193	9373.12
697.539	9376.28
697.885	9282.04
698.231	9266.23
698.577	9241.14
698.923	9187.36
699.269	9131.09
699.614	9130.86
699.96	9095.83
700.306	9111.2
700.651	9061.94
700.997	8981.49
701.342	9016.06
701.688	8961.6
702.033	8915.73
702.379	8900.81
702.724	8870.08
703.069	8928.61
703.415	8844.77
703.76	8775.84
704.105	8793.7
704.45	8732
704.795	8686.35
705.14	8746.69
705.485	8676.18
705.83	8599.58
706.175	8618.78
706.52	8543.08
706.865	8571.78
707.209	8590.31
707.554	8520.93
707.899	8491.78
708.243	8430.54
708.588	8428.06
708.932	8379.92
709.277	8346.7
709.621	8379.47
709.966	8362.97
710.31	8312.13
710.654	8285.46
710.998	8246.82
711.342	8266.03
711.687	8247.5
712.031	8185.12
712.375	8183.99
712.719	8214.73
713.063	8150.77
713.407	8198.91
713.75	8136.99
714.094	8129.08
714.438	8166.59
714.782	8136.99
715.125	8104
715.469	8051.12
715.812	8095.18
716.156	7988.07
716.499	8021.06
716.843	8004.79
717.186	7916.66
717.53	7984.45
717.873	7975.41
718.216	7991.46
718.559	7934.51
718.902	7865.36
719.246	7927.28
719.589	7885.92
719.932	7840.73
720.275	7812.25
720.617	7884.34
720.96	7881.63
721.303	7893.38
721.646	7871.23
721.989	7804.57
722.331	7849.54
722.674	7876.88
723.016	7821.29
723.359	7784.68
723.701	7794.17
724.044	7746.27
724.386	7758.24
724.729	7802.99
725.071	7813.38
725.413	7753.27
725.755	7773.38
726.097	7653.16
726.439	7665.82
726.782	7728.86
727.124	7707.4
727.465	7685.25
727.807	7677.57
728.149	7607.06
728.491	7675.76
728.833	7698.81
729.175	7647.06
729.516	7558.25
729.858	7607.74
730.199	7670.79
730.541	7630.79
730.882	7599.83
731.224	7668.3
731.565	7598.25
731.906	7618.81
732.248	7607.51
732.589	7537.46
732.93	7532.71
733.271	7630.11
733.612	7546.95
733.953	7585.37
734.294	7589.89
734.635	7487.51
734.976	7603.22
735.317	7537.91
735.658	7554.41
735.999	7488.42
736.339	7555.76
736.68	7591.69
737.021	7570.22
737.361	7605.7
737.702	7575.42
738.042	7565.93
738.383	7544.24
738.723	7567.29
739.063	7574.29
739.404	7539.04
739.744	7586.72
740.084	7508.98
740.424	7622.43
740.764	7571.58
741.104	7653.84
741.444	7651.35
741.784	7658.36
742.124	7638.7
742.464	7616.55
742.804	7687.28
743.143	7612.26
743.483	7674.63
743.823	7713.27
744.162	7703.78
744.502	7727.06
744.841	7711.01
745.181	7793.95
745.52	7740.84
745.86	7831.01
746.199	7862.65
746.538	7885.92
746.877	7979.93
747.216	7983.77
747.556	7953.72
747.895	7983.55
748.234	7975.86
748.573	8051.34
748.911	8131.57
749.25	8202.52
749.589	8191.45
749.928	8231.9
750.267	8315.52
750.605	8395.74
750.944	8378.11
751.283	8401.62
751.621	8498.79
751.96	8562.74
752.298	8677.99
752.636	8724.77
752.975	8767.26
753.313	8859.91
753.651	8980.81
753.989	8997.98
754.327	9073.69
754.666	9098.32
755.004	9269.16
755.342	9389.39
755.679	9512.09
756.017	9542.6
756.355	9716.83
756.693	9819.88
757.031	9830.96
757.368	9948.92
757.706	10037.96
758.044	10130.61
758.381	10289.93
758.719	10417.83
759.056	10533.31
759.394	10649.24
759.731	10695.34
760.068	10944.6
760.405	11020.3
760.743	11161.77
761.08	11271.6
761.417	11323.57
761.754	11471.59
762.091	11684.47
762.428	11723.79
762.765	11820.28
763.102	12051.69
763.438	12149.09
763.775	12159.26
764.112	12362.42
764.449	12512.92
764.785	12695.29
765.122	12684.89
765.458	12826.58
765.795	12973.7
766.131	13151.32
766.467	13201.26
766.804	13336.85
767.14	13330.53
767.476	13452.56
767.812	13562.38
768.148	13723.74
768.485	13743.85
768.821	13761.25
769.157	13959.89
769.492	14061.13
769.828	14152.88
770.164	14134.8
770.5	14245.53
770.836	14342.93
771.171	14339.76
771.507	14466.09
771.842	14452.3
772.178	14592.86
772.513	14575.01
772.849	14687.33
773.184	14671.51
773.519	14865.4
773.855	14839.64
774.19	14812.75
774.525	14843.93
774.86	14966.19
775.195	14982.01
775.53	15038.95
775.865	15030.59
776.2	15029.01
776.535	14933.87
776.87	15108.11
777.205	15023.81
777.539	15072.4
777.874	15087.77
778.209	15158.5
778.543	15233.07
778.878	15104.49
779.212	15242.34
779.547	15183.13
779.881	15307.87
780.215	15297.93
780.55	15352.62
780.884	15220.87
781.218	15189.91
781.552	15298.61
781.886	15239.4
782.22	15245.5
782.554	15178.39
782.888	15210.93
783.222	15104.26
783.556	15135.22
783.889	15117.37
784.223	15038.28
784.557	15164.38
784.89	15154.88
785.224	15143.81
785.557	15054.77
785.891	15176.13
786.224	15039.41
786.558	14966.41
786.891	14962.35
787.224	14961.67
787.557	14897.94
787.891	14931.39
788.224	14885.51
788.557	14953.99
788.89	14848.9
789.223	14951.73
789.556	14794.44
789.888	14875.8
790.221	14747.44
790.554	14618.4
790.887	14693.43
791.219	14658.4
791.552	14726.19
791.884	14756.7
792.217	14601.45
792.549	14641.9
792.882	14522.13
793.214	14558.52
793.546	14535.92
793.879	14462.02
794.211	14361.01
794.543	14466.31
794.875	14448.91
795.207	14469.25
795.539	14355.36
795.871	14375.02
796.203	14259.09
796.535	14194.91
796.867	14240.33
797.198	14201.24
797.53	14186.55
797.862	14116.27
798.193	14102.26
798.525	13985.88
798.856	14010.06
799.188	13877.86
799.519	13898.65
799.85	13813
800.182	13854.35
800.513	13862.94
800.844	13685.09
801.175	13802.83
801.506	13809.16
801.837	13722.38
802.168	13680.35
802.499	13700.91
802.83	13544.98
803.161	13520.12
803.491	13537.07
803.822	13529.39
804.153	13532.55
804.483	13435.83
804.814	13350.64
805.145	13425.66
805.475	13412.78
805.805	13299.79
806.136	13295.72
806.466	13293.24
806.796	13274.48
807.126	13216.18
807.457	13166.91
807.787	13154.26
808.117	13147.93
808.447	13084.2
808.777	13076.07
809.107	13065.45
809.436	12999.69
809.766	12964.21
810.096	12980.03
810.426	12927.15
810.755	12919.01
811.085	12900.48
811.414	12838.56
811.744	12799.01
812.073	12795.17
812.403	12735.51
812.732	12770.99
813.061	12732.35
813.39	12619.36
813.719	12617.55
814.049	12705.91
814.378	12579.36
814.707	12575.06
815.036	12607.38
815.365	12501.62
815.693	12362.87
816.022	12438.35
816.351	12356.31
816.68	12272.47
817.008	12418.23
817.337	12271.12
817.665	12265.02
817.994	12306.37
818.322	12215.98
818.651	12225.02
818.979	12206.26
819.307	12244.45
819.636	12275.64
819.964	12125.59
820.292	12224.11
820.62	12131.46
820.948	12135.3
821.276	12194.96
821.604	12196.77
821.932	12135.53
822.259	12213.27
822.587	12138.24
822.915	12152.93
823.243	12164.91
823.57	12138.47
823.898	12111.57
824.225	12104.57
824.553	12107.73
824.88	12147.96
825.207	12196.77
825.535	12080.39
825.862	12116.32
826.189	12034.06
826.516	12146.38
826.843	12223.21
827.17	12171.91
827.497	12121.07
827.824	12167.62
828.151	12220.27
828.478	12058.92
828.805	12136.21
829.131	12125.81
829.458	12073.84
829.785	12114.51
830.111	12118.13
830.438	12126.49
830.764	12091.46
831.09	12240.61
831.417	12156.09
831.743	12152.7
832.069	12075.64
832.395	12000.84
832.722	12161.06
833.048	12092.59
833.374	12095.3
833.7	12037
834.026	12097.79
834.351	12077.68
834.677	12007.17
835.003	12070.9
835.329	12059.6
835.654	11922.88
835.98	11939.6
836.306	11943.89
836.631	11888.3
836.956	11992.71
837.282	11956.55
837.607	11840.17
837.932	11897.79
838.258	11862.09
838.583	11914.74
838.908	11797.23
839.233	11806.95
839.558	11772.37
839.883	11804.01
840.208	11710.45
840.533	11663.22
840.858	11595.66
841.182	11726.73
841.507	11675.43
841.832	11624.36
842.156	11643.56
842.481	11641.08
842.805	11563.57
843.13	11580.74
843.454	11566.96
843.778	11512.04
844.103	11404.47
844.427	11379.84
844.751	11414.87
845.075	11383.91
845.399	11303.01
845.723	11287.64
846.047	11297.81
846.371	11223.46
846.695	11235.67
847.019	11116.35
847.343	11074.54
847.666	11068.66
847.99	10974.43
848.313	10985.73
848.637	10930.59
848.96	10884.71
849.284	10881.78
849.607	10823.47
849.931	10788.45
850.254	10723.59
850.577	10712.74
850.9	10574.89
851.223	10599.75
851.546	10571.28
851.869	10490.37
852.192	10530.82
852.515	10381.45
852.838	10444.95
853.161	10402.92
853.483	10317.27
853.806	10321.34
854.129	10289.02
854.451	10134.9
854.774	10217.61
855.096	10134.68
855.419	10180.1
855.741	10068.01
856.063	10059.88
856.385	10022.14
856.708	9952.08
857.03	10002.7
857.352	9994.57
857.674	9981.91
857.996	9861.92
858.318	9866.21
858.64	9868.02
858.961	9853.55
859.283	9728.13
859.605	9783.05
859.926	9748.47
860.248	9772.2
860.57	9681.81
860.891	9715.48
861.212	9643.39
861.534	9611.53
861.855	9519.78
862.176	9680.68
862.498	9568.82
862.819	9542.15
863.14	9493.11
863.461	9510.74
863.782	9522.49
864.103	9492.66
864.424	9420.12
864.745	9450.4
865.065	9427.13
865.386	9334.25
865.707	9367.24
866.027	9363.85
866.348	9343.06
866.668	9298.99
866.989	9331.31
867.309	9241.82
867.63	9293.57
867.95	9298.99
868.27	9221.71
868.59	9214.25
868.91	9204.98
869.23	9188.04
869.55	9117.98
869.87	9282.5
870.19	9178.32
870.51	9188.04
870.83	9165.89
871.15	9091.54
871.469	9075.5
871.789	9103.07
872.109	9064.42
872.428	9068.04
872.748	9068.49
873.067	9115.04
873.386	9116.17
873.706	8989.4
874.025	9002.5
874.344	8977.65
874.663	8960.02
874.982	8948.95
875.301	8925.9
875.62	8924.09
875.939	8861.49
876.258	8884.77
876.577	8847.93
876.896	8861.72
877.214	8867.14
877.533	8877.76
877.852	8823.53
878.17	8823.07
878.489	8833.02
878.807	8814.49
879.125	8742.17
879.444	8744.66
879.762	8802.51
880.08	8682.06
880.398	8663.76
880.716	8750.31
881.034	8667.6
881.352	8650.2
881.67	8630.99
881.988	8575.17
882.306	8586.92
882.624	8576.98
882.941	8531.33
883.259	8522.06
883.577	8517.77
883.894	8526.81
884.212	8549.63
884.529	8489.07
884.846	8459.01
885.164	8399.36
885.481	8460.14
885.798	8414.5
886.115	8402.29
886.432	8280.94
886.75	8318.91
887.067	8273.48
887.383	8312.8
887.7	8325.23
888.017	8228.29
888.334	8257.21
888.651	8245.46
888.967	8222.64
889.284	8131.11
889.6	8201.39
889.917	8080.04
890.233	8105.58
890.55	8097.22
890.866	8081.85
891.182	8032.59
891.498	7974.06
891.815	7995.52
892.131	7916.66
892.447	7917.79
892.763	7865.58
893.079	7897.22
893.395	7867.84
893.71	7832.14
894.026	7834.17
894.342	7770.67
894.657	7752.37
894.973	7718.02
895.289	7725.7
895.604	7731.8
895.92	7634.63
896.235	7616.33
896.55	7584.46
896.865	7578.59
897.181	7580.39
897.496	7532.49
897.811	7548.53
898.126	7450.23
898.441	7452.04
898.756	7446.39
899.071	7397.8
899.386	7362.55
899.7	7299.72
900.015	7299.05
900.33	7235.54
900.644	7258.37
900.959	7212.49
901.273	7189.67
901.588	7163.23
901.902	7165.26
902.216	7110.35
902.531	7097.24
902.845	7108.99
903.159	7042.78
903.473	7010.69
903.787	6979.51
904.101	6952.61
904.415	6993.97
904.729	6927.76
905.042	6874.2
905.356	6882.79
905.67	6873.29
905.984	6858.83
906.297	6818.61
906.611	6742.9
906.924	6774.99
907.237	6757.59
907.551	6751.04
907.864	6680.08
908.177	6696.8
908.491	6707.65
908.804	6628.1
909.117	6600.98
909.43	6546.07
909.743	6492.06
910.056	6482.57
910.368	6478.05
910.681	6366.41
910.994	6403.02
911.307	6416.36
911.619	6337.94
911.932	6352.86
912.244	6317.83
912.557	6330.71
912.869	6265.85
913.181	6234.67
913.494	6228.57
913.806	6183.82
914.118	6161.45
914.43	6161
914.742	6150.6
915.054	6094.78
915.366	6126.19
915.678	6025.41
915.99	6000.1
916.302	6023.82
916.613	5988.8
916.925	6013.2
917.236	5925.75
917.548	5889.36
917.859	5925.07
918.171	5810.5
918.482	5785.41
918.794	5812.53
919.105	5813.89
919.416	5748.8
919.727	5722.82
920.038	5728.92
920.349	5628.13
920.66	5665.42
920.971	5676.04
921.282	5663.61
921.593	5596.27
921.903	5598.53
922.214	5547.68
922.525	5524.18
922.835	5536.61
923.146	5451.64
923.456	5497.51
923.767	5460.45
924.077	5451.41
924.387	5380.9
924.697	5424.29
925.008	5324.41
925.318	5306.78
925.628	5333
925.938	5299.32
926.248	5257.97
926.558	5248.25
926.867	5210.96
927.177	5180.68
927.487	5169.84
927.796	5146.79
928.106	5167.35
928.416	5107.01
928.725	5071.53
929.034	5072.89
929.344	5087.35
929.653	4994.47
929.962	4996.51
930.271	4938.43
930.581	4966.68
930.89	4968.94
931.199	4871.09
931.508	4903.63
931.817	4929.39
932.125	4897.75
932.434	4888.26
932.743	4837.87
933.051	4782.95
933.36	4766.91
933.669	4735.72
933.977	4759
934.286	4731.2
934.594	4703.86
934.902	4675.16
935.21	4642.84
935.519	4674.71
935.827	4676.29
936.135	4648.04
936.443	4611.43
936.751	4618.44
937.059	4537.31
937.367	4531.43
937.674	4591.77
937.982	4511.77
938.29	4493.47
938.597	4483.53
938.905	4434.49
939.213	4479.68
939.52	4413.02
939.827	4436.75
940.135	4327.6
940.442	4342.74
940.749	4388.39
941.056	4346.81
941.363	4266.58
941.67	4302.74
941.977	4265.23
942.284	4246.24
942.591	4273.81
942.898	4240.82
943.205	4200.82
943.511	4190.43
943.818	4203.53
944.125	4134.83
944.431	4111.33
944.738	4112.91
945.044	4103.2
945.35	4037.44
945.657	4039.47
945.963	4024.33
946.269	4023.65
946.575	3993.37
946.881	3963.77
947.187	4022.97
947.493	3962.18
947.799	3909.08
948.105	3964.67
948.41	3886.93
948.716	3890.1
949.022	3889.42
949.327	3840.61
949.633	3876.31
949.938	3806.03
950.244	3798.8
950.549	3784.79
950.854	3789.99
951.16	3819.81
951.465	3767.16
951.77	3729.42
952.075	3731.91
952.38	3728.29
952.685	3679.93
952.99	3688.07
953.294	3649.88
953.599	3620.5
953.904	3592.7
954.209	3596.54
954.513	3610.55
954.818	3570.78
955.122	3581.4
955.426	3542.31
955.731	3495.98
956.035	3520.39
956.339	3494.17
956.643	3501.86
956.948	3470.67
957.252	3451.69
957.556	3468.41
957.86	3393.84
958.163	3428.41
958.467	3380.05
958.771	3409.2
959.075	3397.68
959.378	3339.6
959.682	3381.41
959.985	3347.74
960.289	3291.69
960.592	3310.45
960.896	3289.21
961.199	3260.73
961.502	3272.26
961.805	3230.68
962.108	3214.63
962.411	3207.18
962.714	3239.94
963.017	3186.39
963.32	3192.94
963.623	3153.17
963.926	3182.09
964.228	3125.6
964.531	3173.96
964.833	3107.29
965.136	3087.86
965.438	3065.48
965.741	3115.2
966.043	3038.14
966.345	3079.72
966.648	3024.58
966.95	3026.16
967.252	3004.02
967.554	3016.45
967.856	2978.48
968.158	3001.53
968.46	2941.87
968.761	2970.12
969.063	2916.34
969.365	2913.4
969.666	2913.85
969.968	2914.75
970.269	2884.7
970.571	2874.53
970.872	2881.53
971.174	2874.3
971.475	2837.47
971.776	2820.75
972.077	2768.54
972.378	2788.66
972.679	2790.69
972.98	2777.81
973.281	2727.19
973.582	2798.6
973.883	2716.79
974.183	2719.28
974.484	2710.47
974.785	2687.87
975.085	2701.65
975.386	2658.94
975.686	2681.54
975.986	2677.7
976.287	2662.56
976.587	2631.82
976.887	2625.95
977.187	2581.43
977.487	2616.91
977.787	2557.93
978.087	2552.96
978.387	2551.83
978.687	2540.3
978.987	2534.88
979.286	2506.63
979.586	2499.85
979.885	2531.71
980.185	2474.99
980.484	2527.65
980.784	2503.92
981.083	2477.93
981.382	2456.69
981.682	2462.56
981.981	2437.25
982.28	2416.01
982.579	2401.1
982.878	2397.03
983.177	2384.82
983.475	2391.83
983.774	2392.73
984.073	2351.38
984.372	2337.14
984.67	2314.32
984.969	2356.35
985.267	2297.59
985.566	2324.26
985.864	2279.52
986.162	2301.44
986.461	2260.53
986.759	2280.42
987.057	2230.48
987.355	2232.29
987.653	2226.86
987.951	2237.94
988.249	2234.09
988.547	2201.33
988.844	2173.3
989.142	2191.84
989.44	2186.86
989.737	2191.38
990.035	2149.12
990.332	2120.2
990.63	2132.18
990.927	2145.28
991.224	2107.09
991.521	2124.94
991.819	2098.05
992.116	2082.46
992.413	2097.37
992.71	2072.74
993.006	2043.59
993.303	2036.36
993.6	2075.23
993.897	2044.72
994.193	2042.01
994.49	2026.19
994.787	1983.48
995.083	2002.24
995.379	1977.6
995.676	1963.82
995.972	1995.68
996.268	1957.26
996.565	1959.3
996.861	1917.27
997.157	1949.13
997.453	1937.6
997.749	1907.55
998.044	1936.02
998.34	1917.72
998.636	1856.7
998.932	1862.8
999.227	1874.56
999.523	1854.22
999.818	1824.84
1000.114	1819.19
1000.409	1825.52
1000.704	1817.38
1001	1850.38
1001.295	1833.65
1001.59	1815.35
1001.885	1819.19
1002.18	1778.51
1002.475	1749.13
1002.77	1732.64
1003.065	1751.62
1003.359	1751.39
1003.654	1728.12
1003.949	1719.53
1004.243	1702.13
1004.538	1701.9
1004.832	1654
1005.127	1665.07
1005.421	1672.53
1005.715	1693.09
1006.009	1662.81
1006.304	1634.56
1006.598	1632.53
1006.892	1616.26
1007.186	1593.66
1007.48	1621
1007.773	1603.38
1008.067	1593.21
1008.361	1557.73
1008.655	1545.98
1008.948	1568.8
1009.242	1554.79
1009.535	1541.68
1009.829	1554.11
1010.122	1512.08
1010.415	1536.03
1010.708	1541.46
1011.001	1511.17
1011.295	1501.68
1011.588	1494.45
1011.881	1473.66
1012.173	1467.11
1012.466	1464.62
1012.759	1463.27
1013.052	1446.54
1013.344	1455.58
1013.637	1440.89
1013.93	1439.09
1014.222	1415.13
1014.514	1433.44
1014.807	1418.97
1015.099	1417.62
1015.391	1395.47
1015.683	1387.11
1015.976	1361.35
1016.268	1357.73
1016.56	1355.47
1016.851	1341.46
1017.143	1347.56
1017.435	1346.21
1017.727	1338.98
1018.018	1334.46
1018.31	1332.2
1018.602	1296.72
1018.893	1282.03
1019.185	1262.59
1019.476	1266.44
1019.767	1272.54
1020.058	1265.08
1020.35	1230.73
1020.641	1242.93
1020.932	1241.13
1021.223	1229.37
1021.514	1254.68
1021.804	1202.03
1022.095	1210.39
1022.386	1202.26
1022.677	1208.58
1022.967	1196.61
1023.258	1176.72
1023.548	1172.88
1023.839	1162.03
1024.129	1170.17
1024.419	1133.78
1024.709	1136.04
1025	1129.94
1025.29	1107.57
1025.58	1116.16
1025.87	1119.32
1026.16	1094.91
1026.449	1072.09
1026.739	1063.28
1027.029	1089.72
1027.319	1088.14
1027.608	1057.85
1027.898	1056.05
1028.187	1052.2
1028.477	1038.42
1028.766	1056.95
1029.055	1015.59
1029.344	1050.85
1029.634	1030.06
1029.923	1031.19
1030.212	1029.61
1030.501	1012.43
1030.79	985.77
1031.078	1007.91
1031.367	988.7
1031.656	985.54
1031.945	959.78
1032.233	975.82
1032.522	987.35
1032.81	963.17
1033.099	958.87
1033.387	949.61
1033.675	947.8
1033.963	935.82
1034.251	935.14
1034.54	933.34
1034.828	920.91
1035.116	915.48
1035.403	905.99
1035.691	904.41
1035.979	896.73
1036.267	898.54
1036.554	904.19
1036.842	910.51
1037.129	866.45
1037.417	862.15
1037.704	855.6
1037.992	852.44
1038.279	875.49
1038.566	870.97
1038.853	870.97
1039.14	870.97
